Time,PPG,IBI,GSR,GSR_Event
8738533,305.68,783,781,0
8738543,307.66,783,781,0
8738553,313.16,783,782,0
8738563,321.09,783,782,0
8738573,330.10,783,782,0
8738583,339.29,783,781,0
8738593,347.77,783,782,0
8738604,357.48,783,781,0
8738614,365.91,783,782,0
8738624,371.72,783,781,0
8738634,374.46,783,782,0
8738644,374.07,783,781,0
8738654,370.70,783,782,0
8738664,364.71,783,781,0
8738674,356.78,783,781,0
8738684,347.42,783,781,0
8738694,337.48,783,781,0
8738704,327.39,783,781,0
8738714,317.80,783,782,0
8738724,308.99,783,781,0
8738734,301.11,783,781,0
8738744,294.39,783,781,0
8738754,289.17,783,782,0
8738764,285.22,783,781,0
8738775,282.67,783,782,0
8738785,281.35,783,781,0
8738795,281.20,783,782,0
8738805,281.96,783,781,0
8738816,283.43,783,782,0
8738825,285.23,783,781,0
8738835,287.39,783,782,0
8738845,289.50,783,781,0
8738855,291.41,783,782,0
8738865,292.74,783,781,0
8738875,293.85,783,782,0
8738885,294.49,783,781,0
8738895,295.16,783,782,0
8738905,296.05,783,781,0
8738915,298.31,783,782,0
8738925,303.40,783,781,0
8738935,313.57,783,782,0
8738945,330.45,783,781,0
8738955,356.63,783,782,0
8738965,393.60,783,780,0
8738975,438.98,783,783,0
8738985,489.13,783,781,0
8738995,540.69,783,782,0
8739014,590.37,773,782,0
8739017,635.47,773,784,0
8739026,672.92,773,782,0
8739036,700.37,773,784,0
8739046,719.63,773,781,0
8739056,733.16,773,784,0
8739066,742.67,773,781,0
8739076,749.37,773,783,0
8739086,754.06,773,781,0
8739096,757.34,773,783,0
8739106,759.64,773,781,0
8739116,761.25,773,783,0
8739126,762.37,773,781,0
8739136,763.16,773,783,0
8739146,761.66,773,781,0
8739156,754.82,773,783,0
8739166,740.47,773,781,0
8739176,717.44,773,783,0
8739186,685.13,773,781,0
8739196,643.99,773,783,0
8739206,594.66,773,781,0
8739216,540.51,773,784,0
8739226,485.80,773,781,0
8739236,434.43,773,783,0
8739246,388.96,773,781,0
8739256,351.51,773,783,0
8739266,322.65,773,782,0
8739276,303.12,773,783,0
8739287,291.99,773,781,0
8739297,288.90,773,783,0
8739307,292.02,773,782,0
8739317,300.16,773,783,0
8739328,311.38,773,781,0
8739337,324.55,773,783,0
8739347,337.67,773,782,0
8739357,350.07,773,784,0
8739367,360.16,773,781,0
8739377,368.09,773,783,0
8739387,373.07,773,782,0
8739397,375.50,773,783,0
8739407,375.00,773,781,0
8739417,372.26,773,783,0
8739427,367.34,773,781,0
8739437,361.32,773,783,0
8739447,353.94,773,781,0
8739457,346.07,773,784,0
8739467,337.65,773,781,0
8739477,329.57,773,784,0
8739487,321.73,773,781,0
8739497,314.82,773,784,0
8739507,308.32,773,781,0
8739517,303.04,773,783,0
8739527,298.57,773,780,0
8739537,295.48,773,783,0
8739547,293.07,773,781,0
8739557,291.55,773,783,0
8739567,290.31,773,781,0
8739577,290.00,773,783,0
8739587,289.75,773,781,0
8739597,289.78,773,783,0
8739607,289.37,773,781,0
8739617,288.92,773,783,0
8739628,287.87,773,782,0
8739638,286.80,773,783,0
8739648,285.27,773,782,0
8739658,284.63,773,784,0
8739668,285.56,773,781,0
8739678,290.15,773,784,0
8739688,300.13,773,781,0
8739698,318.56,773,783,0
8739708,346.98,773,781,0
8739718,386.84,773,783,0
8739728,434.76,773,781,0
8739738,487.29,773,784,0
8739748,540.77,773,781,0
8739758,592.10,773,784,0
8739777,637.67,763,783,0
8739780,674.93,763,784,0
8739789,701.95,763,782,0
8739799,720.86,763,783,0
8739809,734.10,763,782,0
8739819,743.37,763,783,0
8739829,749.86,763,782,0
8739840,754.40,763,783,0
8739849,757.58,763,782,0
8739859,759.81,763,783,0
8739869,761.37,763,782,0
8739879,762.46,763,783,0
8739889,763.22,763,782,0
8739899,759.81,763,783,0
8739909,749.15,763,782,0
8739919,729.95,763,783,0
8739929,701.46,763,781,0
8739939,664.08,763,783,0
8739949,617.99,763,782,0
8739959,564.55,763,783,0
8739969,508.63,763,781,0
8739979,455.25,763,783,0
8739989,406.96,763,782,0
8739999,366.35,763,783,0
8740009,334.14,763,782,0
8740019,311.51,763,783,0
8740029,297.69,763,782,0
8740039,292.64,763,784,0
8740049,294.55,763,781,0
8740059,302.48,763,783,0
8740069,314.21,763,781,0
8740079,328.55,763,783,0
8740089,343.38,763,781,0
8740099,357.93,763,783,0
8740109,370.25,763,781,0
8740119,380.07,763,783,0
8740129,386.35,763,781,0
8740140,389.42,763,783,0
8740150,388.73,763,782,0
8740160,385.34,763,783,0
8740170,378.98,763,781,0
8740180,371.06,763,783,0
8740190,361.53,763,782,0
8740200,351.60,763,783,0
8740210,341.35,763,781,0
8740220,331.64,763,783,0
8740230,322.41,763,782,0
8740240,314.44,763,783,0
8740250,307.28,763,781,0
8740260,301.50,763,783,0
8740270,296.72,763,781,0
8740280,293.37,763,783,0
8740290,291.16,763,781,0
8740300,290.17,763,783,0
8740311,289.95,763,782,0
8740321,290.74,763,783,0
8740331,292.06,763,782,0
8740341,294.48,763,783,0
8740352,298.20,763,782,0
8740361,304.65,763,783,0
8740371,315.34,763,782,0
8740381,332.55,763,782,0
8740391,358.40,763,782,0
8740401,394.71,763,783,0
8740411,439.28,763,782,0
8740421,488.78,763,783,0
8740431,539.89,763,782,0
8740441,589.51,763,783,0
8740451,634.53,763,782,0
8740470,672.04,693,781,0
8740473,699.97,693,785,0
8740482,719.52,693,783,0
8740492,733.21,693,782,0
8740502,742.79,693,783,0
8740512,749.50,693,782,0
8740523,754.23,693,783,0
8740532,757.55,693,783,0
8740542,759.83,693,783,0
8740552,761.42,693,783,0
8740562,762.54,693,783,0
8740572,763.32,693,782,0
8740582,761.30,693,782,0
8740592,752.76,693,783,0
8740602,735.56,693,783,0
8740612,708.95,693,783,0
8740622,672.67,693,783,0
8740632,626.99,693,782,0
8740642,572.95,693,782,0
8740652,514.42,693,783,0
8740662,456.65,693,783,0
8740672,403.40,693,783,0
8740682,357.04,693,783,0
8740692,319.53,693,783,0
8740702,291.73,693,783,0
8740712,273.77,693,782,0
8740722,265.14,693,783,0
8740732,264.88,693,783,0
8740742,271.60,693,783,0
8740752,283.59,693,782,0
8740762,298.93,693,783,0
8740772,316.09,693,783,0
8740782,333.42,693,782,0
8740792,349.54,693,782,0
8740802,363.26,693,783,0
8740812,373.98,693,783,0
8740823,381.27,693,783,0
8740833,385.01,693,783,0
8740843,385.22,693,782,0
8740853,382.37,693,783,0
8740864,376.94,693,782,0
8740873,369.63,693,782,0
8740883,360.87,693,782,0
8740893,351.40,693,783,0
8740903,341.55,693,781,0
8740913,332.04,693,783,0
8740923,322.81,693,783,0
8740933,314.30,693,784,0
8740943,306.54,693,781,0
8740953,299.90,693,783,0
8740963,294.10,693,782,0
8740973,289.36,693,784,0
8740983,285.48,693,782,0
8740993,282.81,693,782,0
8741003,281.97,693,783,0
8741013,283.99,693,783,0
8741023,290.25,693,782,0
8741033,303.03,693,783,0
8741043,324.15,693,782,0
8741053,355.69,693,783,0
8741063,398.56,693,782,0
8741073,448.36,693,784,0
8741083,501.57,693,782,0
8741093,554.84,693,783,0
8741103,604.82,693,782,0
8741123,648.67,652,781,0
8741126,683.57,652,782,0
8741135,708.04,652,783,0
8741145,725.17,652,781,0
8741155,737.16,652,783,0
8741165,745.56,652,782,0
8741175,751.43,652,783,0
8741185,755.55,652,780,0
8741195,758.43,652,784,0
8741206,760.40,652,781,0
8741215,761.78,652,784,0
8741225,762.74,652,780,0
8741235,763.46,652,783,0
8741245,760.45,652,781,0
8741255,751.02,652,784,0
8741265,732.67,652,781,0
8741275,704.48,652,783,0
8741285,666.20,652,781,0
8741295,618.91,652,784,0
8741305,563.44,652,782,0
8741315,504.72,652,783,0
8741325,447.20,652,781,0
8741335,395.29,652,783,0
8741345,351.49,652,781,0
8741355,317.95,652,783,0
8741365,294.65,652,780,0
8741376,282.20,652,783,0
8741385,279.40,652,782,0
8741395,285.24,652,783,0
8741405,297.59,652,781,0
8741415,314.73,652,783,0
8741425,333.97,652,782,0
8741435,353.78,652,783,0
8741445,371.76,652,781,0
8741455,387.22,652,783,0
8741465,398.64,652,782,0
8741475,405.82,652,783,0
8741485,408.14,652,781,0
8741495,406.30,652,783,0
8741505,400.38,652,782,0
8741515,391.44,652,783,0
8741525,379.65,652,781,0
8741535,366.17,652,784,0
8741545,351.42,652,780,0
8741555,336.81,652,783,0
8741565,322.25,652,781,0
8741575,308.63,652,784,0
8741585,295.76,652,782,0
8741595,284.47,652,784,0
8741605,274.43,652,780,0
8741615,266.07,652,784,0
8741625,259.11,652,781,0
8741635,254.75,652,783,0
8741645,253.71,652,781,0
8741655,257.95,652,783,0
8741665,268.94,652,781,0
8741676,289.01,652,783,0
8741686,319.78,652,780,0
8741696,362.70,652,784,0
8741706,414.22,652,780,0
8741716,470.30,652,784,0
8741726,527.08,652,781,0
8741736,581.23,652,784,0
8741746,629.46,652,781,0
8741756,669.09,652,784,0
8741775,697.87,653,783,0
8741778,718.05,653,784,0
8741787,732.22,653,780,0
8741797,742.18,653,784,0
8741807,749.20,653,780,0
8741817,754.15,653,784,0
8741827,757.62,653,781,0
8741837,760.09,653,783,0
8741847,761.78,653,781,0
8741866,762.92,0,780,0
8741869,761.40,0,782,0
8741878,754.72,0,783,0
8741889,740.06,0,781,0
8741899,716.43,0,783,0
8741909,683.26,0,781,0
8741919,641.18,0,783,0
8741929,590.77,0,782,0
8741939,536.07,0,784,0
8741949,480.85,0,781,0
8741959,429.76,0,783,0
8741969,385.05,0,782,0
8741979,348.82,0,783,0
8741989,321.57,0,780,0
8741999,303.83,0,783,0
8742009,294.32,0,781,0
8742019,292.38,0,783,0
8742029,296.25,0,780,0
8742039,305.05,0,783,0
8742049,316.56,0,782,0
8742060,329.77,0,783,0
8742070,342.78,0,782,0
8742080,354.89,0,783,0
8742090,364.82,0,782,0
8742100,372.33,0,783,0
8742110,376.56,0,782,0
8742120,378.06,0,783,0
8742130,376.24,0,782,0
8742140,372.06,0,783,0
8742150,365.48,0,782,0
8742160,357.54,0,783,0
8742170,348.33,0,782,0
8742180,338.72,0,782,0
8742190,328.77,0,782,0
8742200,319.37,0,783,0
8742210,310.43,0,782,0
8742220,302.59,0,782,0
8742231,295.98,0,782,0
8742241,291.62,0,782,0
8742251,290.45,0,783,0
8742261,294.25,0,782,0
8742272,304.98,0,783,0
8742281,324.18,0,782,0
8742291,353.87,0,782,0
8742301,395.35,0,782,0
8742311,444.36,0,783,0
8742321,497.22,0,783,0
8742331,550.47,0,783,0
8742341,600.60,0,782,0
8742361,645.16,494,781,0
8742364,681.16,494,782,0
8742373,706.48,494,783,0
8742383,724.21,494,782,0
8742393,736.66,494,783,0
8742403,745.38,494,782,0
8742413,751.52,494,783,0
8742423,755.78,494,782,0
8742433,758.76,494,783,0
8742444,760.85,494,782,0
8742454,762.35,494,783,0
8742464,763.36,494,781,0
8742474,764.07,494,783,0
8742484,761.99,494,781,0
8742494,754.36,494,783,0
8742504,738.44,494,781,0
8742514,713.02,494,783,0
8742524,677.70,494,781,0
8742534,633.43,494,783,0
8742544,580.72,494,781,0
8742554,523.72,494,783,0
8742564,466.42,494,781,0
8742574,413.41,494,783,0
8742584,367.21,494,782,0
8742594,329.86,494,783,0
8742604,301.53,494,782,0
8742615,282.94,494,783,0
8742625,272.80,494,781,0
8742635,270.81,494,783,0
8742645,274.98,494,781,0
8742656,284.33,494,783,0
8742665,296.57,494,781,0
8742675,310.59,494,783,0
8742685,324.42,494,781,0
8742695,337.45,494,783,0
8742705,348.16,494,781,0
8742715,356.34,494,783,0
8742725,361.04,494,781,0
8742735,362.83,494,783,0
8742745,361.38,494,781,0
8742755,357.49,494,783,0
8742765,351.09,494,781,0
8742775,343.43,494,783,0
8742785,334.65,494,781,0
8742795,325.80,494,783,0
8742805,316.81,494,781,0
8742815,308.64,494,783,0
8742825,300.95,494,781,0
8742835,294.62,494,783,0
8742845,289.29,494,781,0
8742855,286.08,494,783,0
8742865,285.15,494,781,0
8742875,288.11,494,783,0
8742885,295.83,494,781,0
8742895,310.88,494,783,0
8742905,334.70,494,781,0
8742915,368.48,494,783,0
8742925,412.22,494,782,0
8742935,462.17,494,783,0
8742945,514.62,494,781,0
8742956,566.59,494,783,0
8742966,614.58,494,781,0
8742985,655.98,625,780,0
8742988,688.86,625,782,0
8742998,711.91,625,783,0
8743007,728.05,625,781,0
8743017,739.40,625,783,0
8743027,747.33,625,781,0
8743037,752.93,625,783,0
8743047,756.85,625,781,0
8743057,759.60,625,783,0
8743067,758.13,625,781,0
8743077,750.72,625,783,0
8743087,735.76,625,781,0
8743097,712.78,625,783,0
8743107,681.04,625,781,0
8743117,640.92,625,783,0
8743127,592.73,625,781,0
8743137,540.69,625,783,0
8743147,487.34,625,781,0
8743157,435.81,625,783,0
8743168,387.53,625,782,0
8743177,344.90,625,783,0
8743187,308.50,625,781,0
8743197,279.51,625,783,0
8743207,257.84,625,781,0
8743217,243.96,625,783,0
8743227,236.86,625,781,0
8743237,236.69,625,783,0
8743247,241.71,625,781,0
8743257,251.40,625,783,0
8743267,263.71,625,781,0
8743277,277.94,625,783,0
8743287,292.31,625,782,0
8743297,306.45,625,783,0
8743307,318.48,625,781,0
8743317,328.37,625,783,0
8743327,334.99,625,781,0
8743337,338.85,625,783,0
8743347,339.45,625,781,0
8743357,337.60,625,783,0
8743367,332.96,625,781,0
8743377,326.67,625,783,0
8743387,318.80,625,781,0
8743397,310.46,625,783,0
8743407,301.45,625,781,0
8743417,292.70,625,783,0
8743427,283.92,625,781,0
8743437,276.14,625,783,0
8743447,268.81,625,781,0
8743457,262.70,625,783,0
8743468,257.22,625,781,0
8743478,253.25,625,783,0
8743488,250.48,625,782,0
8743498,250.21,625,783,0
8743508,252.59,625,782,0
8743518,259.44,625,783,0
8743528,271.31,625,782,0
8743538,290.24,625,783,0
8743548,316.91,625,782,0
8743558,352.04,625,783,0
8743568,394.63,625,782,0
8743578,443.73,625,783,0
8743588,495.58,625,782,0
8743598,547.13,625,783,0
8743617,595.18,632,782,0
8743620,637.55,632,784,0
8743629,672.40,632,782,0
8743639,698.00,632,783,0
8743649,712.23,632,782,0
8743659,716.23,632,783,0
8743669,710.42,632,782,0
8743680,695.85,632,783,0
8743689,673.01,632,782,0
8743699,643.18,632,783,0
8743709,607.90,632,782,0
8743719,570.04,632,783,0
8743729,530.86,632,782,0
8743739,492.46,632,783,0
8743749,455.25,632,782,0
8743759,420.29,632,783,0
8743769,387.63,632,781,0
8743779,358.00,632,783,0
8743789,331.17,632,782,0
8743799,307.80,632,783,0
8743809,287.68,632,781,0
8743819,271.62,632,783,0
8743829,259.17,632,782,0
8743839,250.68,632,783,0
8743849,245.72,632,781,0
8743859,244.35,632,783,0
8743869,245.66,632,782,0
8743879,249.57,632,783,0
8743889,254.93,632,781,0
8743899,261.68,632,783,0
8743909,268.63,632,782,0
8743919,275.56,632,783,0
8743929,281.39,632,782,0
8743939,286.46,632,783,0
8743949,289.84,632,782,0
8743959,291.73,632,783,0
8743969,291.60,632,782,0
8743980,290.00,632,783,0
8743990,286.74,632,782,0
8744000,282.58,632,782,0
8744010,277.22,632,782,0
8744020,271.41,632,782,0
8744030,265.24,632,782,0
8744040,259.30,632,782,0
8744050,253.51,632,782,0
8744060,248.39,632,782,0
8744070,243.77,632,782,0
8744080,239.94,632,782,0
8744090,236.57,632,782,0
8744100,233.87,632,782,0
8744110,231.60,632,782,0
8744120,230.13,632,782,0
8744130,229.32,632,782,0
8744140,229.78,632,782,0
8744151,231.82,632,782,0
8744161,236.54,632,782,0
8744171,244.65,632,782,0
8744181,257.14,632,782,0
8744192,274.46,632,783,0
8744201,296.95,632,782,0
8744211,324.22,632,782,0
8744221,355.57,632,782,0
8744231,389.51,632,783,0
8744250,424.20,633,781,0
8744253,457.48,633,782,0
8744262,487.51,633,782,0
8744272,512.56,633,783,0
8744282,531.20,633,782,0
8744292,542.80,633,783,0
8744302,546.97,633,782,0
8744312,544.24,633,783,0
8744322,535.42,633,782,0
8744332,521.50,633,783,0
8744342,503.82,633,782,0
8744352,483.73,633,783,0
8744363,462.17,633,781,0
8744372,440.39,633,783,0
8744382,418.89,633,782,0
8744392,398.22,633,783,0
8744402,378.65,633,782,0
8744412,360.46,633,783,0
8744422,343.69,633,782,0
8744432,328.70,633,783,0
8744442,315.12,633,782,0
8744452,303.43,633,783,0
8744462,293.65,633,782,0
8744472,286.09,633,783,0
8744482,280.49,633,782,0
8744492,277.04,633,783,0
8744502,275.23,633,781,0
8744512,275.25,633,783,0
8744522,276.46,633,782,0
8744532,278.68,633,783,0
8744542,281.35,633,781,0
8744552,284.33,633,783,0
8744562,287.02,633,782,0
8744572,289.41,633,783,0
8744582,291.04,633,782,0
8744592,291.97,633,783,0
8744602,291.85,633,782,0
8744612,291.00,633,783,0
8744622,289.28,633,781,0
8744632,286.97,633,783,0
8744642,284.02,633,782,0
8744652,280.89,633,783,0
8744663,277.28,633,781,0
8744673,273.89,633,783,0
8744683,270.24,633,782,0
8744693,266.83,633,783,0
8744704,263.32,633,781,0
8744713,260.22,633,783,0
8744723,257.16,633,782,0
8744733,254.75,633,783,0
8744743,252.43,633,781,0
8744753,250.84,633,783,0
8744763,249.47,633,781,0
8744773,249.03,633,783,0
8744783,249.19,633,781,0
8744793,250.76,633,783,0
8744803,253.66,633,781,0
8744813,258.86,633,783,0
8744823,266.41,633,781,0
8744833,276.87,633,783,0
8744843,290.07,633,781,0
8744853,306.42,633,783,0
8744863,325.02,633,781,0
8744873,345.59,633,783,0
8744892,366.50,642,782,0
8744895,387.05,642,783,0
8744904,406.10,642,781,0
8744914,422.96,642,783,0
8744924,436.17,642,781,0
8744934,445.85,642,783,0
8744944,451.21,642,781,0
8744954,452.99,642,783,0
8744964,450.85,642,781,0
8744974,445.71,642,783,0
8744984,437.61,642,781,0
8744994,427.74,642,783,0
8745004,416.25,642,781,0
8745014,404.13,642,783,0
8745024,391.28,642,781,0
8745034,378.77,642,783,0
8745044,366.32,642,781,0
8745054,354.95,642,783,0
8745064,344.12,642,781,0
8745074,334.40,642,783,0
8745084,325.50,642,781,0
8745094,318.40,642,783,0
8745104,312.54,642,781,0
8745114,308.39,642,783,0
8745124,305.23,642,781,0
8745134,303.88,642,783,0
8745144,303.48,642,781,0
8745154,304.50,642,783,0
8745164,305.80,642,781,0
8745175,307.83,642,783,0
8745185,309.73,642,781,0
8745195,311.95,642,783,0
8745205,313.55,642,781,0
8745216,315.10,642,783,0
8745225,315.97,642,781,0
8745235,316.71,642,783,0
8745245,316.62,642,781,0
8745255,316.44,642,783,0
8745265,315.53,642,781,0
8745275,314.73,642,783,0
8745285,313.31,642,781,0
8745295,312.15,642,783,0
8745305,310.65,642,781,0
8745315,309.55,642,783,0
8745325,308.19,642,781,0
8745335,307.27,642,783,0
8745345,306.03,642,781,0
8745355,305.34,642,783,0
8745365,304.21,642,781,0
8745375,303.46,642,783,0
8745385,302.42,642,781,0
8745395,301.91,642,783,0
8745405,301.29,642,781,0
8745415,301.46,642,783,0
8745425,301.97,642,781,0
8745435,303.78,642,783,0
8745445,306.46,642,781,0
8745455,311.16,642,783,0
8745465,317.41,642,781,0
8745475,325.99,642,783,0
8745485,336.15,642,781,0
8745495,348.41,642,783,0
8745515,361.66,622,782,0
8745518,376.12,622,783,0
8745527,390.40,622,781,0
8745537,404.33,622,783,0
8745547,416.58,622,781,0
8745558,427.33,622,783,0
8745567,435.59,622,782,0
8745577,441.80,622,783,0
8745587,445.12,622,782,0
8745597,446.24,622,783,0
8745607,444.97,622,782,0
8745617,442.41,622,783,0
8745627,438.13,622,781,0
8745637,432.95,622,783,0
8745647,426.58,622,781,0
8745657,419.93,622,783,0
8745667,412.62,622,782,0
8745677,405.37,622,783,0
8745687,397.76,622,782,0
8745697,390.59,622,783,0
8745707,383.47,622,781,0
8745717,377.24,622,783,0
8745728,371.43,622,782,0
8745737,366.71,622,783,0
8745747,362.64,622,782,0
8745757,359.75,622,783,0
8745767,357.51,622,782,0
8745777,356.41,622,783,0
8745787,355.60,622,781,0
8745797,355.55,622,783,0
8745807,355.51,622,782,0
8745817,356.00,622,783,0
8745827,356.09,622,782,0
8745837,356.32,622,783,0
8745847,355.97,622,782,0
8745857,355.80,622,783,0
8745867,355.22,622,781,0
8745877,354.64,622,783,0
8745887,353.51,622,782,0
8745897,352.54,622,783,0
8745907,351.13,622,781,0
8745917,349.94,622,783,0
8745927,348.24,622,782,0
8745937,346.67,622,783,0
8745947,344.80,622,781,0
8745957,343.19,622,783,0
8745967,341.46,622,781,0
8745977,340.25,622,783,0
8745987,338.97,622,781,0
8745997,338.25,622,783,0
8746007,337.53,622,781,0
8746017,337.29,622,783,0
8746028,336.90,622,782,0
8746038,336.76,622,783,0
8746048,336.32,622,782,0
8746058,336.18,622,783,0
8746068,336.25,622,782,0
8746078,337.12,622,783,0
8746088,338.76,622,782,0
8746098,341.83,622,783,0
8746108,346.47,622,782,0
8746118,353.23,622,783,0
8746128,361.77,622,781,0
8746138,372.17,622,783,0
8746148,383.90,622,782,0
8746158,396.88,622,783,0
8746177,410.20,663,781,0
8746180,423.55,663,783,0
8746189,436.24,663,782,0
8746199,447.74,663,783,0
8746209,457.25,663,782,0
8746219,464.80,663,782,0
8746229,470.00,663,782,0
8746240,473.22,663,782,0
8746249,474.14,663,782,0
8746259,473.11,663,782,0
8746269,470.51,663,782,0
8746279,466.80,663,782,0
8746289,462.06,663,782,0
8746299,456.64,663,783,0
8746309,450.62,663,782,0
8746319,444.31,663,782,0
8746329,437.57,663,782,0
8746339,430.84,663,782,0
8746349,424.03,663,782,0
8746359,417.47,663,782,0
8746369,411.37,663,782,0
8746379,406.07,663,783,0
8746389,401.42,663,782,0
8746399,397.70,663,782,0
8746409,394.79,663,782,0
8746419,393.09,663,783,0
8746429,392.17,663,782,0
8746439,391.90,663,782,0
8746449,391.93,663,782,0
8746459,392.34,663,783,0
8746469,392.79,663,782,0
8746479,393.20,663,782,0
8746489,393.31,663,782,0
8746499,393.26,663,783,0
8746509,392.92,663,782,0
8746519,392.35,663,782,0
8746529,391.51,663,782,0
8746540,390.63,663,782,0
8746550,389.67,663,782,0
8746560,388.57,663,782,0
8746570,387.50,663,782,0
8746580,386.32,663,782,0
8746590,385.15,663,782,0
8746600,383.99,663,782,0
8746610,382.79,663,782,0
8746620,381.53,663,782,0
8746630,380.34,663,782,0
8746640,379.12,663,782,0
8746650,378.06,663,783,0
8746660,376.84,663,782,0
8746670,375.65,663,782,0
8746680,374.34,663,782,0
8746690,373.12,663,782,0
8746700,371.71,663,782,0
8746711,370.30,663,783,0
8746721,368.71,663,782,0
8746731,367.43,663,783,0
8746741,366.23,663,782,0
8746752,365.82,663,783,0
8746761,365.96,663,782,0
8746771,367.47,663,783,0
8746781,370.29,663,781,0
8746791,375.34,663,783,0
8746801,382.53,663,782,0
8746811,392.40,663,783,0
8746821,404.58,663,781,0
8746831,419.32,663,783,0
8746850,435.72,673,781,0
8746853,453.89,673,783,0
8746862,472.27,673,781,0
8746872,490.36,673,783,0
8746882,506.92,673,781,0
8746892,521.35,673,783,0
8746902,532.68,673,781,0
8746912,540.88,673,783,0
8746923,545.37,673,781,0
8746932,546.89,673,783,0
8746942,545.34,673,781,0
8746952,541.64,673,783,0
8746962,535.79,673,781,0
8746972,528.91,673,783,0
8746982,520.84,673,781,0
8746992,512.31,673,783,0
8747002,503.13,673,781,0
8747012,494.18,673,783,0
8747022,485.04,673,781,0
8747032,476.33,673,783,0
8747042,467.57,673,781,0
8747052,459.73,673,783,0
8747062,452.31,673,781,0
8747072,446.05,673,783,0
8747082,440.46,673,781,0
8747092,436.29,673,783,0
8747102,433.16,673,781,0
8747112,431.40,673,783,0
8747122,430.25,673,781,0
8747132,430.13,673,783,0
8747142,430.22,673,781,0
8747152,430.80,673,783,0
8747162,430.99,673,781,0
8747172,431.29,673,783,0
8747182,431.03,673,780,0
8747192,430.64,673,783,0
8747202,429.37,673,782,0
8747212,427.85,673,783,0
8747223,425.45,673,781,0
8747233,422.74,673,783,0
8747243,419.22,673,781,0
8747253,415.73,673,783,0
8747264,411.82,673,781,0
8747273,408.36,673,783,0
8747283,404.61,673,781,0
8747293,401.30,673,783,0
8747303,398.21,673,780,0
8747313,395.66,673,784,0
8747323,393.15,673,780,0
8747333,391.30,673,784,0
8747343,389.41,673,781,0
8747353,388.17,673,783,0
8747363,386.84,673,781,0
8747373,385.90,673,783,0
8747383,384.82,673,781,0
8747393,384.06,673,783,0
8747403,382.97,673,781,0
8747413,382.08,673,783,0
8747423,380.90,673,780,0
8747433,380.16,673,784,0
8747443,379.30,673,781,0
8747453,379.16,673,783,0
8747463,379.41,673,781,0
8747473,381.09,673,784,0
8747483,384.06,673,780,0
8747493,389.36,673,784,0
8747503,397.05,673,780,0
8747513,408.01,673,784,0
8747523,421.98,673,781,0
8747533,439.55,673,783,0
8747543,459.75,673,781,0
8747553,482.58,673,783,0
8747564,506.53,673,781,0
8747583,530.89,733,780,0
8747586,554.02,733,782,0
8747595,575.32,733,783,0
8747606,592.92,733,782,0
8747615,606.66,733,783,0
8747625,615.29,733,781,0
8747635,619.36,733,783,0
8747645,618.44,733,781,0
8747655,613.63,733,783,0
8747665,604.79,733,781,0
8747675,593.45,733,783,0
8747685,579.60,733,781,0
8747695,564.85,733,783,0
8747705,549.12,733,781,0
8747715,533.66,733,783,0
8747725,518.07,733,782,0
8747735,503.57,733,783,0
8747745,489.73,733,781,0
8747755,477.51,733,783,0
8747765,466.43,733,781,0
8747776,457.30,733,783,0
8747785,449.71,733,781,0
8747795,444.22,733,783,0
8747805,440.21,733,782,0
8747815,438.26,733,783,0
8747825,437.59,733,781,0
8747835,438.52,733,783,0
8747845,440.17,733,781,0
8747855,442.69,733,783,0
8747865,445.18,733,781,0
8747875,447.78,733,784,0
8747885,449.69,733,781,0
8747895,451.20,733,783,0
8747905,451.52,733,781,0
8747915,450.98,733,783,0
8747925,448.89,733,781,0
8747935,445.88,733,783,0
8747945,441.54,733,781,0
8747955,436.54,733,783,0
8747965,430.72,733,781,0
8747975,424.93,733,783,0
8747985,418.95,733,781,0
8747995,413.74,733,783,0
8748005,408.85,733,781,0
8748015,405.08,733,783,0
8748025,401.80,733,781,0
8748035,399.59,733,783,0
8748045,397.65,733,781,0
8748055,396.77,733,783,0
8748065,396.07,733,781,0
8748076,396.18,733,783,0
8748086,396.17,733,781,0
8748096,396.72,733,783,0
8748106,397.27,733,781,0
8748116,398.56,733,782,0
8748126,400.15,733,781,0
8748136,402.93,733,783,0
8748146,407.24,733,781,0
8748156,414.37,733,783,0
8748166,424.59,733,781,0
8748176,439.07,733,783,0
8748186,457.99,733,781,0
8748196,481.74,733,783,0
8748206,509.42,733,781,0
8748216,540.28,733,783,0
8748226,572.55,733,782,0
8748236,604.79,733,783,0
8748256,634.64,673,781,0
8748259,660.46,673,783,0
8748268,680.94,673,782,0
8748278,695.27,673,782,0
8748289,702.82,673,782,0
8748299,703.86,673,782,0
8748309,698.84,673,782,0
8748319,688.69,673,782,0
8748329,674.43,673,782,0
8748339,656.94,673,782,0
8748349,637.33,673,782,0
8748359,616.32,673,782,0
8748369,594.71,673,782,0
8748379,573.20,673,782,0
8748389,552.39,673,782,0
8748399,532.65,673,781,0
8748409,514.50,673,783,0
8748419,498.53,673,782,0
8748429,485.17,673,783,0
8748439,474.71,673,782,0
8748449,467.29,673,782,0
8748460,462.71,673,781,0
8748470,460.99,673,783,0
8748480,461.42,673,781,0
8748490,463.65,673,783,0
8748500,466.80,673,781,0
8748510,470.37,673,783,0
8748520,473.56,673,780,0
8748530,476.31,673,783,0
8748540,477.72,673,780,0
8748550,478.14,673,784,0
8748560,477.03,673,781,0
8748570,474.83,673,782,0
8748580,471.33,673,781,0
8748590,466.90,673,783,0
8748600,461.44,673,782,0
8748610,455.57,673,783,0
8748620,449.01,673,781,0
8748631,442.37,673,783,0
8748641,435.40,673,781,0
8748651,428.68,673,783,0
8748661,421.92,673,780,0
8748672,415.56,673,783,0
8748681,409.56,673,781,0
8748691,404.29,673,783,0
8748701,399.23,673,781,0
8748711,394.83,673,783,0
8748721,390.64,673,780,0
8748731,387.11,673,783,0
8748741,383.77,673,781,0
8748751,380.88,673,783,0
8748761,377.96,673,780,0
8748771,375.62,673,783,0
8748781,373.67,673,781,0
8748791,372.91,673,783,0
8748801,373.63,673,780,0
8748811,377.17,673,783,0
8748821,384.19,673,781,0
8748831,396.26,673,783,0
8748841,413.93,673,781,0
8748851,437.73,673,783,0
8748861,467.17,673,779,0
8748871,501.75,673,784,0
8748881,539.32,673,780,0
8748891,577.97,673,783,0
8748901,615.01,673,780,0
8748911,648.65,673,784,0
8748921,676.74,673,781,0
8748940,698.16,684,780,0
8748943,711.23,684,782,0
8748952,716.56,684,783,0
8748962,713.78,684,781,0
8748972,704.20,684,783,0
8748982,687.90,684,781,0
8748992,666.71,684,783,0
8749002,641.51,684,780,0
8749012,614.40,684,784,0
8749022,585.74,684,781,0
8749032,557.70,684,783,0
8749042,530.45,684,781,0
8749052,505.54,684,783,0
8749062,482.75,684,780,0
8749072,462.81,684,783,0
8749082,445.30,684,780,0
8749092,430.64,684,784,0
8749102,418.15,684,780,0
8749112,408.07,684,784,0
8749122,399.69,684,781,0
8749132,393.57,684,784,0
8749143,388.99,684,781,0
8749153,386.38,684,784,0
8749163,385.11,684,781,0
8749173,385.37,684,783,0
8749184,386.63,684,780,0
8749193,389.01,684,784,0
8749203,391.62,684,781,0
8749213,394.74,684,783,0
8749223,397.43,684,780,0
8749233,400.00,684,784,0
8749243,401.84,684,779,0
8749253,403.05,684,783,0
8749263,403.16,684,780,0
8749273,402.64,684,783,0
8749283,400.91,684,781,0
8749293,398.58,684,783,0
8749303,395.23,684,780,0
8749313,391.43,684,783,0
8749323,387.15,684,780,0
8749333,382.82,684,783,0
8749343,378.03,684,780,0
8749353,373.56,684,783,0
8749363,369.02,684,781,0
8749373,365.07,684,783,0
8749383,361.19,684,780,0
8749393,357.79,684,783,0
8749403,354.51,684,781,0
8749413,351.79,684,784,0
8749423,349.15,684,780,0
8749433,346.92,684,784,0
8749443,345.02,684,780,0
8749453,344.28,684,783,0
8749463,344.97,684,780,0
8749473,348.24,684,784,0
8749484,355.15,684,781,0
8749494,367.23,684,783,0
8749504,385.72,684,781,0
8749514,411.48,684,783,0
8749524,444.38,684,781,0
8749543,483.86,603,780,0
8749546,526.98,603,781,0
8749555,570.65,603,783,0
8749565,612.29,603,782,0
8749575,649.70,603,783,0
8749585,681.16,603,782,0
8749595,705.80,603,783,0
8749605,723.30,603,781,0
8749615,733.93,603,783,0
8749625,737.46,603,781,0
8749635,734.02,603,783,0
8749645,723.39,603,782,0
8749655,706.04,603,783,0
8749665,681.99,603,780,0
8749675,651.61,603,783,0
8749685,616.67,603,782,0
8749696,579.74,603,783,0
8749705,542.66,603,781,0
8749715,507.19,603,783,0
8749725,474.00,603,781,0
8749735,444.43,603,783,0
8749745,419.06,603,781,0
8749755,398.86,603,783,0
8749765,383.77,603,782,0
8749775,373.85,603,783,0
8749785,368.75,603,781,0
8749795,368.57,603,783,0
8749805,372.39,603,782,0
8749815,379.94,603,783,0
8749825,390.03,603,781,0
8749835,402.19,603,783,0
8749845,415.16,603,781,0
8749855,428.31,603,783,0
8749865,440.26,603,782,0
8749875,450.73,603,783,0
8749885,458.57,603,782,0
8749895,463.75,603,783,0
8749905,465.88,603,782,0
8749915,465.19,603,783,0
8749925,461.66,603,781,0
8749935,456.15,603,783,0
8749945,448.69,603,782,0
8749955,440.38,603,783,0
8749965,431.40,603,782,0
8749975,422.36,603,783,0
8749985,413.43,603,782,0
8749996,405.24,603,782,0
8750006,397.63,603,782,0
8750016,391.14,603,783,0
8750026,385.18,603,782,0
8750036,380.24,603,782,0
8750046,376.18,603,782,0
8750056,373.21,603,783,0
8750066,370.96,603,782,0
8750076,369.60,603,782,0
8750086,368.87,603,782,0
8750096,369.59,603,782,0
8750106,372.07,603,782,0
8750116,377.15,603,782,0
8750126,385.80,603,782,0
8750136,399.71,603,783,0
8750146,420.07,603,782,0
8750156,448.16,603,782,0
8750167,483.90,603,782,0
8750177,524.09,603,782,0
8750187,565.97,603,783,0
8750197,607.17,603,782,0
8750208,645.17,603,783,0
8750217,678.04,603,783,0
8750227,704.00,603,782,0
8750237,722.17,603,782,0
8750257,734.93,713,781,0
8750260,743.87,713,782,0
8750269,750.16,713,784,0
8750279,754.53,713,782,0
8750289,757.58,713,784,0
8750299,759.72,713,781,0
8750309,759.25,713,784,0
8750319,754.33,713,780,0
8750329,743.99,713,784,0
8750339,727.62,713,781,0
8750349,705.02,713,784,0
8750359,676.00,713,780,0
8750369,641.07,713,784,0
8750380,602.61,713,780,0
8750390,563.60,713,784,0
8750400,525.87,713,780,0
8750410,491.24,713,784,0
8750420,460.91,713,780,0
8750430,436.00,713,784,0
8750440,416.63,713,780,0
8750450,403.49,713,784,0
8750460,396.06,713,779,0
8750470,394.07,713,784,0
8750480,396.15,713,780,0
8750490,401.50,713,784,0
8750500,409.07,713,780,0
8750510,418.05,713,783,0
8750520,426.69,713,780,0
8750530,434.37,713,783,0
8750540,439.92,713,781,0
8750551,443.58,713,783,0
8750561,444.74,713,779,0
8750571,443.44,713,783,0
8750581,439.58,713,780,0
8750592,434.01,713,784,0
8750601,426.85,713,780,0
8750611,418.92,713,784,0
8750621,410.20,713,780,0
8750631,401.48,713,784,0
8750641,392.81,713,780,0
8750651,384.81,713,784,0
8750661,377.20,713,780,0
8750671,370.41,713,784,0
8750681,364.29,713,780,0
8750691,359.19,713,783,0
8750701,354.63,713,781,0
8750711,351.01,713,784,0
8750721,347.84,713,781,0
8750731,345.61,713,783,0
8750741,343.72,713,781,0
8750751,342.86,713,783,0
8750761,342.99,713,781,0
8750771,345.56,713,783,0
8750781,351.31,713,781,0
8750791,362.49,713,783,0
8750801,380.47,713,781,0
8750811,407.07,713,783,0
8750821,442.71,713,781,0
8750831,485.01,713,783,0
8750841,530.52,713,781,0
8750851,576.56,713,783,0
8750861,620.02,713,781,0
8750871,658.42,713,783,0
8750881,689.62,713,781,0
8750901,712.19,645,778,0
8750904,727.99,645,780,0
8750913,739.05,645,784,0
8750923,746.84,645,780,0
8750934,752.28,645,783,0
8750943,756.10,645,780,0
8750953,758.77,645,784,0
8750963,760.64,645,781,0
8750973,761.95,645,783,0
8750983,761.58,645,780,0
8750993,757.42,645,784,0
8751003,747.56,645,781,0
8751013,731.11,645,783,0
8751023,707.63,645,781,0
8751033,677.19,645,783,0
8751043,640.23,645,781,0
8751053,598.89,645,783,0
8751063,556.37,645,780,0
8751073,515.80,645,783,0
8751083,479.17,645,781,0
8751093,448.05,645,783,0
8751104,423.31,645,781,0
8751113,405.34,645,783,0
8751123,393.71,645,781,0
8751133,387.97,645,783,0
8751143,386.86,645,781,0
8751153,389.56,645,783,0
8751163,394.49,645,781,0
8751173,400.69,645,783,0
8751183,406.82,645,781,0
8751193,412.49,645,783,0
8751203,416.54,645,781,0
8751213,418.87,645,783,0
8751223,418.91,645,780,0
8751233,417.05,645,784,0
8751243,413.18,645,780,0
8751253,407.72,645,783,0
8751263,400.74,645,781,0
8751273,392.97,645,783,0
8751283,384.79,645,780,0
8751293,376.76,645,784,0
8751303,369.03,645,781,0
8751313,362.16,645,783,0
8751323,356.07,645,781,0
8751333,351.25,645,783,0
8751343,347.28,645,781,0
8751353,344.32,645,783,0
8751363,342.00,645,780,0
8751373,340.50,645,783,0
8751383,339.28,645,781,0
8751393,338.68,645,783,0
8751404,337.92,645,781,0
8751414,337.56,645,783,0
8751424,337.26,645,781,0
8751434,337.74,645,783,0
8751444,339.19,645,781,0
8751454,343.03,645,783,0
8751464,350.52,645,782,0
8751474,363.99,645,783,0
8751484,385.12,645,782,0
8751494,415.47,645,783,0
8751504,454.50,645,781,0
8751514,498.97,645,783,0
8751524,545.69,645,782,0
8751534,591.85,645,783,0
8751544,634.46,645,781,0
8751563,670.88,662,780,0
8751566,699.11,662,782,0
8751575,718.88,662,783,0
8751585,732.72,662,782,0
8751595,742.40,662,783,0
8751605,749.18,662,782,0
8751616,753.93,662,783,0
8751625,757.25,662,782,0
8751635,759.57,662,782,0
8751645,761.20,662,782,0
8751655,762.26,662,783,0
8751665,759.95,662,782,0
8751675,752.29,662,783,0
8751685,737.89,662,782,0
8751695,715.94,662,782,0
8751705,686.39,662,782,0
8751715,649.41,662,782,0
8751725,605.53,662,782,0
8751735,558.57,662,782,0
8751745,511.60,662,782,0
8751755,467.32,662,783,0
8751765,427.62,662,782,0
8751775,393.88,662,782,0
8751785,366.87,662,782,0
8751795,347.07,662,783,0
8751805,334.10,662,782,0
8751815,327.64,662,782,0
8751825,326.55,662,782,0
8751835,329.94,662,783,0
8751845,336.22,662,782,0
8751855,344.25,662,782,0
8751865,352.79,662,783,0
8751875,360.87,662,783,0
8751885,367.42,662,782,0
8751895,372.14,662,782,0
8751905,374.50,662,782,0
8751916,374.69,662,782,0
8751926,372.64,662,782,0
8751936,368.55,662,782,0
8751946,362.86,662,782,0
8751956,356.00,662,782,0
8751966,348.33,662,782,0
8751976,340.30,662,782,0
8751986,332.11,662,782,0
8751996,324.32,662,782,0
8752006,317.24,662,782,0
8752016,311.17,662,782,0
8752026,306.19,662,782,0
8752036,302.36,662,782,0
8752046,299.64,662,782,0
8752056,298.12,662,782,0
8752066,297.57,662,782,0
8752076,297.91,662,782,0
8752087,298.84,662,783,0
8752097,300.17,662,782,0
8752107,301.71,662,783,0
8752117,303.21,662,782,0
8752128,304.56,662,783,0
8752137,305.55,662,782,0
8752147,306.50,662,782,0
8752157,307.93,662,782,0
8752167,311.34,662,783,0
8752177,317.97,662,782,0
8752187,330.15,662,783,0
8752197,350.03,662,782,0
8752207,379.68,662,783,0
8752217,419.55,662,782,0
8752227,466.23,662,783,0
8752237,516.04,662,782,0
8752247,566.17,662,783,0
8752266,613.35,703,782,0
8752269,654.60,703,784,0
8752278,687.46,703,782,0
8752288,710.73,703,783,0
8752299,727.01,703,782,0
8752308,738.41,703,783,0
8752318,746.38,703,781,0
8752328,751.97,703,783,0
8752338,755.88,703,782,0
8752348,758.61,703,783,0
8752358,760.53,703,781,0
8752368,761.87,703,783,0
8752378,759.94,703,782,0
8752388,752.84,703,783,0
8752398,738.70,703,781,0
8752408,716.64,703,783,0
8752418,686.23,703,782,0
8752428,648.10,703,783,0
8752438,602.52,703,782,0
8752448,553.33,703,783,0
8752458,503.48,703,781,0
8752468,456.32,703,783,0
8752478,413.79,703,781,0
8752488,377.77,703,783,0
8752498,348.74,703,781,0
8752508,327.56,703,783,0
8752518,313.81,703,781,0
8752528,307.35,703,783,0
8752538,306.86,703,782,0
8752548,311.70,703,783,0
8752558,320.11,703,782,0
8752568,330.92,703,783,0
8752578,342.56,703,782,0
8752588,354.26,703,783,0
8752599,364.55,703,781,0
8752609,373.17,703,783,0
8752619,378.95,703,781,0
8752629,382.26,703,783,0
8752640,382.61,703,781,0
8752649,380.80,703,783,0
8752659,376.49,703,781,0
8752669,370.73,703,783,0
8752679,363.44,703,781,0
8752689,355.81,703,783,0
8752699,347.76,703,781,0
8752709,340.16,703,783,0
8752719,332.57,703,781,0
8752729,325.93,703,783,0
8752739,319.74,703,781,0
8752749,314.63,703,783,0
8752759,309.98,703,781,0
8752769,306.22,703,783,0
8752779,302.98,703,781,0
8752789,300.71,703,783,0
8752799,298.66,703,781,0
8752809,297.39,703,783,0
8752819,296.20,703,781,0
8752829,295.88,703,783,0
8752839,296.26,703,781,0
8752849,298.58,703,783,0
8752859,303.51,703,781,0
8752869,313.43,703,783,0
8752879,329.80,703,781,0
8752889,355.40,703,783,0
8752899,390.85,703,782,0
8752909,435.21,703,783,0
8752919,484.48,703,781,0
8752929,535.68,703,783,0
8752949,585.40,683,782,0
8752952,630.80,683,784,0
8752961,668.74,683,781,0
8752971,697.62,683,783,0
8752982,717.83,683,781,0
8752991,732.03,683,783,0
8753001,741.96,683,781,0
8753011,748.92,683,783,0
8753021,753.78,683,781,0
8753031,757.19,683,783,0
8753041,759.58,683,781,0
8753051,761.25,683,783,0
8753061,759.54,683,781,0
8753071,752.65,683,783,0
8753081,738.27,683,781,0
8753091,715.52,683,783,0
8753101,683.82,683,781,0
8753111,643.93,683,783,0
8753121,596.04,683,781,0
8753131,544.17,683,783,0
8753141,491.28,683,781,0
8753152,441.39,683,783,0
8753161,396.53,683,781,0
8753171,358.87,683,783,0
8753181,328.57,683,781,0
8753191,306.93,683,783,0
8753201,293.06,683,781,0
8753211,287.09,683,783,0
8753221,287.36,683,781,0
8753231,293.38,683,783,0
8753241,303.08,683,781,0
8753251,315.74,683,783,0
8753261,329.19,683,781,0
8753271,343.02,683,783,0
8753281,355.36,683,781,0
8753291,366.09,683,783,0
8753301,373.91,683,781,0
8753311,379.25,683,783,0
8753321,381.27,683,781,0
8753331,380.85,683,783,0
8753341,377.59,683,781,0
8753351,372.57,683,783,0
8753361,365.50,683,781,0
8753371,357.55,683,783,0
8753381,348.43,683,781,0
8753391,339.43,683,783,0
8753401,330.09,683,781,0
8753411,321.57,683,783,0
8753421,313.47,683,781,0
8753431,306.77,683,783,0
8753441,300.84,683,781,0
8753452,296.56,683,783,0
8753462,293.18,683,781,0
8753472,291.45,683,783,0
8753482,290.46,683,781,0
8753492,290.84,683,783,0
8753502,291.74,683,781,0
8753512,294.01,683,783,0
8753522,297.48,683,781,0
8753532,303.63,683,783,0
8753542,313.04,683,781,0
8753552,328.24,683,783,0
8753562,350.80,683,781,0
8753572,383.35,683,783,0
8753582,425.24,683,781,0
8753592,473.04,683,783,0
8753602,523.26,683,781,0
8753622,573.37,672,780,0
8753625,620.01,672,782,0
8753634,660.47,672,783,0
8753644,691.83,672,782,0
8753654,713.78,672,782,0
8753665,729.14,672,782,0
8753675,739.90,672,782,0
8753685,747.43,672,782,0
8753695,752.70,672,782,0
8753705,756.39,672,783,0
8753715,758.97,672,782,0
8753725,760.78,672,782,0
8753735,760.50,672,782,0
8753745,754.95,672,782,0
8753755,742.28,672,782,0
8753765,720.94,672,782,0
8753775,690.53,672,782,0
8753785,651.03,672,782,0
8753795,603.23,672,782,0
8753805,549.51,672,782,0
8753815,494.37,672,782,0
8753825,441.24,672,782,0
8753836,393.26,672,782,0
8753846,352.42,672,782,0
8753856,319.94,672,782,0
8753866,296.30,672,783,0
8753876,281.47,672,782,0
8753886,274.94,672,782,0
8753896,275.43,672,782,0
8753906,281.77,672,782,0
8753916,292.04,672,782,0
8753926,305.10,672,782,0
8753936,319.04,672,782,0
8753946,332.66,672,782,0
8753956,344.80,672,781,0
8753966,354.98,672,782,0
8753976,362.27,672,782,0
8753986,366.65,672,782,0
8753996,367.78,672,781,0
8754007,366.26,672,783,0
8754017,362.28,672,781,0
8754027,356.20,672,782,0
8754037,348.30,672,781,0
8754048,339.46,672,783,0
8754057,330.24,672,781,0
8754067,321.08,672,782,0
8754077,312.06,672,781,0
8754087,303.73,672,783,0
8754097,296.31,672,781,0
8754107,290.13,672,783,0
8754117,284.73,672,781,0
8754127,280.44,672,783,0
8754137,277.05,672,781,0
8754147,274.98,672,783,0
8754157,273.79,672,781,0
8754167,273.55,672,783,0
8754177,273.86,672,781,0
8754187,275.14,672,783,0
8754197,276.99,672,781,0
8754207,280.20,672,783,0
8754217,285.11,672,781,0
8754227,293.22,672,783,0
8754237,306.14,672,782,0
8754247,326.33,672,783,0
8754257,355.59,672,781,0
8754267,395.40,672,783,0
8754277,442.59,672,782,0
8754287,493.84,672,783,0
8754297,545.96,672,781,0
8754307,595.90,672,783,0
8754326,640.46,705,782,0
8754329,676.96,705,783,0
8754338,703.42,705,781,0
8754348,721.94,705,783,0
8754358,734.90,705,781,0
8754368,744.01,705,783,0
8754378,750.40,705,781,0
8754388,754.86,705,783,0
8754398,757.95,705,781,0
8754408,760.11,705,783,0
8754418,761.62,705,781,0
8754428,759.07,705,783,0
8754438,749.84,705,781,0
8754448,732.19,705,783,0
8754458,704.87,705,781,0
8754468,668.01,705,783,0
8754478,621.98,705,781,0
8754488,567.81,705,783,0
8754498,509.88,705,781,0
8754508,452.66,705,783,0
8754519,399.23,705,781,0
8754529,352.75,705,783,0
8754539,314.21,705,781,0
8754549,285.05,705,783,0
8754560,264.93,705,781,0
8754569,254.15,705,783,0
8754579,251.15,705,781,0
8754589,255.31,705,783,0
8754599,264.56,705,781,0
8754609,278.10,705,783,0
8754619,293.46,705,781,0
8754629,309.78,705,783,0
8754639,325.23,705,781,0
8754649,339.48,705,783,0
8754659,351.08,705,781,0
8754669,359.92,705,783,0
8754679,365.09,705,781,0
8754689,367.25,705,783,0
8754699,366.10,705,781,0
8754709,362.64,705,783,0
8754719,356.58,705,781,0
8754729,349.16,705,783,0
8754739,340.46,705,781,0
8754749,331.58,705,783,0
8754759,322.36,705,780,0
8754769,313.81,705,783,0
8754779,305.60,705,781,0
8754789,298.60,705,783,0
8754799,292.25,705,781,0
8754809,287.29,705,783,0
8754819,283.05,705,781,0
8754829,280.07,705,783,0
8754839,277.57,705,781,0
8754849,275.94,705,783,0
8754860,274.59,705,781,0
8754870,274.02,705,783,0
8754880,273.89,705,781,0
8754890,275.38,705,783,0
8754900,279.04,705,781,0
8754910,286.70,705,783,0
8754920,299.77,705,780,0
8754930,320.88,705,783,0
8754940,351.60,705,781,0
8754950,393.25,705,783,0
8754960,442.08,705,781,0
8754970,494.64,705,783,0
8754980,547.59,705,781,0
8754999,597.98,673,780,0
8755002,642.52,673,782,0
8755011,678.66,673,783,0
8755021,704.56,673,781,0
8755031,722.69,673,783,0
8755041,735.39,673,781,0
8755051,744.27,673,783,0
8755061,750.49,673,781,0
8755072,754.84,673,783,0
8755081,756.90,673,781,0
8755091,753.93,673,783,0
8755101,743.58,673,781,0
8755111,724.68,673,783,0
8755121,696.75,673,781,0
8755131,659.79,673,783,0
8755141,614.04,673,781,0
8755151,561.40,673,783,0
8755161,505.82,673,781,0
8755171,451.28,673,783,0
8755181,400.11,673,781,0
8755191,354.52,673,783,0
8755201,315.58,673,781,0
8755211,284.59,673,783,0
8755221,261.61,673,781,0
8755231,247.11,673,783,0
8755241,240.05,673,781,0
8755251,240.08,673,783,0
8755261,245.58,673,781,0
8755271,255.78,673,783,0
8755281,269.00,673,781,0
8755291,284.17,673,783,0
8755301,299.34,673,781,0
8755311,314.06,673,783,0
8755321,326.99,673,781,0
8755331,338.05,673,783,0
8755341,346.31,673,781,0
8755351,352.00,673,783,0
8755361,354.61,673,781,0
8755372,354.99,673,783,0
8755382,352.76,673,781,0
8755392,348.93,673,783,0
8755402,343.30,673,782,0
8755412,336.91,673,783,0
8755422,329.56,673,781,0
8755432,322.37,673,783,0
8755442,314.97,673,782,0
8755452,308.25,673,782,0
8755462,301.92,673,782,0
8755472,296.59,673,783,0
8755482,291.87,673,781,0
8755492,288.22,673,782,0
8755502,285.24,673,782,0
8755512,283.33,673,783,0
8755522,282.03,673,782,0
8755532,281.55,673,782,0
8755543,281.47,673,782,0
8755553,282.01,673,783,0
8755563,282.91,673,782,0
8755573,284.61,673,782,0
8755584,287.64,673,782,0
8755593,293.02,673,782,0
8755603,301.89,673,782,0
8755613,316.06,673,782,0
8755623,336.79,673,782,0
8755633,365.22,673,783,0
8755643,401.58,673,782,0
8755653,445.21,673,782,0
8755663,493.19,673,782,0
8755682,542.20,683,781,0
8755685,589.11,683,783,0
8755694,631.55,683,782,0
8755704,667.64,683,783,0
8755714,696.21,683,782,0
8755724,715.60,683,782,0
8755734,725.75,683,782,0
8755744,727.07,683,783,0
8755755,719.72,683,782,0
8755764,704.16,683,782,0
8755774,680.67,683,782,0
8755784,649.78,683,782,0
8755794,613.21,683,782,0
8755804,573.63,683,782,0
8755814,533.03,683,782,0
8755824,493.25,683,782,0
8755834,455.37,683,782,0
8755844,420.55,683,782,0
8755854,389.44,683,782,0
8755864,362.61,683,783,0
8755874,340.10,683,782,0
8755884,322.20,683,782,0
8755894,308.98,683,782,0
8755904,300.46,683,783,0
8755914,296.29,683,782,0
8755924,296.12,683,782,0
8755934,299.38,683,782,0
8755944,305.48,683,782,0
8755954,313.61,683,782,0
8755964,323.11,683,783,0
8755974,333.11,683,782,0
8755984,343.02,683,783,0
8755994,352.06,683,782,0
8756004,359.75,683,782,0
8756014,365.74,683,782,0
8756024,369.93,683,782,0
8756034,372.01,683,782,0
8756044,372.22,683,782,0
8756055,370.61,683,782,0
8756065,367.56,683,783,0
8756075,363.28,683,782,0
8756085,358.26,683,783,0
8756096,352.61,683,781,0
8756105,346.82,683,783,0
8756115,340.96,683,782,0
8756125,335.31,683,783,0
8756135,329.86,683,781,0
8756145,324.97,683,783,0
8756155,320.40,683,782,0
8756165,316.63,683,783,0
8756175,313.27,683,781,0
8756185,310.62,683,782,0
8756195,308.59,683,782,0
8756205,307.39,683,783,0
8756215,306.58,683,781,0
8756225,306.67,683,782,0
8756235,307.54,683,782,0
8756245,310.08,683,783,0
8756255,314.68,683,781,0
8756265,322.62,683,783,0
8756275,334.73,683,782,0
8756285,352.69,683,783,0
8756295,377.04,683,782,0
8756305,408.27,683,783,0
8756315,445.52,683,782,0
8756325,487.75,683,783,0
8756344,532.27,662,782,0
8756347,576.41,662,784,0
8756356,617.52,662,782,0
8756366,653.75,662,783,0
8756376,682.75,662,781,0
8756386,703.31,662,783,0
8756396,714.28,662,781,0
8756406,715.99,662,783,0
8756416,709.01,662,781,0
8756426,694.18,662,783,0
8756436,671.67,662,781,0
8756446,643.52,662,783,0
8756456,611.05,662,781,0
8756466,576.11,662,783,0
8756476,539.90,662,781,0
8756486,504.36,662,783,0
8756496,470.05,662,781,0
8756506,438.45,662,783,0
8756516,409.52,662,781,0
8756526,384.25,662,783,0
8756536,362.62,662,781,0
8756546,345.33,662,783,0
8756556,331.95,662,781,0
8756567,323.13,662,783,0
8756577,318.08,662,781,0
8756587,317.07,662,783,0
8756597,319.19,662,781,0
8756608,324.49,662,783,0
8756617,331.76,662,781,0
8756627,340.96,662,783,0
8756637,350.61,662,781,0
8756647,360.76,662,783,0
8756657,370.05,662,781,0
8756667,378.52,662,783,0
8756677,385.18,662,781,0
8756687,390.39,662,783,0
8756697,393.28,662,781,0
8756707,394.52,662,783,0
8756717,393.64,662,781,0
8756727,391.52,662,783,0
8756737,387.98,662,781,0
8756747,383.91,662,783,0
8756757,379.05,662,781,0
8756767,374.32,662,783,0
8756777,369.34,662,781,0
8756787,365.00,662,783,0
8756797,360.88,662,781,0
8756807,357.57,662,783,0
8756817,354.53,662,781,0
8756827,352.40,662,783,0
8756837,350.48,662,781,0
8756847,349.39,662,783,0
8756857,348.59,662,781,0
8756867,349.06,662,783,0
8756877,350.84,662,781,0
8756887,355.52,662,783,0
8756897,363.76,662,781,0
8756908,377.72,662,783,0
8756918,398.20,662,781,0
8756928,426.73,662,783,0
8756938,462.72,662,781,0
8756948,504.29,662,783,0
8756958,548.00,662,781,0
8756977,591.37,633,780,0
8756980,631.63,633,782,0
8756989,666.89,633,783,0
8756999,695.25,633,781,0
8757009,716.13,633,783,0
8757019,730.75,633,781,0
8757029,741.02,633,783,0
8757039,748.22,633,781,0
8757049,753.25,633,783,0
8757059,755.70,633,781,0
8757069,754.16,633,783,0
8757079,747.26,633,781,0
8757089,734.41,633,783,0
8757099,714.70,633,781,0
8757109,688.22,633,783,0
8757120,654.90,633,781,0
8757129,616.78,633,783,0
8757139,576.01,633,781,0
8757149,535.25,633,783,0
8757159,496.04,633,781,0
8757169,460.72,633,783,0
8757179,429.99,633,781,0
8757189,405.13,633,783,0
8757199,385.85,633,781,0
8757209,372.78,633,783,0
8757219,365.22,633,781,0
8757229,363.18,633,783,0
8757239,365.27,633,781,0
8757249,371.10,633,783,0
8757259,379.17,633,781,0
8757269,388.93,633,783,0
8757279,398.85,633,781,0
8757289,408.63,633,783,0
8757299,416.75,633,781,0
8757309,423.38,633,783,0
8757319,427.64,633,781,0
8757329,429.85,633,783,0
8757339,429.55,633,781,0
8757349,427.50,633,783,0
8757359,423.45,633,781,0
8757369,418.30,633,783,0
8757379,411.91,633,781,0
8757389,405.12,633,783,0
8757399,397.71,633,781,0
8757409,390.51,633,783,0
8757420,383.25,633,781,0
8757430,376.57,633,783,0
8757440,370.23,633,781,0
8757450,364.72,633,783,0
8757460,359.66,633,782,0
8757470,355.82,633,783,0
8757480,352.74,633,781,0
8757490,351.58,633,783,0
8757500,352.90,633,781,0
8757510,358.50,633,783,0
8757520,369.75,633,781,0
8757530,389.28,633,783,0
8757540,418.38,633,782,0
8757550,456.63,633,783,0
8757560,500.32,633,782,0
8757570,546.60,633,783,0
8757580,592.45,633,782,0
8757600,635.21,623,781,0
8757603,671.71,623,783,0
8757612,699.69,623,783,0
8757622,719.29,623,783,0
8757633,733.00,623,783,0
8757643,742.60,623,783,0
8757653,749.32,623,782,0
8757663,754.02,623,783,0
8757673,757.36,623,782,0
8757683,759.69,623,783,0
8757693,761.33,623,782,0
8757703,762.47,623,783,0
8757713,763.27,623,782,0
8757723,763.83,623,782,0
8757733,764.23,623,782,0
8757743,764.46,623,783,0
8757753,760.29,623,782,0
8757763,749.79,623,782,0
8757773,731.30,623,782,0
8757783,704.34,623,783,0
8757793,669.35,623,782,0
8757804,627.24,623,783,0
8757814,579.09,623,782,0
8757824,530.63,623,783,0
8757834,485.31,623,782,0
8757844,446.26,623,783,0
8757854,414.90,623,781,0
8757864,391.70,623,783,0
8757874,376.32,623,782,0
8757884,368.21,623,783,0
8757894,365.83,623,781,0
8757904,367.85,623,783,0
8757914,372.44,623,782,0
8757924,378.65,623,783,0
8757934,385.01,623,781,0
8757944,390.84,623,783,0
8757954,395.17,623,781,0
8757964,397.99,623,783,0
8757975,398.72,623,781,0
8757985,397.86,623,783,0
8757995,395.12,623,781,0
8758005,391.23,623,783,0
8758016,386.02,623,781,0
8758025,380.27,623,783,0
8758035,373.89,623,781,0
8758045,367.62,623,783,0
8758055,361.13,623,781,0
8758065,355.14,623,783,0
8758075,349.44,623,781,0
8758085,344.59,623,783,0
8758095,340.26,623,781,0
8758105,337.18,623,783,0
8758115,335.58,623,781,0
8758125,337.21,623,783,0
8758135,343.19,623,781,0
8758145,355.56,623,783,0
8758155,376.44,623,782,0
8758165,408.19,623,783,0
8758175,448.80,623,781,0
8758185,495.06,623,783,0
8758195,543.47,623,781,0
8758214,591.20,614,780,0
8758217,635.24,614,782,0
8758226,672.63,614,783,0
8758236,700.47,614,781,0
8758246,720.00,614,783,0
8758256,733.63,614,781,0
8758266,743.21,614,783,0
8758276,749.88,614,781,0
8758286,754.58,614,783,0
8758296,757.84,614,781,0
8758306,760.16,614,783,0
8758316,761.74,614,781,0
8758326,762.89,614,783,0
8758336,762.49,614,781,0
8758346,757.25,614,783,0
8758356,744.44,614,781,0
8758366,723.18,614,783,0
8758376,692.36,614,781,0
8758386,652.52,614,784,0
8758396,603.98,614,781,0
8758406,549.60,614,783,0
8758416,493.88,614,781,0
8758426,441.46,614,783,0
8758436,394.61,614,781,0
8758446,356.02,614,783,0
8758456,326.19,614,781,0
8758466,306.16,614,783,0
8758476,294.93,614,781,0
8758487,292.25,614,783,0
8758497,296.03,614,781,0
8758507,305.15,614,783,0
8758517,317.45,614,781,0
8758528,331.80,614,783,0
8758537,346.05,614,781,0
8758547,359.23,614,783,0
8758557,369.83,614,781,0
8758567,377.68,614,783,0
8758577,382.06,614,781,0
8758587,383.46,614,783,0
8758597,381.44,614,781,0
8758607,377.11,614,783,0
8758617,370.39,614,781,0
8758627,362.30,614,783,0
8758637,353.04,614,781,0
8758647,343.81,614,783,0
8758657,334.61,614,781,0
8758667,326.24,614,783,0
8758677,318.33,614,781,0
8758687,311.89,614,783,0
8758697,306.56,614,781,0
8758707,302.84,614,783,0
8758717,299.93,614,781,0
8758727,298.19,614,783,0
8758737,297.24,614,781,0
8758747,297.59,614,783,0
8758757,298.83,614,781,0
8758767,302.39,614,783,0
8758777,309.22,614,781,0
8758787,321.54,614,783,0
8758797,341.13,614,781,0
8758807,370.92,614,783,0
8758817,411.27,614,781,0
8758828,458.68,614,783,0
8758838,509.47,614,781,0
8758848,560.76,614,783,0
8758867,609.30,653,782,0
8758871,652.20,653,782,0
8758879,686.21,653,782,0
8758889,710.06,653,783,0
8758899,726.76,653,782,0
8758909,738.40,653,783,0
8758919,746.51,653,782,0
8758929,752.19,653,783,0
8758939,756.20,653,781,0
8758949,758.97,653,783,0
8758959,760.39,653,782,0
8758969,757.15,653,783,0
8758979,746.56,653,781,0
8758989,727.28,653,783,0
8758999,698.61,653,782,0
8759009,660.67,653,783,0
8759019,613.54,653,781,0
8759029,558.82,653,783,0
8759040,501.19,653,782,0
8759049,445.25,653,783,0
8759059,393.74,653,782,0
8759069,349.21,653,783,0
8759079,312.76,653,782,0
8759089,285.92,653,783,0
8759099,268.37,653,781,0
8759109,260.12,653,783,0
8759119,259.65,653,782,0
8759129,265.97,653,783,0
8759139,277.04,653,781,0
8759149,291.64,653,783,0
8759159,307.65,653,781,0
8759169,323.91,653,783,0
8759179,338.55,653,781,0
8759189,351.03,653,783,0
8759199,360.28,653,781,0
8759209,366.28,653,783,0
8759219,368.47,653,781,0
8759229,367.47,653,783,0
8759239,363.21,653,781,0
8759249,356.68,653,783,0
8759259,347.90,653,781,0
8759269,338.08,653,783,0
8759279,327.21,653,781,0
8759289,316.39,653,783,0
8759299,305.64,653,781,0
8759309,295.85,653,783,0
8759319,286.98,653,781,0
8759329,279.70,653,783,0
8759340,273.71,653,782,0
8759350,269.55,653,782,0
8759360,266.77,653,781,0
8759370,265.60,653,782,0
8759380,265.63,653,782,0
8759390,266.81,653,782,0
8759400,268.58,653,781,0
8759410,270.98,653,783,0
8759420,273.56,653,782,0
8759430,276.43,653,782,0
8759440,279.05,653,781,0
8759450,281.82,653,782,0
8759460,285.17,653,782,0
8759470,290.61,653,783,0
8759480,299.55,653,782,0
8759490,314.69,653,783,0
8759500,338.22,653,782,0
8759511,372.87,653,782,0
8759521,417.05,653,782,0
8759531,467.27,653,782,0
8759541,520.07,653,782,0
8759552,572.42,653,782,0
8759561,620.68,653,782,0
8759580,661.79,713,781,0
8759583,692.88,713,783,0
8759592,714.69,713,782,0
8759602,729.95,713,782,0
8759612,740.60,713,782,0
8759622,748.05,713,783,0
8759632,753.30,713,782,0
8759642,756.98,713,782,0
8759652,759.56,713,782,0
8759662,759.56,713,783,0
8759672,753.61,713,782,0
8759682,740.01,713,782,0
8759692,717.21,713,782,0
8759702,684.66,713,783,0
8759712,642.55,713,781,0
8759723,591.47,713,782,0
8759732,534.50,713,782,0
8759742,476.71,713,783,0
8759752,421.42,713,782,0
8759762,371.93,713,783,0
8759772,330.33,713,782,0
8759782,298.05,713,783,0
8759792,275.53,713,782,0
8759802,262.73,713,783,0
8759812,258.61,713,782,0
8759822,262.29,713,783,0
8759832,272.01,713,782,0
8759842,286.32,713,783,0
8759852,303.20,713,782,0
8759862,321.18,713,783,0
8759872,338.44,713,782,0
8759882,354.04,713,783,0
8759892,366.71,713,782,0
8759902,376.14,713,783,0
8759912,381.71,713,781,0
8759922,383.77,713,783,0
8759932,382.38,713,781,0
8759942,378.20,713,783,0
8759952,371.62,713,782,0
8759962,363.42,713,783,0
8759972,353.91,713,781,0
8759982,344.08,713,783,0
8759992,334.11,713,782,0
8760002,324.69,713,783,0
8760012,315.83,713,781,0
8760023,308.12,713,783,0
8760033,301.44,713,781,0
8760043,296.34,713,783,0
8760053,292.34,713,781,0
8760064,289.84,713,783,0
8760073,288.34,713,781,0
8760083,288.15,713,783,0
8760093,288.71,713,781,0
8760103,290.30,713,783,0
8760113,292.26,713,781,0
8760123,294.80,713,783,0
8760133,297.26,713,781,0
8760143,299.88,713,783,0
8760153,302.15,713,781,0
8760163,304.29,713,783,0
8760173,306.00,713,781,0
8760183,308.02,713,783,0
8760193,310.67,713,781,0
8760203,315.70,713,783,0
8760213,324.49,713,781,0
8760223,339.64,713,783,0
8760233,362.93,713,781,0
8760243,396.00,713,783,0
8760253,438.00,713,781,0
8760263,485.61,713,783,0
8760273,535.36,713,781,0
8760283,584.32,713,783,0
8760302,629.14,722,782,0
8760305,667.28,722,783,0
8760314,696.64,722,781,0
8760324,717.23,722,783,0
8760334,731.65,722,781,0
8760344,741.78,722,783,0
8760354,748.88,722,781,0
8760364,753.89,722,783,0
8760374,757.35,722,781,0
8760384,758.27,722,783,0
8760394,753.56,722,781,0
8760404,741.48,722,783,0
8760414,720.81,722,781,0
8760424,691.29,722,783,0
8760434,652.51,722,781,0
8760444,605.43,722,783,0
8760454,552.28,722,781,0
8760464,497.86,722,783,0
8760474,445.23,722,781,0
8760484,397.54,722,783,0
8760494,356.32,722,781,0
8760504,323.61,722,783,0
8760514,299.47,722,781,0
8760524,284.54,722,783,0
8760535,277.91,722,781,0
8760545,279.22,722,783,0
8760555,286.57,722,781,0
8760565,299.13,722,783,0
8760576,314.60,722,781,0
8760585,331.91,722,783,0
8760595,348.91,722,781,0
8760605,364.84,722,783,0
8760615,378.08,722,781,0
8760625,388.52,722,783,0
8760635,395.05,722,781,0
8760645,398.38,722,783,0
8760655,398.05,722,781,0
8760665,395.03,722,783,0
8760675,388.98,722,781,0
8760685,381.27,722,783,0
8760695,371.85,722,781,0
8760705,362.08,722,783,0
8760715,351.90,722,781,0
8760725,342.33,722,783,0
8760735,333.27,722,781,0
8760745,325.69,722,783,0
8760755,319.10,722,781,0
8760765,314.14,722,783,0
8760775,310.11,722,781,0
8760785,307.51,722,783,0
8760795,305.60,722,781,0
8760805,304.78,722,783,0
8760815,304.41,722,781,0
8760825,304.85,722,783,0
8760835,305.41,722,781,0
8760845,306.61,722,783,0
8760855,307.67,722,781,0
8760865,309.27,722,783,0
8760876,310.65,722,781,0
8760886,312.60,722,783,0
8760896,314.90,722,781,0
8760906,319.17,722,783,0
8760916,326.11,722,781,0
8760926,338.08,722,783,0
8760936,356.74,722,781,0
8760946,384.72,722,783,0
8760956,422.73,722,781,0
8760966,467.77,722,783,0
8760976,516.18,722,781,0
8760986,565.28,722,783,0
8760996,611.96,722,781,0
8761015,653.41,713,780,0
8761018,686.76,713,781,0
8761027,710.36,713,783,0
8761037,726.84,713,782,0
8761047,738.42,713,783,0
8761057,746.56,713,781,0
8761067,752.26,713,783,0
8761077,756.21,713,781,0
8761088,758.98,713,783,0
8761097,760.10,713,781,0
8761107,756.94,713,783,0
8761117,747.10,713,782,0
8761127,729.50,713,783,0
8761137,703.51,713,781,0
8761147,669.28,713,783,0
8761157,626.90,713,782,0
8761167,578.24,713,783,0
8761177,527.04,713,781,0
8761187,477.31,713,783,0
8761197,431.49,713,781,0
8761207,391.96,713,783,0
8761217,359.70,713,781,0
8761227,336.05,713,783,0
8761237,320.73,713,781,0
8761247,313.83,713,783,0
8761257,314.09,713,781,0
8761267,320.58,713,783,0
8761277,331.33,713,781,0
8761287,345.21,713,783,0
8761297,360.10,713,781,0
8761307,375.07,713,783,0
8761317,388.34,713,781,0
8761327,399.33,713,783,0
8761337,407.08,713,781,0
8761347,411.81,713,783,0
8761357,412.98,713,781,0
8761367,411.23,713,783,0
8761377,406.53,713,781,0
8761388,399.94,713,783,0
8761398,391.65,713,782,0
8761408,382.58,713,783,0
8761418,372.89,713,782,0
8761428,363.37,713,782,0
8761438,354.21,713,781,0
8761448,346.09,713,783,0
8761458,338.87,713,782,0
8761468,332.95,713,782,0
8761478,328.21,713,781,0
8761488,324.89,713,783,0
8761498,322.74,713,782,0
8761508,321.74,713,782,0
8761518,321.31,713,781,0
8761528,321.56,713,783,0
8761538,322.08,713,782,0
8761548,322.82,713,782,0
8761559,323.22,713,782,0
8761569,323.41,713,782,0
8761579,323.03,713,782,0
8761589,322.34,713,782,0
8761600,321.25,713,782,0
8761609,320.23,713,782,0
8761619,319.78,713,782,0
8761629,321.34,713,782,0
8761639,326.64,713,782,0
8761649,337.51,713,782,0
8761659,356.17,713,782,0
8761669,384.66,713,782,0
8761679,423.72,713,782,0
8761689,469.66,713,782,0
8761699,519.05,713,782,0
8761709,568.49,713,782,0
8761719,615.27,713,782,0
8761738,656.38,723,781,0
8761741,689.13,723,783,0
8761750,712.07,723,782,0
8761760,728.07,723,782,0
8761771,739.28,723,782,0
8761780,747.17,723,782,0
8761790,752.69,723,782,0
8761800,756.51,723,783,0
8761810,755.84,723,782,0
8761820,749.08,723,782,0
8761830,734.82,723,782,0
8761840,712.08,723,782,0
8761850,680.60,723,782,0
8761860,641.07,723,782,0
8761870,594.04,723,782,0
8761880,543.63,723,783,0
8761890,492.65,723,781,0
8761900,444.03,723,782,0
8761910,400.01,723,782,0
8761920,362.33,723,783,0
8761930,331.46,723,782,0
8761940,308.18,723,783,0
8761950,292.40,723,782,0
8761960,284.09,723,783,0
8761970,282.44,723,782,0
8761980,286.72,723,783,0
8761990,295.50,723,782,0
8762000,307.78,723,782,0
8762010,321.90,723,782,0
8762020,336.85,723,783,0
8762030,351.21,723,782,0
8762040,364.05,723,782,0
8762050,374.27,723,782,0
8762060,381.52,723,783,0
8762071,385.22,723,781,0
8762081,385.67,723,783,0
8762091,382.68,723,781,0
8762101,376.99,723,783,0
8762112,368.72,723,781,0
8762121,359.08,723,783,0
8762131,348.25,723,781,0
8762141,337.25,723,783,0
8762151,326.12,723,781,0
8762161,315.80,723,783,0
8762171,306.30,723,781,0
8762181,298.37,723,783,0
8762191,291.66,723,781,0
8762201,286.79,723,783,0
8762211,283.42,723,781,0
8762221,282.01,723,783,0
8762231,282.05,723,781,0
8762241,283.66,723,783,0
8762251,286.42,723,781,0
8762261,290.28,723,783,0
8762271,294.57,723,781,0
8762281,299.20,723,783,0
8762291,303.55,723,781,0
8762301,307.93,723,783,0
8762311,311.72,723,781,0
8762321,315.11,723,783,0
8762331,317.65,723,781,0
8762341,319.72,723,783,0
8762351,321.09,723,781,0
8762361,322.09,723,783,0
8762371,322.54,723,781,0
8762381,323.40,723,783,0
8762391,325.55,723,781,0
8762401,331.13,723,783,0
8762412,341.93,723,781,0
8762422,361.03,723,783,0
8762432,390.20,723,781,0
8762442,429.57,723,783,0
8762452,475.47,723,781,0
8762462,524.79,723,783,0
8762481,574.18,743,782,0
8762484,620.71,743,784,0
8762493,660.83,743,781,0
8762503,692.08,743,783,0
8762513,713.96,743,781,0
8762523,729.31,743,783,0
8762533,740.06,743,781,0
8762543,747.63,743,783,0
8762553,752.93,743,781,0
8762563,756.68,743,783,0
8762573,759.30,743,781,0
8762583,761.18,743,783,0
8762593,759.93,743,781,0
8762603,753.14,743,783,0
8762613,738.52,743,781,0
8762624,715.31,743,783,0
8762633,683.20,743,781,0
8762643,642.51,743,783,0
8762653,593.59,743,781,0
8762663,540.14,743,783,0
8762673,485.88,743,781,0
8762683,434.75,743,783,0
8762693,388.67,743,781,0
8762703,349.72,743,783,0
8762713,318.52,743,781,0
8762723,296.08,743,783,0
8762733,281.96,743,781,0
8762743,276.18,743,783,0
8762753,277.03,743,781,0
8762763,284.01,743,783,0
8762773,294.93,743,781,0
8762783,309.01,743,783,0
8762793,324.09,743,781,0
8762803,339.54,743,783,0
8762813,353.13,743,781,0
8762823,364.75,743,783,0
8762833,373.10,743,781,0
8762843,378.60,743,783,0
8762853,380.56,743,781,0
8762863,379.71,743,783,0
8762873,375.51,743,781,0
8762883,369.31,743,783,0
8762893,360.99,743,781,0
8762903,351.91,743,783,0
8762913,341.69,743,781,0
8762924,331.54,743,783,0
8762934,321.27,743,781,0
8762944,311.89,743,783,0
8762954,303.18,743,781,0
8762964,295.97,743,783,0
8762974,289.55,743,781,0
8762984,284.88,743,783,0
8762994,281.28,743,781,0
8763004,279.61,743,783,0
8763014,279.04,743,781,0
8763024,279.84,743,783,0
8763034,281.39,743,781,0
8763044,284.19,743,783,0
8763054,287.35,743,781,0
8763064,291.27,743,783,0
8763074,294.96,743,781,0
8763084,298.87,743,783,0
8763095,302.42,743,781,0
8763105,306.03,743,783,0
8763115,309.06,743,781,0
8763125,311.96,743,783,0
8763136,314.33,743,781,0
8763145,316.71,743,783,0
8763155,318.73,743,781,0
8763165,321.12,743,783,0
8763175,323.92,743,781,0
8763185,328.57,743,783,0
8763195,336.11,743,781,0
8763205,349.11,743,783,0
8763215,369.48,743,781,0
8763225,399.50,743,783,0
8763235,438.78,743,781,0
8763245,484.15,743,783,0
8763265,532.27,783,782,0
8763268,580.58,783,782,0
8763277,625.58,783,782,0
8763287,664.49,783,782,0
8763297,694.73,783,782,0
8763308,715.90,783,782,0
8763318,730.76,783,782,0
8763328,741.16,783,782,0
8763338,748.44,783,782,0
8763348,753.54,783,782,0
8763358,757.06,783,782,0
8763368,759.53,783,782,0
8763378,761.26,783,782,0
8763388,758.65,783,782,0
8763398,749.58,783,782,0
8763408,732.09,783,782,0
8763418,705.32,783,782,0
8763428,669.10,783,782,0
8763438,624.11,783,782,0
8763448,571.11,783,782,0
8763458,514.97,783,782,0
8763468,459.57,783,782,0
8763479,408.53,783,783,0
8763489,364.48,783,782,0
8763499,329.28,783,783,0
8763509,303.48,783,781,0
8763520,287.52,783,783,0
8763529,280.85,783,782,0
8763539,282.52,783,783,0
8763549,290.90,783,781,0
8763559,304.30,783,783,0
8763569,320.62,783,782,0
8763579,338.18,783,783,0
8763589,355.18,783,781,0
8763599,370.51,783,783,0
8763609,382.96,783,782,0
8763619,392.10,783,783,0
8763629,397.30,783,781,0
8763639,398.88,783,783,0
8763649,396.90,783,782,0
8763659,392.00,783,782,0
8763669,384.67,783,782,0
8763679,375.81,783,783,0
8763689,365.67,783,781,0
8763699,355.27,783,782,0
8763709,344.77,783,782,0
8763719,334.90,783,783,0
8763729,325.80,783,782,0
8763739,317.76,783,783,0
8763749,310.63,783,781,0
8763759,304.83,783,783,0
8763769,300.08,783,782,0
8763779,296.67,783,782,0
8763789,294.28,783,782,0
8763799,293.04,783,783,0
8763809,292.56,783,781,0
8763820,293.08,783,783,0
8763830,294.17,783,781,0
8763840,296.05,783,783,0
8763850,298.13,783,781,0
8763860,300.66,783,783,0
8763870,302.99,783,781,0
8763880,305.52,783,783,0
8763890,307.51,783,781,0
8763900,309.46,783,783,0
8763910,310.69,783,781,0
8763920,311.73,783,783,0
8763930,312.28,783,781,0
8763940,312.97,783,783,0
8763950,313.96,783,781,0
8763960,316.67,783,782,0
8763970,322.43,783,781,0
8763980,334.21,783,783,0
8763991,353.99,783,781,0
8764001,384.38,783,783,0
8764011,424.77,783,781,0
8764021,471.68,783,783,0
8764032,521.96,783,781,0
8764050,572.50,786,780,0
8764053,619.67,786,781,0
8764062,660.52,786,783,0
8764072,691.95,786,781,0
8764082,713.95,786,783,0
8764092,729.35,786,781,0
8764102,740.13,786,783,0
8764112,747.68,786,781,0
8764122,752.92,786,783,0
8764132,756.54,786,781,0
8764142,759.08,786,783,0
8764152,757.38,786,781,0
8764162,749.51,786,783,0
8764172,733.29,786,781,0
8764182,707.92,786,783,0
8764192,673.05,786,781,0
8764203,629.32,786,783,0
8764212,577.46,786,781,0
8764222,522.20,786,783,0
8764232,466.86,786,781,0
8764242,415.47,786,783,0
8764252,370.24,786,781,0
8764262,333.31,786,783,0
8764272,305.15,786,781,0
8764282,286.55,786,783,0
8764292,276.78,786,781,0
8764302,275.73,786,783,0
8764312,281.60,786,781,0
8764322,293.42,786,783,0
8764332,308.77,786,781,0
8764342,326.49,786,783,0
8764352,344.22,786,781,0
8764362,360.95,786,783,0
8764372,374.77,786,781,0
8764382,385.55,786,783,0
8764392,392.03,786,781,0
8764402,394.81,786,783,0
8764412,393.41,786,781,0
8764422,388.91,786,783,0
8764432,381.44,786,781,0
8764442,372.22,786,783,0
8764452,361.27,786,781,0
8764462,350.00,786,783,0
8764472,338.34,786,781,0
8764482,327.40,786,783,0
8764492,316.91,786,781,0
8764503,307.81,786,783,0
8764513,299.72,786,781,0
8764523,293.38,786,783,0
8764533,288.25,786,781,0
8764544,285.00,786,783,0
8764553,282.90,786,781,0
8764563,282.46,786,783,0
8764573,282.75,786,781,0
8764583,284.24,786,783,0
8764593,286.05,786,781,0
8764603,288.48,786,783,0
8764613,290.78,786,781,0
8764623,293.42,786,783,0
8764633,295.69,786,781,0
8764643,298.01,786,783,0
8764653,299.77,786,781,0
8764663,301.42,786,783,0
8764673,302.50,786,781,0
8764683,303.46,786,783,0
8764693,303.58,786,781,0
8764703,303.49,786,783,0
8764713,302.92,786,781,0
8764723,302.64,786,783,0
8764733,302.75,786,780,0
8764743,304.92,786,783,0
8764753,310.43,786,781,0
8764763,322.00,786,783,0
8764773,341.50,786,781,0
8764783,371.82,786,783,0
8764793,412.68,786,781,0
8764803,460.60,786,783,0
8764822,511.89,772,782,0
8764825,563.48,772,783,0
8764834,612.02,772,782,0
8764844,654.49,772,783,0
8764854,687.64,772,781,0
8764864,710.85,772,783,0
8764874,727.09,772,781,0
8764884,738.47,772,783,0
8764894,746.43,772,781,0
8764904,752.00,772,783,0
8764914,755.90,772,782,0
8764924,758.63,772,783,0
8764934,759.94,772,781,0
8764944,756.49,772,783,0
8764954,745.37,772,781,0
8764964,725.33,772,783,0
8764974,695.70,772,781,0
8764984,656.66,772,783,0
8764994,608.51,772,781,0
8765004,553.03,772,783,0
8765015,494.99,772,781,0
8765025,439.19,772,783,0
8765035,388.52,772,781,0
8765045,345.64,772,782,0
8765056,311.76,772,782,0
8765065,287.92,772,783,0
8765075,273.88,772,781,0
8765085,269.38,772,782,0
8765095,272.99,772,782,0
8765105,283.28,772,783,0
8765115,298.07,772,782,0
8765125,315.75,772,782,0
8765135,334.29,772,782,0
8765145,352.42,772,783,0
8765155,368.41,772,782,0
8765165,381.49,772,783,0
8765175,390.81,772,782,0
8765185,396.48,772,783,0
8765195,398.09,772,781,0
8765205,396.22,772,782,0
8765215,391.10,772,782,0
8765225,383.61,772,782,0
8765235,374.21,772,782,0
8765245,363.91,772,782,0
8765255,352.84,772,782,0
8765265,342.00,772,782,0
8765275,331.67,772,782,0
8765285,322.17,772,783,0
8765295,313.50,772,782,0
8765305,305.94,772,782,0
8765315,299.40,772,782,0
8765325,294.27,772,783,0
8765335,290.20,772,782,0
8765345,287.48,772,782,0
8765356,285.88,772,782,0
8765366,285.66,772,782,0
8765376,286.53,772,782,0
8765386,288.56,772,782,0
8765396,291.31,772,782,0
8765406,294.99,772,782,0
8765416,299.06,772,782,0
8765426,303.63,772,782,0
8765436,308.24,772,782,0
8765446,312.84,772,782,0
8765456,316.96,772,782,0
8765466,320.53,772,782,0
8765476,323.20,772,782,0
8765486,325.07,772,782,0
8765496,325.99,772,782,0
8765506,326.29,772,782,0
8765516,326.81,772,782,0
8765527,329.01,772,782,0
8765537,334.88,772,782,0
8765547,346.87,772,782,0
8765557,367.69,772,783,0
8765568,399.50,772,782,0
8765577,440.66,772,783,0
8765587,487.65,772,782,0
8765606,537.30,784,781,0
8765609,586.41,784,782,0
8765618,631.71,784,783,0
8765628,669.90,784,781,0
8765638,698.43,784,783,0
8765648,718.40,784,781,0
8765658,732.38,784,783,0
8765668,742.17,784,781,0
8765678,749.02,784,783,0
8765688,753.81,784,781,0
8765698,757.17,784,783,0
8765708,759.52,784,782,0
8765718,759.02,784,783,0
8765728,752.24,784,781,0
8765739,737.34,784,783,0
8765748,713.32,784,781,0
8765758,680.06,784,783,0
8765768,637.61,784,781,0
8765778,587.03,784,783,0
8765788,531.52,784,782,0
8765798,476.25,784,783,0
8765808,424.62,784,781,0
8765818,379.60,784,783,0
8765828,342.74,784,781,0
8765838,315.47,784,783,0
8765848,297.80,784,781,0
8765858,289.68,784,783,0
8765868,289.86,784,782,0
8765878,297.32,784,783,0
8765888,309.91,784,781,0
8765898,326.26,784,783,0
8765908,344.14,784,781,0
8765918,362.23,784,783,0
8765928,378.62,784,781,0
8765938,392.62,784,783,0
8765948,402.97,784,781,0
8765958,409.75,784,783,0
8765968,412.31,784,781,0
8765978,411.28,784,783,0
8765988,406.57,784,781,0
8765998,399.24,784,783,0
8766008,389.57,784,781,0
8766018,378.68,784,783,0
8766028,366.82,784,781,0
8766039,355.09,784,783,0
8766049,343.70,784,781,0
8766059,333.55,784,783,0
8766069,324.56,784,781,0
8766080,317.32,784,783,0
8766089,311.61,784,781,0
8766099,307.83,784,783,0
8766109,305.31,784,781,0
8766119,304.40,784,783,0
8766129,304.37,784,781,0
8766139,305.37,784,783,0
8766149,306.72,784,781,0
8766159,308.73,784,783,0
8766169,310.65,784,781,0
8766179,312.99,784,783,0
8766189,315.00,784,781,0
8766199,317.27,784,783,0
8766209,319.16,784,781,0
8766219,321.09,784,783,0
8766229,322.43,784,781,0
8766239,323.76,784,783,0
8766249,324.65,784,781,0
8766259,325.91,784,783,0
8766269,327.69,784,781,0
8766279,331.77,784,783,0
8766289,339.47,784,781,0
8766299,353.13,784,783,0
8766309,374.52,784,781,0
8766319,406.08,784,783,0
8766329,446.47,784,781,0
8766339,492.44,784,783,0
8766349,540.65,784,781,0
8766368,588.24,762,780,0
8766371,632.18,762,782,0
8766380,669.80,762,783,0
8766390,698.36,762,781,0
8766400,718.35,762,783,0
8766410,732.35,762,781,0
8766420,742.14,762,783,0
8766430,749.00,762,781,0
8766440,753.80,762,783,0
8766450,757.16,762,781,0
8766460,758.44,762,783,0
8766470,754.84,762,781,0
8766480,744.43,762,783,0
8766490,725.40,762,781,0
8766500,697.55,762,783,0
8766510,661.13,762,781,0
8766520,616.90,762,783,0
8766530,566.49,762,781,0
8766540,514.57,762,783,0
8766551,464.39,762,781,0
8766561,419.83,762,783,0
8766571,382.34,762,781,0
8766581,353.44,762,783,0
8766592,333.16,762,781,0
8766601,322.27,762,783,0
8766611,319.49,762,781,0
8766621,324.40,762,783,0
8766631,334.78,762,781,0
8766641,349.55,762,783,0
8766651,366.27,762,781,0
8766661,383.84,762,783,0
8766671,400.05,762,781,0
8766681,414.22,762,783,0
8766691,424.78,762,781,0
8766701,431.83,762,783,0
8766711,434.67,762,781,0
8766721,434.00,762,783,0
8766731,429.71,762,781,0
8766741,422.94,762,783,0
8766751,413.74,762,781,0
8766761,403.36,762,783,0
8766771,391.85,762,781,0
8766781,380.37,762,783,0
8766791,368.77,762,781,0
8766801,358.08,762,783,0
8766811,347.90,762,781,0
8766821,339.19,762,783,0
8766831,331.67,762,781,0
8766841,326.07,762,783,0
8766851,321.85,762,780,0
8766861,319.71,762,783,0
8766871,318.90,762,781,0
8766881,319.96,762,783,0
8766892,321.94,762,781,0
8766902,324.92,762,783,0
8766912,328.07,762,781,0
8766922,331.52,762,783,0
8766932,334.49,762,781,0
8766942,337.34,762,783,0
8766952,339.43,762,781,0
8766962,341.36,762,783,0
8766972,343.05,762,781,0
8766982,345.56,762,783,0
8766992,349.55,762,781,0
8767002,357.27,762,783,0
8767012,370.35,762,781,0
8767022,391.29,762,783,0
8767032,421.46,762,781,0
8767042,460.23,762,783,0
8767052,504.14,762,781,0
8767063,550.55,762,783,0
8767073,596.16,762,782,0
8767083,638.24,762,783,0
8767102,674.00,734,781,0
8767106,701.34,734,782,0
8767115,720.48,734,782,0
8767125,733.88,734,782,0
8767135,743.26,734,782,0
8767145,749.82,734,782,0
8767155,754.42,734,782,0
8767165,757.64,734,782,0
8767175,759.85,734,782,0
8767185,757.83,734,782,0
8767195,749.57,734,782,0
8767205,733.50,734,782,0
8767215,708.84,734,782,0
8767225,675.54,734,782,0
8767235,634.41,734,782,0
8767245,586.03,734,782,0
8767255,535.02,734,782,0
8767265,485.09,734,782,0
8767276,439.50,734,782,0
8767286,400.57,734,781,0
8767296,369.80,734,782,0
8767306,347.66,734,782,0
8767316,334.65,734,782,0
8767326,330.04,734,782,0
8767336,332.77,734,782,0
8767346,341.24,734,782,0
8767356,353.98,734,783,0
8767366,369.03,734,782,0
8767376,384.62,734,783,0
8767386,399.01,734,782,0
8767396,411.26,734,783,0
8767406,420.44,734,782,0
8767416,426.09,734,783,0
8767426,427.69,734,782,0
8767436,425.64,734,783,0
8767447,420.18,734,781,0
8767457,412.28,734,783,0
8767467,402.43,734,781,0
8767477,391.41,734,783,0
8767488,379.63,734,781,0
8767497,368.21,734,783,0
8767507,357.39,734,782,0
8767517,347.97,734,783,0
8767527,339.58,734,781,0
8767537,332.85,734,783,0
8767547,327.54,734,782,0
8767557,323.99,734,783,0
8767567,321.64,734,781,0
8767577,320.63,734,783,0
8767587,320.31,734,782,0
8767597,320.91,734,783,0
8767607,321.70,734,781,0
8767617,322.82,734,783,0
8767627,323.82,734,781,0
8767637,324.99,734,783,0
8767647,326.06,734,781,0
8767657,328.02,734,783,0
8767667,331.31,734,781,0
8767677,337.90,734,783,0
8767687,349.33,734,781,0
8767697,368.22,734,783,0
8767707,395.62,734,781,0
8767717,433.24,734,783,0
8767727,477.22,734,781,0
8767737,524.77,734,783,0
8767747,572.58,734,781,0
8767757,617.92,734,783,0
8767767,657.59,734,781,0
8767777,689.73,734,783,0
8767797,712.31,695,782,0
8767800,728.12,695,784,0
8767809,739.18,695,781,0
8767819,746.93,695,783,0
8767830,752.35,695,781,0
8767839,756.19,695,783,0
8767849,756.60,695,781,0
8767859,751.45,695,783,0
8767869,738.80,695,781,0
8767879,718.25,695,783,0
8767889,689.20,695,781,0
8767899,652.03,695,783,0
8767909,606.93,695,781,0
8767919,557.45,695,783,0
8767929,506.75,695,781,0
8767939,458.61,695,783,0
8767949,414.67,695,781,0
8767959,377.27,695,783,0
8767969,347.10,695,781,0
8767979,325.56,695,783,0
8767989,311.98,695,781,0
8768000,306.80,695,783,0
8768009,308.32,695,781,0
8768019,316.02,695,783,0
8768029,327.93,695,781,0
8768039,342.99,695,783,0
8768049,358.90,695,781,0
8768059,374.87,695,783,0
8768069,388.88,695,781,0
8768079,400.79,695,783,0
8768089,409.17,695,781,0
8768099,414.13,695,783,0
8768109,414.99,695,781,0
8768119,412.59,695,783,0
8768129,406.76,695,781,0
8768139,398.77,695,783,0
8768149,388.51,695,781,0
8768159,377.34,695,783,0
8768169,365.24,695,781,0
8768179,353.51,695,783,0
8768189,341.96,695,781,0
8768199,331.64,695,783,0
8768209,322.11,695,781,0
8768219,314.32,695,783,0
8768229,307.84,695,781,0
8768239,303.30,695,783,0
8768249,300.12,695,781,0
8768259,298.76,695,783,0
8768269,298.32,695,781,0
8768279,299.29,695,783,0
8768289,300.83,695,781,0
8768300,303.37,695,783,0
8768310,306.39,695,781,0
8768320,310.64,695,783,0
8768330,316.28,695,781,0
8768340,325.32,695,783,0
8768350,338.55,695,781,0
8768360,358.70,695,783,0
8768370,386.99,695,781,0
8768380,425.31,695,783,0
8768390,469.96,695,781,0
8768400,518.14,695,783,0
8768410,566.49,695,781,0
8768420,612.71,695,783,0
8768430,653.56,695,781,0
8768440,686.77,695,783,0
8768450,710.24,695,781,0
8768460,726.71,695,783,0
8768480,738.24,683,782,0
8768483,746.31,683,784,0
8768492,751.96,683,782,0
8768502,755.92,683,783,0
8768513,757.61,683,782,0
8768523,754.30,683,782,0
8768533,743.80,683,782,0
8768543,724.96,683,782,0
8768553,697.20,683,782,0
8768563,660.92,683,783,0
8768573,616.50,683,782,0
8768583,565.78,683,782,0
8768593,512.92,683,782,0
8768603,461.73,683,782,0
8768613,414.80,683,782,0
8768623,374.53,683,782,0
8768633,341.80,683,782,0
8768643,317.56,683,782,0
8768653,302.01,683,782,0
8768663,295.06,683,782,0
8768673,295.60,683,782,0
8768684,302.75,683,782,0
8768694,314.65,683,782,0
8768704,329.67,683,782,0
8768714,346.18,683,782,0
8768724,362.46,683,781,0
8768734,377.11,683,782,0
8768744,389.25,683,782,0
8768754,397.91,683,782,0
8768764,402.65,683,782,0
8768774,403.53,683,782,0
8768784,400.59,683,782,0
8768794,394.67,683,782,0
8768804,386.11,683,782,0
8768814,375.75,683,782,0
8768824,364.25,683,782,0
8768834,352.48,683,782,0
8768844,340.98,683,782,0
8768855,330.27,683,782,0
8768865,320.50,683,781,0
8768875,312.42,683,783,0
8768885,305.74,683,781,0
8768896,300.93,683,783,0
8768905,297.78,683,782,0
8768915,296.39,683,783,0
8768925,296.44,683,781,0
8768935,297.94,683,783,0
8768945,300.14,683,782,0
8768955,303.06,683,783,0
8768965,306.08,683,781,0
8768975,309.36,683,783,0
8768985,312.51,683,782,0
8768995,315.96,683,783,0
8769005,319.87,683,781,0
8769015,325.69,683,783,0
8769025,334.66,683,782,0
8769035,349.12,683,783,0
8769045,370.94,683,781,0
8769055,402.29,683,783,0
8769065,442.53,683,781,0
8769075,488.44,683,783,0
8769085,536.65,683,782,0
8769095,584.58,683,783,0
8769105,628.98,683,782,0
8769115,667.13,683,783,0
8769134,696.49,654,782,0
8769137,717.04,654,783,0
8769146,731.43,654,781,0
8769156,741.50,654,783,0
8769166,748.55,654,781,0
8769176,753.49,654,783,0
8769186,756.51,654,781,0
8769196,755.20,654,783,0
8769206,747.21,654,781,0
8769216,731.38,654,783,0
8769226,706.66,654,781,0
8769236,673.34,654,783,0
8769246,631.71,654,781,0
8769256,583.07,654,783,0
8769266,530.93,654,781,0
8769276,479.48,654,783,0
8769286,431.08,654,781,0
8769296,388.46,654,783,0
8769306,352.58,654,781,0
8769316,324.67,654,783,0
8769326,304.76,654,781,0
8769336,293.26,654,783,0
8769346,289.15,654,781,0
8769356,292.06,654,783,0
8769367,300.36,654,781,0
8769377,313.02,654,783,0
8769387,328.02,654,781,0
8769397,344.30,654,783,0
8769408,359.94,654,781,0
8769417,374.14,654,783,0
8769427,385.41,654,781,0
8769437,393.60,654,783,0
8769447,397.75,654,781,0
8769457,398.43,654,783,0
8769467,395.34,654,781,0
8769477,389.58,654,783,0
8769487,381.01,654,781,0
8769497,371.02,654,782,0
8769507,359.70,654,781,0
8769517,348.43,654,783,0
8769527,337.03,654,781,0
8769537,326.61,654,782,0
8769547,317.00,654,781,0
8769557,309.20,654,783,0
8769567,302.62,654,781,0
8769577,298.02,654,783,0
8769587,294.84,654,781,0
8769597,293.65,654,783,0
8769607,293.58,654,781,0
8769617,294.95,654,783,0
8769627,296.72,654,781,0
8769637,299.29,654,783,0
8769647,301.82,654,781,0
8769657,304.70,654,783,0
8769667,307.28,654,781,0
8769677,309.98,654,783,0
8769687,312.09,654,781,0
8769697,314.37,654,783,0
8769708,316.45,654,781,0
8769718,319.57,654,783,0
8769728,323.77,654,781,0
8769738,331.21,654,783,0
8769748,343.62,654,781,0
8769758,363.58,654,783,0
8769768,392.50,654,781,0
8769778,431.57,654,783,0
8769788,476.65,654,781,0
8769798,525.19,654,783,0
8769808,573.77,654,781,0
8769818,619.44,654,783,0
8769838,659.25,703,782,0
8769841,690.98,703,783,0
8769850,713.18,703,781,0
8769860,728.73,703,783,0
8769870,739.61,703,782,0
8769880,747.23,703,783,0
8769890,752.56,703,781,0
8769900,756.29,703,783,0
8769910,755.86,703,782,0
8769921,749.22,703,783,0
8769931,734.71,703,782,0
8769941,711.70,703,782,0
8769951,679.94,703,782,0
8769961,639.85,703,782,0
8769971,592.19,703,782,0
8769981,540.96,703,783,0
8769991,489.37,703,782,0
8770001,440.66,703,782,0
8770011,396.75,703,781,0
8770021,359.50,703,782,0
8770031,329.60,703,782,0
8770041,307.61,703,782,0
8770051,293.20,703,782,0
8770061,286.45,703,782,0
8770071,286.36,703,782,0
8770081,292.08,703,782,0
8770092,301.96,703,782,0
8770102,314.83,703,782,0
8770112,328.94,703,782,0
8770122,343.14,703,782,0
8770132,356.00,703,782,0
8770142,366.67,703,782,0
8770152,374.27,703,782,0
8770162,378.52,703,782,0
8770172,379.26,703,782,0
8770182,376.83,703,782,0
8770192,371.56,703,782,0
8770202,363.98,703,782,0
8770212,354.60,703,782,0
8770222,344.22,703,782,0
8770232,333.31,703,782,0
8770242,322.42,703,782,0
8770252,311.88,703,782,0
8770263,302.19,703,782,0
8770273,293.60,703,782,0
8770283,286.44,703,782,0
8770293,280.73,703,782,0
8770304,276.66,703,782,0
8770313,274.19,703,782,0
8770323,273.23,703,782,0
8770333,273.68,703,782,0
8770343,275.06,703,781,0
8770353,277.23,703,782,0
8770363,280.12,703,782,0
8770373,283.68,703,782,0
8770383,287.51,703,781,0
8770393,291.68,703,782,0
8770403,295.81,703,782,0
8770413,300.02,703,782,0
8770423,303.83,703,782,0
8770433,307.05,703,782,0
8770443,309.61,703,782,0
8770453,311.87,703,782,0
8770463,314.31,703,782,0
8770473,318.46,703,782,0
8770483,325.99,703,782,0
8770493,339.54,703,782,0
8770503,361.49,703,782,0
8770513,393.91,703,782,0
8770523,435.64,703,782,0
8770533,483.15,703,783,0
8770543,533.12,703,782,0
8770563,582.58,725,781,0
8770566,628.27,725,782,0
8770575,667.10,725,783,0
8770585,696.47,725,781,0
8770595,717.03,725,783,0
8770605,731.42,725,782,0
8770615,741.49,725,783,0
8770625,748.55,725,781,0
8770635,753.48,725,783,0
8770646,756.94,725,781,0
8770655,759.36,725,783,0
8770665,756.85,725,781,0
8770675,747.42,725,783,0
8770685,729.30,725,781,0
8770695,702.55,725,783,0
8770705,666.73,725,781,0
8770715,622.32,725,783,0
8770725,569.86,725,781,0
8770735,515.04,725,783,0
8770745,461.16,725,781,0
8770755,411.74,725,783,0
8770765,367.93,725,781,0
8770775,331.82,725,783,0
8770785,303.93,725,781,0
8770795,285.14,725,783,0
8770805,274.43,725,781,0
8770816,271.64,725,783,0
8770825,275.01,725,781,0
8770835,283.70,725,783,0
8770845,295.75,725,781,0
8770855,310.18,725,783,0
8770865,324.87,725,781,0
8770875,339.05,725,783,0
8770885,350.99,725,781,0
8770895,360.55,725,783,0
8770905,366.73,725,781,0
8770915,369.85,725,783,0
8770925,369.55,725,781,0
8770935,366.56,725,783,0
8770945,360.78,725,781,0
8770955,353.22,725,783,0
8770965,344.02,725,781,0
8770975,334.33,725,783,0
8770985,324.12,725,781,0
8770995,314.22,725,783,0
8771005,304.69,725,781,0
8771015,296.42,725,783,0
8771025,289.10,725,781,0
8771035,283.58,725,783,0
8771045,279.29,725,781,0
8771055,276.80,725,783,0
8771065,275.62,725,781,0
8771075,276.12,725,783,0
8771085,277.54,725,781,0
8771095,280.38,725,783,0
8771105,283.57,725,781,0
8771116,287.55,725,783,0
8771126,291.54,725,781,0
8771136,295.84,725,783,0
8771146,299.70,725,781,0
8771156,303.48,725,783,0
8771166,306.46,725,781,0
8771176,309.24,725,783,0
8771186,311.09,725,781,0
8771196,312.65,725,783,0
8771206,313.27,725,780,0
8771216,313.75,725,783,0
8771226,314.04,725,781,0
8771236,315.70,725,783,0
8771246,319.35,725,781,0
8771256,327.90,725,783,0
8771266,343.27,725,781,0
8771276,368.69,725,783,0
8771287,405.25,725,781,0
8771297,449.96,725,783,0
8771307,499.13,725,781,0
8771326,550.18,764,780,0
8771330,599.37,764,782,0
8771339,643.66,764,783,0
8771349,679.59,764,782,0
8771359,705.21,764,783,0
8771369,723.15,764,781,0
8771379,735.70,764,783,0
8771389,744.49,764,781,0
8771399,750.64,764,783,0
8771409,754.95,764,781,0
8771419,757.97,764,783,0
8771429,760.08,764,781,0
8771439,759.07,764,783,0
8771449,751.85,764,781,0
8771459,737.11,764,783,0
8771469,713.46,764,781,0
8771479,680.79,764,783,0
8771489,639.07,764,781,0
8771500,589.12,764,783,0
8771510,534.31,764,782,0
8771520,479.40,764,782,0
8771530,427.21,764,782,0
8771540,381.08,764,782,0
8771550,342.44,764,782,0
8771560,312.82,764,782,0
8771570,292.39,764,782,0
8771580,281.30,764,782,0
8771590,278.30,764,782,0
8771600,282.54,764,782,0
8771610,291.89,764,782,0
8771620,305.08,764,782,0
8771630,320.06,764,782,0
8771640,335.42,764,782,0
8771650,349.44,764,782,0
8771660,361.44,764,783,0
8771671,370.35,764,782,0
8771681,375.94,764,782,0
8771691,377.85,764,782,0
8771701,376.44,764,782,0
8771712,372.06,764,782,0
8771721,365.53,764,782,0
8771731,357.31,764,782,0
8771741,348.00,764,782,0
8771751,338.32,764,782,0
8771761,329.01,764,782,0
8771771,320.52,764,782,0
8771781,313.08,764,782,0
8771791,306.63,764,782,0
8771801,301.47,764,782,0
8771811,297.68,764,782,0
8771821,295.29,764,782,0
8771831,294.18,764,782,0
8771841,294.17,764,782,0
8771851,295.10,764,782,0
8771861,297.04,764,782,0
8771871,299.60,764,782,0
8771881,302.59,764,782,0
8771891,305.76,764,782,0
8771901,308.83,764,782,0
8771911,311.71,764,782,0
8771921,314.24,764,782,0
8771931,316.35,764,782,0
8771941,318.00,764,782,0
8771951,319.12,764,782,0
8771961,319.47,764,782,0
8771971,319.16,764,782,0
8771981,318.25,764,782,0
8771991,316.81,764,782,0
8772001,314.76,764,782,0
8772012,312.39,764,782,0
8772022,310.26,764,782,0
8772032,309.75,764,783,0
8772042,312.40,764,781,0
8772052,320.55,764,783,0
8772062,336.37,764,782,0
8772072,362.70,764,783,0
8772082,401.06,764,782,0
8772102,447.54,775,780,0
8772105,498.55,775,782,0
8772114,550.76,775,783,0
8772124,600.59,775,781,0
8772134,645.15,775,783,0
8772144,681.07,775,781,0
8772154,706.25,775,783,0
8772164,723.87,775,781,0
8772174,736.21,775,783,0
8772184,744.85,775,781,0
8772194,750.89,775,783,0
8772204,755.13,775,781,0
8772214,758.09,775,783,0
8772225,760.16,775,781,0
8772235,761.61,775,783,0
8772245,760.40,775,781,0
8772255,753.72,775,783,0
8772265,739.06,775,781,0
8772275,715.94,775,783,0
8772285,683.65,775,781,0
8772295,642.78,775,783,0
8772305,593.69,775,780,0
8772315,540.17,775,783,0
8772325,486.12,775,781,0
8772335,435.94,775,783,0
8772345,391.39,775,781,0
8772355,354.88,775,783,0
8772365,326.85,775,781,0
8772375,308.38,775,783,0
8772385,298.32,775,781,0
8772396,296.51,775,783,0
8772406,300.94,775,781,0
8772416,310.77,775,783,0
8772426,323.70,775,781,0
8772436,338.58,775,783,0
8772446,353.15,775,781,0
8772456,366.60,775,783,0
8772466,377.26,775,781,0
8772476,385.20,775,783,0
8772486,389.30,775,781,0
8772496,390.15,775,783,0
8772506,387.32,775,781,0
8772516,381.78,775,783,0
8772526,373.66,775,781,0
8772536,364.08,775,783,0
8772546,353.04,775,781,0
8772556,341.67,775,783,0
8772567,329.94,775,781,0
8772577,318.99,775,783,0
8772587,308.66,775,781,0
8772597,299.72,775,783,0
8772608,292.05,775,781,0
8772617,286.20,775,783,0
8772627,281.81,775,781,0
8772637,279.34,775,783,0
8772647,278.12,775,781,0
8772657,278.47,775,783,0
8772667,279.70,775,781,0
8772677,281.98,775,783,0
8772687,284.60,775,781,0
8772697,287.85,775,783,0
8772707,290.98,775,781,0
8772717,294.29,775,783,0
8772727,297.20,775,781,0
8772737,300.14,775,783,0
8772747,302.46,775,781,0
8772757,304.50,775,783,0
8772767,305.68,775,781,0
8772777,306.51,775,783,0
8772787,306.57,775,781,0
8772797,306.31,775,783,0
8772807,305.45,775,781,0
8772817,304.84,775,783,0
8772827,304.89,775,781,0
8772837,307.32,775,783,0
8772847,313.70,775,781,0
8772857,327.03,775,783,0
8772867,349.01,775,781,0
8772877,382.65,775,783,0
8772887,425.74,775,781,0
8772897,474.93,775,783,0
8772917,526.77,816,782,0
8772920,578.09,816,783,0
8772929,625.12,816,782,0
8772939,665.29,816,782,0
8772950,695.16,816,782,0
8772959,716.11,816,782,0
8772969,730.78,816,782,0
8772979,741.04,816,782,0
8772989,748.23,816,782,0
8772999,753.26,816,782,0
8773009,756.78,816,782,0
8773019,759.25,816,782,0
8773029,760.97,816,782,0
8773039,762.18,816,782,0
8773049,763.03,816,782,0
8773059,760.79,816,782,0
8773069,752.28,816,782,0
8773079,735.87,816,782,0
8773089,710.37,816,782,0
8773099,675.67,816,782,0
8773109,632.18,816,782,0
8773120,580.96,816,782,0
8773129,526.28,816,782,0
8773139,473.01,816,782,0
8773149,424.28,816,782,0
8773159,382.84,816,782,0
8773169,349.97,816,782,0
8773179,326.50,816,782,0
8773189,312.16,816,782,0
8773199,306.28,816,782,0
8773209,307.36,816,782,0
8773219,314.02,816,782,0
8773229,324.47,816,782,0
8773239,337.19,816,782,0
8773249,350.42,816,782,0
8773259,362.89,816,782,0
8773269,373.21,816,782,0
8773279,380.73,816,782,0
8773289,384.84,816,782,0
8773299,385.57,816,783,0
8773309,382.87,816,782,0
8773319,377.25,816,782,0
8773329,369.04,816,782,0
8773339,359.08,816,782,0
8773349,347.96,816,782,0
8773359,336.48,816,782,0
8773369,325.07,816,782,0
8773379,314.50,816,783,0
8773389,304.97,816,782,0
8773399,296.88,816,782,0
8773409,290.31,816,782,0
8773420,285.51,816,782,0
8773430,282.31,816,782,0
8773440,280.63,816,782,0
8773450,280.31,816,783,0
8773460,281.21,816,782,0
8773470,283.20,816,782,0
8773480,285.93,816,782,0
8773490,289.16,816,783,0
8773500,292.63,816,782,0
8773510,296.43,816,782,0
8773520,300.24,816,782,0
8773530,303.94,816,783,0
8773540,307.26,816,782,0
8773550,310.22,816,782,0
8773560,312.77,816,782,0
8773570,314.90,816,782,0
8773580,316.43,816,782,0
8773591,317.37,816,783,0
8773601,317.82,816,782,0
8773611,317.91,816,783,0
8773621,317.68,816,782,0
8773632,317.69,816,783,0
8773641,318.73,816,782,0
8773651,322.37,816,783,0
8773661,330.66,816,782,0
8773671,346.57,816,783,0
8773681,372.16,816,782,0
8773691,409.40,816,783,0
8773701,454.32,816,782,0
8773721,503.85,803,780,0
8773724,554.73,803,782,0
8773733,603.79,803,783,0
8773743,647.31,803,781,0
8773753,682.62,803,783,0
8773763,707.33,803,781,0
8773773,724.63,803,783,0
8773783,736.74,803,781,0
8773793,745.22,803,783,0
8773804,751.15,803,781,0
8773814,755.31,803,783,0
8773824,758.22,803,781,0
8773834,760.25,803,783,0
8773844,761.68,803,781,0
8773854,762.67,803,783,0
8773864,763.37,803,781,0
8773874,761.50,803,783,0
8773884,753.25,803,781,0
8773894,737.15,803,783,0
8773904,711.65,803,781,0
8773914,676.82,803,783,0
8773924,632.91,803,781,0
8773934,581.42,803,783,0
8773944,525.75,803,781,0
8773954,471.48,803,783,0
8773964,421.37,803,781,0
8773975,378.87,803,783,0
8773985,345.14,803,781,0
8773995,321.31,803,783,0
8774005,306.39,803,781,0
8774016,300.36,803,783,0
8774025,301.45,803,781,0
8774035,308.82,803,783,0
8774045,319.97,803,781,0
8774055,333.57,803,782,0
8774065,347.41,803,781,0
8774075,360.83,803,783,0
8774085,371.98,803,781,0
8774095,380.64,803,783,0
8774105,385.76,803,781,0
8774115,387.85,803,783,0
8774125,386.48,803,781,0
8774135,382.56,803,783,0
8774145,375.97,803,781,0
8774155,367.79,803,783,0
8774165,357.91,803,781,0
8774175,347.48,803,783,0
8774185,336.58,803,781,0
8774195,326.33,803,783,0
8774205,316.46,803,781,0
8774215,307.80,803,783,0
8774225,299.89,803,781,0
8774235,293.79,803,783,0
8774245,288.88,803,781,0
8774255,285.75,803,783,0
8774265,283.55,803,781,0
8774275,283.00,803,783,0
8774285,283.26,803,781,0
8774295,284.89,803,783,0
8774305,287.07,803,782,0
8774316,290.18,803,783,0
8774326,293.38,803,781,0
8774336,297.17,803,783,0
8774346,300.76,803,782,0
8774356,304.60,803,783,0
8774366,308.02,803,781,0
8774376,311.32,803,783,0
8774386,313.92,803,782,0
8774396,316.17,803,783,0
8774406,317.58,803,781,0
8774416,318.78,803,783,0
8774426,319.74,803,782,0
8774436,322.01,803,783,0
8774446,326.68,803,781,0
8774456,336.67,803,783,0
8774466,354.39,803,782,0
8774476,382.98,803,783,0
8774487,421.95,803,782,0
8774497,467.99,803,783,0
8774507,517.66,803,782,0
8774526,568.21,806,781,0
8774530,615.93,806,783,0
8774539,657.61,806,782,0
8774549,689.83,806,783,0
8774559,712.38,806,782,0
8774569,728.16,806,783,0
8774579,739.22,806,782,0
8774589,746.95,806,782,0
8774599,752.37,806,782,0
8774609,756.16,806,782,0
8774619,758.81,806,782,0
8774629,760.67,806,782,0
8774639,761.97,806,782,0
8774649,762.88,806,783,0
8774659,761.63,806,782,0
8774669,754.88,806,782,0
8774679,740.22,806,782,0
8774689,716.50,806,782,0
8774700,683.39,806,782,0
8774710,641.49,806,783,0
8774720,591.50,806,782,0
8774730,536.83,806,783,0
8774740,482.28,806,781,0
8774750,432.14,806,782,0
8774760,388.90,806,782,0
8774770,354.52,806,783,0
8774780,329.29,806,781,0
8774790,313.52,806,782,0
8774800,306.12,806,782,0
8774810,306.21,806,783,0
8774820,311.93,806,781,0
8774830,321.81,806,782,0
8774840,333.82,806,782,0
8774850,346.78,806,783,0
8774860,358.97,806,781,0
8774871,369.48,806,782,0
8774881,377.09,806,781,0
8774891,381.74,806,783,0
8774901,382.97,806,781,0
8774912,381.14,806,783,0
8774921,376.34,806,781,0
8774931,369.38,806,783,0
8774941,360.52,806,781,0
8774951,350.90,806,782,0
8774961,340.56,806,781,0
8774971,330.57,806,783,0
8774981,320.84,806,781,0
8774991,312.19,806,783,0
8775001,304.63,806,781,0
8775011,298.87,806,783,0
8775021,294.54,806,781,0
8775031,292.15,806,783,0
8775041,291.12,806,781,0
8775051,291.90,806,783,0
8775061,293.69,806,781,0
8775071,296.61,806,783,0
8775081,299.90,806,781,0
8775091,303.74,806,783,0
8775101,307.33,806,781,0
8775111,311.01,806,783,0
8775121,314.09,806,781,0
8775131,317.02,806,783,0
8775141,319.03,806,781,0
8775151,320.65,806,783,0
8775161,321.23,806,781,0
8775171,321.41,806,783,0
8775181,320.69,806,781,0
8775191,319.75,806,783,0
8775201,318.54,806,781,0
8775212,318.72,806,783,0
8775222,321.42,806,781,0
8775232,329.57,806,783,0
8775242,345.30,806,781,0
8775252,371.91,806,783,0
8775262,409.86,806,781,0
8775272,455.68,806,783,0
8775282,505.83,806,781,0
8775302,557.31,775,780,0
8775305,606.46,775,781,0
8775314,650.04,775,783,0
8775324,684.48,775,781,0
8775334,708.64,775,783,0
8775344,725.55,775,781,0
8775354,737.38,775,783,0
8775364,745.67,775,781,0
8775374,751.47,775,783,0
8775384,755.53,775,781,0
8775394,758.37,775,783,0
8775404,760.36,775,782,0
8775414,761.75,775,783,0
8775425,762.73,775,781,0
8775435,763.41,775,783,0
8775445,759.69,775,782,0
8775455,749.11,775,783,0
8775465,729.70,775,781,0
8775475,701.46,775,783,0
8775485,664.08,775,782,0
8775495,618.54,775,783,0
8775505,565.62,775,781,0
8775515,511.35,775,783,0
8775525,459.39,775,781,0
8775535,413.63,775,783,0
8775545,375.30,775,781,0
8775555,346.15,775,783,0
8775565,326.01,775,781,0
8775575,315.12,775,783,0
8775585,311.83,775,781,0
8775596,315.35,775,783,0
8775606,323.56,775,782,0
8775616,335.18,775,783,0
8775626,348.15,775,782,0
8775636,361.31,775,782,0
8775646,372.91,775,781,0
8775656,382.41,775,783,0
8775666,388.80,775,782,0
8775676,391.99,775,782,0
8775686,391.74,775,782,0
8775696,388.56,775,783,0
8775706,382.52,775,782,0
8775716,374.52,775,783,0
8775726,364.81,775,781,0
8775736,354.45,775,783,0
8775746,343.82,775,782,0
8775756,333.67,775,783,0
8775767,324.13,775,782,0
8775777,315.90,775,782,0
8775787,308.90,775,782,0
8775797,303.58,775,782,0
8775808,299.50,775,782,0
8775817,296.99,775,782,0
8775827,295.58,775,782,0
8775837,295.36,775,782,0
8775847,296.03,775,782,0
8775857,297.52,775,783,0
8775867,299.51,775,782,0
8775877,301.97,775,782,0
8775887,304.51,775,782,0
8775897,307.14,775,782,0
8775907,309.63,775,782,0
8775917,312.10,775,782,0
8775927,314.30,775,782,0
8775937,316.35,775,782,0
8775947,318.04,775,782,0
8775957,319.40,775,782,0
8775967,320.31,775,782,0
8775977,320.82,775,782,0
8775987,320.79,775,782,0
8775997,320.98,775,782,0
8776007,322.40,775,782,0
8776017,327.08,775,782,0
8776027,337.13,775,782,0
8776037,355.43,775,782,0
8776047,384.83,775,782,0
8776057,424.65,775,782,0
8776067,471.26,775,782,0
8776086,521.41,785,781,0
8776089,571.81,785,782,0
8776098,619.31,785,782,0
8776108,660.40,785,783,0
8776118,691.83,785,782,0
8776128,713.82,785,783,0
8776138,729.22,785,782,0
8776148,740.00,785,783,0
8776158,747.50,785,782,0
8776168,752.75,785,782,0
8776178,756.42,785,782,0
8776188,759.00,785,783,0
8776198,760.80,785,782,0
8776208,762.06,785,782,0
8776218,762.94,785,782,0
8776228,763.56,785,783,0
8776238,763.99,785,782,0
8776248,760.39,785,782,0
8776258,749.82,785,782,0
8776268,730.72,785,782,0
8776279,702.22,785,781,0
8776289,664.82,785,783,0
8776299,619.36,785,782,0
8776309,567.22,785,783,0
8776320,513.59,785,781,0
8776329,463.35,785,783,0
8776339,419.45,785,782,0
8776349,384.21,785,783,0
8776359,358.05,785,781,0
8776369,341.02,785,783,0
8776379,332.19,785,781,0
8776389,330.59,785,783,0
8776399,334.18,785,781,0
8776409,341.54,785,783,0
8776419,350.85,785,781,0
8776429,361.01,785,783,0
8776439,370.48,785,781,0
8776449,378.39,785,783,0
8776459,383.72,785,781,0
8776469,386.46,785,783,0
8776479,386.32,785,781,0
8776489,383.78,785,783,0
8776499,378.66,785,781,0
8776509,371.91,785,783,0
8776519,363.71,785,781,0
8776529,355.09,785,783,0
8776539,346.15,785,781,0
8776549,337.62,785,783,0
8776559,329.33,785,781,0
8776569,322.03,785,783,0
8776579,315.60,785,781,0
8776589,310.53,785,783,0
8776599,306.60,785,781,0
8776609,304.11,785,783,0
8776620,302.62,785,781,0
8776630,302.52,785,783,0
8776640,303.31,785,781,0
8776650,305.10,785,783,0
8776660,307.34,785,781,0
8776670,310.28,785,783,0
8776680,313.33,785,781,0
8776690,316.83,785,783,0
8776700,320.01,785,781,0
8776710,323.35,785,783,0
8776720,326.20,785,781,0
8776730,328.97,785,783,0
8776740,330.86,785,781,0
8776750,332.53,785,783,0
8776760,333.36,785,781,0
8776770,334.11,785,783,0
8776780,334.59,785,781,0
8776791,336.38,785,783,0
8776801,340.73,785,781,0
8776811,350.54,785,783,0
8776821,367.73,785,781,0
8776832,395.54,785,783,0
8776841,433.39,785,781,0
8776851,478.10,785,783,0
8776870,526.33,784,782,0
8776873,575.22,784,784,0
8776882,621.27,784,781,0
8776892,661.51,784,783,0
8776902,692.56,784,781,0
8776912,714.29,784,783,0
8776922,729.50,784,781,0
8776932,740.15,784,783,0
8776942,747.61,784,781,0
8776952,752.83,784,783,0
8776962,756.48,784,781,0
8776972,759.03,784,783,0
8776982,760.82,784,781,0
8776992,762.08,784,783,0
8777003,762.95,784,781,0
8777012,763.57,784,783,0
8777022,762.33,784,781,0
8777032,756.19,784,783,0
8777042,742.59,784,781,0
8777052,720.94,784,783,0
8777062,690.53,784,781,0
8777072,651.97,784,783,0
8777082,605.78,784,781,0
8777092,555.19,784,783,0
8777102,504.30,784,781,0
8777112,457.63,784,783,0
8777122,416.77,784,781,0
8777132,384.05,784,783,0
8777142,359.52,784,781,0
8777152,343.89,784,783,0
8777162,335.70,784,781,0
8777172,334.59,784,783,0
8777182,338.23,784,781,0
8777192,345.79,784,783,0
8777202,355.02,784,781,0
8777212,365.09,784,783,0
8777222,374.10,784,781,0
8777232,381.83,784,783,0
8777242,386.81,784,781,0
8777252,389.40,784,783,0
8777262,388.81,784,781,0
8777272,385.78,784,783,0
8777282,380.14,784,781,0
8777292,372.86,784,783,0
8777303,363.82,784,781,0
8777313,354.27,784,783,0
8777323,344.20,784,781,0
8777333,334.71,784,783,0
8777344,325.71,784,781,0
8777353,318.09,784,783,0
8777363,311.42,784,781,0
8777373,306.58,784,783,0
8777383,302.98,784,781,0
8777393,301.18,784,783,0
8777403,300.53,784,781,0
8777413,301.36,784,783,0
8777423,302.88,784,781,0
8777433,305.66,784,783,0
8777443,308.80,784,781,0
8777453,312.63,784,783,0
8777463,316.30,784,781,0
8777473,320.20,784,783,0
8777483,323.61,784,781,0
8777493,326.94,784,783,0
8777503,329.32,784,781,0
8777513,331.15,784,783,0
8777523,331.92,784,781,0
8777533,332.29,784,783,0
8777543,331.64,784,781,0
8777553,331.19,784,783,0
8777563,330.96,784,781,0
8777573,333.20,784,783,0
8777583,339.40,784,781,0
8777593,352.61,784,783,0
8777603,374.33,784,781,0
8777613,407.57,784,783,0
8777623,449.27,784,782,0
8777633,496.63,784,783,0
8777653,545.99,783,782,0
8777656,594.42,783,783,0
8777665,638.31,783,782,0
8777675,675.24,783,783,0
8777686,702.17,783,782,0
8777695,721.06,783,783,0
8777705,734.29,783,782,0
8777715,743.54,783,782,0
8777725,750.02,783,782,0
8777735,754.56,783,783,0
8777745,757.73,783,782,0
8777755,759.96,783,783,0
8777765,761.47,783,782,0
8777775,762.53,783,783,0
8777785,762.88,783,782,0
8777795,759.02,783,783,0
8777805,748.17,783,782,0
8777815,729.35,783,783,0
8777825,701.47,783,782,0
8777835,664.82,783,782,0
8777845,619.83,783,782,0
8777856,568.11,783,782,0
8777865,514.46,783,782,0
8777875,463.37,783,782,0
8777885,417.27,783,782,0
8777895,378.75,783,782,0
8777905,348.61,783,782,0
8777915,327.55,783,782,0
8777925,315.00,783,782,0
8777935,310.29,783,782,0
8777945,311.79,783,782,0
8777955,318.19,783,782,0
8777965,327.65,783,781,0
8777975,338.90,783,782,0
8777985,350.20,783,782,0
8777995,360.68,783,782,0
8778005,369.05,783,782,0
8778015,375.03,783,782,0
8778025,377.98,783,782,0
8778035,378.24,783,782,0
8778045,375.60,783,782,0
8778055,370.66,783,782,0
8778065,363.61,783,782,0
8778075,355.32,783,782,0
8778085,346.01,783,782,0
8778095,336.49,783,782,0
8778105,326.96,783,782,0
8778115,318.19,783,782,0
8778125,310.25,783,782,0
8778135,303.79,783,782,0
8778145,298.84,783,782,0
8778156,295.80,783,782,0
8778166,294.62,783,782,0
8778176,295.29,783,782,0
8778186,297.56,783,782,0
8778196,301.25,783,782,0
8778206,305.72,783,782,0
8778216,310.64,783,782,0
8778226,315.47,783,782,0
8778236,319.74,783,782,0
8778246,323.16,783,782,0
8778256,325.51,783,782,0
8778266,326.77,783,782,0
8778276,326.97,783,782,0
8778286,326.34,783,782,0
8778296,325.08,783,782,0
8778306,323.68,783,782,0
8778316,322.66,783,782,0
8778327,323.06,783,782,0
8778337,326.22,783,782,0
8778347,334.25,783,783,0
8778357,349.30,783,782,0
8778368,374.03,783,783,0
8778377,409.51,783,782,0
8778387,453.11,783,783,0
8778397,501.38,783,782,0
8778417,551.32,763,780,0
8778420,599.61,763,782,0
8778429,643.18,763,783,0
8778439,678.79,763,781,0
8778449,704.65,763,783,0
8778459,722.76,763,782,0
8778469,735.43,763,783,0
8778479,744.30,763,781,0
8778489,750.51,763,783,0
8778499,754.86,763,781,0
8778509,757.90,763,783,0
8778519,760.03,763,781,0
8778529,761.52,763,783,0
8778540,762.56,763,781,0
8778550,760.21,763,783,0
8778560,751.45,763,781,0
8778570,734.77,763,783,0
8778580,708.82,763,781,0
8778590,674.16,763,783,0
8778600,630.83,763,781,0
8778610,579.75,763,783,0
8778620,525.01,763,781,0
8778630,471.52,763,783,0
8778640,422.25,763,781,0
8778650,380.60,763,783,0
8778660,346.99,763,781,0
8778670,322.87,763,783,0
8778680,307.65,763,781,0
8778690,301.24,763,783,0
8778700,301.81,763,781,0
8778711,308.38,763,783,0
8778721,318.34,763,781,0
8778731,330.71,763,783,0
8778741,343.05,763,781,0
8778752,354.87,763,783,0
8778761,364.33,763,781,0
8778771,371.39,763,783,0
8778781,374.87,763,781,0
8778791,375.43,763,783,0
8778801,372.68,763,781,0
8778811,367.89,763,783,0
8778821,361.03,763,781,0
8778831,353.47,763,783,0
8778841,345.19,763,781,0
8778851,337.38,763,783,0
8778861,329.72,763,781,0
8778871,323.25,763,783,0
8778881,317.52,763,781,0
8778891,313.20,763,783,0
8778901,309.59,763,781,0
8778911,307.35,763,783,0
8778921,305.75,763,781,0
8778931,305.57,763,783,0
8778941,305.78,763,781,0
8778951,306.96,763,783,0
8778961,308.34,763,781,0
8778971,310.56,763,783,0
8778981,312.75,763,781,0
8778991,315.52,763,783,0
8779001,317.94,763,781,0
8779011,320.61,763,783,0
8779021,322.74,763,781,0
8779031,324.83,763,783,0
8779041,325.91,763,781,0
8779052,326.62,763,783,0
8779062,326.48,763,781,0
8779072,326.46,763,783,0
8779082,326.88,763,781,0
8779092,329.79,763,783,0
8779102,336.15,763,781,0
8779112,349.22,763,783,0
8779122,370.80,763,781,0
8779132,403.60,763,783,0
8779142,445.21,763,781,0
8779152,492.37,763,783,0
8779171,541.55,755,782,0
8779174,590.24,755,783,0
8779183,634.83,755,781,0
8779193,672.51,755,783,0
8779203,700.30,755,782,0
8779213,719.79,755,783,0
8779223,733.44,755,782,0
8779233,742.99,755,783,0
8779243,749.64,755,782,0
8779253,754.29,755,783,0
8779264,757.55,755,782,0
8779273,759.87,755,783,0
8779283,761.45,755,782,0
8779293,760.67,755,783,0
8779303,754.26,755,782,0
8779313,740.77,755,783,0
8779323,718.51,755,782,0
8779333,687.37,755,783,0
8779343,647.14,755,782,0
8779353,599.02,755,783,0
8779363,545.40,755,782,0
8779373,491.23,755,783,0
8779383,439.22,755,781,0
8779393,392.74,755,783,0
8779403,353.05,755,782,0
8779413,321.83,755,783,0
8779423,298.87,755,782,0
8779433,284.72,755,783,0
8779443,278.16,755,782,0
8779453,278.71,755,783,0
8779463,284.67,755,782,0
8779473,294.97,755,783,0
8779483,307.66,755,782,0
8779493,321.69,755,783,0
8779503,335.20,755,782,0
8779513,347.70,755,782,0
8779523,357.73,755,782,0
8779533,365.23,755,783,0
8779543,369.49,755,781,0
8779553,370.84,755,782,0
8779564,369.13,755,782,0
8779574,365.19,755,782,0
8779584,359.01,755,782,0
8779594,351.50,755,782,0
8779604,342.87,755,782,0
8779614,334.12,755,783,0
8779624,325.34,755,782,0
8779634,317.14,755,782,0
8779644,309.55,755,782,0
8779654,303.13,755,782,0
8779664,297.65,755,782,0
8779674,293.43,755,782,0
8779684,290.34,755,782,0
8779694,288.65,755,782,0
8779704,287.99,755,782,0
8779714,288.50,755,782,0
8779724,289.81,755,782,0
8779735,292.10,755,782,0
8779745,294.90,755,782,0
8779755,297.93,755,782,0
8779765,300.86,755,782,0
8779776,303.78,755,782,0
8779785,306.29,755,782,0
8779795,308.47,755,782,0
8779805,310.04,755,782,0
8779815,311.15,755,782,0
8779825,311.92,755,782,0
8779835,312.97,755,782,0
8779845,315.34,755,783,0
8779855,320.89,755,782,0
8779865,331.42,755,782,0
8779875,349.77,755,782,0
8779885,378.51,755,783,0
8779895,417.96,755,782,0
8779905,464.38,755,782,0
8779915,514.54,755,782,0
8779934,565.08,763,781,0
8779937,613.14,763,782,0
8779947,655.23,763,783,0
8779956,688.20,763,782,0
8779966,711.33,763,783,0
8779976,727.51,763,782,0
8779986,738.85,763,783,0
8779996,746.78,763,782,0
8780006,752.29,763,783,0
8780016,756.14,763,782,0
8780026,758.84,763,783,0
8780036,760.69,763,782,0
8780046,761.98,763,783,0
8780056,762.89,763,782,0
8780066,759.71,763,783,0
8780076,750.20,763,782,0
8780086,732.48,763,783,0
8780096,705.59,763,782,0
8780106,669.59,763,783,0
8780116,624.80,763,781,0
8780126,572.57,763,783,0
8780136,517.76,763,782,0
8780146,464.26,763,783,0
8780156,415.32,763,782,0
8780166,373.53,763,782,0
8780176,340.03,763,782,0
8780186,315.68,763,782,0
8780196,299.92,763,781,0
8780206,292.36,763,782,0
8780216,291.78,763,782,0
8780226,296.99,763,783,0
8780236,306.21,763,781,0
8780247,318.10,763,783,0
8780257,330.84,763,781,0
8780267,343.36,763,783,0
8780277,354.35,763,781,0
8780288,363.20,763,783,0
8780297,369.23,763,781,0
8780307,372.42,763,783,0
8780317,372.42,763,781,0
8780327,369.98,763,783,0
8780337,365.01,763,781,0
8780347,358.37,763,783,0
8780357,350.07,763,781,0
8780367,341.09,763,783,0
8780377,331.51,763,782,0
8780387,322.27,763,783,0
8780397,313.32,763,781,0
8780407,305.42,763,783,0
8780417,298.52,763,781,0
8780427,293.22,763,783,0
8780437,289.17,763,781,0
8780447,286.85,763,783,0
8780457,285.78,763,781,0
8780467,286.23,763,783,0
8780477,287.58,763,781,0
8780487,290.02,763,783,0
8780497,292.80,763,781,0
8780507,296.12,763,783,0
8780517,299.25,763,781,0
8780527,302.43,763,783,0
8780537,304.92,763,781,0
8780547,307.13,763,783,0
8780557,308.38,763,781,0
8780567,309.16,763,783,0
8780577,309.11,763,781,0
8780588,309.29,763,783,0
8780598,310.19,763,781,0
8780608,314.03,763,783,0
8780618,322.60,763,781,0
8780628,339.09,763,783,0
8780638,365.16,763,781,0
8780648,403.13,763,783,0
8780658,448.95,763,781,0
8780668,499.45,763,783,0
8780678,551.13,763,781,0
8780697,600.80,763,780,0
8780700,644.83,763,781,0
8780709,680.84,763,783,0
8780719,706.17,763,781,0
8780729,723.91,763,783,0
8780739,736.32,763,781,0
8780749,745.01,763,783,0
8780759,751.09,763,781,0
8780769,755.31,763,783,0
8780779,758.22,763,781,0
8780789,760.25,763,783,0
8780800,761.68,763,781,0
8780809,760.19,763,783,0
8780819,752.63,763,781,0
8780829,737.57,763,783,0
8780839,713.44,763,781,0
8780849,680.78,763,783,0
8780859,639.49,763,781,0
8780869,590.49,763,783,0
8780879,537.03,763,781,0
8780889,484.00,763,783,0
8780899,434.03,763,781,0
8780909,390.39,763,783,0
8780919,353.55,763,781,0
8780929,325.18,763,783,0
8780939,305.16,763,781,0
8780949,293.92,763,783,0
8780959,290.05,763,781,0
8780969,293.03,763,783,0
8780979,300.82,763,780,0
8780989,312.70,763,783,0
8780999,326.38,763,781,0
8781009,340.84,763,783,0
8781019,354.13,763,780,0
8781029,365.96,763,783,0
8781039,374.97,763,781,0
8781049,381.41,763,783,0
8781059,384.50,763,780,0
8781069,384.82,763,783,0
8781079,382.05,763,781,0
8781089,377.15,763,783,0
8781100,369.99,763,780,0
8781110,361.59,763,783,0
8781120,351.90,763,781,0
8781130,342.03,763,783,0
8781140,331.99,763,781,0
8781150,322.82,763,783,0
8781160,314.26,763,781,0
8781170,307.11,763,783,0
8781180,301.04,763,781,0
8781190,296.78,763,783,0
8781200,293.59,763,781,0
8781210,292.08,763,783,0
8781220,291.59,763,781,0
8781230,292.48,763,783,0
8781240,293.92,763,781,0
8781250,296.26,763,783,0
8781260,298.67,763,781,0
8781271,301.42,763,783,0
8781281,303.83,763,781,0
8781291,306.19,763,783,0
8781301,308.06,763,781,0
8781312,310.36,763,783,0
8781321,313.25,763,781,0
8781331,318.62,763,783,0
8781341,328.03,763,781,0
8781351,344.14,763,783,0
8781361,368.78,763,781,0
8781371,404.59,763,783,0
8781381,448.34,763,781,0
8781391,497.01,763,783,0
8781401,547.19,763,781,0
8781411,595.95,763,783,0
8781430,639.98,733,782,0
8781433,676.71,733,783,0
8781442,703.20,733,782,0
8781452,721.74,733,783,0
8781462,734.72,733,782,0
8781472,743.80,733,783,0
8781483,750.16,733,782,0
8781492,754.66,733,783,0
8781502,757.80,733,782,0
8781512,760.00,733,783,0
8781522,761.55,733,782,0
8781532,762.63,733,783,0
8781542,763.38,733,782,0
8781552,763.91,733,783,0
8781562,762.78,733,782,0
8781572,757.02,733,783,0
8781582,743.98,733,781,0
8781592,722.43,733,783,0
8781602,691.92,733,782,0
8781612,653.28,733,783,0
8781622,607.17,733,781,0
8781632,556.50,733,783,0
8781642,505.65,733,782,0
8781652,459.13,733,782,0
8781662,419.32,733,782,0
8781672,388.11,733,783,0
8781682,365.45,733,782,0
8781692,351.56,733,782,0
8781702,345.18,733,781,0
8781712,345.25,733,782,0
8781722,349.76,733,782,0
8781732,357.42,733,782,0
8781742,366.34,733,781,0
8781752,375.54,733,782,0
8781762,383.52,733,782,0
8781772,389.66,733,782,0
8781783,393.19,733,782,0
8781793,393.99,733,782,0
8781803,391.94,733,782,0
8781813,387.33,733,782,0
8781824,380.29,733,782,0
8781833,371.63,733,782,0
8781843,361.71,733,782,0
8781853,351.34,733,782,0
8781863,340.91,733,782,0
8781873,331.04,733,782,0
8781883,322.07,733,782,0
8781893,314.38,733,782,0
8781903,307.96,733,782,0
8781913,303.13,733,782,0
8781923,299.62,733,782,0
8781933,297.51,733,782,0
8781943,296.54,733,782,0
8781953,296.46,733,782,0
8781963,297.01,733,782,0
8781973,297.91,733,782,0
8781983,298.88,733,782,0
8781993,299.90,733,782,0
8782003,300.92,733,782,0
8782013,302.18,733,782,0
8782023,304.44,733,782,0
8782033,309.20,733,782,0
8782043,318.31,733,782,0
8782053,334.29,733,782,0
8782063,359.70,733,782,0
8782073,396.65,733,782,0
8782083,441.84,733,782,0
8782093,491.99,733,782,0
8782103,543.72,733,782,0
8782113,593.95,733,782,0
8782124,639.35,733,783,0
8782143,676.74,713,781,0
8782146,703.48,713,784,0
8782155,722.15,713,781,0
8782166,735.22,713,783,0
8782175,744.37,713,782,0
8782185,750.81,713,783,0
8782195,755.28,713,781,0
8782205,758.41,713,783,0
8782215,760.60,713,782,0
8782225,762.18,713,783,0
8782235,763.24,713,781,0
8782245,763.98,713,783,0
8782255,764.50,713,782,0
8782265,762.25,713,783,0
8782275,753.99,713,781,0
8782285,737.75,713,783,0
8782295,712.63,713,782,0
8782305,678.54,713,783,0
8782315,635.78,713,781,0
8782325,585.31,713,783,0
8782336,530.96,713,781,0
8782345,477.57,713,783,0
8782355,428.50,713,781,0
8782365,386.35,713,783,0
8782375,352.30,713,781,0
8782385,327.31,713,783,0
8782395,311.02,713,781,0
8782405,303.04,713,783,0
8782415,301.83,713,781,0
8782425,306.29,713,783,0
8782435,314.35,713,781,0
8782445,324.70,713,783,0
8782455,335.46,713,781,0
8782465,345.78,713,783,0
8782475,354.25,713,781,0
8782485,360.43,713,783,0
8782495,363.52,713,781,0
8782505,363.79,713,783,0
8782515,361.24,713,781,0
8782525,356.45,713,783,0
8782535,349.46,713,781,0
8782545,341.14,713,783,0
8782555,331.84,713,781,0
8782565,322.42,713,783,0
8782575,312.90,713,781,0
8782585,304.10,713,783,0
8782595,295.97,713,781,0
8782605,289.12,713,782,0
8782615,283.34,713,781,0
8782625,279.00,713,783,0
8782636,275.70,713,781,0
8782646,273.90,713,783,0
8782656,272.82,713,781,0
8782666,272.83,713,783,0
8782676,273.35,713,781,0
8782686,274.62,713,783,0
8782696,276.02,713,781,0
8782706,277.86,713,783,0
8782716,279.70,713,781,0
8782726,282.40,713,783,0
8782736,286.18,713,781,0
8782746,292.73,713,783,0
8782756,303.44,713,781,0
8782766,320.62,713,783,0
8782776,346.41,713,781,0
8782786,383.31,713,783,0
8782796,428.78,713,781,0
8782807,479.41,713,783,0
8782817,531.75,713,781,0
8782827,582.78,713,783,0
8782846,629.43,703,782,0
8782850,668.69,703,783,0
8782859,697.67,703,781,0
8782869,718.00,703,783,0
8782879,732.27,703,781,0
8782889,742.26,703,783,0
8782899,749.25,703,781,0
8782909,754.19,703,783,0
8782919,757.65,703,781,0
8782929,760.03,703,783,0
8782939,761.65,703,781,0
8782949,762.78,703,783,0
8782959,759.68,703,781,0
8782969,750.00,703,783,0
8782979,732.22,703,781,0
8782989,705.66,703,783,0
8782999,669.94,703,781,0
8783009,625.64,703,783,0
8783020,573.33,703,781,0
8783030,518.25,703,783,0
8783040,463.92,703,781,0
8783050,413.63,703,783,0
8783060,369.30,703,781,0
8783070,332.91,703,783,0
8783080,304.95,703,781,0
8783090,286.19,703,783,0
8783100,275.85,703,781,0
8783110,273.28,703,783,0
8783120,276.88,703,781,0
8783130,285.75,703,783,0
8783140,297.74,703,781,0
8783150,311.74,703,783,0
8783160,325.58,703,781,0
8783170,338.65,703,783,0
8783180,349.55,703,782,0
8783191,357.87,703,783,0
8783201,362.63,703,782,0
8783211,364.28,703,783,0
8783221,362.35,703,782,0
8783232,357.70,703,783,0
8783241,350.21,703,781,0
8783251,340.97,703,783,0
8783261,330.40,703,782,0
8783271,319.39,703,782,0
8783281,308.26,703,781,0
8783291,297.98,703,782,0
8783301,288.64,703,782,0
8783311,280.82,703,782,0
8783321,274.45,703,781,0
8783331,269.81,703,783,0
8783341,266.78,703,782,0
8783351,265.35,703,783,0
8783361,265.12,703,781,0
8783371,266.15,703,783,0
8783381,267.95,703,782,0
8783391,270.54,703,783,0
8783401,273.33,703,782,0
8783411,276.49,703,783,0
8783421,279.56,703,781,0
8783431,282.56,703,782,0
8783441,285.14,703,782,0
8783451,287.67,703,783,0
8783461,290.08,703,781,0
8783471,293.44,703,783,0
8783481,298.75,703,782,0
8783491,307.96,703,783,0
8783501,323.14,703,781,0
8783511,347.18,703,783,0
8783521,382.01,703,782,0
8783532,426.11,703,783,0
8783542,475.75,703,782,0
8783552,527.68,703,782,0
8783562,578.86,703,782,0
8783582,626.05,735,781,0
8783585,665.89,735,783,0
8783594,695.75,735,782,0
8783604,716.70,735,783,0
8783614,731.36,735,781,0
8783624,741.67,735,783,0
8783634,748.84,735,782,0
8783644,753.90,735,783,0
8783654,757.40,735,781,0
8783664,759.81,735,783,0
8783674,761.45,735,782,0
8783684,762.65,735,783,0
8783694,760.48,735,781,0
8783704,752.49,735,783,0
8783714,736.49,735,782,0
8783724,711.36,735,783,0
8783734,676.79,735,781,0
8783745,633.23,735,783,0
8783755,581.34,735,781,0
8783765,525.53,735,783,0
8783775,469.61,735,781,0
8783785,417.53,735,783,0
8783795,371.68,735,781,0
8783805,334.06,735,783,0
8783815,305.16,735,781,0
8783825,285.57,735,783,0
8783835,274.38,735,781,0
8783845,271.14,735,783,0
8783855,274.06,735,781,0
8783865,282.18,735,783,0
8783875,293.36,735,781,0
8783885,306.62,735,783,0
8783895,320.06,735,781,0
8783905,332.86,735,783,0
8783916,343.53,735,781,0
8783926,351.86,735,783,0
8783936,356.96,735,781,0
8783946,359.16,735,783,0
8783956,357.99,735,781,0
8783966,354.22,735,783,0
8783976,347.81,735,781,0
8783986,339.73,735,783,0
8783996,330.04,735,781,0
8784006,319.78,735,783,0
8784016,309.05,735,781,0
8784026,298.96,735,783,0
8784036,289.25,735,781,0
8784046,280.90,735,783,0
8784056,273.60,735,781,0
8784066,268.11,735,783,0
8784076,263.92,735,781,0
8784087,261.76,735,783,0
8784097,260.84,735,781,0
8784107,261.75,735,783,0
8784117,263.49,735,781,0
8784128,266.56,735,783,0
8784137,269.99,735,781,0
8784147,274.15,735,783,0
8784157,278.05,735,781,0
8784167,282.02,735,783,0
8784177,285.23,735,781,0
8784187,288.25,735,783,0
8784197,290.53,735,781,0
8784207,293.11,735,783,0
8784217,296.16,735,781,0
8784227,301.64,735,783,0
8784237,311.01,735,781,0
8784247,327.38,735,783,0
8784257,352.38,735,781,0
8784267,388.78,735,783,0
8784277,433.67,735,781,0
8784287,483.87,735,783,0
8784297,535.85,735,781,0
8784307,586.68,735,783,0
8784326,632.64,745,782,0
8784329,671.27,745,783,0
8784338,699.52,745,781,0
8784348,719.34,745,783,0
8784358,733.21,745,781,0
8784368,742.96,745,783,0
8784378,749.74,745,781,0
8784388,754.53,745,783,0
8784398,757.85,745,781,0
8784408,760.16,745,783,0
8784418,761.79,745,781,0
8784428,762.96,745,783,0
8784438,762.20,745,780,0
8784448,756.36,745,783,0
8784458,742.62,745,781,0
8784468,719.89,745,783,0
8784478,687.74,745,780,0
8784488,646.50,745,783,0
8784498,596.59,745,781,0
8784508,541.04,745,783,0
8784518,484.29,745,781,0
8784528,431.02,745,783,0
8784538,383.57,745,781,0
8784548,344.14,745,783,0
8784558,313.33,745,780,0
8784568,292.06,745,783,0
8784578,279.53,745,781,0
8784588,275.38,745,783,0
8784599,277.80,745,781,0
8784609,285.79,745,783,0
8784619,297.21,745,781,0
8784629,310.95,745,783,0
8784640,324.93,745,781,0
8784649,338.15,745,783,0
8784659,349.08,745,781,0
8784669,357.37,745,783,0
8784679,362.32,745,781,0
8784689,364.06,745,783,0
8784699,362.37,745,781,0
8784709,358.02,745,783,0
8784719,350.98,745,781,0
8784729,342.33,745,783,0
8784739,332.08,745,781,0
8784749,321.21,745,783,0
8784759,309.88,745,781,0
8784769,299.11,745,783,0
8784779,288.88,745,781,0
8784789,280.00,745,783,0
8784799,272.33,745,781,0
8784809,266.57,745,783,0
8784819,262.29,745,781,0
8784829,259.97,745,783,0
8784839,259.04,745,781,0
8784849,259.76,745,783,0
8784859,261.54,745,781,0
8784869,264.42,745,783,0
8784879,267.60,745,781,0
8784889,271.23,745,783,0
8784899,274.55,745,781,0
8784909,277.77,745,783,0
8784919,280.15,745,781,0
8784929,282.12,745,783,0
8784940,283.24,745,782,0
8784950,284.50,745,783,0
8784960,286.28,745,781,0
8784970,290.44,745,783,0
8784980,298.58,745,782,0
8784990,313.45,745,783,0
8785000,337.31,745,782,0
8785010,373.09,745,783,0
8785020,418.28,745,782,0
8785030,469.41,745,783,0
8785040,522.86,745,782,0
8785050,575.36,745,783,0
8785070,623.68,743,782,0
8785073,664.53,743,781,0
8785082,694.76,743,782,0
8785092,715.92,743,782,0
8785102,730.73,743,782,0
8785112,741.09,743,782,0
8785122,748.35,743,782,0
8785132,753.39,743,782,0
8785142,756.96,743,783,0
8785153,759.46,743,782,0
8785163,761.21,743,783,0
8785173,762.39,743,781,0
8785183,763.21,743,783,0
8785193,759.68,743,781,0
8785203,749.36,743,782,0
8785213,730.10,743,781,0
8785223,701.18,743,783,0
8785233,662.38,743,781,0
8785243,614.83,743,783,0
8785253,559.21,743,781,0
8785263,501.16,743,783,0
8785273,444.63,743,781,0
8785283,393.35,743,783,0
8785293,349.66,743,781,0
8785303,315.35,743,783,0
8785313,290.47,743,781,0
8785324,275.42,743,783,0
8785334,268.91,743,781,0
8785344,270.05,743,783,0
8785354,277.06,743,781,0
8785364,288.32,743,783,0
8785374,301.63,743,781,0
8785384,315.67,743,783,0
8785394,328.59,743,781,0
8785404,339.90,743,783,0
8785414,348.24,743,781,0
8785424,353.53,743,783,0
8785434,355.21,743,781,0
8785444,354.12,743,783,0
8785454,349.93,743,781,0
8785464,343.61,743,783,0
8785474,335.20,743,781,0
8785484,325.84,743,783,0
8785495,315.73,743,781,0
8785505,305.95,743,783,0
8785515,296.37,743,781,0
8785525,287.94,743,783,0
8785536,280.37,743,781,0
8785545,274.39,743,783,0
8785555,269.56,743,781,0
8785565,266.35,743,783,0
8785575,264.23,743,780,0
8785585,263.52,743,783,0
8785595,263.53,743,781,0
8785605,264.75,743,783,0
8785615,266.19,743,780,0
8785625,268.28,743,783,0
8785635,270.42,743,781,0
8785645,273.04,743,783,0
8785655,275.26,743,781,0
8785665,277.58,743,783,0
8785675,279.16,743,781,0
8785685,280.74,743,783,0
8785695,282.11,743,780,0
8785705,284.65,743,783,0
8785715,288.95,743,781,0
8785725,297.84,743,783,0
8785735,313.23,743,781,0
8785745,338.53,743,783,0
8785755,375.06,743,781,0
8785765,421.03,743,783,0
8785775,472.36,743,781,0
8785785,526.12,743,783,0
8785795,578.59,743,781,0
8785814,626.54,745,780,0
8785817,666.36,745,781,0
8785826,696.00,745,784,0
8785836,716.74,745,781,0
8785846,731.26,745,783,0
8785856,741.43,745,781,0
8785866,748.58,745,783,0
8785876,753.59,745,781,0
8785886,757.14,745,783,0
8785896,759.59,745,781,0
8785906,761.30,745,783,0
8785916,762.49,745,781,0
8785926,763.37,745,783,0
8785936,760.35,745,781,0
8785946,750.47,745,783,0
8785956,731.43,745,781,0
8785966,702.93,745,783,0
8785976,664.55,745,781,0
8785986,617.07,745,783,0
8785996,561.25,745,781,0
8786007,502.46,745,783,0
8786017,445.07,745,781,0
8786027,393.40,745,783,0
8786037,349.27,745,781,0
8786048,314.82,745,783,0
8786057,290.14,745,781,0
8786067,275.61,745,783,0
8786077,269.90,745,781,0
8786087,272.33,745,783,0
8786097,280.50,745,781,0
8786107,293.17,745,783,0
8786117,307.95,745,781,0
8786127,323.82,745,783,0
8786137,338.70,745,781,0
8786147,351.86,745,783,0
8786157,361.85,745,781,0
8786167,368.79,745,783,0
8786177,372.03,745,781,0
8786187,372.10,745,783,0
8786197,368.73,745,781,0
8786207,362.85,745,783,0
8786217,354.63,745,781,0
8786227,345.40,745,783,0
8786237,335.25,745,781,0
8786247,325.19,745,783,0
8786257,315.15,745,781,0
8786267,306.06,745,783,0
8786277,297.81,745,781,0
8786287,291.27,745,783,0
8786297,285.83,745,781,0
8786307,282.15,745,783,0
8786317,279.58,745,781,0
8786327,278.63,745,783,0
8786337,278.66,745,781,0
8786348,279.92,745,783,0
8786358,281.57,745,781,0
8786368,284.10,745,783,0
8786378,286.77,745,781,0
8786388,289.84,745,783,0
8786398,292.76,745,781,0
8786408,296.00,745,783,0
8786418,299.64,745,781,0
8786428,305.07,745,783,0
8786438,313.06,745,781,0
8786448,326.24,745,783,0
8786458,346.83,745,781,0
8786468,377.74,745,783,0
8786478,418.62,745,781,0
8786488,466.04,745,783,0
8786498,516.60,745,781,0
8786508,567.55,745,783,0
8786519,615.43,745,782,0
8786538,657.17,724,780,0
8786541,689.52,724,783,0
8786550,712.16,724,782,0
8786561,728.01,724,782,0
8786571,739.11,724,782,0
8786581,746.88,724,782,0
8786591,752.31,724,782,0
8786601,756.16,724,783,0
8786611,758.86,724,782,0
8786621,760.79,724,782,0
8786631,762.14,724,782,0
8786641,760.29,724,783,0
8786651,752.32,724,782,0
8786661,735.81,724,782,0
8786671,709.38,724,782,0
8786681,672.97,724,783,0
8786691,627.12,724,782,0
8786701,572.83,724,782,0
8786711,514.08,724,782,0
8786721,455.64,724,783,0
8786732,401.62,724,782,0
8786742,355.32,724,783,0
8786752,318.24,724,781,0
8786762,291.38,724,783,0
8786772,274.60,724,781,0
8786782,267.43,724,782,0
