Time,PPG,IBI,GSR,GSR_Event
7648187,231.18,794,773,0
7648197,225.25,794,772,0
7648207,220.68,794,774,0
7648217,217.05,794,772,0
7648227,215.23,794,774,0
7648237,214.48,794,772,0
7648247,215.49,794,774,0
7648257,220.70,794,772,0
7648267,228.38,794,774,0
7648277,236.41,794,772,0
7648287,244.86,794,774,0
7648297,252.61,794,772,0
7648307,259.97,794,774,0
7648317,266.07,794,772,0
7648327,271.79,794,774,0
7648337,277.51,794,772,0
7648347,285.80,794,774,0
7648357,298.67,794,772,0
7648367,320.11,794,774,0
7648377,352.91,794,772,0
7648387,396.48,794,774,0
7648397,446.86,794,772,0
7648407,501.16,794,774,0
7648427,555.84,782,774,0
7648430,607.62,782,775,0
7648439,652.18,782,773,0
7648449,686.02,782,774,0
7648459,709.72,782,773,0
7648470,726.39,782,775,0
7648479,738.14,782,773,0
7648489,746.41,782,775,0
7648499,752.20,782,773,0
7648509,756.26,782,775,0
7648519,759.09,782,773,0
7648529,761.08,782,774,0
7648539,762.47,782,773,0
7648549,763.44,782,775,0
7648559,764.12,782,773,0
7648569,764.56,782,775,0
7648579,764.86,782,773,0
7648589,765.08,782,775,0
7648599,765.22,782,773,0
7648609,763.79,782,775,0
7648619,755.79,782,773,0
7648629,738.84,782,775,0
7648640,711.07,782,773,0
7648649,672.99,782,774,0
7648659,624.74,782,773,0
7648669,567.86,782,774,0
7648679,504.95,782,773,0
7648689,443.20,782,775,0
7648699,386.66,782,773,0
7648709,339.15,782,775,0
7648719,301.43,782,773,0
7648729,274.69,782,775,0
7648739,257.94,782,773,0
7648749,251.01,782,775,0
7648759,251.48,782,773,0
7648769,258.07,782,775,0
7648779,268.03,782,773,0
7648789,280.11,782,775,0
7648799,292.16,782,773,0
7648809,303.60,782,774,0
7648819,312.68,782,773,0
7648829,319.50,782,775,0
7648839,323.21,782,773,0
7648849,324.56,782,775,0
7648859,323.11,782,773,0
7648869,319.73,782,774,0
7648879,314.37,782,773,0
7648889,308.17,782,775,0
7648899,300.96,782,773,0
7648909,293.82,782,775,0
7648919,286.33,782,773,0
7648929,279.29,782,775,0
7648940,272.60,782,773,0
7648950,266.68,782,774,0
7648960,261.07,782,774,0
7648970,256.38,782,774,0
7648980,252.20,782,773,0
7648990,249.22,782,775,0
7649000,246.93,782,774,0
7649010,245.75,782,774,0
7649020,245.14,782,773,0
7649030,245.48,782,774,0
7649040,246.24,782,773,0
7649050,247.54,782,774,0
7649060,248.83,782,773,0
7649070,250.47,782,775,0
7649080,251.87,782,774,0
7649090,253.92,782,774,0
7649100,257.03,782,773,0
7649111,263.37,782,774,0
7649121,275.34,782,774,0
7649131,296.32,782,774,0
7649141,329.44,782,774,0
7649152,374.35,782,774,0
7649161,426.88,782,774,0
7649171,483.87,782,774,0
7649190,541.59,764,772,0
7649193,596.19,764,774,0
7649202,643.70,764,774,0
7649212,680.22,764,774,0
7649222,705.78,764,774,0
7649232,723.68,764,774,0
7649242,736.20,764,774,0
7649252,745.01,764,774,0
7649262,751.18,764,774,0
7649272,755.50,764,774,0
7649282,758.52,764,774,0
7649292,760.68,764,774,0
7649302,762.19,764,774,0
7649312,763.25,764,774,0
7649323,763.99,764,775,0
7649332,764.51,764,774,0
7649342,764.83,764,774,0
7649352,765.05,764,774,0
7649362,765.21,764,775,0
7649372,761.12,764,774,0
7649382,749.00,764,774,0
7649392,726.58,764,774,0
7649402,693.36,764,775,0
7649412,649.71,764,774,0
7649422,596.44,764,774,0
7649432,534.85,764,773,0
7649442,471.00,764,775,0
7649452,410.40,764,774,0
7649462,357.01,764,774,0
7649472,312.99,764,774,0
7649482,279.39,764,775,0
7649492,256.39,764,774,0
7649502,243.37,764,774,0
7649512,238.93,764,774,0
7649522,241.65,764,775,0
7649532,249.60,764,773,0
7649542,261.08,764,774,0
7649552,274.13,764,773,0
7649562,287.42,764,775,0
7649572,299.63,764,773,0
7649582,310.07,764,774,0
7649592,317.94,764,774,0
7649602,323.14,764,775,0
7649612,325.41,764,773,0
7649623,325.16,764,775,0
7649633,322.28,764,773,0
7649643,317.57,764,775,0
7649653,311.14,764,773,0
7649664,303.73,764,775,0
7649673,295.67,764,773,0
7649683,287.58,764,775,0
7649693,279.61,764,773,0
7649703,272.52,764,775,0
7649713,266.11,764,773,0
7649723,260.89,764,775,0
7649733,256.51,764,773,0
7649743,253.49,764,775,0
7649753,251.33,764,773,0
7649763,250.33,764,775,0
7649773,249.84,764,773,0
7649783,250.19,764,775,0
7649793,250.69,764,773,0
7649803,251.64,764,775,0
7649813,252.18,764,773,0
7649823,252.81,764,775,0
7649833,252.82,764,773,0
7649843,252.79,764,775,0
7649853,252.34,764,773,0
7649863,252.37,764,775,0
7649873,253.41,764,773,0
7649883,257.79,764,775,0
7649893,267.71,764,773,0
7649903,287.17,764,775,0
7649913,319.09,764,773,0
7649923,363.59,764,775,0
7649933,416.39,764,773,0
7649943,474.13,764,775,0
7649953,532.97,764,773,0
7649973,589.21,783,772,0
7649976,638.30,783,774,0
7649985,676.44,783,775,0
7649995,703.14,783,773,0
7650006,721.87,783,775,0
7650015,734.98,783,773,0
7650025,744.20,783,775,0
7650035,750.61,783,773,0
7650045,755.14,783,775,0
7650055,758.31,783,773,0
7650065,760.58,783,775,0
7650075,762.12,783,773,0
7650085,763.20,783,775,0
7650095,763.91,783,773,0
7650105,764.45,783,775,0
7650115,764.79,783,773,0
7650125,765.02,783,775,0
7650135,765.14,783,773,0
7650145,765.27,783,775,0
7650155,765.32,783,773,0
7650165,765.39,783,775,0
7650176,760.26,783,773,0
7650185,747.93,783,775,0
7650195,726.22,783,773,0
7650205,695.21,783,775,0
7650215,654.69,783,773,0
7650225,606.35,783,775,0
7650235,550.71,783,773,0
7650245,494.74,783,775,0
7650255,441.59,783,773,0
7650265,395.55,783,775,0
7650275,357.24,783,773,0
7650285,328.37,783,775,0
7650295,307.73,783,773,0
7650305,295.81,783,775,0
7650315,290.98,783,773,0
7650325,292.87,783,775,0
7650335,299.08,783,773,0
7650345,309.39,783,775,0
7650355,321.74,783,773,0
7650365,335.83,783,775,0
7650375,349.86,783,773,0
7650385,363.87,783,775,0
7650395,376.38,783,773,0
7650405,387.75,783,775,0
7650415,396.78,783,773,0
7650425,404.22,783,775,0
7650435,409.21,783,773,0
7650445,412.83,783,775,0
7650455,414.43,783,773,0
7650465,415.20,783,775,0
7650476,414.58,783,773,0
7650486,413.76,783,775,0
7650496,412.08,783,773,0
7650506,410.64,783,775,0
7650516,408.52,783,773,0
7650526,406.48,783,775,0
7650536,403.55,783,773,0
7650546,400.47,783,775,0
7650556,396.47,783,773,0
7650566,392.56,783,775,0
7650576,388.71,783,773,0
7650586,387.72,783,775,0
7650596,391.19,783,773,0
7650606,402.36,783,775,0
7650616,423.34,783,774,0
7650626,455.17,783,775,0
7650636,494.29,783,773,0
7650647,538.26,783,775,0
7650657,583.44,783,774,0
7650667,626.89,783,775,0
7650677,665.20,783,774,0
7650688,695.44,783,774,0
7650706,716.61,733,774,0
7650709,731.47,733,775,0
7650718,741.87,733,774,0
7650728,749.15,733,774,0
7650738,754.25,733,774,0
7650748,757.82,733,775,0
7650758,760.31,733,774,0
7650768,762.06,733,774,0
7650778,763.24,733,774,0
7650788,764.07,733,775,0
7650798,764.65,733,774,0
7650808,765.05,733,774,0
7650818,763.07,733,774,0
7650828,755.76,733,775,0
7650838,740.40,733,774,0
7650848,715.51,733,774,0
7650859,680.17,733,774,0
7650868,634.82,733,775,0
7650878,579.46,733,774,0
7650888,517.48,733,774,0
7650898,452.75,733,774,0
7650908,390.12,733,774,0
7650918,332.66,733,774,0
7650928,283.43,733,774,0
7650938,243.79,733,774,0
7650948,215.52,733,775,0
7650958,198.74,733,774,0
7650968,193.80,733,774,0
7650978,199.09,733,774,0
7650988,213.38,733,775,0
7650998,234.22,733,774,0
7651008,259.87,733,774,0
7651018,287.64,733,774,0
7651028,315.73,733,774,0
7651038,341.74,733,774,0
7651048,364.45,733,774,0
7651058,382.27,733,774,0
7651068,394.83,733,774,0
7651078,401.05,733,774,0
7651088,401.51,733,774,0
7651098,395.74,733,774,0
7651108,384.72,733,775,0
7651118,368.65,733,774,0
7651128,348.82,733,775,0
7651138,325.69,733,774,0
7651148,300.54,733,775,0
7651159,273.81,733,774,0
7651169,246.95,733,774,0
7651179,220.52,733,774,0
7651189,195.64,733,774,0
7651200,172.73,733,775,0
7651209,152.58,733,774,0
7651219,135.39,733,774,0
7651229,121.48,733,774,0
7651239,110.88,733,775,0
7651249,103.46,733,774,0
7651259,98.90,733,774,0
7651269,97.30,733,774,0
7651279,98.67,733,774,0
7651289,103.70,733,774,0
7651299,113.99,733,774,0
7651309,131.99,733,774,0
7651319,160.41,733,775,0
7651329,201.21,733,774,0
7651339,256.05,733,774,0
7651349,321.31,733,774,0
7651359,392.27,733,775,0
7651369,464.40,733,774,0
7651379,532.98,733,774,0
7651389,593.89,733,774,0
7651399,644.02,733,775,0
7651409,680.57,733,774,0
7651419,706.11,733,774,0
7651429,723.99,733,775,0
7651439,736.51,733,775,0
7651449,745.31,733,774,0
7651459,751.43,733,774,0
7651469,755.72,733,774,0
7651479,758.67,733,775,0
7651489,758.47,733,774,0
7651509,751.39,803,773,0
7651512,734.00,803,774,0
7651521,706.36,803,775,0
7651531,667.81,803,774,0
7651542,619.01,803,775,0
7651551,560.93,803,774,0
7651561,497.18,803,775,0
7651571,433.10,803,774,0
7651581,374.23,803,775,0
7651591,322.30,803,774,0
7651601,279.95,803,775,0
7651611,247.87,803,774,0
7651621,226.65,803,775,0
7651631,215.66,803,774,0
7651641,214.43,803,775,0
7651651,221.20,803,774,0
7651661,234.68,803,775,0
7651671,252.52,803,774,0
7651681,273.19,803,775,0
7651691,294.48,803,774,0
7651701,315.33,803,775,0
7651712,333.79,803,774,0
7651721,349.33,803,775,0
7651731,360.54,803,774,0
7651741,367.58,803,775,0
7651751,369.98,803,773,0
7651761,368.31,803,775,0
7651771,362.43,803,774,0
7651781,353.43,803,775,0
7651791,341.47,803,773,0
7651801,327.96,803,775,0
7651811,312.97,803,774,0
7651821,297.72,803,775,0
7651831,282.21,803,773,0
7651841,267.62,803,775,0
7651851,253.85,803,774,0
7651861,241.68,803,775,0
7651871,230.76,803,774,0
7651881,222.05,803,775,0
7651891,215.09,803,773,0
7651901,210.99,803,775,0
7651911,210.05,803,773,0
7651921,214.45,803,775,0
7651931,225.37,803,773,0
7651941,245.53,803,775,0
7651951,276.70,803,773,0
7651961,320.98,803,775,0
7651971,375.24,803,774,0
7651981,435.34,803,775,0
7651991,496.82,803,773,0
7652001,556.41,803,775,0
7652012,610.20,803,774,0
7652022,655.05,803,775,0
7652041,688.17,532,774,0
7652044,711.39,532,775,0
7652054,727.64,532,773,0
7652063,739.06,532,775,0
7652073,747.02,532,773,0
7652083,752.63,532,775,0
7652093,756.51,532,773,0
7652103,759.27,532,775,0
7652113,761.16,532,773,0
7652132,762.48,0,774,0
7652134,761.22,0,778,0
7652144,755.37,0,778,0
7652154,741.63,0,774,0
7652164,718.47,0,781,0
7652174,684.90,0,777,0
7652184,641.64,0,780,0
7652194,588.57,0,776,0
7652204,528.87,0,783,0
7652214,465.86,0,779,0
7652225,404.88,0,778,0
7652235,348.86,0,775,0
7652245,300.56,0,776,0
7652255,260.53,0,776,0
7652265,230.54,0,775,0
7652275,210.20,0,773,0
7652285,199.72,0,775,0
7652295,197.36,0,773,0
7652305,202.44,0,774,0
7652315,212.64,0,773,0
7652325,227.02,0,775,0
7652335,243.34,0,773,0
7652345,261.02,0,775,0
7652355,277.73,0,774,0
7652365,293.03,0,775,0
7652375,305.36,0,773,0
7652385,315.11,0,775,0
7652396,321.16,0,773,0
7652406,324.24,0,775,0
7652416,323.66,0,773,0
7652426,320.63,0,774,0
7652436,314.91,0,774,0
7652446,307.82,0,776,0
7652456,299.31,0,775,0
7652466,290.56,0,775,0
7652476,281.30,0,775,0
7652486,272.68,0,776,0
7652496,264.42,0,775,0
7652506,257.61,0,776,0
7652516,252.28,0,778,0
7652526,249.37,0,781,0
7652536,250.24,0,781,0
7652546,257.41,0,776,0
7652556,272.76,0,774,0
7652567,298.80,0,776,0
7652577,336.71,0,776,0
7652587,385.39,0,775,0
7652597,440.86,0,775,0
7652608,499.10,0,774,0
7652617,556.12,0,774,0
7652627,608.37,0,775,0
7652637,652.57,0,774,0
7652657,686.43,524,775,0
7652660,710.17,524,778,0
7652669,726.79,524,774,0
7652679,738.38,524,778,0
7652689,746.50,524,774,0
7652699,752.22,524,777,0
7652709,756.27,524,774,0
7652719,759.06,524,776,0
7652729,761.01,524,774,0
7652739,762.42,524,775,0
7652749,763.45,524,774,0
7652759,764.17,524,776,0
7652769,764.68,524,774,0
7652780,765.03,524,775,0
7652790,765.32,524,773,0
7652800,762.83,524,775,0
7652810,753.84,524,773,0
7652820,736.36,524,775,0
7652830,709.51,524,773,0
7652840,673.35,524,774,0
7652850,628.12,524,773,0
7652860,575.24,524,775,0
7652870,518.68,524,773,0
7652880,463.84,524,774,0
7652890,413.96,524,773,0
7652900,371.63,524,775,0
7652910,337.67,524,773,0
7652920,313.00,524,774,0
7652930,296.58,524,773,0
7652940,287.75,524,775,0
7652951,284.74,524,773,0
7652961,286.49,524,774,0
7652971,290.84,524,773,0
7652981,296.98,524,775,0
7652992,302.98,524,773,0
7653001,308.65,524,774,0
7653011,312.78,524,773,0
7653021,315.55,524,775,0
7653031,316.28,524,773,0
7653041,315.68,524,774,0
7653051,313.34,524,773,0
7653061,310.53,524,774,0
7653071,306.77,524,773,0
7653081,303.58,524,774,0
7653091,301.52,524,772,0
7653101,302.91,524,774,0
7653111,308.89,524,773,0
7653121,321.95,524,774,0
7653131,343.44,524,772,0
7653141,375.62,524,774,0
7653151,418.04,524,773,0
7653161,467.01,524,774,0
7653171,518.48,524,772,0
7653181,569.51,524,774,0
7653191,616.88,524,773,0
7653201,657.98,524,774,0
7653211,690.25,524,772,0
7653221,712.94,524,774,0
7653231,728.81,524,773,0
7653251,739.93,594,771,0
7653254,747.70,594,772,0
7653263,751.44,594,774,0
7653273,748.69,594,772,0
7653283,738.58,594,774,0
7653293,720.15,594,771,0
7653303,693.71,594,774,0
7653313,659.17,594,772,0
7653323,617.46,594,774,0
7653334,570.48,594,772,0
7653343,522.59,594,773,0
7653353,475.44,594,772,0
7653363,431.51,594,773,0
7653373,390.94,594,772,0
7653383,355.30,594,774,0
7653393,324.05,594,772,0
7653403,298.37,594,773,0
7653413,277.17,594,772,0
7653423,261.39,594,774,0
7653433,249.87,594,772,0
7653443,243.35,594,773,0
7653453,240.55,594,772,0
7653463,241.84,594,773,0
7653473,245.79,594,772,0
7653483,252.75,594,773,0
7653493,261.10,594,772,0
7653504,270.97,594,773,0
7653513,280.75,594,772,0
7653523,290.51,594,773,0
7653533,298.67,594,772,0
7653543,305.54,594,773,0
7653553,309.88,594,772,0
7653563,312.36,594,773,0
7653573,312.08,594,772,0
7653583,310.00,594,773,0
7653593,305.50,594,772,0
7653603,299.86,594,773,0
7653613,292.62,594,772,0
7653623,284.98,594,773,0
7653633,276.54,594,772,0
7653643,268.62,594,773,0
7653653,260.98,594,772,0
7653663,255.24,594,773,0
7653673,251.48,594,772,0
7653683,251.72,594,773,0
7653693,256.74,594,772,0
7653703,268.99,594,773,0
7653713,288.83,594,772,0
7653723,317.60,594,773,0
7653733,354.36,594,772,0
7653743,399.21,594,773,0
7653753,449.33,594,772,0
7653763,501.99,594,773,0
7653782,553.04,532,772,0
7653785,600.30,532,774,0
7653794,640.92,532,772,0
7653804,673.30,532,773,0
7653814,694.55,532,772,0
7653824,704.72,532,772,0
7653834,703.86,532,772,0
7653844,693.40,532,774,0
7653854,674.17,532,772,0
7653864,647.85,532,772,0
7653874,615.79,532,772,0
7653884,580.97,532,774,0
7653894,544.59,532,772,0
7653904,508.80,532,774,0
7653914,474.10,532,773,0
7653924,441.63,532,775,0
7653934,411.27,532,775,0
7653944,383.80,532,776,0
7653954,358.83,532,776,0
7653964,337.15,532,774,0
7653975,318.21,532,772,0
7653985,302.85,532,772,0
7653995,290.46,532,771,0
7654005,281.58,532,772,0
7654016,275.58,532,771,0
7654025,272.88,532,772,0
7654035,272.48,532,775,0
7654045,274.53,532,773,0
7654055,277.97,532,773,0
7654065,282.91,532,775,0
7654075,288.38,532,777,0
7654085,294.35,532,774,0
7654095,299.94,532,772,0
7654105,305.28,532,772,0
7654115,309.74,532,773,0
7654125,313.59,532,774,0
7654135,316.37,532,774,0
7654145,318.40,532,773,0
7654155,319.18,532,774,0
7654165,319.04,532,774,0
7654175,317.61,532,773,0
7654185,315.46,532,773,0
7654195,312.28,532,775,0
7654205,308.64,532,773,0
7654215,304.67,532,772,0
7654225,301.43,532,774,0
7654235,299.33,532,775,0
7654245,299.74,532,776,0
7654255,303.55,532,777,0
7654265,312.13,532,776,0
7654275,325.89,532,776,0
7654285,345.68,532,776,0
7654295,371.19,532,777,0
7654305,401.99,532,776,0
7654316,436.54,532,777,0
7654335,472.85,553,773,0
7654338,508.55,553,775,0
7654347,541.73,553,772,0
7654358,570.14,553,773,0
7654367,592.21,553,772,0
7654377,606.89,553,772,0
7654387,613.69,553,772,0
7654397,612.89,553,772,0
7654407,605.21,553,772,0
7654417,591.52,553,772,0
7654427,572.93,553,772,0
7654437,550.75,553,772,0
7654447,526.14,553,772,0
7654457,500.08,553,772,0
7654467,473.36,553,772,0
7654477,446.68,553,772,0
7654487,420.76,553,772,0
7654497,396.06,553,772,0
7654507,372.99,553,772,0
7654517,351.99,553,772,0
7654528,333.48,553,772,0
7654537,317.91,553,772,0
7654547,305.42,553,772,0
7654557,296.12,553,771,0
7654567,289.91,553,772,0
7654577,286.64,553,772,0
7654587,285.76,553,772,0
7654597,287.12,553,771,0
7654607,290.04,553,772,0
7654617,294.06,553,771,0
7654627,298.33,553,772,0
7654637,302.56,553,771,0
7654647,306.38,553,772,0
7654657,309.39,553,771,0
7654667,311.16,553,772,0
7654677,311.80,553,771,0
7654687,311.17,553,772,0
7654697,309.75,553,772,0
7654707,307.60,553,772,0
7654717,304.93,553,771,0
7654727,301.78,553,772,0
7654737,298.59,553,772,0
7654747,295.11,553,772,0
7654757,291.65,553,771,0
7654767,288.11,553,772,0
7654777,284.61,553,772,0
7654787,281.17,553,772,0
7654797,278.37,553,771,0
7654807,276.42,553,772,0
7654817,276.29,553,772,0
7654828,278.39,553,772,0
7654838,283.72,553,772,0
7654848,292.89,553,772,0
7654858,306.72,553,772,0
7654868,325.23,553,772,0
7654878,348.26,553,772,0
7654888,374.93,553,772,0
7654907,404.69,572,771,0
7654910,435.81,572,772,0
7654919,467.07,572,773,0
7654929,496.06,572,772,0
7654939,521.72,572,775,0
7654949,542.37,572,772,0
7654959,557.73,572,775,0
7654969,566.73,572,772,0
7654979,569.81,572,773,0
7654989,566.74,572,772,0
7654999,559.10,572,773,0
7655009,547.11,572,772,0
7655019,532.51,572,774,0
7655029,515.26,572,772,0
7655040,496.79,572,773,0
7655049,477.14,572,772,0
7655059,457.51,572,772,0
7655069,437.56,572,771,0
7655079,418.41,572,772,0
7655089,399.60,572,771,0
7655099,382.28,572,772,0
7655109,366.08,572,771,0
7655119,352.00,572,773,0
7655129,339.57,572,771,0
7655139,329.67,572,773,0
7655149,321.54,572,771,0
7655159,315.98,572,772,0
7655169,311.91,572,771,0
7655179,309.97,572,772,0
7655189,309.03,572,771,0
7655199,309.58,572,772,0
7655209,310.39,572,771,0
7655219,312.03,572,772,0
7655229,313.27,572,771,0
7655239,314.73,572,772,0
7655249,315.32,572,771,0
7655259,315.70,572,772,0
7655269,315.02,572,771,0
7655279,313.98,572,772,0
7655289,311.80,572,771,0
7655299,309.50,572,772,0
7655309,306.44,572,771,0
7655319,303.52,572,773,0
7655329,300.15,572,771,0
7655340,297.32,572,773,0
7655350,294.44,572,771,0
7655360,292.38,572,773,0
7655370,290.21,572,771,0
7655380,288.77,572,773,0
7655390,287.26,572,771,0
7655400,286.49,572,773,0
7655410,285.32,572,771,0
7655420,284.71,572,773,0
7655430,283.72,572,772,0
7655440,283.34,572,772,0
7655450,282.72,572,770,0
7655460,283.02,572,772,0
7655470,283.70,572,771,0
7655480,286.19,572,772,0
7655490,290.20,572,770,0
7655500,297.51,572,772,0
7655511,307.90,572,771,0
7655521,322.76,572,772,0
7655531,341.26,572,770,0
7655541,363.94,572,772,0
7655561,389.37,653,771,0
7655564,417.33,653,773,0
7655573,445.73,653,770,0
7655583,473.71,653,772,0
7655593,499.04,653,771,0
7655603,521.23,653,772,0
7655613,538.69,653,770,0
7655623,551.55,653,772,0
7655633,559.02,653,771,0
7655643,561.75,653,772,0
7655653,559.69,653,770,0
7655663,554.08,653,772,0
7655673,545.01,653,770,0
7655683,533.82,653,771,0
7655693,520.46,653,770,0
7655703,505.88,653,772,0
7655713,489.93,653,770,0
7655724,473.45,653,771,0
7655734,456.34,653,769,0
7655744,439.74,653,771,0
7655754,423.53,653,770,0
7655764,408.54,653,771,0
7655774,394.67,653,770,0
7655784,382.72,653,771,0
7655794,372.44,653,770,0
7655804,364.38,653,771,0
7655814,357.96,653,770,0
7655824,353.39,653,771,0
7655834,350.36,653,770,0
7655844,348.88,653,771,0
7655854,348.32,653,770,0
7655864,348.82,653,771,0
7655874,349.60,653,770,0
7655884,350.62,653,771,0
7655895,351.34,653,770,0
7655905,351.66,653,771,0
7655915,351.29,653,770,0
7655925,350.13,653,771,0
7655936,348.34,653,770,0
7655945,346.14,653,771,0
7655955,343.52,653,770,0
7655965,340.58,653,771,0
7655975,337.32,653,770,0
7655985,334.14,653,771,0
7655995,331.05,653,771,0
7656005,327.95,653,771,0
7656015,324.97,653,770,0
7656025,322.06,653,771,0
7656035,319.43,653,772,0
7656045,317.03,653,772,0
7656055,314.96,653,770,0
7656065,313.35,653,771,0
7656075,312.04,653,770,0
7656085,310.96,653,771,0
7656095,310.28,653,770,0
7656105,309.81,653,771,0
7656115,309.66,653,770,0
7656125,309.54,653,771,0
7656135,309.55,653,770,0
7656145,309.73,653,771,0
7656155,310.15,653,770,0
7656165,310.92,653,771,0
7656175,312.32,653,770,0
7656185,314.75,653,771,0
7656195,318.60,653,770,0
7656205,324.46,653,771,0
7656215,333.02,653,770,0
7656225,344.54,653,771,0
7656236,359.51,653,770,0
7656246,377.91,653,771,0
7656256,399.54,653,770,0
7656266,423.63,653,770,0
7656286,449.50,725,770,0
7656289,475.67,725,771,0
7656298,501.57,725,770,0
7656308,525.22,725,770,0
7656318,546.16,725,771,0
7656328,563.08,725,771,0
7656338,576.17,725,771,0
7656348,584.56,725,770,0
7656358,589.02,725,771,0
7656368,589.10,725,771,0
7656378,586.16,725,770,0
7656388,579.85,725,770,0
7656398,571.45,725,771,0
7656408,560.56,725,770,0
7656418,548.35,725,771,0
7656428,534.27,725,770,0
7656438,519.49,725,771,0
7656449,503.57,725,770,0
7656459,487.63,725,771,0
7656469,471.33,725,770,0
7656479,455.97,725,771,0
7656489,441.11,725,770,0
7656499,428.05,725,771,0
7656509,416.16,725,770,0
7656519,406.56,725,771,0
7656529,398.55,725,770,0
7656539,392.81,725,771,0
7656549,388.24,725,770,0
7656559,385.68,725,771,0
7656569,383.93,725,770,0
7656579,383.57,725,771,0
7656589,383.27,725,770,0
7656599,383.75,725,771,0
7656609,383.78,725,770,0
7656620,384.23,725,771,0
7656630,383.82,725,770,0
7656640,383.32,725,771,0
7656650,381.85,725,770,0
7656660,380.27,725,771,0
7656670,377.66,725,770,0
7656680,375.15,725,771,0
7656690,371.67,725,770,0
7656700,368.39,725,771,0
7656710,364.41,725,770,0
7656720,360.82,725,771,0
7656730,357.06,725,770,0
7656740,353.95,725,771,0
7656750,350.80,725,770,0
7656760,348.54,725,771,0
7656770,346.32,725,770,0
7656780,345.11,725,771,0
7656791,343.75,725,770,0
7656801,342.97,725,771,0
7656811,342.03,725,770,0
7656821,341.55,725,771,0
7656832,340.74,725,770,0
7656841,340.31,725,771,0
7656851,339.53,725,770,0
7656861,339.33,725,771,0
7656871,338.80,725,769,0
7656881,338.65,725,771,0
7656891,338.07,725,770,0
7656901,338.05,725,771,0
7656911,338.03,725,770,0
7656921,338.92,725,771,0
7656931,340.32,725,770,0
7656941,343.35,725,771,0
7656951,347.96,725,770,0
7656961,355.56,725,771,0
7656971,366.10,725,770,0
7656981,380.86,725,771,0
7656991,399.20,725,770,0
7657001,421.68,725,771,0
7657011,446.98,725,770,0
7657030,474.93,745,769,0
7657033,503.92,745,771,0
7657042,532.92,745,771,0
7657052,560.03,745,770,0
7657062,584.79,745,771,0
7657072,605.77,745,770,0
7657082,623.19,745,771,0
7657092,636.08,745,770,0
7657102,644.97,745,771,0
7657112,649.69,745,770,0
7657122,650.99,745,771,0
7657132,648.63,745,770,0
7657142,643.43,745,771,0
7657152,635.11,745,770,0
7657162,624.37,745,771,0
7657172,610.80,745,770,0
7657182,595.26,745,771,0
7657192,577.57,745,770,0
7657202,558.67,745,771,0
7657212,538.84,745,770,0
7657222,519.17,745,771,0
7657232,500.01,745,770,0
7657242,482.43,745,771,0
7657252,466.53,745,770,0
7657262,453.26,745,771,0
7657272,442.42,745,770,0
7657282,434.33,745,771,0
7657292,428.40,745,770,0
7657303,424.89,745,771,0
7657313,422.95,745,770,0
7657323,422.45,745,771,0
7657333,422.57,745,770,0
7657344,423.22,745,771,0
7657353,423.67,745,770,0
7657363,423.98,745,771,0
7657373,423.60,745,770,0
7657383,422.61,745,771,0
7657393,420.84,745,770,0
7657403,418.40,745,771,0
7657413,415.28,745,770,0
7657423,411.60,745,771,0
7657433,407.47,745,770,0
7657443,403.09,745,771,0
7657453,398.69,745,770,0
7657463,394.41,745,771,0
7657473,390.26,745,770,0
7657483,386.41,745,771,0
7657493,382.77,745,770,0
7657503,379.37,745,771,0
7657513,376.26,745,770,0
7657523,373.31,745,771,0
7657533,370.43,745,770,0
7657543,367.90,745,771,0
7657553,365.62,745,770,0
7657563,363.80,745,771,0
7657573,362.23,745,770,0
7657583,360.88,745,771,0
7657593,359.80,745,770,0
7657603,359.09,745,771,0
7657613,358.46,745,770,0
7657623,357.85,745,771,0
7657633,357.30,745,770,0
7657644,356.91,745,771,0
7657654,356.72,745,770,0
7657664,356.55,745,771,0
7657674,356.51,745,770,0
7657684,356.53,745,771,0
7657694,356.89,745,771,0
7657704,357.48,745,771,0
7657714,358.53,745,771,0
7657724,360.00,745,771,0
7657734,362.66,745,770,0
7657744,366.88,745,771,0
7657754,373.68,745,771,0
7657764,383.64,745,771,0
7657774,397.63,745,770,0
7657784,416.30,745,771,0
7657794,440.55,745,770,0
7657804,470.13,745,771,0
7657824,504.68,794,770,0
7657827,542.44,794,771,0
7657836,580.93,794,771,0
7657846,617.98,794,771,0
7657857,651.93,794,771,0
7657867,681.22,794,771,0
7657877,705.07,794,771,0
7657887,722.92,794,770,0
7657897,735.46,794,771,0
7657907,744.23,794,771,0
7657917,750.42,794,771,0
7657927,754.71,794,770,0
7657937,757.71,794,771,0
7657947,759.77,794,771,0
7657957,761.00,794,771,0
7657967,759.97,794,770,0
7657977,756.25,794,771,0
7657987,748.85,794,771,0
7657997,737.62,794,771,0
7658007,721.62,794,770,0
7658017,701.21,794,771,0
7658028,676.20,794,770,0
7658038,648.88,794,771,0
7658048,619.86,794,770,0
7658058,591.27,794,771,0
7658068,563.76,794,770,0
7658078,539.19,794,771,0
7658088,517.41,794,770,0
7658098,499.71,794,771,0
7658108,485.40,794,770,0
7658118,475.16,794,771,0
7658128,467.57,794,770,0
7658138,462.69,794,771,0
7658148,459.18,794,770,0
7658158,457.24,794,771,0
7658168,455.41,794,770,0
7658178,454.00,794,771,0
7658188,451.64,794,770,0
7658199,449.18,794,771,0
7658209,445.44,794,770,0
7658219,441.28,794,771,0
7658229,435.88,794,770,0
7658240,430.13,794,771,0
7658249,423.32,794,770,0
7658259,416.62,794,771,0
7658269,409.32,794,770,0
7658279,402.58,794,771,0
7658289,395.68,794,770,0
7658299,389.65,794,771,0
7658309,383.84,794,770,0
7658319,379.17,794,771,0
7658329,374.79,794,770,0
7658339,371.38,794,771,0
7658349,368.23,794,770,0
7658359,365.93,794,771,0
7658369,363.64,794,770,0
7658379,362.07,794,771,0
7658389,360.25,794,770,0
7658399,359.02,794,771,0
7658409,357.56,794,770,0
7658419,356.58,794,771,0
7658429,355.33,794,770,0
7658439,354.50,794,771,0
7658449,353.32,794,770,0
7658459,352.71,794,771,0
7658469,351.73,794,770,0
7658479,351.08,794,771,0
7658489,350.03,794,770,0
7658499,349.42,794,771,0
7658509,348.48,794,770,0
7658519,347.99,794,771,0
7658529,347.14,794,770,0
7658540,346.58,794,771,0
7658550,345.72,794,770,0
7658560,345.16,794,771,0
7658570,344.34,794,770,0
7658580,344.11,794,771,0
7658590,344.21,794,770,0
7658600,346.16,794,771,0
7658610,350.40,794,770,0
7658620,358.76,794,771,0
7658630,371.65,794,770,0
7658640,390.74,794,772,0
7658650,415.93,794,770,0
7658660,447.71,794,771,0
7658679,484.27,855,770,0
7658682,524.82,855,772,0
7658691,566.10,855,770,0
7658701,606.06,855,771,0
7658711,642.17,855,770,0
7658721,673.45,855,771,0
7658731,698.73,855,770,0
7658741,717.92,855,771,0
7658752,730.12,855,770,0
7658761,736.51,855,771,0
7658771,737.73,855,770,0
7658781,734.34,855,771,0
7658791,726.61,855,770,0
7658801,715.07,855,771,0
7658811,699.96,855,770,0
7658821,682.19,855,771,0
7658831,661.86,855,770,0
7658841,639.75,855,771,0
7658851,615.91,855,770,0
7658861,590.82,855,771,0
7658871,564.52,855,770,0
7658881,538.05,855,771,0
7658891,511.63,855,770,0
7658901,486.24,855,771,0
7658911,462.30,855,770,0
7658921,440.61,855,771,0
7658931,421.57,855,770,0
7658941,405.67,855,771,0
7658951,392.70,855,770,0
7658961,382.89,855,771,0
7658971,375.81,855,770,0
7658981,371.24,855,771,0
7658991,368.51,855,769,0
7659001,367.37,855,771,0
7659011,367.00,855,770,0
7659021,367.09,855,771,0
7659031,367.15,855,770,0
7659041,366.97,855,771,0
7659052,366.12,855,770,0
7659062,364.72,855,771,0
7659072,362.40,855,770,0
7659082,359.45,855,771,0
7659092,355.80,855,770,0
7659102,351.49,855,771,0
7659112,346.63,855,770,0
7659122,341.60,855,771,0
7659132,336.66,855,770,0
7659142,331.83,855,771,0
7659152,327.30,855,770,0
7659162,323.05,855,771,0
7659172,319.44,855,770,0
7659182,316.39,855,771,0
7659192,313.83,855,770,0
7659202,311.52,855,771,0
7659212,309.70,855,770,0
7659223,307.99,855,771,0
7659233,306.71,855,770,0
7659243,305.38,855,771,0
7659253,304.28,855,771,0
7659264,303.12,855,771,0
7659273,302.14,855,770,0
7659283,301.12,855,771,0
7659293,300.44,855,771,0
7659303,299.66,855,771,0
7659313,299.21,855,770,0
7659323,298.72,855,771,0
7659333,298.63,855,771,0
7659343,298.61,855,771,0
7659353,298.86,855,771,0
7659363,298.90,855,771,0
7659373,299.06,855,771,0
7659383,298.91,855,771,0
7659393,298.77,855,771,0
7659403,298.24,855,771,0
7659413,297.87,855,771,0
7659423,297.56,855,771,0
7659433,298.64,855,771,0
7659443,301.27,855,771,0
7659453,307.28,855,771,0
7659463,317.57,855,771,0
7659473,333.68,855,771,0
7659483,355.68,855,771,0
7659493,384.27,855,771,0
7659512,418.22,833,770,0
7659515,457.28,833,772,0
7659524,498.73,833,771,0
7659534,540.47,833,771,0
7659544,579.58,833,771,0
7659554,614.51,833,771,0
7659564,643.11,833,770,0
7659574,664.76,833,771,0
7659584,678.29,833,771,0
7659594,684.68,833,771,0
7659604,684.00,833,770,0
7659614,678.00,833,771,0
7659624,667.24,833,771,0
7659634,653.46,833,771,0
7659644,637.12,833,770,0
7659654,619.81,833,771,0
7659664,601.27,833,771,0
7659674,582.42,833,771,0
7659684,562.58,833,770,0
7659694,542.73,833,771,0
7659704,522.24,833,771,0
7659714,501.81,833,771,0
7659724,480.83,833,770,0
7659735,460.43,833,771,0
7659745,440.68,833,771,0
7659755,422.86,833,772,0
7659765,406.66,833,770,0
7659776,393.22,833,771,0
7659785,382.14,833,770,0
7659795,374.34,833,773,0
7659805,368.88,833,770,0
7659815,366.22,833,772,0
7659825,365.12,833,771,0
7659835,365.86,833,771,0
7659845,367.06,833,770,0
7659855,369.05,833,771,0
7659865,370.41,833,771,0
7659875,371.66,833,771,0
7659885,371.72,833,770,0
7659895,371.20,833,771,0
7659905,369.34,833,770,0
7659915,367.01,833,771,0
7659925,363.49,833,770,0
7659935,359.83,833,771,0
7659945,355.42,833,770,0
7659955,351.18,833,771,0
7659965,346.41,833,771,0
7659975,342.13,833,772,0
7659985,337.76,833,771,0
7659995,334.28,833,772,0
7660005,330.85,833,771,0
7660015,328.32,833,772,0
7660025,325.83,833,771,0
7660035,324.42,833,772,0
7660045,323.05,833,771,0
7660055,322.39,833,771,0
7660065,321.42,833,770,0
7660076,320.99,833,772,0
7660086,320.14,833,771,0
7660096,319.75,833,772,0
7660106,318.84,833,770,0
7660116,318.33,833,771,0
7660126,317.42,833,770,0
7660136,317.08,833,771,0
7660146,316.50,833,770,0
7660156,316.69,833,771,0
7660166,316.87,833,770,0
7660176,317.72,833,771,0
7660186,318.23,833,770,0
7660196,319.19,833,771,0
7660206,319.65,833,770,0
7660216,320.35,833,771,0
7660226,320.29,833,770,0
7660236,320.33,833,771,0
7660247,319.89,833,770,0
7660257,320.35,833,771,0
7660267,321.62,833,770,0
7660277,325.55,833,771,0
7660288,332.75,833,770,0
7660297,345.47,833,771,0
7660307,364.36,833,770,0
7660317,391.34,833,771,0
7660337,425.86,824,770,0
7660340,467.95,824,772,0
7660349,513.61,824,770,0
7660359,560.05,824,771,0
7660369,604.22,824,770,0
7660379,644.14,824,771,0
7660389,677.57,824,770,0
7660399,703.76,824,771,0
7660409,722.09,824,770,0
7660419,734.92,824,771,0
7660429,743.90,824,771,0
7660439,750.23,824,772,0
7660449,754.66,824,771,0
7660460,757.76,824,771,0
7660470,759.93,824,770,0
7660480,761.45,824,771,0
7660490,762.52,824,770,0
7660500,763.26,824,771,0
7660510,762.97,824,771,0
7660520,759.72,824,771,0
7660530,752.09,824,772,0
7660540,738.99,824,771,0
7660550,720.18,824,770,0
7660560,695.44,824,771,0
7660570,664.92,824,770,0
7660580,630.15,824,771,0
7660590,593.76,824,770,0
7660600,558.17,824,771,0
7660610,525.21,824,770,0
7660620,495.96,824,771,0
7660631,471.46,824,770,0
7660641,452.03,824,771,0
7660651,437.54,824,770,0
7660661,427.61,824,770,0
7660672,421.55,824,770,0
7660681,418.60,824,771,0
7660691,417.86,824,770,0
7660701,418.25,824,770,0
7660711,419.24,824,770,0
7660721,419.99,824,771,0
7660731,420.16,824,770,0
7660741,419.08,824,770,0
7660751,416.96,824,770,0
7660761,413.63,824,771,0
7660771,409.33,824,770,0
7660781,403.87,824,770,0
7660791,397.74,824,770,0
7660801,391.05,824,771,0
7660811,384.26,824,770,0
7660821,377.28,824,770,0
7660831,370.68,824,770,0
7660841,364.52,824,771,0
7660851,359.18,824,770,0
7660861,354.37,824,771,0
7660871,350.31,824,770,0
7660881,346.83,824,771,0
7660891,344.23,824,770,0
7660901,341.89,824,771,0
7660911,340.12,824,770,0
7660921,338.50,824,771,0
7660931,337.54,824,770,0
7660941,336.69,824,771,0
7660951,336.40,824,770,0
7660961,336.06,824,771,0
7660972,336.17,824,770,0
7660982,336.16,824,770,0
7660992,336.50,824,771,0
7661002,336.52,824,771,0
7661012,336.79,824,771,0
7661022,336.64,824,770,0
7661032,336.71,824,771,0
7661042,336.37,824,771,0
7661052,336.08,824,771,0
7661062,335.42,824,771,0
7661072,334.78,824,771,0
7661082,333.56,824,771,0
7661092,332.41,824,771,0
7661102,330.66,824,771,0
7661112,329.17,824,771,0
7661122,327.84,824,771,0
7661132,328.10,824,771,0
7661143,330.85,824,770,0
7661153,338.48,824,771,0
7661163,352.35,824,770,0
7661173,375.18,824,771,0
7661184,407.48,824,770,0
7661202,448.86,866,770,0
7661205,495.36,866,771,0
7661214,544.03,866,772,0
7661224,591.33,866,770,0
7661234,634.78,866,771,0
7661244,671.27,866,770,0
7661254,699.35,866,771,0
7661264,719.00,866,770,0
7661274,732.76,866,771,0
7661284,742.39,866,770,0
7661294,749.17,866,771,0
7661304,753.92,866,770,0
7661314,757.24,866,771,0
7661324,759.57,866,770,0
7661334,761.20,866,771,0
7661344,762.34,866,770,0
7661355,763.14,866,771,0
7661364,763.70,866,770,0
7661374,764.09,866,771,0
7661384,764.36,866,770,0
7661394,764.55,866,772,0
7661404,764.69,866,771,0
7661414,764.78,866,772,0
7661424,764.85,866,771,0
7661434,763.31,866,771,0
7661444,757.51,866,771,0
7661454,746.22,866,771,0
7661464,728.32,866,770,0
7661474,704.01,866,771,0
7661484,673.28,866,770,0
7661494,637.24,866,771,0
7661504,597.82,866,770,0
7661514,558.79,866,771,0
7661524,521.83,866,770,0
7661534,489.13,866,771,0
7661544,460.77,866,770,0
7661554,437.56,866,771,0
7661564,418.45,866,770,0
7661574,403.96,866,771,0
7661584,392.66,866,770,0
7661594,384.57,866,771,0
7661604,378.23,866,770,0
7661614,374.13,866,771,0
7661624,371.01,866,770,0
7661634,369.25,866,771,0
7661644,367.59,866,770,0
7661655,366.55,866,771,0
7661665,365.36,866,771,0
7661675,364.65,866,771,0
7661685,363.26,866,770,0
7661696,361.98,866,772,0
7661705,360.01,866,770,0
7661715,358.17,866,771,0
7661725,355.76,866,770,0
7661735,353.56,866,771,0
7661745,350.99,866,770,0
7661755,348.89,866,771,0
7661765,346.44,866,770,0
7661775,344.47,866,771,0
7661785,342.18,866,770,0
7661795,340.46,866,771,0
7661805,338.35,866,770,0
7661815,336.66,866,771,0
7661825,334.49,866,770,0
7661835,332.76,866,771,0
7661845,330.60,866,770,0
7661855,328.84,866,771,0
7661865,326.66,866,770,0
7661875,325.04,866,771,0
7661885,323.06,866,770,0
7661895,321.63,866,771,0
7661905,319.90,866,770,0
7661915,318.77,866,771,0
7661925,317.43,866,770,0
7661935,316.70,866,771,0
7661945,315.67,866,770,0
7661955,315.21,866,771,0
7661965,314.59,866,770,0
7661975,315.32,866,771,0
7661985,317.58,866,770,0
7661996,323.75,866,771,0
7662006,334.75,866,770,0
7662016,353.43,866,771,0
7662026,380.68,866,770,0
7662036,418.24,866,771,0
7662055,462.91,853,770,0
7662058,511.58,853,771,0
7662067,560.56,853,770,0
7662077,607.32,853,771,0
7662087,648.63,853,770,0
7662097,682.55,853,771,0
7662107,707.29,853,770,0
7662117,724.60,853,771,0
7662127,736.72,853,770,0
7662137,745.20,853,772,0
7662147,751.14,853,770,0
7662157,755.30,853,771,0
7662167,758.21,853,770,0
7662177,760.25,853,771,0
7662187,759.23,853,770,0
7662197,754.15,853,771,0
7662208,743.95,853,770,0
7662217,728.32,853,771,0
7662227,706.49,853,770,0
7662237,678.40,853,771,0
7662247,643.95,853,770,0
7662257,606.25,853,771,0
7662267,566.58,853,770,0
7662277,527.02,853,771,0
7662287,488.48,853,770,0
7662297,453.07,853,771,0
7662307,421.38,853,770,0
7662317,394.52,853,771,0
7662327,372.55,853,770,0
7662337,356.14,853,771,0
7662347,344.70,853,770,0
7662357,338.19,853,771,0
7662367,335.35,853,770,0
7662377,335.84,853,771,0
7662387,338.46,853,770,0
7662397,342.52,853,771,0
7662407,346.78,853,770,0
7662417,350.92,853,771,0
7662427,354.11,853,770,0
7662437,356.31,853,771,0
7662447,356.99,853,770,0
7662457,356.35,853,771,0
7662467,354.10,853,770,0
7662477,350.94,853,771,0
7662487,346.72,853,770,0
7662497,341.87,853,771,0
7662508,336.38,853,770,0
7662518,330.74,853,771,0
7662528,325.12,853,770,0
7662538,319.90,853,771,0
7662548,315.08,853,770,0
7662558,310.95,853,771,0
7662568,307.40,853,770,0
7662578,304.63,853,771,0
7662588,302.60,853,770,0
7662598,301.22,853,771,0
7662608,300.38,853,770,0
7662618,299.84,853,771,0
7662628,299.59,853,770,0
7662638,299.54,853,771,0
7662648,299.55,853,770,0
7662658,299.47,853,771,0
7662668,299.29,853,770,0
7662679,299.03,853,771,0
7662689,298.76,853,770,0
7662699,298.23,853,771,0
7662709,297.69,853,771,0
7662720,297.01,853,771,0
7662729,296.41,853,770,0
7662739,295.73,853,771,0
7662749,295.04,853,771,0
7662759,294.17,853,771,0
7662769,293.43,853,770,0
7662779,292.49,853,771,0
7662789,291.70,853,771,0
7662799,290.68,853,771,0
7662809,289.92,853,770,0
7662819,289.34,853,771,0
7662829,289.80,853,771,0
7662839,291.74,853,771,0
7662849,296.53,853,770,0
7662859,305.46,853,771,0
7662869,320.45,853,770,0
7662879,342.43,853,771,0
7662899,372.64,843,770,0
7662902,410.89,843,771,0
7662911,456.31,843,771,0
7662921,505.20,843,771,0
7662931,554.30,843,771,0
7662941,600.58,843,770,0
7662951,641.85,843,771,0
7662961,676.22,843,771,0
7662971,702.00,843,771,0
7662981,717.77,843,770,0
7662991,725.21,843,771,0
7663001,725.02,843,771,0
7663011,718.33,843,771,0
7663021,705.67,843,770,0
7663031,687.90,843,771,0
7663041,665.90,843,771,0
7663051,641.84,843,771,0
7663062,616.22,843,770,0
7663071,590.78,843,771,0
7663081,565.35,843,771,0
7663091,540.81,843,771,0
7663101,516.48,843,770,0
7663111,493.50,843,771,0
7663121,471.06,843,771,0
7663131,450.17,843,771,0
7663141,430.15,843,770,0
7663151,412.15,843,771,0
7663161,395.82,843,771,0
7663171,382.33,843,771,0
7663181,370.87,843,770,0
7663191,362.47,843,771,0
7663201,356.33,843,771,0
7663211,353.10,843,771,0
7663221,351.57,843,770,0
7663232,351.91,843,771,0
7663241,352.93,843,771,0
7663251,354.88,843,771,0
7663261,356.46,843,771,0
7663271,358.12,843,771,0
7663281,358.60,843,771,0
7663291,358.63,843,771,0
7663301,357.33,843,770,0
7663311,355.52,843,771,0
7663321,352.53,843,771,0
7663331,349.24,843,771,0
7663341,345.01,843,771,0
7663351,340.90,843,771,0
7663361,336.17,843,771,0
7663371,331.83,843,771,0
7663381,327.17,843,771,0
7663391,323.05,843,771,0
7663401,318.83,843,771,0
7663411,315.41,843,771,0
7663421,312.03,843,771,0
7663431,309.58,843,771,0
7663441,307.22,843,771,0
7663451,305.83,843,771,0
7663461,304.55,843,771,0
7663471,304.17,843,771,0
7663481,303.60,843,770,0
7663491,303.72,843,771,0
7663501,303.46,843,771,0
7663511,303.71,843,771,0
7663521,303.58,843,771,0
7663532,303.88,843,771,0
7663542,303.70,843,770,0
7663552,303.96,843,771,0
7663562,303.89,843,770,0
7663572,304.48,843,771,0
7663582,304.72,843,770,0
7663592,305.45,843,771,0
7663602,305.70,843,770,0
7663612,306.35,843,771,0
7663622,306.59,843,770,0
7663632,307.01,843,771,0
7663642,306.79,843,770,0
7663652,306.90,843,771,0
7663662,306.89,843,770,0
7663672,308.51,843,771,0
7663682,312.13,843,770,0
7663692,320.10,843,771,0
7663703,333.27,843,770,0
7663713,354.23,843,771,0
7663723,383.48,843,770,0
7663742,422.21,844,769,0
7663746,467.49,844,771,0
7663755,516.16,844,771,0
7663765,564.58,844,770,0
7663775,610.43,844,772,0
7663785,650.68,844,770,0
7663795,683.77,844,771,0
7663805,708.14,844,770,0
7663815,725.20,844,772,0
7663825,737.14,844,770,0
7663835,745.50,844,771,0
7663845,751.35,844,770,0
7663855,755.44,844,771,0
7663865,758.31,844,770,0
7663875,760.32,844,772,0
7663885,761.72,844,770,0
7663895,761.63,844,772,0
7663905,758.19,844,770,0
7663916,750.29,844,771,0
7663926,737.04,844,770,0
7663936,718.13,844,771,0
7663946,693.45,844,770,0
7663956,663.27,844,771,0
7663966,629.29,844,770,0
7663976,594.32,844,772,0
7663986,560.15,844,770,0
7663996,528.61,844,771,0
7664006,500.74,844,770,0
7664016,477.46,844,772,0
7664026,458.98,844,770,0
7664036,445.19,844,771,0
7664046,435.36,844,770,0
7664056,429.21,844,771,0
7664066,425.76,844,770,0
7664076,424.20,844,771,0
7664087,423.63,844,770,0
7664097,423.40,844,771,0
7664107,422.89,844,771,0
7664117,421.77,844,771,0
7664128,419.69,844,771,0
7664137,416.57,844,771,0
7664147,412.50,844,770,0
7664157,407.42,844,771,0
7664167,401.68,844,771,0
7664177,395.43,844,771,0
7664187,388.96,844,770,0
7664197,382.33,844,771,0
7664207,375.97,844,771,0
7664217,370.02,844,771,0
7664227,364.83,844,770,0
7664237,360.21,844,771,0
7664247,356.29,844,770,0
7664257,353.20,844,771,0
7664267,350.91,844,771,0
7664277,349.10,844,771,0
7664287,347.95,844,771,0
7664297,347.02,844,771,0
7664307,346.50,844,771,0
7664317,346.09,844,771,0
7664327,345.90,844,771,0
7664337,345.41,844,771,0
7664347,344.95,844,770,0
7664357,344.06,844,771,0
7664367,343.19,844,771,0
7664377,342.02,844,771,0
7664387,340.90,844,771,0
7664397,339.60,844,771,0
7664407,338.52,844,770,0
7664417,337.51,844,771,0
7664428,336.88,844,771,0
7664438,336.45,844,771,0
7664448,336.48,844,771,0
7664458,336.81,844,771,0
7664468,338.07,844,771,0
7664478,340.96,844,771,0
7664488,347.19,844,771,0
7664498,358.15,844,771,0
7664508,376.70,844,771,0
7664518,404.39,844,771,0
7664528,441.86,844,771,0
7664547,485.44,805,770,0
7664550,532.41,805,772,0
7664559,579.56,805,771,0
7664569,624.26,805,771,0
7664579,663.01,805,771,0
7664589,693.61,805,771,0
7664599,715.03,805,771,0
7664609,730.02,805,771,0
7664619,740.51,805,771,0
7664629,747.90,805,771,0
7664640,753.07,805,771,0
7664649,756.69,805,771,0
7664659,759.23,805,771,0
7664669,761.05,805,771,0
7664679,762.32,805,771,0
7664689,763.21,805,771,0
7664699,763.79,805,771,0
7664709,764.24,805,771,0
7664719,764.60,805,771,0
7664729,764.85,805,771,0
7664739,764.98,805,771,0
7664749,765.11,805,771,0
7664759,765.21,805,771,0
7664769,765.27,805,771,0
7664779,765.28,805,771,0
7664789,765.28,805,771,0
7664799,761.47,805,771,0
7664809,751.64,805,771,0
7664819,734.26,805,771,0
7664829,709.03,805,771,0
7664839,675.85,805,771,0
7664849,635.65,805,771,0
7664859,589.08,805,771,0
7664869,541.32,805,771,0
7664879,495.11,805,771,0
7664889,453.25,805,771,0
7664899,416.66,805,771,0
7664909,386.55,805,771,0
7664919,362.17,805,771,0
7664929,343.69,805,771,0
7664940,329.77,805,771,0
7664950,320.54,805,771,0
7664960,314.42,805,771,0
7664970,311.38,805,772,0
7664980,309.77,805,770,0
7664990,309.88,805,771,0
7665000,310.34,805,771,0
7665010,311.65,805,771,0
7665020,312.57,805,770,0
7665030,313.73,805,771,0
7665040,314.07,805,771,0
7665050,314.52,805,772,0
7665060,314.19,805,770,0
7665070,314.01,805,771,0
7665080,313.15,805,771,0
7665090,312.55,805,771,0
7665100,311.40,805,770,0
7665111,310.63,805,772,0
7665121,309.46,805,771,0
7665131,308.55,805,771,0
7665141,307.06,805,770,0
7665152,305.92,805,772,0
7665161,304.45,805,770,0
7665171,303.46,805,772,0
7665181,302.03,805,770,0
7665191,301.12,805,772,0
7665201,299.93,805,770,0
7665211,299.31,805,772,0
7665221,298.27,805,770,0
7665231,297.55,805,772,0
7665241,296.31,805,770,0
7665251,295.58,805,771,0
7665261,294.33,805,770,0
7665271,293.67,805,772,0
7665281,292.96,805,770,0
7665291,293.96,805,772,0
7665301,297.31,805,770,0
7665311,306.05,805,772,0
7665321,321.72,805,771,0
7665340,347.35,793,770,0
7665343,385.17,793,771,0
7665352,431.96,793,772,0
7665362,483.62,793,770,0
7665372,537.26,793,772,0
7665382,588.95,793,770,0
7665392,635.77,793,772,0
7665402,674.49,793,770,0
7665412,701.86,793,772,0
7665422,720.97,793,770,0
7665432,734.40,793,772,0
7665442,743.75,793,771,0
7665452,750.34,793,772,0
7665462,754.91,793,770,0
7665472,758.11,793,772,0
7665482,760.35,793,771,0
7665492,761.96,793,772,0
7665502,763.04,793,770,0
7665512,763.84,793,772,0
7665522,764.36,793,770,0
7665532,764.77,793,772,0
7665542,761.75,793,770,0
7665552,752.87,793,772,0
7665562,735.72,793,770,0
7665572,709.66,793,772,0
7665582,674.36,793,770,0
7665592,630.75,793,772,0
7665602,579.14,793,770,0
7665612,524.41,793,772,0
7665623,470.08,793,770,0
7665633,420.30,793,772,0
7665643,376.79,793,770,0
7665653,341.41,793,772,0
7665664,313.95,793,770,0
7665673,295.10,793,772,0
7665683,283.46,793,771,0
7665693,278.61,793,772,0
7665703,278.51,793,770,0
7665713,282.26,793,772,0
7665723,287.84,793,770,0
7665733,294.61,793,771,0
7665743,301.16,793,770,0
7665753,307.28,793,772,0
7665763,311.87,793,770,0
7665773,315.17,793,772,0
7665783,316.66,793,771,0
7665793,316.89,793,772,0
7665803,315.42,793,770,0
7665813,312.90,793,772,0
7665823,309.03,793,771,0
7665833,304.60,793,771,0
7665843,299.54,793,770,0
7665853,294.62,793,772,0
7665863,289.55,793,770,0
7665873,285.05,793,772,0
7665883,280.75,793,770,0
7665893,277.31,793,772,0
7665903,274.26,793,770,0
7665913,271.87,793,771,0
7665923,269.64,793,770,0
7665933,268.12,793,772,0
7665943,266.84,793,770,0
7665953,266.16,793,771,0
7665964,265.68,793,770,0
7665974,265.73,793,772,0
7665984,266.03,793,771,0
7665994,266.62,793,771,0
7666004,267.25,793,771,0
7666014,268.03,793,772,0
7666024,268.62,793,770,0
7666034,269.12,793,771,0
7666044,269.34,793,771,0
7666054,269.50,793,772,0
7666064,269.48,793,770,0
7666074,269.33,793,772,0
7666084,268.93,793,771,0
7666094,268.52,793,772,0
7666104,268.11,793,770,0
7666114,268.38,793,771,0
7666124,270.28,793,771,0
7666135,275.72,793,772,0
7666145,286.69,793,771,0
7666155,305.81,793,771,0
7666165,335.31,793,771,0
7666176,376.62,793,772,0
7666194,426.23,854,770,0
7666197,480.46,854,772,0
7666206,535.70,854,771,0
7666216,588.50,854,771,0
7666226,635.49,854,771,0
7666236,673.66,854,771,0
7666246,701.06,854,771,0
7666256,720.24,854,771,0
7666266,733.67,854,771,0
7666276,743.07,854,771,0
7666286,749.65,854,771,0
7666296,754.25,854,771,0
7666306,757.52,854,771,0
7666316,759.34,854,771,0
7666326,757.39,854,771,0
7666336,749.69,854,771,0
7666347,735.04,854,771,0
7666356,712.83,854,771,0
7666366,682.79,854,771,0
7666376,644.84,854,771,0
7666386,600.23,854,771,0
7666396,552.12,854,771,0
7666406,503.70,854,771,0
7666416,457.12,854,771,0
7666426,414.48,854,771,0
7666436,377.05,854,771,0
7666446,346.18,854,771,0
7666456,321.87,854,771,0
7666466,304.34,854,771,0
7666476,293.01,854,771,0
7666486,287.90,854,771,0
7666496,287.63,854,771,0
7666506,291.30,854,771,0
7666516,297.25,854,771,0
7666526,304.81,854,771,0
7666536,312.71,854,771,0
7666546,320.34,854,771,0
7666556,326.45,854,771,0
7666566,330.90,854,771,0
7666576,333.20,854,771,0
7666586,333.87,854,771,0
7666596,332.41,854,771,0
7666606,329.59,854,771,0
7666616,325.30,854,771,0
7666626,320.32,854,771,0
7666636,314.57,854,771,0
7666647,308.78,854,771,0
7666657,302.76,854,771,0
7666667,297.48,854,771,0
7666677,292.28,854,771,0
7666688,287.99,854,771,0
7666697,283.97,854,771,0
7666707,281.06,854,771,0
7666717,278.73,854,771,0
7666727,277.44,854,771,0
7666737,276.45,854,771,0
7666747,276.36,854,771,0
7666757,276.38,854,771,0
7666767,277.21,854,771,0
7666777,277.92,854,771,0
7666787,279.06,854,771,0
7666797,279.73,854,771,0
7666807,280.62,854,771,0
7666817,281.08,854,771,0
7666827,281.70,854,771,0
7666837,281.87,854,771,0
7666847,282.30,854,771,0
7666857,282.29,854,771,0
7666867,282.68,854,771,0
7666877,282.47,854,771,0
7666887,282.59,854,771,0
7666897,282.16,854,771,0
7666907,281.89,854,771,0
7666917,281.28,854,771,0
7666927,281.88,854,771,0
7666937,284.49,854,771,0
7666947,291.54,854,771,0
7666957,304.62,854,771,0
7666967,327.15,854,771,0
7666977,360.15,854,771,0
7666997,404.12,803,770,0
7667000,454.61,803,771,0
7667009,508.26,803,771,0
7667019,561.54,803,771,0
7667030,611.30,803,772,0
7667039,653.90,803,771,0
7667049,687.23,803,772,0
7667059,710.56,803,771,0
7667069,726.89,803,772,0
7667079,738.32,803,771,0
7667089,746.33,803,772,0
7667099,751.93,803,771,0
7667109,755.85,803,772,0
7667119,758.60,803,771,0
7667129,760.52,803,772,0
7667139,761.86,803,771,0
7667149,762.20,803,772,0
7667159,758.80,803,771,0
7667169,749.95,803,772,0
7667179,733.93,803,771,0
7667189,710.38,803,772,0
7667200,678.90,803,771,0
7667209,640.48,803,772,0
7667219,595.94,803,771,0
7667229,549.50,803,772,0
7667239,503.66,803,771,0
7667249,461.85,803,772,0
7667259,425.04,803,770,0
7667269,395.24,803,772,0
7667279,371.90,803,771,0
7667289,355.94,803,772,0
7667299,346.02,803,770,0
7667309,342.20,803,772,0
7667319,342.35,803,771,0
7667329,346.28,803,772,0
7667339,351.68,803,770,0
7667349,358.25,803,772,0
7667359,364.17,803,771,0
7667369,369.56,803,772,0
7667379,372.95,803,770,0
7667389,374.98,803,772,0
7667399,374.64,803,771,0
7667409,372.95,803,772,0
7667419,369.37,803,770,0
7667429,364.84,803,772,0
7667439,358.89,803,771,0
7667449,352.71,803,772,0
7667459,345.81,803,770,0
7667469,339.48,803,772,0
7667479,332.99,803,771,0
7667489,327.38,803,772,0
7667500,322.08,803,770,0
7667510,318.03,803,772,0
7667520,314.46,803,771,0
7667530,312.22,803,772,0
7667540,310.36,803,770,0
7667550,309.74,803,772,0
7667560,309.34,803,770,0
7667570,309.93,803,772,0
7667580,310.55,803,770,0
7667590,311.93,803,772,0
7667600,313.11,803,771,0
7667610,314.66,803,772,0
7667620,315.70,803,770,0
7667630,316.95,803,772,0
7667640,317.61,803,771,0
7667650,318.45,803,772,0
7667660,318.79,803,770,0
7667671,320.14,803,772,0
7667681,323.05,803,771,0
7667691,330.45,803,772,0
7667701,344.20,803,770,0
7667712,367.63,803,772,0
7667721,401.94,803,771,0
7667731,445.07,803,772,0
7667741,493.31,803,770,0
7667751,544.00,803,772,0
7667770,593.37,773,771,0
7667773,638.39,773,772,0
7667782,675.39,773,770,0
7667792,702.31,773,772,0
7667802,721.16,773,771,0
7667812,734.36,773,772,0
7667822,743.59,773,770,0
7667832,750.10,773,772,0
7667842,754.61,773,771,0
7667852,757.77,773,772,0
7667862,759.98,773,771,0
7667872,761.57,773,772,0
7667883,762.73,773,771,0
7667892,763.54,773,772,0
7667902,764.06,773,771,0
7667912,764.43,773,772,0
7667922,764.69,773,771,0
7667932,764.87,773,772,0
7667942,764.95,773,771,0
7667952,764.96,773,772,0
7667962,763.26,773,771,0
7667972,757.10,773,772,0
7667982,743.95,773,770,0
7667992,722.97,773,772,0
7668002,693.75,773,771,0
7668012,657.22,773,772,0
7668022,614.00,773,771,0
7668032,566.94,773,772,0
7668042,519.77,773,771,0
7668052,476.26,773,772,0
7668062,438.04,773,771,0
7668072,406.53,773,772,0
7668082,381.34,773,770,0
7668092,362.47,773,772,0
7668102,348.95,773,771,0
7668112,340.10,773,772,0
7668122,334.63,773,771,0
7668132,331.91,773,772,0
7668142,330.74,773,771,0
7668152,330.60,773,771,0
7668162,330.59,773,771,0
7668172,330.71,773,772,0
7668183,330.59,773,771,0
7668193,330.20,773,771,0
7668203,329.28,773,771,0
7668213,327.95,773,772,0
7668224,326.30,773,771,0
7668233,324.62,773,771,0
7668243,322.72,773,771,0
7668253,320.70,773,772,0
7668263,318.65,773,771,0
7668273,316.61,773,771,0
7668283,314.76,773,771,0
7668293,312.90,773,772,0
7668303,311.26,773,771,0
7668313,309.72,773,771,0
7668323,308.39,773,771,0
7668333,307.29,773,772,0
7668343,306.52,773,771,0
7668353,306.02,773,771,0
7668363,305.84,773,771,0
7668373,305.72,773,771,0
7668383,305.80,773,771,0
7668393,305.95,773,771,0
7668403,306.22,773,771,0
7668413,306.71,773,772,0
7668423,308.00,773,771,0
7668433,311.34,773,771,0
7668443,318.65,773,771,0
7668453,332.64,773,772,0
7668463,356.66,773,771,0
7668483,393.02,712,770,0
7668486,437.89,712,773,0
7668495,487.98,712,771,0
7668505,540.27,712,772,0
7668515,591.57,712,771,0
7668525,638.29,712,772,0
7668535,676.43,712,771,0
7668545,703.17,712,772,0
7668555,721.85,712,771,0
7668566,734.97,712,772,0
7668575,744.15,712,771,0
7668585,750.62,712,772,0
7668595,755.10,712,771,0
7668605,758.29,712,772,0
7668615,760.52,712,771,0
7668625,762.12,712,772,0
7668635,763.20,712,771,0
7668645,763.95,712,772,0
7668655,764.48,712,771,0
7668665,764.89,712,772,0
7668675,765.14,712,771,0
7668685,765.31,712,772,0
7668695,765.43,712,771,0
7668705,765.56,712,772,0
7668715,765.61,712,771,0
7668725,765.64,712,772,0
7668736,765.66,712,771,0
7668745,761.95,712,772,0
7668755,751.42,712,771,0
7668765,732.87,712,772,0
7668775,705.52,712,771,0
7668785,670.26,712,771,0
7668795,627.24,712,771,0
7668805,577.80,712,771,0
7668815,526.56,712,771,0
7668825,477.88,712,771,0
7668835,433.73,712,771,0
7668845,395.97,712,771,0
7668855,364.26,712,771,0
7668865,339.20,712,772,0
7668875,319.55,712,771,0
7668885,305.29,712,771,0
7668895,294.83,712,771,0
7668905,288.07,712,772,0
7668915,283.68,712,771,0
7668925,281.54,712,771,0
7668935,280.52,712,771,0
7668945,280.80,712,771,0
7668955,281.24,712,771,0
7668965,282.50,712,771,0
7668975,283.55,712,771,0
7668985,284.80,712,771,0
7668995,285.50,712,771,0
7669005,286.34,712,771,0
7669015,286.66,712,771,0
7669025,286.98,712,771,0
7669036,286.56,712,771,0
7669046,286.13,712,771,0
7669056,285.15,712,771,0
7669066,284.33,712,772,0
7669076,283.03,712,771,0
7669086,281.91,712,771,0
7669096,280.31,712,771,0
7669106,279.19,712,772,0
7669116,277.76,712,771,0
7669126,276.85,712,771,0
7669136,275.52,712,771,0
7669146,274.55,712,772,0
7669156,273.10,712,771,0
7669166,272.26,712,771,0
7669176,271.32,712,771,0
7669186,272.13,712,772,0
7669196,275.69,712,771,0
7669207,285.42,712,772,0
7669217,303.51,712,771,0
7669227,333.87,712,772,0
7669246,376.30,764,771,0
7669250,427.25,764,772,0
7669259,482.76,764,771,0
7669269,539.58,764,772,0
7669279,593.57,764,771,0
7669289,641.27,764,772,0
7669299,678.65,764,771,0
7669309,704.85,764,772,0
7669319,723.20,764,771,0
7669329,736.04,764,772,0
7669339,745.03,764,771,0
7669349,751.32,764,772,0
7669359,755.72,764,771,0
7669369,758.81,764,772,0
7669379,760.96,764,771,0
7669389,762.47,764,772,0
7669399,763.53,764,771,0
7669409,764.27,764,772,0
7669420,764.79,764,771,0
7669430,765.15,764,772,0
7669440,765.41,764,771,0
7669450,761.81,764,772,0
7669460,750.94,764,771,0
7669470,731.50,764,772,0
7669480,702.17,764,771,0
7669490,663.20,764,771,0
7669500,615.01,764,771,0
7669510,559.25,764,772,0
7669520,500.76,764,771,0
7669530,444.73,764,772,0
7669540,393.68,764,771,0
7669550,350.62,764,772,0
7669560,316.11,764,771,0
7669570,290.96,764,772,0
7669580,273.92,764,771,0
7669591,264.43,764,772,0
7669601,260.83,764,771,0
7669611,261.86,764,772,0
7669621,265.72,764,771,0
7669632,271.42,764,772,0
7669641,277.42,764,771,0
7669651,283.25,764,772,0
7669661,288.02,764,771,0
7669671,291.48,764,772,0
7669681,293.48,764,771,0
7669691,294.07,764,772,0
7669701,293.23,764,771,0
7669711,291.32,764,772,0
7669721,288.40,764,771,0
7669731,284.98,764,772,0
7669741,281.08,764,771,0
7669751,277.12,764,772,0
7669761,273.10,764,771,0
7669771,269.42,764,772,0
7669781,266.08,764,771,0
7669791,263.14,764,772,0
7669801,260.53,764,771,0
7669811,258.53,764,772,0
7669821,256.87,764,771,0
7669831,255.71,764,772,0
7669841,254.77,764,771,0
7669851,254.19,764,772,0
7669861,253.75,764,770,0
7669871,253.61,764,772,0
7669881,253.51,764,771,0
7669891,253.66,764,772,0
7669901,253.80,764,771,0
7669911,254.03,764,772,0
7669921,254.07,764,771,0
7669932,254.09,764,772,0
7669942,253.81,764,771,0
7669952,253.78,764,772,0
7669962,254.66,764,771,0
7669972,257.98,764,772,0
7669982,265.35,764,771,0
7669992,279.22,764,772,0
7670002,302.08,764,771,0
7670012,335.74,764,772,0
7670022,380.48,764,771,0
7670041,432.66,795,770,0
7670044,488.44,795,772,0
7670053,544.32,795,772,0
7670063,596.77,795,771,0
7670073,642.35,795,772,0
7670083,678.76,795,772,0
7670093,704.80,795,771,0
7670103,723.03,795,771,0
7670113,735.75,795,772,0
7670123,744.66,795,772,0
7670133,750.84,795,772,0
7670144,753.89,795,771,0
7670153,752.30,795,772,0
7670163,744.96,795,772,0
7670173,730.83,795,771,0
7670183,709.63,795,772,0
7670193,681.15,795,771,0
7670203,645.71,795,772,0
7670213,604.57,795,771,0
7670223,560.38,795,772,0
7670233,515.22,795,772,0
7670243,471.27,795,772,0
7670253,429.58,795,771,0
7670263,391.52,795,771,0
7670273,357.68,795,771,0
7670283,329.32,795,772,0
7670293,306.42,795,771,0
7670303,289.49,795,772,0
7670313,277.95,795,771,0
7670323,271.83,795,772,0
7670333,270.17,795,771,0
7670343,272.39,795,772,0
7670353,276.99,795,771,0
7670363,283.38,795,772,0
7670373,290.21,795,771,0
7670383,297.13,795,772,0
7670393,302.92,795,771,0
7670403,307.49,795,772,0
7670413,310.21,795,772,0
7670423,311.43,795,772,0
7670433,310.62,795,771,0
7670444,308.29,795,772,0
7670454,304.22,795,771,0
7670464,299.52,795,772,0
7670474,293.67,795,771,0
7670484,287.72,795,772,0
7670494,281.42,795,771,0
7670504,275.85,795,772,0
7670514,270.54,795,771,0
7670524,266.35,795,772,0
7670534,262.52,795,771,0
7670544,259.88,795,772,0
7670554,257.60,795,771,0
7670564,256.30,795,772,0
7670574,255.14,795,771,0
7670584,254.80,795,772,0
7670594,254.60,795,771,0
7670604,255.24,795,772,0
7670615,255.98,795,771,0
7670625,257.31,795,772,0
7670635,258.51,795,771,0
7670645,260.11,795,772,0
7670656,261.06,795,771,0
7670665,262.16,795,772,0
7670675,262.45,795,771,0
7670685,262.96,795,772,0
7670695,263.32,795,771,0
7670705,264.81,795,772,0
7670715,267.69,795,771,0
7670725,274.64,795,772,0
7670735,286.28,795,771,0
7670745,305.05,795,772,0
7670755,331.65,795,771,0
7670765,367.67,795,772,0
7670775,412.00,795,771,0
7670794,462.44,753,770,0
7670797,514.68,753,771,0
7670806,565.82,753,772,0
7670816,612.76,753,771,0
7670827,653.42,753,772,0
7670836,685.73,753,770,0
7670846,709.51,753,772,0
7670856,725.22,753,771,0
7670866,733.72,753,772,0
7670876,734.96,753,771,0
7670886,729.53,753,772,0
7670896,717.11,753,771,0
7670906,698.44,753,772,0
7670916,673.53,753,771,0
7670926,644.10,753,772,0
7670936,611.29,753,771,0
7670946,577.51,753,772,0
7670956,543.12,753,771,0
7670966,509.91,753,772,0
7670976,477.54,753,771,0
7670986,447.25,753,772,0
7670996,418.80,753,771,0
7671006,393.45,753,772,0
7671016,370.64,753,771,0
7671026,351.63,753,772,0
7671036,335.80,753,771,0
7671046,324.38,753,772,0
7671056,316.42,753,771,0
7671066,312.48,753,772,0
7671076,311.35,753,771,0
7671086,313.35,753,772,0
7671096,316.84,753,771,0
7671106,322.03,753,772,0
7671116,327.17,753,771,0
7671127,332.52,753,772,0
7671137,336.60,753,771,0
7671147,339.89,753,772,0
7671157,341.17,753,771,0
7671168,341.33,753,772,0
7671177,339.48,753,771,0
7671187,336.80,753,772,0
7671197,332.75,753,771,0
7671207,328.41,753,772,0
7671217,323.19,753,771,0
7671227,318.25,753,772,0
7671237,312.99,753,771,0
7671247,308.49,753,772,0
7671257,303.97,753,771,0
7671267,300.17,753,772,0
7671277,296.47,753,771,0
7671287,293.72,753,772,0
7671297,291.10,753,771,0
7671307,289.40,753,772,0
7671317,287.82,753,771,0
7671327,287.10,753,772,0
7671337,286.47,753,771,0
7671347,286.59,753,772,0
7671357,286.63,753,771,0
7671367,287.38,753,772,0
7671377,288.00,753,771,0
7671387,289.24,753,772,0
7671397,290.20,753,771,0
7671407,291.55,753,772,0
7671417,292.50,753,771,0
7671427,293.76,753,772,0
7671437,294.48,753,771,0
7671447,295.36,753,772,0
7671457,295.64,753,771,0
7671468,296.35,753,772,0
7671478,297.27,753,771,0
7671488,299.89,753,772,0
7671498,304.98,753,771,0
7671508,314.80,753,772,0
7671518,330.16,753,771,0
7671528,353.30,753,772,0
7671538,384.49,753,771,0
7671548,424.46,753,772,0
7671567,470.65,773,771,0
7671570,519.61,773,772,0
7671579,567.86,773,771,0
7671589,613.07,773,772,0
7671599,652.56,773,771,0
7671609,684.92,773,772,0
7671619,708.95,773,771,0
7671629,725.76,773,772,0
7671639,736.21,773,771,0
7671649,740.64,773,772,0
7671659,738.91,773,771,0
7671669,731.18,773,772,0
7671680,717.54,773,771,0
7671689,698.48,773,772,0
7671699,674.08,773,771,0
7671709,645.81,773,772,0
7671719,615.10,773,771,0
7671729,583.87,773,772,0
7671739,552.71,773,771,0
7671749,522.45,773,772,0
7671759,493.17,773,771,0
7671769,465.65,773,772,0
7671779,440.17,773,771,0
7671789,417.23,773,772,0
7671799,396.68,773,771,0
7671809,379.20,773,772,0
7671819,364.83,773,771,0
7671829,353.95,773,772,0
7671839,346.25,773,771,0
7671849,341.85,773,772,0
7671859,340.14,773,771,0
7671869,340.82,773,772,0
7671879,343.15,773,771,0
7671889,346.66,773,772,0
7671899,350.53,773,771,0
7671909,354.40,773,772,0
7671919,357.58,773,771,0
7671929,359.89,773,772,0
7671939,360.91,773,771,0
7671949,360.81,773,772,0
7671959,359.37,773,771,0
7671969,356.90,773,772,0
7671980,353.37,773,771,0
7671990,349.19,773,772,0
7672000,344.46,773,771,0
7672010,339.57,773,772,0
7672020,334.55,773,772,0
7672030,329.80,773,772,0
7672040,325.36,773,771,0
7672050,321.52,773,772,0
7672060,318.45,773,771,0
7672070,316.35,773,772,0
7672080,315.26,773,772,0
7672090,315.09,773,772,0
7672100,316.01,773,771,0
7672110,317.93,773,772,0
7672120,320.74,773,771,0
7672130,324.20,773,772,0
7672140,328.17,773,771,0
7672151,332.28,773,772,0
7672161,336.52,773,772,0
7672171,340.35,773,771,0
7672181,343.80,773,772,0
7672192,346.43,773,772,0
7672201,348.36,773,772,0
7672211,349.28,773,772,0
7672221,349.37,773,772,0
7672231,348.57,773,772,0
7672241,347.76,773,772,0
7672251,347.49,773,772,0
7672261,349.48,773,771,0
7672271,354.87,773,772,0
7672281,365.54,773,772,0
7672291,383.03,773,772,0
7672301,408.82,773,772,0
7672311,442.86,773,772,0
7672330,483.92,763,771,0
7672333,528.34,763,772,0
7672342,573.24,763,772,0
7672352,615.85,763,772,0
7672363,653.87,763,772,0
7672372,685.28,763,772,0
7672382,709.20,763,772,0
7672392,725.94,763,772,0
7672402,736.88,763,772,0
7672412,742.02,763,772,0
7672422,741.46,763,772,0
7672432,735.06,763,772,0
7672442,723.22,763,772,0
7672452,706.05,763,772,0
7672462,683.92,763,772,0
7672472,657.54,763,772,0
7672482,628.88,763,772,0
7672492,599.05,763,772,0
7672502,569.42,763,772,0
7672512,540.15,763,772,0
7672522,512.16,763,772,0
7672532,485.28,763,771,0
7672542,460.73,763,772,0
7672552,438.44,763,771,0
7672562,419.32,763,772,0
7672572,403.11,763,772,0
7672582,390.56,763,772,0
7672592,381.05,763,772,0
7672602,375.21,763,772,0
7672612,371.97,763,772,0
7672622,371.42,763,772,0
7672632,372.37,763,771,0
7672642,374.74,763,772,0
7672652,377.43,763,771,0
7672663,380.56,763,772,0
7672673,383.01,763,771,0
7672683,385.06,763,772,0
7672693,385.82,763,771,0
7672704,385.74,763,772,0
7672713,384.23,763,771,0
7672723,381.98,763,772,0
7672733,378.43,763,771,0
7672743,374.70,763,772,0
7672753,370.03,763,771,0
7672763,365.57,763,772,0
7672773,360.68,763,771,0
7672783,356.45,763,772,0
7672793,352.07,763,771,0
7672803,348.36,763,772,0
7672813,344.48,763,771,0
7672823,341.38,763,772,0
7672833,338.27,763,771,0
7672843,335.87,763,772,0
7672853,333.30,763,771,0
7672863,331.41,763,772,0
7672873,329.49,763,771,0
7672883,328.23,763,772,0
7672893,326.83,763,771,0
7672903,325.98,763,772,0
7672913,325.04,763,771,0
7672923,324.77,763,772,0
7672933,324.41,763,771,0
7672943,324.72,763,772,0
7672953,324.80,763,771,0
7672963,325.63,763,772,0
7672973,326.30,763,771,0
7672983,327.45,763,773,0
7672993,328.09,763,771,0
7673004,329.09,763,773,0
7673014,329.62,763,771,0
7673024,331.06,763,773,0
7673034,333.14,763,771,0
7673044,337.94,763,773,0
7673054,345.85,763,771,0
7673064,359.26,763,772,0
7673074,378.90,763,771,0
7673084,406.91,763,773,0
7673094,442.21,763,771,0
7673113,484.23,783,770,0
7673116,529.04,783,771,0
7673125,574.20,783,773,0
7673135,616.74,783,771,0
7673145,654.66,783,773,0
7673155,685.62,783,771,0
7673165,709.43,783,773,0
7673175,726.10,783,771,0
7673185,736.79,783,773,0
7673195,741.14,783,771,0
7673205,739.72,783,773,0
7673216,732.22,783,771,0
7673225,719.38,783,772,0
7673235,700.93,783,771,0
7673245,677.68,783,772,0
7673255,650.52,783,771,0
7673265,621.99,783,772,0
7673275,592.51,783,771,0
7673285,563.86,783,772,0
7673295,535.74,783,771,0
7673305,509.50,783,772,0
7673315,484.54,783,771,0
7673325,461.88,783,772,0
7673335,441.13,783,771,0
7673345,423.35,783,773,0
7673355,407.86,783,771,0
7673365,395.69,783,773,0
7673375,386.05,783,771,0
7673385,379.65,783,773,0
7673395,375.47,783,771,0
7673405,373.79,783,772,0
7673415,373.29,783,771,0
7673425,374.45,783,773,0
7673435,375.86,783,771,0
7673445,377.83,783,773,0
7673455,379.25,783,771,0
7673465,380.55,783,773,0
7673475,380.77,783,771,0
7673485,380.50,783,772,0
7673495,378.89,783,771,0
7673505,376.74,783,773,0
7673516,373.43,783,771,0
7673526,369.79,783,772,0
7673536,365.39,783,771,0
7673546,361.12,783,773,0
7673556,356.50,783,771,0
7673566,352.36,783,773,0
7673576,348.14,783,771,0
7673586,344.67,783,773,0
7673596,341.34,783,771,0
7673606,338.84,783,772,0
7673616,336.44,783,771,0
7673626,334.94,783,772,0
7673636,333.50,783,771,0
7673646,332.84,783,772,0
7673656,332.11,783,771,0
7673666,331.87,783,772,0
7673676,331.39,783,771,0
7673687,331.27,783,772,0
7673697,330.72,783,771,0
7673707,330.33,783,772,0
7673717,329.46,783,771,0
7673728,328.68,783,772,0
7673737,327.58,783,771,0
7673747,326.63,783,773,0
7673757,325.41,783,771,0
7673767,324.43,783,772,0
7673777,323.32,783,771,0
7673787,322.45,783,773,0
7673797,321.42,783,771,0
7673807,320.56,783,772,0
7673817,319.54,783,771,0
7673827,318.69,783,773,0
7673837,317.58,783,771,0
7673847,316.81,783,772,0
7673857,316.27,783,771,0
7673867,317.21,783,773,0
7673877,320.15,783,771,0
7673887,326.66,783,772,0
7673897,337.78,783,772,0
7673907,354.99,783,773,0
7673917,378.65,783,771,0
7673936,409.35,823,770,0
7673939,446.19,823,773,0
7673948,487.62,823,773,0
7673958,530.72,823,772,0
7673968,572.97,823,772,0
7673978,611.55,823,772,0
7673988,644.26,823,773,0
7673998,668.95,823,772,0
7674008,684.44,823,772,0
7674018,690.65,823,772,0
7674028,688.70,823,773,0
7674038,679.32,823,772,0
7674048,664.09,823,772,0
7674058,644.39,823,772,0
7674068,621.86,823,772,0
7674078,597.82,823,772,0
7674088,573.36,823,772,0
7674098,549.08,823,772,0
7674108,525.78,823,772,0
7674118,503.61,823,772,0
7674128,482.85,823,772,0
7674138,463.48,823,772,0
7674148,445.55,823,772,0
7674158,429.19,823,772,0
7674168,414.52,823,772,0
7674178,401.68,823,772,0
7674188,390.84,823,772,0
7674199,382.06,823,772,0
7674209,375.40,823,772,0
7674219,370.82,823,772,0
7674229,367.96,823,772,0
7674240,366.73,823,772,0
7674249,366.64,823,772,0
7674259,367.35,823,772,0
7674269,368.36,823,772,0
7674279,369.45,823,772,0
7674289,370.22,823,772,0
7674299,370.58,823,772,0
7674309,370.06,823,772,0
7674319,368.80,823,772,0
7674329,366.80,823,772,0
7674339,364.21,823,772,0
7674349,360.93,823,772,0
7674359,357.22,823,772,0
7674369,353.13,823,772,0
7674379,349.06,823,772,0
7674389,344.97,823,772,0
7674399,341.08,823,772,0
7674409,337.33,823,772,0
7674419,333.89,823,772,0
7674429,330.71,823,772,0
7674439,328.05,823,772,0
7674449,325.72,823,772,0
7674459,323.79,823,771,0
7674469,322.05,823,772,0
7674479,320.67,823,772,0
7674489,319.44,823,772,0
7674499,318.49,823,772,0
7674509,317.62,823,772,0
7674519,316.92,823,772,0
7674529,316.21,823,772,0
7674540,315.76,823,772,0
7674550,315.32,823,772,0
7674560,315.22,823,772,0
7674570,315.03,823,772,0
7674580,315.15,823,772,0
7674590,315.23,823,772,0
7674600,315.59,823,773,0
7674610,315.67,823,772,0
7674620,315.86,823,772,0
7674630,315.68,823,772,0
7674640,315.69,823,772,0
7674650,315.14,823,772,0
7674660,314.59,823,772,0
7674670,313.60,823,772,0
7674680,312.69,823,772,0
7674690,311.71,823,772,0
7674700,311.50,823,772,0
7674711,312.21,823,772,0
7674721,315.32,823,773,0
7674731,321.39,823,772,0
7674741,332.29,823,772,0
7674752,348.57,823,772,0
7674761,371.20,823,773,0
7674780,399.77,844,772,0
7674783,434.34,844,773,0
7674792,472.77,844,772,0
7674802,513.29,844,773,0
7674812,552.81,844,772,0
7674822,589.51,844,773,0
7674832,620.55,844,772,0
7674842,644.86,844,773,0
7674852,660.50,844,772,0
7674862,668.11,844,773,0
7674872,667.52,844,771,0
7674882,660.51,844,773,0
7674892,647.58,844,772,0
7674902,630.95,844,773,0
7674912,611.17,844,771,0
7674923,590.33,844,773,0
7674932,568.63,844,772,0
7674942,547.66,844,773,0
7674952,526.89,844,771,0
7674962,507.51,844,773,0
7674972,489.06,844,772,0
7674982,472.45,844,773,0
7674992,457.02,844,771,0
7675002,443.47,844,773,0
7675012,431.24,844,772,0
7675022,421.23,844,773,0
7675032,412.54,844,771,0
7675042,405.95,844,773,0
7675052,400.61,844,772,0
7675062,397.13,844,773,0
7675072,394.60,844,772,0
7675082,393.57,844,773,0
7675092,392.92,844,772,0
7675102,393.16,844,773,0
7675112,393.16,844,771,0
7675122,393.45,844,773,0
7675132,393.06,844,771,0
7675142,392.78,844,773,0
7675152,391.48,844,771,0
7675162,390.09,844,773,0
7675172,387.84,844,771,0
7675182,385.53,844,773,0
7675192,382.41,844,771,0
7675202,379.33,844,773,0
7675212,375.42,844,772,0
7675223,371.82,844,773,0
7675233,367.72,844,771,0
7675243,364.12,844,773,0
7675253,360.18,844,771,0
7675264,356.91,844,773,0
7675273,353.55,844,771,0
7675283,351.07,844,773,0
7675293,348.52,844,772,0
7675303,346.74,844,773,0
7675313,344.84,844,771,0
7675323,343.78,844,773,0
7675333,342.56,844,772,0
7675343,342.01,844,773,0
7675353,341.10,844,771,0
7675363,340.77,844,773,0
7675373,340.16,844,772,0
7675383,339.98,844,773,0
7675393,339.43,844,771,0
7675403,339.34,844,773,0
7675413,338.77,844,771,0
7675423,338.58,844,773,0
7675433,337.89,844,771,0
7675443,337.58,844,773,0
7675453,336.76,844,771,0
7675463,336.32,844,773,0
7675473,335.41,844,771,0
7675483,335.07,844,773,0
7675493,334.45,844,771,0
7675503,334.36,844,773,0
7675513,334.04,844,771,0
7675523,334.58,844,773,0
7675533,335.44,844,772,0
7675543,338.13,844,773,0
7675553,342.68,844,771,0
7675564,351.22,844,773,0
7675574,364.40,844,772,0
7675584,384.21,844,773,0
7675594,410.67,844,771,0
7675614,444.54,833,771,0
7675617,484.62,833,773,0
7675626,528.28,833,773,0
7675636,572.08,833,772,0
7675646,613.80,833,773,0
7675656,650.93,833,772,0
7675666,682.28,833,773,0
7675676,706.71,833,772,0
7675686,723.81,833,773,0
7675696,734.24,833,772,0
7675706,738.80,833,773,0
7675716,737.61,833,772,0
7675726,731.17,833,773,0
7675736,719.59,833,772,0
7675746,703.56,833,773,0
7675756,683.25,833,772,0
7675766,660.42,833,773,0
7675777,635.91,833,772,0
7675787,610.91,833,773,0
7675797,585.91,833,772,0
7675807,561.85,833,772,0
7675817,538.66,833,772,0
7675827,517.21,833,773,0
7675837,497.26,833,772,0
7675847,479.40,833,772,0
7675857,463.85,833,772,0
7675867,450.82,833,773,0
7675877,440.03,833,772,0
7675887,431.71,833,772,0
7675897,425.58,833,772,0
7675907,421.55,833,773,0
7675917,419.24,833,772,0
7675927,418.31,833,772,0
7675937,418.18,833,772,0
7675948,418.59,833,773,0
7675958,419.02,833,772,0
7675968,418.84,833,772,0
7675978,418.12,833,773,0
7675988,416.41,833,772,0
7675998,413.80,833,772,0
7676008,410.26,833,772,0
7676018,405.77,833,773,0
7676028,400.48,833,772,0
7676038,394.77,833,772,0
7676048,388.66,833,772,0
7676058,382.64,833,773,0
7676068,376.53,833,772,0
7676078,370.80,833,772,0
7676088,365.46,833,772,0
7676098,360.78,833,773,0
7676108,356.65,833,772,0
7676119,353.15,833,773,0
7676129,350.06,833,772,0
7676139,347.60,833,773,0
7676149,345.36,833,772,0
7676160,343.71,833,773,0
7676169,342.04,833,772,0
7676179,340.79,833,773,0
7676189,339.39,833,772,0
7676199,338.29,833,773,0
7676209,337.00,833,772,0
7676219,335.89,833,773,0
7676229,334.51,833,772,0
7676239,333.45,833,773,0
7676249,332.16,833,772,0
7676259,331.17,833,773,0
7676269,329.88,833,772,0
7676279,328.97,833,773,0
7676289,327.99,833,772,0
7676299,327.31,833,773,0
7676309,326.49,833,772,0
7676319,325.91,833,773,0
7676329,325.17,833,772,0
7676339,324.95,833,773,0
7676349,325.01,833,772,0
7676359,326.63,833,773,0
7676369,330.43,833,772,0
7676379,338.14,833,773,0
7676389,350.91,833,772,0
7676399,370.87,833,773,0
7676409,398.59,833,772,0
7676419,434.54,833,773,0
7676438,477.07,825,772,0
7676441,522.99,825,774,0
7676450,569.02,825,772,0
7676460,612.73,825,773,0
7676470,651.38,825,772,0
7676480,683.41,825,773,0
7676490,707.76,825,772,0
7676500,724.85,825,773,0
7676510,736.81,825,772,0
7676520,745.22,825,773,0
7676530,751.07,825,772,0
7676540,754.73,825,773,0
7676550,754.86,825,772,0
7676560,750.83,825,773,0
7676570,741.45,825,772,0
7676580,726.74,825,773,0
7676590,706.25,825,772,0
7676600,680.20,825,773,0
7676610,648.73,825,772,0
7676620,614.44,825,773,0
7676631,578.52,825,772,0
7676641,543.31,825,773,0
7676651,509.23,825,772,0
7676661,478.09,825,773,0
7676672,450.03,825,772,0
7676681,426.62,825,773,0
7676691,407.41,825,772,0
7676701,393.14,825,773,0
7676711,382.94,825,772,0
7676721,377.17,825,773,0
7676731,374.46,825,772,0
7676741,374.84,825,773,0
7676751,376.69,825,772,0
7676761,380.04,825,773,0
7676771,383.33,825,772,0
7676781,386.70,825,773,0
7676791,388.80,825,772,0
7676801,390.02,825,773,0
7676811,389.46,825,772,0
7676821,387.82,825,773,0
7676831,384.32,825,772,0
7676841,379.98,825,774,0
7676851,374.16,825,772,0
7676861,368.07,825,773,0
7676871,361.15,825,772,0
7676881,354.42,825,773,0
7676891,347.35,825,772,0
7676901,340.90,825,773,0
7676911,334.55,825,772,0
7676921,329.11,825,774,0
7676931,323.98,825,772,0
7676941,320.04,825,773,0
7676951,316.51,825,772,0
7676961,314.13,825,773,0
7676972,311.99,825,772,0
7676982,310.79,825,773,0
7676992,309.74,825,772,0
7677002,309.48,825,774,0
7677012,308.99,825,772,0
7677022,309.16,825,773,0
7677032,308.94,825,772,0
7677042,309.30,825,774,0
7677052,309.17,825,772,0
7677062,309.46,825,773,0
7677072,309.19,825,772,0
7677082,309.18,825,774,0
7677092,308.74,825,772,0
7677102,309.20,825,773,0
7677112,310.56,825,772,0
7677122,314.98,825,773,0
7677132,323.30,825,772,0
7677143,338.25,825,773,0
7677153,361.15,825,772,0
7677163,394.19,825,774,0
7677173,436.22,825,772,0
7677184,483.85,825,773,0
7677193,533.44,825,772,0
7677212,582.29,774,771,0
7677215,627.16,774,773,0
7677224,665.64,774,773,0
7677234,695.24,774,772,0
7677244,715.99,774,774,0
7677254,730.57,774,772,0
7677264,740.77,774,773,0
7677274,747.91,774,772,0
7677284,752.91,774,774,0
7677294,756.45,774,772,0
7677304,758.97,774,773,0
7677314,760.74,774,772,0
7677324,760.17,774,774,0
7677334,754.98,774,772,0
7677344,744.14,774,773,0
7677355,726.36,774,772,0
7677364,701.69,774,774,0
7677374,669.73,774,772,0
7677384,631.11,774,773,0
7677394,588.05,774,772,0
7677404,544.10,774,774,0
7677414,500.92,774,772,0
7677424,461.17,774,773,0
7677434,425.46,774,772,0
7677444,395.54,774,774,0
7677454,371.25,774,772,0
7677464,353.34,774,773,0
7677474,340.90,774,772,0
7677484,333.90,774,774,0
7677494,330.93,774,772,0
7677504,331.68,774,773,0
7677514,334.39,774,772,0
7677524,338.73,774,773,0
7677534,342.93,774,772,0
7677544,346.85,774,773,0
7677554,349.51,774,772,0
7677564,351.03,774,773,0
7677574,350.59,774,772,0
7677584,348.83,774,773,0
7677594,345.24,774,772,0
7677604,340.58,774,773,0
7677614,334.71,774,772,0
7677624,328.32,774,773,0
7677634,321.07,774,772,0
7677644,314.02,774,773,0
7677655,306.81,774,772,0
7677665,300.18,774,773,0
7677675,293.96,774,772,0
7677685,288.61,774,773,0
7677696,283.80,774,772,0
7677705,280.22,774,773,0
7677715,277.28,774,772,0
7677725,275.48,774,773,0
7677735,274.27,774,772,0
7677745,273.97,774,773,0
7677755,273.98,774,772,0
7677765,274.59,774,773,0
7677775,275.35,774,773,0
7677785,276.36,774,773,0
7677795,277.02,774,772,0
7677805,277.66,774,773,0
7677815,277.80,774,772,0
7677825,277.91,774,773,0
7677835,277.59,774,772,0
7677845,277.54,774,773,0
7677855,278.24,774,772,0
7677865,281.55,774,773,0
7677875,288.50,774,772,0
7677885,301.21,774,773,0
7677895,321.07,774,772,0
7677905,349.89,774,773,0
7677915,387.43,774,772,0
7677925,433.63,774,773,0
7677935,484.05,774,772,0
7677955,535.59,742,772,0
7677958,584.87,742,773,0
7677967,629.35,742,773,0
7677977,666.71,742,773,0
7677987,696.11,742,773,0
7677997,716.69,742,773,0
7678007,731.14,742,773,0
7678017,741.00,742,773,0
7678027,745.71,742,773,0
7678038,744.90,742,773,0
7678047,738.42,742,773,0
7678057,726.12,742,773,0
7678067,707.91,742,773,0
7678077,683.98,742,773,0
7678087,654.80,742,773,0
7678097,622.59,742,773,0
7678107,588.90,742,773,0
7678117,554.99,742,773,0
7678127,521.90,742,773,0
7678137,490.52,742,773,0
7678147,461.31,742,773,0
7678157,434.81,742,773,0
7678167,411.21,742,773,0
7678177,391.01,742,773,0
7678187,374.16,742,773,0
7678197,360.87,742,773,0
7678208,351.09,742,773,0
7678217,344.64,742,773,0
7678227,341.06,742,773,0
7678237,340.14,742,773,0
7678247,340.96,742,772,0
7678257,343.24,742,773,0
7678267,346.08,742,773,0
7678277,349.19,742,773,0
7678287,351.87,742,773,0
7678297,353.88,742,773,0
7678307,354.73,742,773,0
7678317,354.51,742,773,0
7678327,352.90,742,773,0
7678337,350.15,742,773,0
7678347,346.12,742,773,0
7678357,341.15,742,773,0
7678367,335.45,742,772,0
7678377,329.70,742,773,0
7678387,323.96,742,773,0
7678397,318.49,742,773,0
7678407,313.28,742,772,0
7678417,308.61,742,773,0
7678427,304.40,742,773,0
7678437,300.81,742,773,0
7678447,297.39,742,772,0
7678457,294.58,742,774,0
7678467,292.17,742,773,0
7678477,290.28,742,773,0
7678487,288.65,742,772,0
7678497,287.69,742,773,0
7678508,286.97,742,773,0
7678518,286.55,742,773,0
7678528,286.04,742,772,0
7678538,285.86,742,774,0
7678548,285.81,742,772,0
7678558,286.30,742,774,0
7678568,287.11,742,772,0
7678578,289.30,742,773,0
7678588,293.76,742,773,0
7678598,301.76,742,773,0
7678608,314.04,742,772,0
7678618,332.16,742,774,0
7678628,356.50,742,772,0
7678638,387.38,742,773,0
7678648,423.48,742,772,0
7678658,463.53,742,774,0
7678668,504.90,742,773,0
7678688,545.56,734,771,0
7678691,582.16,734,774,0
7678700,613.06,734,774,0
7678710,636.01,734,772,0
7678721,650.67,734,774,0
7678731,656.08,734,772,0
7678741,653.61,734,774,0
7678751,643.44,734,772,0
7678761,627.97,734,774,0
7678771,607.83,734,772,0
7678781,585.51,734,774,0
7678791,561.44,734,772,0
7678801,537.74,734,774,0
7678811,514.16,734,772,0
7678821,492.17,734,774,0
7678831,471.03,734,772,0
7678841,451.61,734,774,0
7678851,433.13,734,772,0
7678861,416.59,734,774,0
7678871,401.15,734,772,0
7678881,387.82,734,774,0
7678892,376.00,734,772,0
7678902,366.62,734,774,0
7678912,359.02,734,772,0
7678922,354.08,734,774,0
7678932,350.76,734,772,0
7678942,349.67,734,774,0
7678952,349.94,734,772,0
7678962,351.80,734,774,0
7678972,354.13,734,772,0
7678982,357.22,734,774,0
7678992,359.77,734,772,0
7679002,362.32,734,774,0
7679012,363.68,734,772,0
7679022,364.42,734,774,0
7679032,363.78,734,772,0
7679042,362.60,734,774,0
7679052,360.11,734,772,0
7679063,357.25,734,774,0
7679073,353.57,734,772,0
7679083,350.14,734,774,0
7679093,346.24,734,772,0
7679104,342.74,734,774,0
7679113,339.01,734,772,0
7679123,335.96,734,774,0
7679133,332.97,734,772,0
7679143,330.67,734,774,0
7679153,328.24,734,772,0
7679163,326.45,734,774,0
7679173,324.56,734,772,0
7679183,323.06,734,773,0
7679193,321.37,734,772,0
7679203,320.10,734,774,0
7679213,318.74,734,772,0
7679223,318.26,734,774,0
7679233,318.10,734,772,0
7679243,319.65,734,774,0
7679253,323.19,734,772,0
7679263,330.20,734,773,0
7679273,341.24,734,772,0
7679283,357.71,734,774,0
7679293,379.48,734,772,0
7679303,407.45,734,773,0
7679313,440.27,734,772,0
7679332,477.09,644,771,0
7679335,515.68,644,773,0
7679344,554.26,644,773,0
7679354,589.97,644,773,0
7679364,621.31,644,773,0
7679374,646.07,644,772,0
7679384,663.79,644,773,0
7679394,673.84,644,773,0
7679404,676.85,644,774,0
7679414,672.95,644,772,0
7679424,663.79,644,773,0
7679434,650.10,644,773,0
7679444,633.57,644,773,0
7679454,614.97,644,772,0
7679464,595.52,644,773,0
7679474,575.31,644,772,0
7679484,555.33,644,773,0
7679494,535.65,644,772,0
7679504,516.81,644,773,0
7679514,498.44,644,773,0
7679524,480.95,644,773,0
7679534,464.25,644,772,0
7679544,449.00,644,773,0
7679554,435.03,644,773,0
7679564,422.94,644,773,0
7679575,412.63,644,773,0
7679585,404.60,644,773,0
7679595,398.63,644,773,0
7679605,394.63,644,773,0
7679616,392.30,644,773,0
7679625,391.61,644,773,0
7679635,391.85,644,773,0
7679645,392.88,644,773,0
7679655,394.16,644,773,0
7679665,395.36,644,773,0
7679675,396.28,644,773,0
7679685,396.71,644,773,0
7679695,396.45,644,773,0
7679705,395.59,644,773,0
7679715,393.83,644,773,0
7679725,391.44,644,773,0
7679735,388.39,644,773,0
7679745,385.06,644,773,0
7679755,381.31,644,773,0
7679765,377.45,644,773,0
7679775,373.50,644,773,0
7679785,369.75,644,773,0
7679795,366.22,644,773,0
7679805,363.16,644,773,0
7679815,360.32,644,773,0
7679825,357.91,644,773,0
7679835,355.75,644,773,0
7679845,353.94,644,773,0
7679855,352.37,644,773,0
7679865,350.98,644,773,0
7679875,349.78,644,772,0
7679885,349.33,644,773,0
7679895,350.31,644,773,0
7679905,353.60,644,773,0
7679916,360.11,644,773,0
7679926,371.22,644,773,0
7679936,387.99,644,773,0
7679946,411.05,644,773,0
7679956,440.27,644,774,0
7679975,474.60,643,772,0
7679978,512.95,643,775,0
7679987,553.12,643,773,0
7679997,592.38,643,774,0
7680007,628.23,643,773,0
7680017,658.63,643,774,0
7680027,681.88,643,773,0
7680037,697.39,643,774,0
7680047,704.52,643,773,0
7680057,703.98,643,774,0
7680067,696.65,643,773,0
7680077,683.99,643,774,0
7680087,667.19,643,773,0
7680097,647.76,643,774,0
7680107,626.70,643,773,0
7680117,605.06,643,773,0
7680128,583.19,643,773,0
7680137,561.92,643,774,0
7680147,541.20,643,773,0
7680157,521.34,643,773,0
7680167,502.21,643,773,0
7680177,484.32,643,774,0
7680187,467.51,643,773,0
7680197,452.31,643,773,0
7680207,438.50,643,773,0
7680217,426.65,643,774,0
7680227,416.56,643,773,0
7680237,408.63,643,773,0
7680247,402.23,643,773,0
7680257,397.79,643,774,0
7680267,394.77,643,773,0
7680277,393.38,643,774,0
7680287,392.79,643,773,0
7680297,393.07,643,774,0
7680307,393.52,643,773,0
7680317,394.09,643,774,0
7680327,394.19,643,773,0
7680337,393.96,643,774,0
7680347,392.95,643,773,0
7680357,391.51,643,774,0
7680367,389.13,643,773,0
7680377,386.26,643,774,0
7680387,382.80,643,773,0
7680397,379.04,643,774,0
7680407,374.79,643,773,0
7680417,370.52,643,774,0
7680428,365.87,643,773,0
7680438,361.71,643,774,0
7680448,357.55,643,773,0
7680458,354.13,643,774,0
7680468,350.88,643,773,0
7680478,348.43,643,774,0
7680488,346.11,643,773,0
7680498,344.62,643,774,0
7680508,343.19,643,772,0
7680518,342.41,643,774,0
7680528,341.60,643,772,0
7680538,341.46,643,774,0
7680548,341.19,643,773,0
7680558,341.48,643,774,0
7680568,341.81,643,773,0
7680578,343.06,643,774,0
7680588,345.06,643,772,0
7680599,348.98,643,774,0
7680609,355.03,643,772,0
7680619,365.01,643,774,0
7680629,379.23,643,772,0
7680640,399.01,643,774,0
7680649,423.48,643,773,0
7680659,452.90,643,774,0
7680669,485.42,643,773,0
7680679,520.01,643,774,0
7680698,553.78,723,773,0
7680701,585.26,723,775,0
7680710,611.88,723,772,0
7680720,633.09,723,774,0
7680730,647.12,723,772,0
7680740,654.54,723,774,0
7680750,654.72,723,772,0
7680760,649.23,723,774,0
7680770,638.32,723,772,0
7680780,623.74,723,774,0
7680790,605.86,723,772,0
7680800,586.49,723,774,0
7680811,565.60,723,772,0
7680820,544.93,723,774,0
7680830,524.12,723,772,0
7680840,504.29,723,774,0
7680850,484.83,723,772,0
7680860,466.88,723,774,0
7680870,449.77,723,772,0
7680880,434.54,723,774,0
7680890,420.58,723,772,0
7680900,408.83,723,774,0
7680910,398.64,723,772,0
7680920,390.91,723,774,0
7680930,384.72,723,772,0
7680940,380.95,723,774,0
7680950,378.56,723,773,0
7680960,378.05,723,774,0
7680970,378.21,723,772,0
7680980,379.52,723,774,0
7680990,380.86,723,772,0
7681000,382.75,723,774,0
7681010,384.02,723,772,0
7681020,385.30,723,774,0
7681030,385.60,723,772,0
7681040,385.80,723,774,0
7681050,384.96,723,772,0
7681060,383.90,723,774,0
7681070,381.87,723,772,0
7681080,379.81,723,774,0
7681090,377.00,723,772,0
7681100,374.34,723,774,0
7681111,371.02,723,772,0
7681121,368.10,723,774,0
7681131,364.77,723,772,0
7681141,362.01,723,774,0
7681152,359.09,723,772,0
7681161,356.88,723,774,0
7681171,354.56,723,772,0
7681181,352.93,723,774,0
7681191,351.28,723,773,0
7681201,350.43,723,774,0
7681211,349.36,723,772,0
7681221,348.73,723,774,0
7681231,347.70,723,772,0
7681241,347.15,723,774,0
7681251,346.33,723,772,0
7681261,345.85,723,774,0
7681271,344.91,723,773,0
7681281,344.33,723,774,0
7681291,343.51,723,772,0
7681301,343.31,723,774,0
7681311,342.92,723,773,0
7681321,343.46,723,774,0
7681331,344.65,723,772,0
7681341,348.05,723,774,0
7681351,353.91,723,772,0
7681361,363.84,723,774,0
7681371,377.56,723,772,0
7681381,396.25,723,774,0
7681391,418.97,723,773,0
7681401,445.64,723,774,0
7681420,474.03,722,773,0
7681423,503.08,722,775,0
7681432,530.36,722,773,0
7681442,554.81,722,774,0
7681452,574.32,722,772,0
7681462,588.33,722,774,0
7681472,595.94,722,773,0
7681482,597.93,722,774,0
7681492,594.18,722,773,0
7681502,585.94,722,774,0
7681512,573.53,722,773,0
7681522,558.71,722,774,0
7681532,542.04,722,773,0
7681542,525.02,722,774,0
7681552,507.53,722,772,0
7681562,490.57,722,774,0
7681572,473.73,722,773,0
7681582,458.17,722,774,0
7681592,443.20,722,773,0
7681602,429.56,722,774,0
7681612,416.53,722,772,0
7681623,405.14,722,774,0
7681633,395.03,722,773,0
7681643,386.92,722,774,0
7681653,380.26,722,773,0
7681664,375.55,722,773,0
7681673,372.26,722,773,0
7681683,370.64,722,774,0
7681693,369.93,722,773,0
7681703,370.12,722,773,0
7681713,370.56,722,773,0
7681723,371.42,722,774,0
7681733,372.11,722,773,0
7681743,372.63,722,773,0
7681753,372.44,722,773,0
7681763,371.80,722,774,0
7681773,370.44,722,773,0
7681783,368.77,722,773,0
7681793,366.44,722,773,0
7681803,363.82,722,774,0
7681813,360.75,722,773,0
7681823,357.69,722,773,0
7681833,354.44,722,773,0
7681843,351.52,722,774,0
7681853,348.71,722,773,0
7681863,346.23,722,773,0
7681873,343.97,722,773,0
7681883,342.22,722,774,0
7681893,340.78,722,773,0
7681903,339.95,722,774,0
7681913,339.15,722,773,0
7681923,338.63,722,774,0
7681933,338.06,722,773,0
7681943,337.78,722,774,0
7681953,337.42,722,773,0
7681964,337.21,722,774,0
7681974,336.80,722,773,0
7681984,336.73,722,773,0
7681994,336.94,722,773,0
7682004,338.20,722,773,0
7682014,340.63,722,773,0
7682024,345.37,722,773,0
7682034,353.23,722,774,0
7682044,365.25,722,773,0
7682054,381.67,722,773,0
7682064,402.81,722,773,0
7682074,428.11,722,773,0
7682084,456.75,722,773,0
7682103,487.12,683,773,0
7682106,517.39,683,773,0
7682115,545.94,683,774,0
7682125,570.86,683,773,0
7682135,590.79,683,774,0
7682145,604.78,683,773,0
7682155,612.47,683,774,0
7682165,613.92,683,773,0
7682176,609.83,683,774,0
7682185,600.79,683,773,0
7682195,588.13,683,773,0
7682205,572.57,683,773,0
7682215,555.26,683,774,0
7682225,537.27,683,773,0
7682235,519.27,683,773,0
7682245,501.53,683,773,0
7682255,484.40,683,774,0
7682265,468.21,683,773,0
7682275,453.32,683,773,0
7682285,439.72,683,773,0
7682295,427.42,683,774,0
7682305,416.71,683,773,0
7682315,407.88,683,773,0
7682325,400.85,683,773,0
7682335,395.79,683,774,0
7682345,392.47,683,773,0
7682355,391.00,683,773,0
7682365,390.91,683,773,0
7682375,391.93,683,774,0
7682385,393.45,683,773,0
7682395,395.33,683,773,0
7682405,397.12,683,773,0
7682415,398.79,683,774,0
7682425,399.76,683,773,0
7682435,400.09,683,773,0
7682445,399.50,683,773,0
7682455,398.32,683,774,0
7682465,396.43,683,773,0
7682476,394.07,683,774,0
7682486,391.01,683,773,0
7682496,387.79,683,774,0
7682506,384.25,683,773,0
7682516,380.96,683,774,0
7682526,377.63,683,773,0
7682536,374.70,683,774,0
7682546,371.66,683,773,0
7682556,369.19,683,774,0
7682566,366.82,683,773,0
7682576,364.95,683,774,0
7682586,363.12,683,773,0
7682596,361.67,683,774,0
7682606,360.14,683,773,0
7682616,359.07,683,774,0
7682626,357.93,683,773,0
7682636,357.31,683,774,0
7682647,356.83,683,773,0
7682657,357.40,683,774,0
7682667,359.16,683,773,0
7682677,363.31,683,774,0
7682688,370.16,683,773,0
7682697,380.83,683,774,0
7682707,395.58,683,773,0
7682717,415.55,683,774,0
7682727,439.77,683,773,0
7682737,467.95,683,775,0
7682756,498.18,653,773,0
7682759,529.46,653,774,0
7682768,559.53,653,773,0
7682778,586.93,653,775,0
7682788,609.24,653,773,0
7682798,626.09,653,774,0
7682808,636.48,653,772,0
7682818,641.22,653,775,0
7682828,639.83,653,773,0
7682838,633.62,653,774,0
7682848,622.98,653,772,0
7682859,609.74,653,775,0
7682868,594.22,653,773,0
7682878,577.78,653,775,0
7682888,560.19,653,773,0
7682898,542.82,653,774,0
7682908,525.43,653,773,0
7682918,508.93,653,774,0
7682928,492.49,653,772,0
7682938,477.13,653,775,0
7682948,462.43,653,773,0
7682958,449.40,653,774,0
7682968,437.41,653,773,0
7682978,427.26,653,774,0
7682988,418.40,653,773,0
7682998,411.89,653,775,0
7683008,406.74,653,772,0
7683018,403.52,653,775,0
7683028,401.13,653,773,0
7683038,400.24,653,775,0
7683048,399.78,653,772,0
7683058,400.23,653,775,0
7683068,400.50,653,773,0
7683078,401.08,653,774,0
7683088,401.01,653,772,0
7683098,400.92,653,774,0
7683108,399.92,653,772,0
7683118,398.91,653,774,0
7683128,396.93,653,772,0
7683138,394.85,653,774,0
7683148,392.07,653,773,0
7683159,389.52,653,775,0
7683169,386.45,653,772,0
7683179,383.70,653,775,0
7683189,380.36,653,773,0
7683200,377.55,653,774,0
7683209,374.26,653,772,0
7683219,371.48,653,775,0
7683229,368.47,653,772,0
7683239,366.27,653,774,0
7683249,364.00,653,772,0
7683259,362.37,653,775,0
7683269,360.59,653,772,0
7683279,359.60,653,774,0
7683289,358.43,653,772,0
7683299,357.79,653,774,0
7683309,356.87,653,772,0
7683319,356.48,653,774,0
7683329,356.03,653,772,0
7683339,356.58,653,775,0
7683349,357.65,653,773,0
7683359,360.58,653,774,0
7683369,365.25,653,772,0
7683379,373.10,653,775,0
7683389,384.30,653,773,0
7683399,400.33,653,775,0
7683409,420.41,653,772,0
7683419,445.02,653,775,0
7683429,472.48,653,773,0
7683439,502.42,653,775,0
7683459,532.34,702,773,0
7683462,561.04,702,774,0
7683471,586.14,702,773,0
7683481,606.88,702,774,0
7683491,621.49,702,773,0
7683501,630.39,702,774,0
7683511,632.76,702,773,0
7683521,629.87,702,774,0
7683531,622.02,702,773,0
7683542,610.45,702,774,0
7683551,595.78,702,773,0
7683561,579.73,702,774,0
7683571,562.37,702,773,0
7683581,544.86,702,774,0
7683591,527.29,702,773,0
7683601,510.49,702,774,0
7683611,494.14,702,773,0
7683621,478.84,702,774,0
7683631,464.23,702,773,0
7683641,451.09,702,774,0
7683651,438.98,702,773,0
7683661,428.44,702,774,0
7683671,418.92,702,773,0
7683681,411.27,702,774,0
7683691,404.94,702,773,0
7683701,400.28,702,774,0
7683712,396.73,702,773,0
7683721,394.88,702,774,0
7683731,393.84,702,773,0
7683741,393.89,702,774,0
7683751,394.10,702,773,0
7683761,394.84,702,774,0
7683771,395.36,702,773,0
7683781,395.89,702,774,0
7683791,395.63,702,773,0
7683801,395.09,702,774,0
7683811,393.70,702,773,0
7683821,392.12,702,774,0
7683831,389.72,702,773,0
7683841,387.32,702,774,0
7683851,384.27,702,773,0
7683861,381.19,702,774,0
7683871,377.62,702,773,0
7683881,374.26,702,774,0
7683891,370.63,702,773,0
7683901,367.31,702,774,0
7683911,363.83,702,773,0
7683921,360.84,702,774,0
7683931,357.89,702,773,0
7683941,355.52,702,774,0
7683951,353.18,702,773,0
7683961,351.37,702,774,0
7683971,349.71,702,773,0
7683981,348.69,702,774,0
7683991,347.71,702,773,0
7684001,347.28,702,774,0
7684012,346.81,702,773,0
7684022,346.83,702,774,0
7684032,346.66,702,773,0
7684042,346.64,702,774,0
7684052,346.15,702,773,0
7684062,345.63,702,773,0
7684072,344.67,702,773,0
7684082,343.87,702,774,0
7684092,343.18,702,773,0
7684102,343.73,702,774,0
7684112,345.87,702,773,0
7684122,350.96,702,774,0
7684132,359.67,702,773,0
7684142,372.84,702,774,0
7684152,390.68,702,773,0
7684162,413.57,702,774,0
7684172,440.62,702,773,0
7684183,471.03,702,774,0
7684202,502.74,744,773,0
7684205,533.93,744,774,0
7684214,563.14,744,774,0
7684225,588.30,744,773,0
7684235,608.05,744,774,0
7684245,621.32,744,773,0
7684255,627.95,744,774,0
7684265,628.18,744,773,0
7684275,623.16,744,774,0
7684285,613.34,744,773,0
7684295,600.46,744,774,0
7684305,585.15,744,773,0
7684315,568.91,744,774,0
7684325,551.92,744,773,0
7684335,535.23,744,774,0
7684345,518.53,744,773,0
7684355,502.52,744,774,0
7684365,486.93,744,773,0
7684375,472.30,744,774,0
7684385,458.28,744,773,0
7684396,445.55,744,774,0
7684406,433.86,744,773,0
7684416,424.04,744,774,0
7684426,415.63,744,773,0
7684436,409.31,744,775,0
7684446,404.63,744,773,0
7684456,401.87,744,774,0
7684466,400.37,744,773,0
7684476,400.51,744,775,0
7684486,401.22,744,773,0
7684496,402.82,744,774,0
7684506,404.16,744,773,0
7684516,405.53,744,775,0
7684526,406.23,744,773,0
7684536,406.67,744,775,0
7684546,405.87,744,773,0
7684556,404.54,744,775,0
7684567,401.93,744,773,0
7684577,398.87,744,775,0
7684587,394.84,744,773,0
7684597,390.69,744,775,0
7684608,385.94,744,773,0
7684617,381.63,744,775,0
7684627,377.11,744,773,0
7684637,373.31,744,775,0
7684647,369.53,744,773,0
7684657,366.50,744,775,0
7684667,363.56,744,773,0
7684677,361.51,744,774,0
7684687,359.47,744,773,0
7684697,358.21,744,775,0
7684707,356.78,744,773,0
7684717,355.99,744,774,0
7684727,355.09,744,773,0
7684737,354.85,744,775,0
7684747,354.55,744,773,0
7684757,355.37,744,774,0
7684767,357.32,744,773,0
7684777,362.24,744,775,0
7684787,370.27,744,773,0
7684797,383.26,744,774,0
7684807,401.48,744,773,0
7684817,426.41,744,775,0
7684827,456.97,744,773,0
7684837,492.94,744,774,0
7684856,531.96,654,774,0
7684859,572.21,654,776,0
7684868,610.85,654,773,0
7684878,646.12,654,775,0
7684888,676.09,654,773,0
7684898,700.02,654,775,0
7684908,716.38,654,773,0
7684918,725.61,654,775,0
7684928,727.79,654,773,0
7684938,724.38,654,775,0
7684948,715.61,654,773,0
7684958,702.61,654,775,0
7684968,685.76,654,773,0
7684978,666.84,654,775,0
7684988,646.02,654,773,0
7684998,624.93,654,775,0
7685008,603.01,654,773,0
7685018,581.49,654,775,0
7685028,559.57,654,773,0
7685038,538.66,654,775,0
7685048,518.10,654,773,0
7685058,499.00,654,775,0
7685068,480.87,654,773,0
7685079,464.97,654,774,0
7685089,450.79,654,773,0
7685099,439.50,654,775,0
7685109,430.05,654,773,0
7685120,423.26,654,774,0
7685129,418.25,654,773,0
7685139,415.48,654,775,0
7685149,413.71,654,773,0
7685159,413.19,654,774,0
7685169,412.62,654,773,0
7685179,412.61,654,775,0
7685189,411.91,654,773,0
7685199,411.08,654,774,0
7685209,409.00,654,773,0
7685219,406.47,654,775,0
7685229,402.77,654,773,0
7685239,398.77,654,775,0
7685249,393.70,654,773,0
7685259,388.52,654,775,0
7685269,382.66,654,773,0
7685279,377.28,654,774,0
7685289,371.75,654,773,0
7685299,366.94,654,775,0
7685309,362.07,654,773,0
7685319,358.19,654,774,0
7685329,354.58,654,773,0
7685339,352.09,654,775,0
7685349,349.83,654,773,0
7685359,348.64,654,774,0
7685369,347.59,654,773,0
7685379,347.54,654,775,0
7685389,347.34,654,773,0
7685399,347.58,654,774,0
7685409,347.45,654,772,0
7685420,347.74,654,775,0
7685430,347.56,654,773,0
7685440,347.82,654,774,0
7685450,348.43,654,773,0
7685460,351.00,654,774,0
7685470,356.02,654,773,0
7685480,365.35,654,774,0
7685490,379.91,654,773,0
7685500,401.79,654,774,0
7685510,430.91,654,773,0
7685520,467.75,654,775,0
7685530,509.40,654,773,0
7685540,553.21,654,775,0
7685559,596.09,703,773,0
7685562,635.83,703,774,0
7685571,669.91,703,773,0
7685581,697.58,703,774,0
7685591,717.68,703,773,0
7685601,731.79,703,774,0
7685611,741.62,703,773,0
7685621,748.55,703,774,0
7685632,753.01,703,774,0
7685641,754.51,703,774,0
7685651,752.00,703,773,0
7685661,745.06,703,774,0
7685671,733.08,703,774,0
7685681,716.13,703,774,0
7685691,693.85,703,773,0
7685701,666.76,703,774,0
7685711,636.02,703,774,0
7685721,603.61,703,774,0
7685731,570.43,703,773,0
7685741,537.94,703,774,0
7685751,506.63,703,773,0
7685761,477.69,703,774,0
7685771,451.42,703,773,0
7685781,428.80,703,774,0
7685791,409.66,703,773,0
7685801,394.63,703,774,0
7685811,383.17,703,773,0
7685821,375.53,703,774,0
7685831,370.92,703,774,0
7685841,369.18,703,774,0
7685851,369.30,703,773,0
7685861,370.88,703,774,0
7685871,372.89,703,774,0
7685881,375.11,703,774,0
7685891,376.62,703,773,0
7685901,377.46,703,774,0
7685911,377.15,703,773,0
7685921,375.78,703,774,0
7685932,373.19,703,774,0
7685942,369.62,703,774,0
7685952,365.06,703,774,0
7685962,359.90,703,774,0
7685972,354.23,703,774,0
7685982,348.33,703,774,0
7685992,342.28,703,774,0
7686002,336.41,703,774,0
7686012,330.84,703,774,0
7686022,325.92,703,774,0
7686032,321.53,703,774,0
7686042,317.64,703,774,0
7686052,314.32,703,774,0
7686062,311.74,703,774,0
7686072,309.55,703,774,0
7686082,307.84,703,774,0
7686092,306.39,703,774,0
7686103,305.20,703,774,0
7686113,304.33,703,774,0
7686123,303.54,703,774,0
7686133,302.87,703,774,0
7686144,302.35,703,773,0
7686153,301.99,703,774,0
7686163,301.69,703,774,0
7686173,301.53,703,774,0
7686183,301.33,703,773,0
7686193,301.44,703,774,0
7686203,301.87,703,773,0
7686213,303.36,703,774,0
7686223,306.51,703,773,0
7686233,312.62,703,774,0
7686243,322.72,703,773,0
7686253,338.02,703,774,0
7686263,359.27,703,773,0
7686273,386.62,703,774,0
7686283,419.56,703,774,0
7686293,456.76,703,774,0
7686303,496.01,703,773,0
7686323,535.09,763,772,0
7686326,571.19,763,773,0
7686335,602.51,763,775,0
7686345,626.91,763,773,0
7686355,643.44,763,775,0
7686365,651.66,763,773,0
7686375,652.19,763,775,0
7686385,645.49,763,773,0
7686395,633.39,763,775,0
7686405,616.51,763,773,0
7686415,597.20,763,775,0
7686425,576.06,763,772,0
7686435,554.70,763,775,0
7686445,533.36,763,773,0
7686455,513.11,763,774,0
7686465,493.45,763,773,0
7686475,475.01,763,775,0
7686486,457.09,763,773,0
7686495,440.48,763,775,0
7686505,424.39,763,772,0
7686515,409.70,763,775,0
7686525,395.95,763,773,0
7686535,384.18,763,775,0
7686545,373.84,763,773,0
7686555,365.87,763,775,0
7686565,359.53,763,773,0
7686575,355.47,763,774,0
7686585,352.80,763,773,0
7686595,352.00,763,775,0
7686605,351.87,763,773,0
7686615,352.94,763,775,0
7686625,353.94,763,773,0
7686635,355.33,763,775,0
7686645,356.00,763,773,0
7686656,356.39,763,775,0
7686665,355.71,763,773,0
7686675,354.51,763,775,0
7686685,352.09,763,773,0
7686695,349.45,763,775,0
7686705,345.97,763,773,0
7686715,342.42,763,775,0
7686725,338.31,763,773,0
7686735,334.53,763,775,0
7686745,330.69,763,773,0
7686755,327.44,763,774,0
7686765,324.05,763,773,0
7686775,321.29,763,775,0
7686785,318.68,763,773,0
7686795,316.93,763,775,0
7686805,315.02,763,773,0
7686815,313.77,763,775,0
7686825,312.30,763,773,0
7686835,311.31,763,775,0
7686845,309.93,763,773,0
7686855,308.79,763,775,0
7686865,307.23,763,773,0
7686875,306.09,763,775,0
7686885,304.73,763,773,0
7686895,304.21,763,775,0
7686905,304.15,763,773,0
7686915,305.86,763,774,0
7686925,309.55,763,773,0
7686935,316.80,763,775,0
7686945,327.61,763,773,0
7686956,343.24,763,774,0
7686966,363.10,763,773,0
7686976,387.54,763,775,0
7686986,415.11,763,773,0
7686996,445.03,763,774,0
7687015,474.51,693,774,0
7687018,502.56,693,775,0
7687027,526.86,693,773,0
7687037,546.79,693,774,0
7687047,560.57,693,773,0
7687057,568.45,693,775,0
7687067,569.82,693,773,0
7687077,566.14,693,774,0
7687087,557.49,693,773,0
7687097,545.47,693,775,0
7687107,530.46,693,773,0
7687117,514.29,693,774,0
7687127,497.06,693,773,0
7687137,480.11,693,775,0
7687147,463.15,693,773,0
7687157,447.33,693,774,0
7687168,431.98,693,773,0
7687177,417.97,693,774,0
7687187,404.82,693,773,0
7687197,393.48,693,774,0
7687207,383.30,693,773,0
7687217,375.24,693,775,0
7687227,368.48,693,772,0
7687237,363.92,693,774,0
7687247,360.73,693,773,0
7687257,359.36,693,775,0
7687267,358.78,693,772,0
7687277,359.53,693,774,0
7687287,360.61,693,773,0
7687297,362.53,693,775,0
7687307,364.21,693,773,0
7687317,366.21,693,774,0
7687327,367.56,693,773,0
7687337,368.85,693,774,0
7687347,369.37,693,773,0
7687357,369.64,693,774,0
7687367,368.85,693,773,0
7687377,367.69,693,774,0
7687387,365.56,693,772,0
7687397,363.46,693,774,0
7687407,360.67,693,773,0
7687417,358.07,693,774,0
7687427,355.17,693,773,0
7687437,352.89,693,774,0
7687447,350.53,693,773,0
7687457,348.78,693,775,0
7687468,346.66,693,773,0
7687478,345.13,693,774,0
7687488,343.25,693,773,0
7687498,341.72,693,774,0
7687508,339.83,693,773,0
7687518,338.47,693,774,0
7687528,336.83,693,773,0
7687538,335.77,693,774,0
7687548,334.51,693,773,0
7687558,333.93,693,774,0
7687568,333.35,693,773,0
7687578,333.67,693,774,0
7687588,334.41,693,773,0
7687598,336.78,693,775,0
7687608,340.49,693,773,0
7687618,346.98,693,774,0
7687628,356.20,693,773,0
7687639,369.38,693,774,0
7687649,386.20,693,773,0
7687659,407.22,693,774,0
7687669,431.24,693,773,0
7687689,458.00,673,772,0
7687692,485.68,673,775,0
7687701,513.21,673,774,0
7687711,538.52,673,774,0
7687721,560.35,673,773,0
7687731,577.56,673,774,0
7687741,589.86,673,774,0
7687751,596.80,673,774,0
7687761,598.71,673,773,0
7687771,595.96,673,773,0
7687781,589.68,673,774,0
7687791,580.64,673,774,0
7687801,569.39,673,773,0
7687811,556.85,673,773,0
7687821,543.82,673,774,0
7687831,530.63,673,774,0
7687841,517.41,673,773,0
7687852,504.43,673,773,0
7687862,491.83,673,774,0
7687872,479.88,673,774,0
7687882,468.39,673,773,0
7687892,457.47,673,774,0
7687902,447.17,673,773,0
7687912,438.04,673,774,0
7687922,429.75,673,773,0
7687932,422.84,673,774,0
7687942,417.23,673,773,0
7687952,413.18,673,774,0
7687962,410.30,673,773,0
7687972,408.66,673,774,0
7687982,407.86,673,773,0
7687992,407.91,673,774,0
7688002,408.19,673,773,0
7688012,408.69,673,774,0
7688023,408.83,673,773,0
7688033,408.84,673,774,0
7688043,408.20,673,773,0
7688053,407.07,673,774,0
7688064,405.29,673,773,0
7688073,403.27,673,774,0
7688083,400.71,673,773,0
7688093,398.14,673,774,0
7688103,394.92,673,773,0
7688113,391.90,673,774,0
7688123,388.63,673,773,0
7688133,385.61,673,774,0
7688143,382.34,673,773,0
7688153,379.46,673,774,0
7688163,376.53,673,773,0
7688173,374.27,673,774,0
7688183,372.05,673,773,0
7688193,370.45,673,774,0
7688203,368.94,673,773,0
7688213,368.06,673,774,0
7688223,367.18,673,773,0
7688233,366.74,673,774,0
7688243,366.26,673,773,0
7688253,366.23,673,774,0
7688263,366.33,673,773,0
7688273,367.35,673,774,0
7688283,369.17,673,773,0
7688293,372.72,673,774,0
7688303,378.20,673,773,0
7688313,386.97,673,775,0
7688323,399.02,673,773,0
7688333,415.52,673,774,0
7688343,436.02,673,773,0
7688353,460.70,673,775,0
7688364,488.43,673,773,0
7688383,518.47,695,772,0
7688386,548.59,695,773,0
7688395,578.24,695,775,0
7688406,604.61,695,773,0
7688415,627.10,695,775,0
7688425,644.13,695,773,0
7688435,655.83,695,775,0
7688445,661.50,695,773,0
7688455,662.16,695,774,0
7688465,657.57,695,773,0
7688475,649.86,695,775,0
7688485,638.97,695,772,0
7688495,626.64,695,775,0
7688505,612.60,695,772,0
7688515,598.24,695,775,0
7688525,583.25,695,773,0
7688535,568.65,695,775,0
7688545,553.58,695,773,0
7688555,538.92,695,775,0
7688565,523.99,695,773,0
7688576,510.11,695,774,0
7688585,496.83,695,773,0
7688595,485.18,695,775,0
7688605,474.46,695,773,0
7688615,465.75,695,775,0
7688625,458.37,695,772,0
7688635,453.11,695,775,0
7688645,448.97,695,773,0
7688655,446.36,695,775,0
7688665,444.37,695,772,0
7688675,443.57,695,775,0
7688685,442.93,695,773,0
7688695,443.04,695,775,0
7688705,442.72,695,772,0
7688715,442.59,695,775,0
7688725,441.73,695,773,0
7688735,440.74,695,775,0
7688745,438.72,695,772,0
7688755,436.45,695,775,0
7688765,433.23,695,773,0
7688775,430.07,695,775,0
7688785,426.19,695,772,0
7688795,422.66,695,775,0
7688805,418.65,695,773,0
7688815,415.11,695,775,0
7688825,411.26,695,772,0
7688835,408.01,695,775,0
7688845,404.54,695,773,0
7688855,401.68,695,775,0
7688865,398.52,695,772,0
7688876,396.05,695,775,0
7688886,393.50,695,773,0
7688896,391.68,695,775,0
7688906,389.68,695,773,0
7688916,388.19,695,774,0
7688926,386.55,695,773,0
7688936,385.57,695,775,0
7688946,384.37,695,772,0
7688956,383.62,695,774,0
7688966,382.57,695,773,0
7688976,382.14,695,774,0
7688986,381.63,695,772,0
7688996,381.87,695,774,0
7689006,382.12,695,772,0
7689016,383.50,695,775,0
7689026,385.79,695,773,0
7689036,390.40,695,775,0
7689047,397.26,695,773,0
7689057,408.16,695,775,0
7689067,423.20,695,773,0
7689077,443.92,695,774,0
7689088,469.66,695,773,0
7689097,500.49,695,775,0
7689107,534.67,695,773,0
7689126,571.16,743,772,0
7689129,607.15,743,774,0
7689138,640.92,743,774,0
7689148,670.52,743,773,0
7689158,695.39,743,774,0
7689168,714.22,743,773,0
7689178,727.14,743,774,0
7689188,733.57,743,773,0
7689198,734.64,743,774,0
7689208,730.72,743,773,0
7689218,722.62,743,774,0
7689228,710.35,743,773,0
7689238,695.20,743,774,0
7689248,677.31,743,773,0
7689259,658.15,743,774,0
7689268,637.75,743,773,0
7689278,617.25,743,774,0
7689288,596.35,743,773,0
7689298,575.97,743,774,0
7689308,556.01,743,773,0
7689318,537.41,743,774,0
7689328,520.01,743,773,0
7689338,504.62,743,774,0
7689348,490.94,743,773,0
7689358,479.68,743,774,0
7689368,470.44,743,773,0
7689378,463.62,743,774,0
7689388,458.55,743,773,0
7689398,455.34,743,774,0
7689408,453.22,743,773,0
7689418,452.34,743,774,0
7689428,451.85,743,773,0
7689438,451.94,743,774,0
7689448,451.57,743,773,0
7689458,451.06,743,774,0
7689468,449.84,743,773,0
7689478,448.26,743,774,0
7689488,445.65,743,773,0
7689498,442.54,743,774,0
7689508,438.39,743,773,0
7689518,433.95,743,774,0
7689528,428.86,743,773,0
7689538,423.63,743,774,0
7689548,417.96,743,773,0
7689559,412.44,743,774,0
7689569,406.78,743,773,0
7689579,401.53,743,774,0
7689589,396.44,743,774,0
7689600,391.68,743,773,0
7689609,387.02,743,773,0
7689619,382.86,743,774,0
7689629,378.87,743,773,0
7689639,375.35,743,773,0
7689649,372.03,743,773,0
7689659,369.15,743,774,0
7689669,366.53,743,774,0
7689679,364.40,743,773,0
7689689,362.44,743,773,0
7689699,360.89,743,774,0
7689709,359.47,743,773,0
7689719,358.34,743,774,0
7689729,357.34,743,773,0
7689739,357.07,743,774,0
7689749,357.77,743,773,0
7689759,360.46,743,774,0
7689769,365.98,743,774,0
7689779,375.54,743,774,0
7689789,390.16,743,773,0
7689799,411.07,743,774,0
7689809,438.44,743,774,0
7689819,472.16,743,774,0
7689829,510.86,743,774,0
7689839,551.83,743,774,0
7689849,592.42,743,774,0
7689868,630.48,742,772,0
7689871,664.02,742,775,0
7689880,691.87,742,774,0
7689890,713.38,742,774,0
7689900,727.67,742,774,0
7689910,735.01,742,774,0
7689920,736.08,742,774,0
7689930,731.26,742,774,0
7689940,720.76,742,773,0
7689950,705.19,742,774,0
7689960,684.73,742,773,0
7689970,660.69,742,774,0
7689980,634.59,742,773,0
7689990,607.54,742,774,0
7690000,580.34,742,773,0
7690010,553.79,742,774,0
7690020,528.10,742,773,0
7690030,504.03,742,774,0
7690040,481.90,742,773,0
7690050,461.96,742,774,0
7690060,444.40,742,773,0
7690071,429.54,742,774,0
7690081,417.33,742,773,0
7690091,408.11,742,774,0
7690101,401.26,742,773,0
7690112,396.94,742,774,0
7690121,394.56,742,773,0
7690131,393.92,742,774,0
7690141,394.24,742,773,0
7690151,395.28,742,774,0
7690161,396.27,742,773,0
7690171,397.00,742,774,0
7690181,396.83,742,773,0
7690191,396.02,742,774,0
7690201,394.05,742,773,0
7690211,391.29,742,774,0
7690221,387.39,742,773,0
7690231,382.90,742,774,0
7690241,377.79,742,773,0
7690251,372.41,742,773,0
7690261,366.76,742,773,0
7690271,361.39,742,774,0
7690281,356.09,742,773,0
7690291,351.52,742,774,0
7690301,347.20,742,773,0
7690311,343.67,742,774,0
7690321,340.60,742,773,0
7690331,338.23,742,774,0
7690341,336.15,742,773,0
7690351,334.69,742,774,0
7690361,333.33,742,773,0
7690371,332.41,742,774,0
7690381,331.48,742,773,0
7690391,330.99,742,774,0
7690401,330.52,742,773,0
7690412,331.09,742,774,0
7690422,332.82,742,773,0
7690432,337.50,742,774,0
7690442,345.92,742,773,0
7690452,359.83,742,774,0
7690462,379.85,742,773,0
7690472,407.33,742,774,0
7690482,441.60,742,773,0
7690492,482.35,742,774,0
7690502,526.17,742,773,0
7690521,570.35,653,772,0
7690524,612.03,653,772,0
7690533,649.44,653,774,0
7690543,680.80,653,773,0
7690553,705.55,653,774,0
7690563,721.76,653,773,0
7690573,730.10,653,774,0
7690583,731.14,653,773,0
7690593,725.66,653,774,0
7690603,713.72,653,773,0
7690613,696.10,653,774,0
7690624,672.76,653,773,0
7690633,646.26,653,774,0
7690643,617.47,653,773,0
7690653,588.14,653,774,0
7690663,558.66,653,773,0
7690673,530.56,653,774,0
7690683,503.56,653,773,0
7690693,478.97,653,774,0
7690703,456.09,653,772,0
7690713,436.01,653,774,0
7690723,418.35,653,773,0
7690733,404.10,653,774,0
7690743,392.54,653,772,0
7690753,384.36,653,774,0
7690763,378.68,653,773,0
7690773,375.99,653,774,0
7690783,375.27,653,772,0
7690793,376.82,653,774,0
7690803,379.14,653,773,0
7690813,382.57,653,774,0
7690823,385.79,653,772,0
7690833,389.02,653,774,0
7690843,391.20,653,773,0
7690853,392.73,653,774,0
7690863,392.55,653,772,0
7690873,391.53,653,774,0
7690883,388.88,653,773,0
7690893,385.36,653,774,0
7690903,380.37,653,772,0
7690913,375.16,653,774,0
7690924,369.28,653,772,0
7690934,363.80,653,774,0
7690944,358.12,653,772,0
7690954,353.02,653,774,0
7690964,348.26,653,772,0
7690974,344.75,653,774,0
7690984,341.36,653,772,0
7690994,338.93,653,774,0
7691004,336.47,653,772,0
7691014,334.74,653,774,0
7691024,332.98,653,772,0
7691034,331.83,653,774,0
7691044,330.38,653,772,0
7691054,329.58,653,774,0
7691064,328.51,653,772,0
7691074,328.53,653,774,0
7691084,329.31,653,772,0
7691095,332.73,653,774,0
7691105,339.03,653,772,0
7691115,350.42,653,774,0
7691125,367.31,653,773,0
7691136,391.47,653,774,0
7691145,421.76,653,772,0
7691155,458.43,653,774,0
7691165,499.14,653,772,0
7691175,542.39,653,774,0
7691194,584.57,673,772,0
7691197,623.53,673,774,0
7691206,656.54,673,773,0
7691216,682.52,673,774,0
7691226,699.55,673,772,0
7691236,707.91,673,774,0
7691246,707.34,673,773,0
7691256,699.52,673,774,0
7691266,685.22,673,772,0
7691276,666.09,673,774,0
7691286,643.13,673,773,0
7691296,618.45,673,774,0
7691307,592.47,673,772,0
7691316,567.04,673,774,0
7691326,541.96,673,772,0
7691336,518.27,673,774,0
7691346,495.43,673,773,0
7691356,474.35,673,774,0
7691366,454.27,673,773,0
7691376,436.10,673,774,0
7691386,419.23,673,773,0
7691396,404.63,673,774,0
7691406,391.80,673,772,0
7691416,381.45,673,774,0
7691426,373.13,673,773,0
7691436,367.52,673,774,0
7691446,363.76,673,773,0
7691456,362.03,673,774,0
7691466,361.34,673,773,0
7691476,362.05,673,774,0
7691486,363.32,673,773,0
7691496,365.20,673,774,0
7691506,366.68,673,772,0
7691516,368.15,673,774,0
7691526,368.87,673,773,0
7691536,369.30,673,774,0
7691546,368.65,673,773,0
7691556,367.38,673,774,0
7691566,365.00,673,772,0
7691576,362.17,673,774,0
7691586,358.39,673,772,0
7691596,354.46,673,774,0
7691607,349.95,673,773,0
7691617,345.55,673,774,0
7691627,341.06,673,773,0
7691637,336.93,673,773,0
7691648,333.01,673,773,0
7691657,329.79,673,774,0
7691667,326.64,673,773,0
7691677,324.18,673,773,0
7691687,321.89,673,773,0
7691697,320.04,673,774,0
7691707,318.40,673,773,0
7691717,316.99,673,773,0
7691727,315.58,673,773,0
7691737,314.64,673,774,0
7691747,313.59,673,773,0
7691757,312.94,673,773,0
7691767,312.57,673,773,0
7691777,313.34,673,774,0
7691787,315.73,673,772,0
7691797,320.95,673,773,0
7691807,329.75,673,773,0
7691817,343.54,673,773,0
7691827,362.49,673,773,0
7691837,387.24,673,773,0
7691847,416.91,673,773,0
7691857,450.67,673,773,0
7691867,486.17,673,773,0
7691886,521.56,692,771,0
7691889,554.18,692,774,0
7691898,582.50,692,773,0
7691908,604.63,692,773,0
7691918,619.57,692,773,0
7691928,626.77,692,773,0
7691938,626.97,692,773,0
7691948,620.68,692,773,0
7691958,609.33,692,773,0
7691968,593.76,692,773,0
7691978,575.36,692,773,0
7691988,555.41,692,773,0
7691998,535.10,692,773,0
7692008,514.80,692,773,0
7692018,494.97,692,773,0
7692028,475.82,692,773,0
7692038,457.71,692,773,0
7692048,440.57,692,773,0
7692058,424.45,692,773,0
7692068,409.27,692,773,0
7692078,395.52,692,773,0
7692088,383.24,692,773,0
7692098,372.62,692,773,0
7692108,363.91,692,773,0
7692119,357.03,692,773,0
7692129,352.14,692,773,0
7692139,349.05,692,773,0
7692149,347.67,692,773,0
7692160,347.77,692,772,0
7692169,348.95,692,773,0
7692179,350.72,692,773,0
7692189,352.95,692,773,0
7692199,354.98,692,772,0
7692209,356.74,692,773,0
7692219,357.68,692,773,0
7692229,357.86,692,773,0
7692239,357.00,692,772,0
7692249,355.33,692,773,0
7692259,352.75,692,773,0
7692269,349.74,692,773,0
7692279,346.13,692,772,0
7692289,342.32,692,773,0
7692299,338.28,692,773,0
7692309,334.55,692,773,0
7692319,330.87,692,772,0
7692329,327.70,692,773,0
7692339,324.83,692,773,0
7692349,322.48,692,773,0
7692359,320.49,692,772,0
7692369,318.89,692,772,0
7692379,317.55,692,773,0
7692389,316.66,692,773,0
7692399,315.65,692,772,0
7692409,314.81,692,772,0
7692419,313.97,692,773,0
7692429,313.59,692,773,0
7692439,313.84,692,772,0
7692449,315.43,692,772,0
7692460,319.07,692,772,0
7692470,326.21,692,773,0
7692480,337.42,692,772,0
7692490,353.96,692,773,0
7692500,375.70,692,772,0
7692510,402.96,692,773,0
7692520,434.43,692,772,0
7692539,469.10,653,771,0
7692542,504.51,653,772,0
7692551,539.20,653,773,0
7692561,570.38,653,772,0
7692571,596.80,653,773,0
7692581,616.57,653,772,0
7692591,629.82,653,773,0
7692601,635.66,653,772,0
7692611,635.29,653,773,0
7692621,628.73,653,772,0
7692631,617.88,653,773,0
7692641,603.35,653,772,0
7692651,586.79,653,773,0
7692661,568.38,653,772,0
7692672,549.71,653,773,0
7692681,530.68,653,772,0
7692691,512.26,653,773,0
7692701,493.84,653,772,0
7692711,476.36,653,773,0
7692721,459.41,653,772,0
7692731,443.86,653,773,0
7692741,429.20,653,772,0
7692751,416.33,653,773,0
7692761,404.87,653,772,0
7692771,395.78,653,773,0
7692781,388.39,653,772,0
7692791,383.47,653,773,0
7692801,380.16,653,772,0
7692811,379.00,653,773,0
7692821,378.91,653,772,0
7692831,380.18,653,773,0
7692841,381.76,653,772,0
7692851,383.89,653,773,0
7692861,385.51,653,772,0
7692871,387.15,653,773,0
7692881,387.71,653,772,0
7692891,387.92,653,773,0
7692901,386.92,653,772,0
7692911,385.57,653,773,0
7692921,383.17,653,772,0
7692931,380.63,653,773,0
7692941,377.23,653,772,0
7692951,373.99,653,773,0
7692961,370.26,653,772,0
7692972,366.88,653,773,0
7692982,363.11,653,772,0
7692992,360.12,653,773,0
7693002,357.04,653,772,0
7693012,354.84,653,773,0
7693022,352.62,653,772,0
7693032,351.15,653,773,0
7693042,349.86,653,772,0
7693052,349.39,653,773,0
7693062,348.63,653,772,0
7693072,348.31,653,773,0
7693082,347.40,653,772,0
7693092,347.15,653,773,0
7693102,346.76,653,772,0
7693112,347.78,653,773,0
7693122,350.37,653,772,0
7693132,356.56,653,773,0
7693143,366.72,653,771,0
7693153,382.96,653,773,0
7693163,405.09,653,772,0
7693173,434.16,653,773,0
7693193,468.70,653,772,0
7693196,508.35,653,774,0
7693205,549.81,653,772,0
7693215,590.84,653,773,0
7693225,628.73,653,772,0
7693235,662.03,653,773,0
7693245,688.16,653,772,0
7693255,706.71,653,773,0
7693265,716.18,653,771,0
7693275,718.27,653,773,0
7693285,713.60,653,772,0
7693295,703.39,653,773,0
7693305,688.19,653,771,0
7693315,670.09,653,773,0
7693325,649.66,653,772,0
7693335,628.59,653,773,0
7693345,606.69,653,771,0
7693356,585.27,653,773,0
7693366,563.93,653,772,0
7693376,543.46,653,773,0
7693386,523.57,653,772,0
7693396,504.71,653,773,0
7693406,486.67,653,772,0
7693416,470.18,653,773,0
7693426,455.09,653,771,0
7693436,442.20,653,773,0
7693446,431.30,653,772,0
7693456,422.89,653,773,0
7693466,416.63,653,772,0
7693476,412.80,653,773,0
7693486,410.54,653,772,0
7693496,409.99,653,773,0
7693506,410.25,653,771,0
7693516,411.33,653,773,0
7693527,412.56,653,772,0
7693537,413.81,653,772,0
7693547,414.38,653,772,0
7693557,414.65,653,773,0
7693568,414.03,653,772,0
7693577,412.73,653,772,0
7693587,410.33,653,772,0
7693597,406.84,653,772,0
7693607,402.69,653,772,0
7693617,398.11,653,772,0
7693627,393.06,653,771,0
7693637,387.86,653,772,0
7693647,382.84,653,772,0
7693657,378.31,653,772,0
7693667,374.23,653,772,0
7693677,370.56,653,772,0
7693687,367.31,653,772,0
7693697,364.60,653,772,0
7693707,362.28,653,772,0
7693717,360.18,653,772,0
7693727,358.37,653,772,0
7693737,356.89,653,772,0
7693747,355.59,653,772,0
7693757,354.60,653,772,0
7693767,353.91,653,772,0
7693777,353.55,653,772,0
7693787,353.47,653,772,0
7693797,353.41,653,772,0
7693807,353.63,653,772,0
7693817,354.21,653,772,0
7693827,355.69,653,772,0
7693837,358.66,653,772,0
7693847,364.12,653,772,0
7693857,373.38,653,772,0
7693868,387.97,653,772,0
7693878,408.85,653,772,0
7693888,436.67,653,772,0
7693898,470.84,653,772,0
7693908,510.31,653,772,0
7693918,552.09,653,772,0
7693937,593.42,745,771,0
7693940,631.91,745,771,0
7693949,665.67,745,772,0
7693959,693.37,745,772,0
7693969,714.17,745,772,0
7693979,726.89,745,772,0
7693989,732.75,745,772,0
7693999,732.35,745,771,0
7694009,726.38,745,773,0
7694019,714.86,745,771,0
7694029,698.66,745,772,0
7694039,678.62,745,771,0
7694049,656.49,745,772,0
7694059,632.99,745,772,0
7694069,609.29,745,772,0
7694080,585.46,745,771,0
7694089,562.78,745,772,0
7694099,540.73,745,772,0
7694109,519.77,745,772,0
7694119,499.57,745,771,0
7694129,480.80,745,772,0
7694139,463.20,745,772,0
7694149,447.63,745,772,0
7694159,433.64,745,771,0
7694169,421.96,745,772,0
7694179,412.20,745,771,0
7694189,405.03,745,772,0
7694199,399.62,745,771,0
7694209,396.43,745,772,0
7694219,394.67,745,772,0
7694229,394.39,745,772,0
7694239,394.66,745,771,0
7694249,395.62,745,772,0
7694259,396.42,745,772,0
7694269,397.36,745,772,0
7694279,397.43,745,771,0
7694289,397.13,745,772,0
7694299,395.80,745,772,0
7694309,394.02,745,772,0
7694319,391.36,745,772,0
7694329,388.34,745,772,0
7694339,384.63,745,772,0
7694349,380.89,745,772,0
7694359,376.68,745,771,0
7694369,372.75,745,773,0
7694380,368.71,745,772,0
7694390,365.11,745,772,0
7694400,361.39,745,771,0
7694410,358.32,745,773,0
7694420,355.39,745,772,0
7694430,353.18,745,772,0
7694440,350.98,745,771,0
7694450,349.49,745,773,0
7694460,347.97,745,772,0
7694470,347.12,745,773,0
7694480,345.88,745,771,0
7694490,345.19,745,773,0
7694500,344.02,745,771,0
7694510,343.33,745,773,0
7694520,342.24,745,772,0
7694530,341.40,745,773,0
7694540,340.25,745,771,0
7694551,339.92,745,773,0
7694561,339.99,745,771,0
7694571,342.30,745,773,0
7694581,346.93,745,771,0
7694592,355.91,745,773,0
7694601,369.52,745,771,0
7694611,389.46,745,773,0
7694621,415.42,745,771,0
7694631,447.53,745,773,0
7694641,483.58,745,771,0
7694660,522.54,723,770,0
7694663,561.20,723,772,0
7694672,598.30,723,773,0
7694682,630.40,723,771,0
7694692,656.29,723,773,0
7694702,673.99,723,771,0
7694712,683.94,723,773,0
7694722,685.54,723,771,0
7694732,680.32,723,773,0
7694742,668.44,723,771,0
7694752,652.11,723,773,0
7694763,631.93,723,771,0
7694772,610.40,723,772,0
7694782,587.65,723,771,0
7694792,565.38,723,773,0
7694802,543.32,723,771,0
7694812,522.66,723,773,0
7694822,502.66,723,772,0
7694832,484.16,723,773,0
7694842,466.20,723,771,0
7694852,449.64,723,773,0
7694862,433.72,723,771,0
7694872,419.53,723,773,0
7694882,406.43,723,771,0
7694892,395.71,723,773,0
7694902,386.67,723,771,0
7694912,380.21,723,773,0
7694922,375.61,723,772,0
7694932,373.45,723,773,0
7694942,372.59,723,771,0
7694952,373.44,723,773,0
7694962,374.55,723,771,0
7694972,376.31,723,773,0
7694982,377.51,723,771,0
7694992,378.68,723,773,0
7695002,378.82,723,772,0
7695012,378.49,723,772,0
7695022,376.93,723,771,0
7695032,374.89,723,773,0
7695042,371.67,723,771,0
7695052,368.25,723,772,0
7695063,364.02,723,771,0
7695073,360.07,723,773,0
7695083,355.81,723,771,0
7695093,352.01,723,772,0
7695104,348.11,723,772,0
7695113,344.99,723,773,0
7695123,341.86,723,772,0
7695133,339.33,723,773,0
7695143,336.66,723,771,0
7695153,334.62,723,773,0
7695163,332.33,723,771,0
7695173,330.61,723,773,0
7695183,328.80,723,772,0
7695193,327.61,723,773,0
7695203,326.32,723,771,0
7695213,325.28,723,773,0
7695223,323.99,723,772,0
7695233,323.27,723,773,0
7695243,322.33,723,771,0
7695253,321.97,723,773,0
7695263,321.77,723,771,0
7695273,322.91,723,773,0
7695283,325.59,723,772,0
7695293,331.12,723,773,0
7695303,339.95,723,772,0
7695313,353.90,723,773,0
7695323,372.74,723,771,0
7695333,397.46,723,773,0
7695343,427.02,723,772,0
7695353,460.92,723,773,0
7695363,496.73,723,772,0
7695382,532.94,722,771,0
7695385,566.38,722,772,0
7695394,595.84,722,773,0
7695404,618.86,722,772,0
7695414,634.93,722,773,0
7695424,643.05,722,772,0
7695434,644.02,722,773,0
7695444,638.02,722,772,0
7695454,626.78,722,773,0
7695464,610.95,722,771,0
7695474,592.41,722,773,0
7695484,571.84,722,772,0
7695494,550.80,722,773,0
7695504,529.69,722,772,0
7695514,509.30,722,773,0
7695524,489.54,722,772,0
7695534,471.20,722,773,0
7695544,453.61,722,771,0
7695554,437.36,722,773,0
7695564,422.12,722,772,0
7695575,408.50,722,772,0
7695585,396.48,722,771,0
7695595,386.69,722,773,0
7695605,378.73,722,772,0
7695616,373.19,722,772,0
7695625,369.62,722,772,0
7695635,368.02,722,773,0
7695645,367.84,722,772,0
7695655,369.00,722,773,0
7695665,370.72,722,771,0
7695675,372.90,722,773,0
7695685,374.95,722,772,0
7695695,376.68,722,772,0
7695705,377.84,722,771,0
7695715,378.32,722,773,0
7695725,377.80,722,772,0
7695735,376.49,722,773,0
7695745,374.20,722,772,0
7695755,371.35,722,773,0
7695765,367.82,722,772,0
7695775,363.97,722,773,0
7695785,359.82,722,772,0
7695795,355.81,722,773,0
7695805,351.84,722,772,0
7695815,348.20,722,772,0
7695825,344.84,722,772,0
7695835,342.06,722,773,0
7695845,339.64,722,772,0
7695855,337.99,722,773,0
7695865,336.71,722,772,0
7695875,335.94,722,773,0
7695885,335.36,722,772,0
7695895,334.95,722,773,0
7695905,334.49,722,772,0
7695916,333.96,722,772,0
7695926,333.46,722,773,0
7695936,333.23,722,772,0
7695946,333.59,722,772,0
7695956,335.34,722,772,0
7695966,339.14,722,773,0
7695976,346.17,722,773,0
7695986,357.30,722,773,0
7695996,372.94,722,772,0
7696006,393.49,722,773,0
7696016,418.80,722,773,0
7696026,448.22,722,773,0
7696036,480.34,722,773,0
7696055,513.19,673,772,0
7696058,544.68,673,773,0
7696067,573.23,673,773,0
7696077,596.91,673,772,0
7696087,614.68,673,773,0
7696097,625.53,673,772,0
7696107,629.61,673,773,0
7696117,627.24,673,772,0
7696128,619.71,673,773,0
7696137,607.59,673,772,0
7696147,592.41,673,773,0
7696157,574.93,673,772,0
7696167,556.57,673,773,0
7696177,537.88,673,772,0
7696187,519.87,673,773,0
7696197,502.17,673,772,0
7696207,485.49,673,773,0
7696217,469.44,673,772,0
7696227,454.57,673,773,0
7696237,440.60,673,772,0
7696247,427.82,673,773,0
7696257,416.13,673,772,0
7696267,406.19,673,773,0
7696277,397.43,673,772,0
7696287,390.66,673,773,0
7696297,385.19,673,772,0
7696307,381.53,673,773,0
7696317,379.15,673,772,0
7696327,378.03,673,773,0
7696337,377.51,673,772,0
7696347,377.95,673,773,0
7696357,378.70,673,772,0
7696367,379.94,673,773,0
7696377,380.73,673,772,0
7696387,381.50,673,773,0
7696397,381.65,673,772,0
7696407,381.63,673,773,0
7696417,380.75,673,772,0
7696428,379.41,673,773,0
