Time,PPG,IBI,GSR,GSR_Event
8248439,273.04,826,768,0
8248449,269.43,826,774,0
8248459,266.60,826,773,0
8248469,265.35,826,777,0
8248479,267.39,826,771,0
8248489,274.64,826,770,0
8248499,289.58,826,771,0
8248509,317.78,826,770,0
8248519,359.24,826,770,0
8248539,409.57,843,771,0
8248542,464.98,843,772,0
8248551,521.86,843,771,0
8248561,576.80,843,771,0
8248571,626.58,843,772,0
8248581,667.67,843,772,0
8248591,696.83,843,771,0
8248601,717.24,843,771,0
8248611,731.52,843,771,0
8248621,741.52,843,772,0
8248631,748.52,843,771,0
8248641,753.38,843,771,0
8248651,756.78,843,772,0
8248662,759.16,843,772,0
8248671,760.87,843,772,0
8248681,762.02,843,771,0
8248691,762.83,843,772,0
8248701,763.40,843,772,0
8248711,763.83,843,771,0
8248721,764.10,843,771,0
8248731,764.28,843,772,0
8248741,762.91,843,772,0
8248751,756.21,843,771,0
8248761,740.93,843,771,0
8248771,715.80,843,772,0
8248781,680.59,843,771,0
8248791,636.27,843,771,0
8248801,583.69,843,772,0
8248811,525.92,843,771,0
8248821,468.30,843,771,0
8248832,415.88,843,772,0
8248841,371.26,843,772,0
8248851,336.13,843,771,0
8248861,310.46,843,771,0
8248871,294.38,843,772,0
8248881,286.59,843,772,0
8248891,285.90,843,771,0
8248901,290.39,843,771,0
8248911,298.59,843,772,0
8248921,308.57,843,772,0
8248931,319.15,843,771,0
8248941,328.58,843,771,0
8248951,336.46,843,772,0
8248961,341.94,843,772,0
8248971,344.83,843,771,0
8248981,344.88,843,772,0
8248991,342.43,843,772,0
8249001,337.54,843,771,0
8249011,331.30,843,771,0
8249021,323.66,843,771,0
8249031,315.58,843,771,0
8249041,307.31,843,771,0
8249051,299.63,843,771,0
8249061,292.58,843,771,0
8249071,286.75,843,772,0
8249081,281.77,843,771,0
8249091,278.07,843,771,0
8249101,275.26,843,771,0
8249111,273.55,843,772,0
8249121,272.49,843,771,0
8249132,272.26,843,773,0
8249142,272.44,843,771,0
8249152,273.46,843,772,0
8249162,274.78,843,771,0
8249172,276.73,843,771,0
8249182,278.70,843,771,0
8249192,281.10,843,772,0
8249202,283.43,843,771,0
8249212,285.91,843,771,0
8249222,287.78,843,771,0
8249232,289.56,843,772,0
8249242,290.72,843,771,0
8249252,291.79,843,771,0
8249262,292.11,843,771,0
8249272,292.55,843,772,0
8249282,293.37,843,771,0
8249292,296.34,843,771,0
8249303,303.14,843,771,0
8249313,317.03,843,772,0
8249323,340.72,843,771,0
8249333,377.57,843,772,0
8249344,423.43,843,771,0
8249353,475.07,843,777,0
8249372,529.18,834,774,0
8249375,582.44,834,773,0
8249384,630.87,834,772,0
8249394,670.93,834,775,0
8249404,699.15,834,771,0
8249414,718.91,834,772,0
8249424,732.74,834,771,0
8249434,742.41,834,772,0
8249444,749.19,834,771,0
8249454,753.93,834,772,0
8249464,757.25,834,771,0
8249474,759.58,834,774,0
8249484,761.20,834,771,0
8249494,762.34,834,773,0
8249504,763.14,834,773,0
8249515,763.70,834,773,0
8249524,764.09,834,771,0
8249534,764.36,834,772,0
8249544,764.55,834,771,0
8249554,761.60,834,772,0
8249564,751.82,834,771,0
8249574,733.10,834,772,0
8249584,703.93,834,771,0
8249594,664.82,834,772,0
8249604,616.40,834,771,0
8249614,560.27,834,773,0
8249624,500.49,834,771,0
8249634,443.04,834,773,0
8249644,391.34,834,771,0
8249654,348.81,834,773,0
8249664,315.78,834,771,0
8249674,292.96,834,773,0
8249684,279.04,834,771,0
8249694,273.85,834,773,0
8249704,274.83,834,771,0
8249714,281.14,834,773,0
8249724,290.23,834,771,0
8249734,301.17,834,772,0
8249744,311.75,834,770,0
8249754,321.68,834,772,0
8249764,329.32,834,771,0
8249774,334.92,834,772,0
8249784,337.18,834,771,0
8249794,336.95,834,772,0
8249804,333.71,834,771,0
8249815,328.78,834,772,0
8249825,321.69,834,771,0
8249835,313.90,834,772,0
8249845,304.97,834,771,0
8249856,296.54,834,772,0
8249865,288.23,834,770,0
8249875,281.39,834,772,0
8249885,275.23,834,771,0
8249895,270.92,834,772,0
8249905,267.43,834,771,0
8249915,265.67,834,772,0
8249925,264.66,834,771,0
8249935,264.84,834,772,0
8249945,265.19,834,772,0
8249955,266.46,834,773,0
8249965,267.57,834,771,0
8249975,269.28,834,772,0
8249985,270.74,834,770,0
8249995,272.53,834,772,0
8250005,273.83,834,771,0
8250015,275.42,834,772,0
8250025,276.37,834,771,0
8250035,277.54,834,778,0
8250045,278.02,834,775,0
8250055,278.27,834,782,0
8250065,277.93,834,779,0
8250075,277.70,834,783,0
8250085,277.23,834,781,0
8250095,277.46,834,783,0
8250105,278.27,834,781,0
8250115,281.49,834,783,0
8250125,288.84,834,780,0
8250135,303.03,834,783,0
8250145,327.24,834,772,0
8250156,364.79,834,772,0
8250166,411.53,834,771,0
8250185,464.17,813,772,0
8250188,519.40,813,774,0
8250198,574.01,813,772,0
8250207,624.32,813,772,0
8250217,666.27,813,772,0
8250227,695.89,813,772,0
8250237,716.62,813,772,0
8250247,731.14,813,772,0
8250257,741.29,813,774,0
8250267,748.41,813,777,0
8250277,753.38,813,773,0
8250287,756.87,813,771,0
8250297,759.31,813,772,0
8250307,761.02,813,771,0
8250317,762.21,813,772,0
8250327,763.05,813,771,0
8250337,763.63,813,772,0
8250347,764.04,813,771,0
8250357,764.33,813,772,0
8250368,764.53,813,771,0
8250377,764.67,813,772,0
8250387,764.77,813,771,0
8250397,764.84,813,772,0
8250407,760.30,813,771,0
8250417,748.60,813,772,0
8250427,727.50,813,771,0
8250437,696.67,813,772,0
8250447,656.10,813,771,0
8250457,607.17,813,772,0
8250467,550.80,813,771,0
8250477,493.48,813,772,0
8250487,439.08,813,771,0
8250497,391.52,813,772,0
8250507,352.20,813,771,0
8250517,322.44,813,771,0
8250527,301.56,813,771,0
8250537,289.52,813,772,0
8250547,284.27,813,771,0
8250557,284.74,813,772,0
8250567,288.93,813,771,0
8250577,295.77,813,772,0
8250587,303.42,813,771,0
8250597,311.01,813,772,0
8250607,317.01,813,771,0
8250617,321.46,813,772,0
8250627,323.72,813,771,0
8250637,324.19,813,772,0
8250647,322.51,813,771,0
8250657,319.27,813,772,0
8250668,314.47,813,771,0
8250678,309.02,813,772,0
8250688,302.93,813,771,0
8250698,296.86,813,772,0
8250708,290.69,813,771,0
8250718,285.21,813,771,0
8250728,280.35,813,771,0
8250738,276.60,813,772,0
8250748,273.76,813,771,0
8250758,272.12,813,772,0
8250768,271.27,813,771,0
8250778,271.32,813,772,0
8250788,271.91,813,771,0
8250798,272.96,813,772,0
8250808,274.09,813,771,0
8250818,275.35,813,772,0
8250828,276.44,813,771,0
8250839,277.47,813,772,0
8250849,278.40,813,772,0
8250859,279.14,813,772,0
8250869,279.78,813,772,0
8250880,280.10,813,773,0
8250889,280.24,813,774,0
8250899,280.34,813,772,0
8250909,280.41,813,772,0
8250919,280.29,813,772,0
8250929,280.07,813,772,0
8250939,279.97,813,772,0
8250949,281.05,813,772,0
8250959,284.46,813,772,0
8250969,291.87,813,778,0
8250979,305.79,813,778,0
8250989,329.94,813,783,0
8250999,367.03,813,776,0
8251009,413.61,813,782,0
8251028,465.97,843,777,0
8251031,520.75,843,779,0
8251040,574.78,843,773,0
8251051,624.60,843,773,0
8251060,665.95,843,772,0
8251070,695.58,843,772,0
8251080,716.32,843,772,0
8251090,730.88,843,772,0
8251100,741.07,843,772,0
8251110,748.25,843,772,0
8251120,753.28,843,772,0
8251130,756.79,843,772,0
8251140,759.26,843,772,0
8251150,760.98,843,772,0
8251160,762.19,843,772,0
8251170,763.03,843,772,0
8251180,763.62,843,772,0
8251190,764.03,843,772,0
8251200,764.32,843,772,0
8251210,764.53,843,772,0
8251220,764.67,843,772,0
8251230,764.77,843,772,0
8251240,759.74,843,772,0
8251250,746.62,843,772,0
8251260,723.46,843,771,0
8251270,690.58,843,772,0
8251280,648.15,843,771,0
8251290,597.32,843,771,0
8251300,539.24,843,771,0
8251310,481.05,843,772,0
8251320,426.95,843,772,0
8251330,380.64,843,772,0
8251340,342.95,843,772,0
8251351,314.98,843,772,0
8251361,296.04,843,771,0
8251371,285.83,843,772,0
8251381,282.28,843,771,0
8251392,284.38,843,772,0
8251401,289.97,843,771,0
8251411,298.03,843,772,0
8251421,306.60,843,771,0
8251431,315.12,843,772,0
8251441,322.02,843,771,0
8251451,327.20,843,772,0
8251461,329.88,843,771,0
8251471,330.52,843,772,0
8251481,328.52,843,771,0
8251491,324.98,843,772,0
8251501,319.59,843,771,0
8251511,313.45,843,773,0
8251521,306.50,843,772,0
8251531,299.67,843,772,0
8251541,292.74,843,771,0
8251551,286.69,843,772,0
8251561,280.87,843,771,0
8251571,276.15,843,772,0
8251581,272.03,843,771,0
8251591,269.32,843,772,0
8251601,267.30,843,771,0
8251611,266.57,843,772,0
8251621,266.22,843,771,0
8251631,267.01,843,772,0
8251641,268.00,843,771,0
8251651,269.71,843,772,0
8251661,271.17,843,771,0
8251671,273.00,843,772,0
8251681,274.33,843,771,0
8251692,275.95,843,772,0
8251702,276.91,843,771,0
8251712,277.96,843,772,0
8251722,278.27,843,771,0
8251732,278.88,843,772,0
8251742,279.00,843,771,0
8251752,279.47,843,772,0
8251762,279.37,843,771,0
8251772,279.52,843,772,0
8251782,279.23,843,771,0
8251792,279.38,843,772,0
8251802,279.22,843,772,0
8251812,280.44,843,774,0
8251822,283.44,843,772,0
8251832,291.41,843,773,0
8251842,306.41,843,772,0
8251852,332.47,843,774,0
8251863,371.42,843,772,0
8251882,419.46,854,771,0
8251885,472.68,854,773,0
8251894,528.36,854,773,0
8251905,582.47,854,772,0
8251915,631.66,854,773,0
8251925,671.62,854,772,0
8251935,699.63,854,773,0
8251945,719.24,854,772,0
8251955,732.97,854,773,0
8251965,742.58,854,772,0
8251975,749.31,854,773,0
8251985,754.01,854,772,0
8251995,757.31,854,773,0
8252005,759.62,854,772,0
8252015,761.23,854,773,0
8252025,762.36,854,772,0
8252035,763.15,854,773,0
8252045,763.71,854,772,0
8252055,764.10,854,773,0
8252065,764.37,854,772,0
8252076,764.56,854,773,0
8252086,764.69,854,772,0
8252096,761.61,854,773,0
8252106,751.40,854,772,0
8252116,732.04,854,773,0
8252126,702.97,854,772,0
8252136,664.36,854,772,0
8252146,616.90,854,772,0
8252156,561.94,854,772,0
8252166,504.10,854,772,0
8252176,449.13,854,772,0
8252186,400.36,854,772,0
8252196,359.92,854,772,0
8252206,328.53,854,771,0
8252216,306.64,854,772,0
8252226,293.21,854,771,0
8252236,287.49,854,772,0
8252247,287.51,854,771,0
8252257,292.12,854,772,0
8252267,299.24,854,771,0
8252277,307.82,854,772,0
8252288,316.23,854,771,0
8252297,323.92,854,772,0
8252307,329.64,854,771,0
8252317,333.27,854,772,0
8252327,334.17,854,771,0
8252337,333.01,854,772,0
8252347,329.75,854,771,0
8252357,324.94,854,772,0
8252367,318.78,854,771,0
8252377,311.99,854,772,0
8252387,304.84,854,771,0
8252397,298.03,854,772,0
8252407,291.51,854,771,0
8252417,285.65,854,772,0
8252427,280.49,854,771,0
8252437,276.35,854,772,0
8252447,273.12,854,771,0
8252457,270.94,854,772,0
8252467,269.54,854,771,0
8252477,269.12,854,772,0
8252487,269.34,854,772,0
8252497,270.36,854,772,0
8252507,271.71,854,771,0
8252517,273.42,854,772,0
8252527,275.35,854,772,0
8252537,277.48,854,772,0
8252547,279.52,854,771,0
8252557,281.59,854,772,0
8252567,283.39,854,771,0
8252577,284.94,854,772,0
8252588,286.29,854,772,0
8252598,287.27,854,772,0
8252608,288.01,854,772,0
8252618,288.22,854,772,0
8252628,288.11,854,771,0
8252638,287.86,854,772,0
8252648,288.20,854,772,0
8252658,290.20,854,772,0
8252668,295.88,854,772,0
8252678,307.28,854,772,0
8252688,327.55,854,772,0
8252698,359.57,854,772,0
8252708,402.51,854,772,0
8252727,452.46,845,771,0
8252730,505.98,845,773,0
8252739,559.60,845,772,0
8252749,610.12,845,772,0
8252759,653.84,845,772,0
8252769,687.19,845,772,0
8252779,710.53,845,772,0
8252789,726.87,845,772,0
8252800,738.31,845,772,0
8252809,746.32,845,772,0
8252819,751.92,845,772,0
8252829,755.85,845,772,0
8252839,758.59,845,772,0
8252849,760.51,845,772,0
8252859,761.86,845,773,0
8252869,762.80,845,772,0
8252879,763.46,845,772,0
8252889,763.92,845,771,0
8252899,764.25,845,773,0
8252909,764.47,845,772,0
8252919,764.59,845,773,0
8252929,760.08,845,770,0
8252939,747.72,845,773,0
8252949,726.07,845,771,0
8252959,694.51,845,772,0
8252969,653.73,845,772,0
8252979,604.69,845,773,0
8252989,548.94,845,771,0
8252999,492.26,845,772,0
8253009,439.85,845,772,0
8253019,394.30,845,773,0
8253029,357.82,845,771,0
8253039,330.58,845,772,0
8253049,312.66,845,772,0
8253059,302.69,845,773,0
8253069,299.74,845,771,0
8253079,301.75,845,772,0
8253089,307.69,845,772,0
8253100,315.46,845,772,0
8253110,324.06,845,773,0
8253120,331.67,845,772,0
8253130,338.16,845,774,0
8253140,342.40,845,772,0
8253150,344.59,845,773,0
8253160,344.03,845,772,0
8253170,341.45,845,774,0
8253180,336.47,845,772,0
8253190,330.29,845,774,0
8253200,322.57,845,772,0
8253210,314.77,845,775,0
8253220,306.40,845,772,0
8253230,298.78,845,775,0
8253240,291.43,845,772,0
8253250,285.43,845,773,0
8253260,280.16,845,772,0
8253271,276.55,845,774,0
8253281,273.64,845,771,0
8253291,272.42,845,774,0
8253301,271.70,845,771,0
8253312,272.30,845,775,0
8253321,273.20,845,771,0
8253331,274.89,845,774,0
8253341,276.47,845,771,0
8253351,278.77,845,775,0
8253361,280.77,845,772,0
8253371,283.20,845,775,0
8253381,285.02,845,772,0
8253391,287.12,845,776,0
8253401,288.62,845,772,0
8253411,290.24,845,775,0
8253421,290.89,845,772,0
8253431,291.44,845,776,0
8253441,291.27,845,772,0
8253451,291.70,845,776,0
8253461,292.73,845,772,0
8253471,297.10,845,776,0
8253481,306.11,845,771,0
8253491,323.35,845,777,0
8253501,351.10,845,772,0
8253511,391.10,845,776,0
8253521,438.86,845,771,0
8253540,491.53,813,771,0
8253543,545.16,813,770,0
8253552,596.84,813,776,0
8253562,642.66,813,770,0
8253572,679.32,813,776,0
8253582,704.98,813,771,0
8253592,722.99,813,777,0
8253602,735.59,813,770,0
8253612,744.41,813,777,0
8253622,750.59,813,771,0
8253632,754.91,813,777,0
8253642,757.94,813,770,0
8253652,760.06,813,776,0
8253662,761.54,813,771,0
8253672,762.58,813,776,0
8253682,763.30,813,770,0
8253692,763.81,813,776,0
8253702,764.17,813,771,0
8253712,764.42,813,777,0
8253722,764.59,813,771,0
8253732,764.72,813,776,0
8253742,764.80,813,771,0
8253752,762.76,813,777,0
8253762,754.18,813,770,0
8253772,737.11,813,775,0
8253783,710.25,813,770,0
8253793,674.09,813,775,0
8253803,629.06,813,770,0
8253813,576.76,813,774,0
8253824,520.39,813,770,0
8253833,466.31,813,775,0
8253843,417.49,813,770,0
8253853,377.02,813,775,0
8253863,345.04,813,770,0
8253873,322.44,813,775,0
8253883,307.65,813,771,0
8253893,300.39,813,775,0
8253903,298.34,813,770,0
8253913,300.90,813,775,0
8253923,305.56,813,771,0
8253933,311.82,813,775,0
8253943,317.66,813,770,0
8253953,323.29,813,775,0
8253963,326.97,813,770,0
8253973,329.25,813,775,0
8253983,329.22,813,771,0
8253993,327.78,813,775,0
8254003,324.50,813,771,0
8254013,320.54,813,774,0
8254023,315.32,813,770,0
8254033,310.17,813,774,0
8254043,304.63,813,771,0
8254053,299.81,813,774,0
8254063,295.11,813,770,0
8254073,291.48,813,775,0
8254083,288.08,813,771,0
8254093,285.87,813,774,0
8254103,284.07,813,770,0
8254113,283.36,813,774,0
8254124,282.95,813,770,0
8254134,283.69,813,774,0
8254144,284.60,813,770,0
8254154,286.26,813,774,0
8254164,287.64,813,770,0
8254174,289.51,813,774,0
8254184,290.94,813,770,0
8254194,292.54,813,774,0
8254204,293.58,813,770,0
8254214,294.61,813,774,0
8254224,294.94,813,770,0
8254234,295.30,813,774,0
8254244,295.04,813,770,0
8254254,295.16,813,774,0
8254264,294.94,813,770,0
8254274,295.64,813,774,0
8254284,297.72,813,770,0
8254295,303.89,813,774,0
8254305,316.09,813,770,0
8254315,337.97,813,774,0
8254325,371.70,813,771,0
8254336,415.55,813,774,0
8254354,465.53,814,773,0
8254357,518.86,814,774,0
8254366,571.83,814,769,0
8254376,621.16,814,774,0
8254386,662.77,814,770,0
8254396,693.44,814,775,0
8254406,714.91,814,769,0
8254416,729.94,814,774,0
8254426,740.46,814,770,0
8254436,747.82,814,774,0
8254446,752.97,814,769,0
8254456,756.58,814,774,0
8254466,759.11,814,770,0
8254476,760.87,814,774,0
8254486,762.11,814,769,0
8254496,762.98,814,775,0
8254507,763.59,814,769,0
8254516,764.01,814,775,0
8254526,764.31,814,769,0
8254536,764.51,814,774,0
8254546,764.66,814,768,0
8254556,764.76,814,774,0
8254566,762.52,814,769,0
8254576,754.18,814,774,0
8254586,737.24,814,768,0
8254596,711.20,814,774,0
8254606,675.82,814,769,0
8254616,631.78,814,774,0
8254626,580.16,814,768,0
8254636,524.82,814,774,0
8254646,470.92,814,769,0
8254656,422.43,814,774,0
8254666,381.20,814,768,0
8254676,348.61,814,774,0
8254686,324.81,814,769,0
8254696,309.36,814,774,0
8254706,300.93,814,769,0
8254716,298.43,814,774,0
8254726,300.18,814,770,0
8254736,304.80,814,774,0
8254746,310.73,814,769,0
8254756,316.94,814,774,0
8254766,322.36,814,770,0
8254776,326.71,814,774,0
8254786,329.11,814,769,0
8254796,329.59,814,774,0
8254807,328.26,814,769,0
8254817,325.39,814,774,0
8254827,321.33,814,769,0
8254837,316.39,814,774,0
8254848,310.96,814,769,0
8254857,305.74,814,774,0
8254867,300.89,814,769,0
8254877,296.42,814,774,0
8254887,292.61,814,770,0
8254897,289.38,814,774,0
8254907,287.04,814,769,0
8254917,285.23,814,774,0
8254927,284.09,814,769,0
8254937,283.55,814,774,0
8254947,283.64,814,769,0
8254957,284.18,814,774,0
8254967,285.20,814,769,0
8254977,286.55,814,774,0
8254987,288.19,814,770,0
8254997,289.80,814,774,0
8255007,291.45,814,769,0
8255017,292.90,814,774,0
8255027,294.21,814,770,0
8255037,295.14,814,774,0
8255047,295.70,814,769,0
8255057,295.74,814,774,0
8255067,295.39,814,770,0
8255077,294.63,814,774,0
8255087,293.84,814,769,0
8255097,293.12,814,774,0
8255107,293.43,814,770,0
8255117,295.95,814,774,0
8255127,302.91,814,769,0
8255137,316.70,814,774,0
8255148,340.10,814,770,0
8255158,375.13,814,774,0
8255177,419.83,823,773,0
8255180,470.50,823,772,0
8255190,523.79,823,774,0
8255199,576.27,823,772,0
8255209,624.49,823,774,0
8255219,664.97,823,773,0
8255229,694.98,823,774,0
8255239,715.99,823,772,0
8255249,730.69,823,774,0
8255259,740.98,823,773,0
8255269,748.19,823,774,0
8255279,753.23,823,772,0
8255289,756.76,823,773,0
8255299,759.23,823,772,0
8255309,760.96,823,774,0
8255319,762.17,823,772,0
8255329,763.06,823,774,0
8255339,763.69,823,773,0
8255349,764.12,823,774,0
8255360,764.43,823,772,0
8255369,764.64,823,774,0
8255379,763.17,823,772,0
8255389,756.73,823,774,0
8255399,742.50,823,772,0
8255409,720.02,823,773,0
8255419,688.68,823,772,0
8255429,649.27,823,774,0
8255439,602.34,823,772,0
8255449,551.03,823,773,0
8255459,499.46,823,772,0
8255469,452.27,823,774,0
8255479,411.09,823,772,0
8255489,378.02,823,773,0
8255499,352.85,823,772,0
8255509,336.10,823,774,0
8255519,326.08,823,772,0
8255529,322.54,823,774,0
8255539,323.32,823,772,0
8255549,327.60,823,774,0
8255559,333.12,823,772,0
8255569,339.34,823,775,0
8255579,344.55,823,772,0
8255589,349.06,823,776,0
8255599,351.57,823,772,0
8255609,352.60,823,773,0
8255619,351.22,823,772,0
8255629,348.37,823,778,0
8255639,343.76,823,772,0
8255649,338.26,823,777,0
8255660,331.37,823,772,0
8255670,324.40,823,777,0
8255680,316.87,823,772,0
8255690,310.13,823,775,0
8255700,303.75,823,771,0
8255710,298.55,823,774,0
8255720,294.02,823,772,0
8255730,291.01,823,776,0
8255740,288.69,823,771,0
8255750,287.80,823,776,0
8255760,287.13,823,772,0
8255770,287.39,823,776,0
8255780,287.57,823,771,0
8255790,288.47,823,776,0
8255800,289.02,823,772,0
8255810,289.91,823,776,0
8255820,290.32,823,771,0
8255831,291.13,823,776,0
8255841,291.43,823,771,0
8255851,292.16,823,776,0
8255861,292.15,823,771,0
8255872,292.49,823,776,0
8255881,292.43,823,771,0
8255891,292.73,823,776,0
8255901,292.34,823,771,0
8255911,292.02,823,776,0
8255921,290.86,823,771,0
8255931,290.00,823,776,0
8255941,288.67,823,771,0
8255951,288.21,823,776,0
8255961,288.62,823,771,0
8255971,292.42,823,776,0
8255981,300.57,823,771,0
8255991,316.17,823,776,0
8256001,340.07,823,771,0
8256011,375.02,823,776,0
8256030,419.37,853,775,0
8256033,469.75,853,774,0
8256043,522.11,853,771,0
8256052,573.72,853,775,0
8256062,620.86,853,771,0
8256072,661.45,853,775,0
8256082,692.51,853,771,0
8256092,714.26,853,776,0
8256102,729.48,853,771,0
8256112,740.14,853,775,0
8256122,747.60,853,771,0
8256132,752.82,853,776,0
8256142,756.47,853,771,0
8256152,759.03,853,775,0
8256162,760.82,853,771,0
8256172,762.07,853,776,0
8256182,760.72,853,771,0
8256192,754.46,853,775,0
8256202,740.87,853,771,0
8256212,719.26,853,775,0
8256222,689.14,853,771,0
8256232,651.17,853,775,0
8256242,605.43,853,771,0
8256252,555.46,853,775,0
8256262,504.49,853,771,0
8256272,456.56,853,775,0
8256282,413.15,853,770,0
8256292,376.46,853,774,0
8256302,346.67,853,771,0
8256312,324.99,853,775,0
8256322,310.42,853,771,0
8256332,303.10,853,775,0
8256343,301.35,853,770,0
8256353,305.06,853,775,0
8256363,312.03,853,770,0
8256373,321.62,853,774,0
8256384,331.89,853,770,0
8256393,342.55,853,775,0
8256403,351.73,853,770,0
8256413,359.57,853,774,0
8256423,364.67,853,770,0
8256433,367.64,853,775,0
8256443,367.66,853,770,0
8256453,365.58,853,774,0
8256463,360.86,853,770,0
8256473,354.95,853,775,0
8256483,347.46,853,771,0
8256493,339.48,853,774,0
8256503,330.81,853,770,0
8256513,322.72,853,775,0
8256523,314.75,853,770,0
8256533,307.97,853,775,0
8256543,301.68,853,770,0
8256553,296.80,853,774,0
8256563,292.88,853,771,0
8256573,290.43,853,774,0
8256583,288.63,853,770,0
8256593,288.23,853,774,0
8256603,288.41,853,771,0
8256613,289.75,853,774,0
8256623,291.32,853,770,0
8256633,293.67,853,774,0
8256643,296.00,853,770,0
8256653,298.83,853,774,0
8256663,301.28,853,770,0
8256673,303.85,853,774,0
8256684,305.87,853,770,0
8256694,307.84,853,774,0
8256704,309.17,853,770,0
8256714,310.36,853,773,0
8256724,310.81,853,771,0
8256734,311.12,853,774,0
8256744,310.96,853,770,0
8256754,311.23,853,774,0
8256764,312.36,853,771,0
8256774,315.72,853,774,0
8256784,322.49,853,770,0
8256794,335.16,853,774,0
8256804,355.73,853,770,0
8256814,386.11,853,774,0
8256824,426.40,853,770,0
8256843,472.95,813,770,0
8256846,522.47,813,771,0
8256855,572.08,813,774,0
8256865,618.52,813,769,0
8256875,658.82,813,775,0
8256885,690.67,813,770,0
8256896,713.01,813,774,0
8256905,728.65,813,770,0
8256915,739.56,813,774,0
8256925,747.19,813,770,0
8256935,752.53,813,775,0
8256945,756.27,813,770,0
8256955,758.89,813,777,0
8256965,760.72,813,770,0
8256975,762.01,813,774,0
8256985,762.90,813,771,0
8256995,760.40,813,775,0
8257005,752.01,813,770,0
8257015,736.19,813,774,0
8257025,712.22,813,770,0
8257035,680.14,813,776,0
8257045,640.11,813,769,0
8257055,592.98,813,774,0
8257065,542.84,813,770,0
8257075,493.48,813,774,0
8257085,447.56,813,769,0
8257095,407.28,813,774,0
8257105,373.72,813,769,0
8257115,347.71,813,774,0
8257125,329.15,813,770,0
8257135,317.88,813,775,0
8257145,313.07,813,769,0
8257155,313.78,813,774,0
8257165,318.65,813,770,0
8257175,326.64,813,774,0
8257185,336.43,813,770,0
8257196,346.89,813,773,0
8257206,356.78,813,771,0
8257216,365.29,813,773,0
8257226,371.80,813,768,0
8257236,375.85,813,773,0
8257246,377.18,813,770,0
8257256,375.80,813,773,0
8257266,372.04,813,770,0
8257276,366.24,813,773,0
8257286,359.06,813,770,0
8257296,350.98,813,773,0
8257306,342.63,813,770,0
8257316,334.21,813,773,0
8257326,326.31,813,770,0
8257336,319.06,813,773,0
8257346,312.87,813,770,0
8257356,307.55,813,773,0
8257367,303.44,813,768,0
8257377,300.27,813,773,0
8257387,298.39,813,770,0
8257397,297.37,813,772,0
8257408,297.43,813,772,0
8257417,297.94,813,773,0
8257427,299.20,813,774,0
8257437,300.60,813,772,0
8257447,302.48,813,774,0
8257457,304.18,813,774,0
8257467,306.01,813,769,0
8257477,307.42,813,772,0
8257487,308.92,813,775,0
8257497,310.02,813,773,0
8257507,311.04,813,769,0
8257517,311.54,813,772,0
8257527,311.94,813,774,0
8257537,312.17,813,773,0
8257547,313.15,813,765,0
8257557,315.59,813,772,0
8257567,321.33,813,774,0
8257577,331.90,813,772,0
8257587,349.67,813,764,0
8257597,376.60,813,772,0
8257607,414.73,813,773,0
8257617,460.07,813,772,0
8257627,509.34,813,766,0
8257646,559.21,803,768,0
8257649,606.93,803,777,0
8257658,649.47,803,772,0
8257668,684.13,803,776,0
8257678,708.43,803,772,0
8257688,725.44,803,776,0
8257698,737.35,803,772,0
8257708,745.69,803,775,0
8257718,751.48,803,772,0
8257728,755.58,803,775,0
8257738,758.45,803,772,0
8257748,760.50,803,776,0
8257758,761.94,803,772,0
8257768,762.94,803,776,0
8257778,763.64,803,772,0
8257788,764.18,803,776,0
8257798,764.51,803,772,0
8257808,764.79,803,776,0
8257818,764.94,803,772,0
8257828,761.96,803,776,0
8257838,752.67,803,773,0
8257848,735.50,803,777,0
8257858,709.20,803,772,0
8257868,674.39,803,776,0
8257879,631.16,803,772,0
8257889,580.92,803,776,0
8257899,527.72,803,772,0
8257909,476.59,803,777,0
8257920,430.13,803,772,0
8257929,391.05,803,776,0
8257939,359.62,803,772,0
8257949,337.02,803,776,0
8257959,322.01,803,771,0
8257969,314.55,803,776,0
8257979,312.54,803,772,0
8257989,315.34,803,776,0
8257999,320.85,803,771,0
8258009,328.61,803,776,0
8258019,336.44,803,772,0
8258029,344.28,803,776,0
8258039,350.20,803,771,0
8258049,354.68,803,776,0
8258059,356.58,803,772,0
8258069,356.75,803,777,0
8258079,354.29,803,772,0
8258089,350.48,803,776,0
8258099,344.89,803,772,0
8258109,339.10,803,777,0
8258119,332.51,803,772,0
8258129,326.40,803,776,0
8258139,320.15,803,772,0
8258149,314.88,803,776,0
8258159,309.99,803,772,0
8258169,306.26,803,776,0
8258179,302.84,803,772,0
8258189,300.53,803,777,0
8258199,298.40,803,772,0
8258209,297.34,803,777,0
8258220,296.29,803,771,0
8258230,295.99,803,776,0
8258240,295.35,803,771,0
8258250,295.33,803,775,0
8258260,295.02,803,771,0
8258270,295.44,803,776,0
8258280,295.44,803,771,0
8258290,295.99,803,775,0
8258300,295.99,803,771,0
8258310,296.60,803,776,0
8258320,296.59,803,771,0
8258330,296.71,803,776,0
8258340,296.03,803,771,0
8258350,295.80,803,777,0
8258360,295.13,803,770,0
8258370,295.61,803,777,0
8258380,297.40,803,770,0
8258391,302.98,803,776,0
8258401,313.40,803,770,0
8258411,331.58,803,775,0
8258421,358.53,803,771,0
8258432,396.95,803,775,0
8258441,443.16,803,771,0
8258460,493.90,814,769,0
8258463,545.49,814,772,0
8258472,595.23,814,775,0
8258482,639.69,814,771,0
8258492,676.55,814,775,0
8258502,703.13,814,771,0
8258512,721.73,814,775,0
8258522,734.76,814,771,0
8258532,743.83,814,774,0
8258542,750.18,814,771,0
8258552,754.63,814,774,0
8258562,757.74,814,771,0
8258572,759.92,814,775,0
8258582,761.44,814,771,0
8258592,762.55,814,775,0
8258603,763.33,814,771,0
8258612,763.87,814,775,0
8258622,762.58,814,771,0
8258632,756.71,814,775,0
8258642,743.81,814,771,0
8258652,723.30,814,775,0
8258662,694.19,814,771,0
8258672,657.02,814,774,0
8258682,612.10,814,771,0
8258692,562.70,814,775,0
8258702,512.22,814,770,0
8258712,464.71,814,775,0
8258722,421.64,814,770,0
8258732,385.58,814,775,0
8258742,356.69,814,771,0
8258752,335.91,814,775,0
8258762,321.88,814,771,0
8258772,314.84,814,774,0
8258782,313.01,814,770,0
8258792,316.05,814,775,0
8258802,321.86,814,771,0
8258812,329.96,814,775,0
8258822,338.37,814,770,0
8258832,346.96,814,775,0
8258842,353.96,814,771,0
8258852,359.63,814,774,0
8258862,362.70,814,770,0
8258872,363.82,814,775,0
8258882,362.29,814,771,0
8258892,359.24,814,774,0
8258903,354.11,814,770,0
8258913,348.12,814,774,0
8258923,341.06,814,771,0
8258933,334.05,814,774,0
8258944,326.58,814,770,0
8258953,319.85,814,774,0
8258963,313.34,814,771,0
8258973,307.84,814,774,0
8258983,302.91,814,771,0
8258993,299.13,814,774,0
8259003,295.87,814,771,0
8259013,293.81,814,774,0
8259023,292.20,814,770,0
8259033,291.37,814,774,0
8259043,290.87,814,771,0
8259053,291.08,814,774,0
8259063,291.19,814,770,0
8259073,291.73,814,774,0
8259083,292.20,814,770,0
8259093,292.95,814,774,0
8259103,293.52,814,770,0
8259113,294.27,814,774,0
8259123,294.62,814,771,0
8259133,295.37,814,774,0
8259143,295.86,814,771,0
8259153,296.59,814,773,0
8259163,296.93,814,771,0
8259173,297.29,814,774,0
8259183,297.12,814,770,0
8259193,297.04,814,774,0
8259203,296.56,814,771,0
8259213,296.52,814,774,0
8259223,297.05,814,771,0
8259233,299.69,814,774,0
8259244,305.61,814,771,0
8259254,317.13,814,774,0
8259264,335.65,814,770,0
8259274,363.35,814,774,0
8259284,400.96,814,771,0
8259303,446.57,843,770,0
8259306,496.37,843,770,0
8259315,547.18,843,773,0
8259325,595.72,843,771,0
8259335,639.39,843,774,0
8259345,675.49,843,771,0
8259355,702.34,843,773,0
8259365,721.14,843,771,0
8259375,734.30,843,774,0
8259385,743.51,843,771,0
8259395,749.96,843,773,0
8259405,754.47,843,771,0
8259415,757.63,843,775,0
8259425,759.84,843,770,0
8259435,758.56,843,773,0
8259445,751.92,843,771,0
8259456,738.66,843,774,0
8259465,718.28,843,770,0
8259475,690.42,843,774,0
8259485,655.37,843,771,0
8259495,613.38,843,774,0
8259505,568.14,843,770,0
8259515,522.33,843,774,0
8259525,478.21,843,771,0
8259535,437.44,843,774,0
8259545,401.31,843,770,0
8259555,370.66,843,773,0
8259565,345.99,843,771,0
8259575,327.31,843,773,0
8259585,314.53,843,771,0
8259595,307.34,843,774,0
8259605,305.10,843,771,0
8259615,306.95,843,774,0
8259625,311.94,843,771,0
8259635,319.11,843,773,0
8259645,327.44,843,771,0
8259655,335.96,843,774,0
8259665,343.90,843,771,0
8259675,350.53,843,774,0
8259685,355.43,843,771,0
8259695,358.17,843,773,0
8259705,358.68,843,770,0
8259715,357.06,843,774,0
8259725,353.66,843,771,0
8259735,348.70,843,773,0
8259745,342.53,843,771,0
8259756,335.56,843,774,0
8259766,328.15,843,767,0
8259776,320.60,843,773,0
8259786,313.48,843,773,0
8259796,306.91,843,772,0
8259806,301.24,843,768,0
8259816,296.41,843,773,0
8259826,292.64,843,773,0
8259836,289.79,843,772,0
8259846,288.10,843,761,0
8259856,287.04,843,773,0
8259866,286.81,843,772,0
8259876,286.70,843,773,0
8259886,287.13,843,772,0
8259896,287.69,843,773,0
8259906,288.73,843,772,0
8259916,289.67,843,772,0
8259927,290.79,843,771,0
8259937,291.50,843,772,0
8259947,292.55,843,775,0
8259957,292.98,843,772,0
8259968,293.38,843,775,0
8259977,293.22,843,772,0
8259987,293.20,843,775,0
8259997,292.71,843,772,0
8260007,292.28,843,775,0
8260017,291.34,843,772,0
8260027,290.81,843,766,0
8260037,289.97,843,772,0
8260047,289.46,843,777,0
8260057,288.68,843,772,0
8260067,288.78,843,776,0
8260077,289.96,843,772,0
8260087,294.04,843,777,0
8260097,301.49,843,772,0
8260107,314.71,843,776,0
8260117,334.73,843,772,0
8260127,363.74,843,775,0
8260147,401.49,843,774,0
8260150,447.24,843,775,0
8260159,496.58,843,772,0
8260169,546.89,843,776,0
8260179,594.75,843,772,0
8260189,637.86,843,776,0
8260199,673.56,843,772,0
8260209,700.95,843,776,0
8260219,720.08,843,771,0
8260229,733.51,843,774,0
8260239,742.87,843,772,0
8260249,749.42,843,776,0
8260259,753.37,843,772,0
8260269,753.56,843,774,0
8260279,748.16,843,771,0
8260289,736.54,843,774,0
8260299,717.87,843,771,0
8260310,692.53,843,774,0
8260319,660.45,843,771,0
8260329,623.07,843,774,0
8260339,582.21,843,771,0
8260349,541.22,843,774,0
8260359,501.08,843,772,0
8260369,464.16,843,774,0
8260379,430.47,843,771,0
8260389,401.53,843,774,0
8260399,376.77,843,771,0
8260409,357.34,843,774,0
8260419,342.37,843,772,0
8260429,332.74,843,774,0
8260439,327.12,843,772,0
8260449,325.84,843,774,0
8260459,327.39,843,771,0
8260469,332.03,843,774,0
8260480,338.15,843,771,0
8260489,345.78,843,774,0
8260499,353.39,843,771,0
8260509,361.20,843,774,0
8260519,367.74,843,771,0
8260529,373.35,843,774,0
8260539,376.76,843,771,0
8260549,378.76,843,774,0
8260559,378.27,843,771,0
8260569,376.22,843,774,0
8260579,371.87,843,771,0
8260589,366.51,843,774,0
8260599,359.67,843,771,0
8260609,352.65,843,774,0
8260619,344.92,843,771,0
8260629,337.74,843,774,0
8260639,330.45,843,771,0
8260649,324.18,843,774,0
8260659,318.30,843,772,0
8260669,313.71,843,774,0
8260679,309.47,843,771,0
8260689,306.50,843,774,0
8260699,303.91,843,772,0
8260709,302.61,843,774,0
8260719,301.61,843,771,0
8260729,301.73,843,774,0
8260739,301.85,843,772,0
8260749,302.97,843,774,0
8260759,303.88,843,771,0
8260769,305.46,843,774,0
8260780,306.61,843,771,0
8260790,308.05,843,774,0
8260800,308.68,843,771,0
8260810,309.50,843,774,0
8260820,309.52,843,771,0
8260830,309.71,843,774,0
8260840,309.20,843,771,0
8260850,309.35,843,774,0
8260860,309.89,843,771,0
8260870,312.71,843,775,0
8260880,318.37,843,771,0
8260890,329.40,843,775,0
8260900,346.72,843,771,0
8260910,372.31,843,776,0
8260920,406.37,843,771,0
8260930,449.07,843,776,0
8260940,496.32,843,771,0
8260960,545.08,814,770,0
8260963,591.99,814,772,0
8260972,634.68,814,775,0
8260982,670.90,814,771,0
8260993,699.17,814,775,0
8261003,718.96,814,771,0
8261013,732.82,814,774,0
8261023,742.52,814,770,0
8261033,749.26,814,775,0
8261043,753.98,814,771,0
8261053,757.29,814,774,0
8261063,759.60,814,770,0
8261073,761.22,814,776,0
8261083,761.63,814,771,0
8261093,758.31,814,775,0
8261103,749.22,814,771,0
8261113,733.29,814,775,0
8261123,709.85,814,771,0
8261133,679.08,814,774,0
8261143,641.00,814,771,0
8261153,596.98,814,776,0
8261164,550.45,814,770,0
8261174,504.50,814,774,0
8261184,461.45,814,770,0
8261194,423.26,814,773,0
8261204,390.82,814,771,0
8261214,365.03,814,775,0
8261224,345.99,814,770,0
8261234,333.65,814,774,0
8261244,327.41,814,771,0
8261254,326.30,814,775,0
8261264,329.13,814,770,0
8261274,334.96,814,774,0
8261284,342.82,814,771,0
8261294,351.61,814,774,0
8261304,360.22,814,770,0
8261314,367.82,814,775,0
8261324,373.83,814,771,0
8261335,377.87,814,774,0
8261345,379.58,814,770,0
8261355,378.81,814,774,0
8261365,375.82,814,770,0
8261376,370.77,814,773,0
8261385,364.29,814,769,0
8261395,356.66,814,775,0
8261405,348.57,814,770,0
8261415,340.09,814,773,0
8261425,331.88,814,770,0
8261435,324.07,814,774,0
8261445,317.32,814,770,0
8261455,311.35,814,773,0
8261465,306.62,814,770,0
8261475,302.75,814,774,0
8261485,300.12,814,770,0
8261495,298.29,814,774,0
8261505,297.34,814,771,0
8261515,296.94,814,775,0
8261525,297.17,814,771,0
8261535,297.55,814,774,0
8261545,298.28,814,771,0
8261555,299.18,814,774,0
8261565,300.50,814,771,0
8261575,302.49,814,775,0
8261585,306.50,814,771,0
8261595,313.55,814,774,0
8261605,325.64,814,770,0
8261615,344.35,814,773,0
8261625,371.85,814,771,0
8261635,408.79,814,775,0
8261645,453.51,814,771,0
8261655,502.09,814,774,0
8261665,551.69,814,772,0
8261676,599.18,814,773,0
8261695,641.94,735,773,0
8261698,677.15,735,773,0
8261707,703.50,735,776,0
8261718,721.95,735,772,0
8261727,734.87,735,775,0
8261737,743.91,735,773,0
8261747,750.23,735,776,0
8261757,754.66,735,772,0
8261767,757.76,735,775,0
8261777,759.94,735,772,0
8261787,761.45,735,776,0
8261797,762.52,735,772,0
8261807,763.26,735,775,0
8261817,762.84,735,773,0
8261827,758.26,735,776,0
8261837,746.78,735,772,0
8261847,727.69,735,775,0
8261857,699.80,735,772,0
8261867,663.52,735,776,0
8261877,618.88,735,772,0
8261888,568.21,735,776,0
8261897,515.31,735,772,0
8261907,464.60,735,776,0
8261917,417.75,735,772,0
8261927,377.75,735,776,0
8261937,344.91,735,773,0
8261947,320.64,735,776,0
8261957,303.95,735,772,0
8261967,295.18,735,776,0
8261977,292.51,735,773,0
8261987,295.66,735,774,0
8261997,302.36,735,771,0
8262007,311.98,735,774,0
8262017,322.49,735,772,0
8262027,333.35,735,774,0
8262037,342.68,735,771,0
8262047,350.70,735,774,0
8262057,355.93,735,772,0
8262067,359.04,735,774,0
8262077,359.20,735,771,0
8262087,357.34,735,775,0
8262097,352.99,735,772,0
8262107,347.51,735,774,0
8262117,340.41,735,772,0
8262127,333.05,735,774,0
8262137,325.02,735,772,0
8262147,317.60,735,774,0
8262157,310.30,735,772,0
8262167,304.21,735,774,0
8262177,298.62,735,772,0
8262188,294.41,735,774,0
8262198,290.86,735,771,0
8262208,288.63,735,775,0
8262218,286.85,735,771,0
8262228,286.21,735,775,0
8262238,286.06,735,771,0
8262248,287.54,735,775,0
8262258,290.64,735,771,0
8262268,297.60,735,775,0
8262278,309.08,735,772,0
8262288,327.96,735,775,0
8262298,355.31,735,772,0
8262308,393.28,735,775,0
8262318,439.14,735,772,0
8262328,489.71,735,775,0
8262347,541.10,652,774,0
8262350,590.91,652,774,0
8262359,635.64,652,771,0
8262369,673.03,652,775,0
8262379,700.67,652,771,0
8262389,720.01,652,775,0
8262400,733.55,652,771,0
8262409,743.03,652,775,0
8262419,749.62,652,771,0
8262429,754.23,652,775,0
8262439,757.46,652,771,0
8262449,759.72,652,775,0
8262459,761.31,652,771,0
8262469,762.46,652,775,0
8262479,763.26,652,771,0
8262489,761.13,652,775,0
8262499,752.77,652,771,0
8262509,736.86,652,775,0
8262519,711.61,652,771,0
8262529,677.66,652,775,0
8262539,634.65,652,771,0
8262549,583.71,652,775,0
8262559,528.13,652,771,0
8262569,473.02,652,774,0
8262579,420.73,652,771,0
8262589,374.78,652,775,0
8262599,335.46,652,771,0
8262609,304.81,652,774,0
8262619,282.32,652,771,0
8262629,268.85,652,775,0
8262639,262.77,652,771,0
8262649,263.87,652,774,0
8262659,269.95,652,771,0
8262669,280.51,652,775,0
8262679,293.08,652,771,0
8262689,307.20,652,774,0
8262700,320.38,652,771,0
8262710,332.48,652,774,0
8262720,341.85,652,771,0
8262730,349.10,652,774,0
8262740,352.97,652,771,0
8262750,354.52,652,774,0
8262760,352.95,652,771,0
8262770,349.66,652,774,0
8262780,344.24,652,771,0
8262790,338.04,652,774,0
8262800,330.61,652,771,0
8262810,323.36,652,774,0
8262820,315.75,652,771,0
8262830,309.05,652,774,0
8262840,302.52,652,771,0
8262850,297.22,652,774,0
8262860,292.40,652,771,0
8262871,288.77,652,774,0
8262881,285.66,652,771,0
8262891,283.92,652,774,0
8262901,283.52,652,771,0
8262912,286.06,652,774,0
8262921,292.39,652,771,0
8262931,304.91,652,774,0
8262941,325.04,652,771,0
8262951,355.41,652,774,0
8262961,395.87,652,771,0
8262971,443.96,652,774,0
8262981,495.87,652,772,0
8262991,548.37,652,774,0
8263010,598.06,663,773,0
8263013,642.31,663,774,0
8263022,678.00,663,772,0
8263032,704.19,663,774,0
8263042,722.52,663,771,0
8263052,735.35,663,773,0
8263062,744.33,663,772,0
8263072,750.62,663,774,0
8263083,754.97,663,771,0
8263092,757.98,663,773,0
8263102,760.09,663,772,0
8263112,761.60,663,774,0
8263122,762.67,663,771,0
8263132,763.41,663,774,0
8263142,763.11,663,772,0
8263152,758.45,663,774,0
8263162,746.49,663,771,0
8263172,726.28,663,774,0
8263182,696.63,663,772,0
8263192,657.87,663,773,0
8263202,610.29,663,771,0
8263212,556.08,663,774,0
8263222,499.53,663,771,0
8263232,445.20,663,774,0
8263242,395.38,663,771,0
8263252,352.92,663,774,0
8263262,318.75,663,771,0
8263272,293.88,663,774,0
8263282,277.59,663,771,0
8263292,269.83,663,774,0
8263302,269.11,663,771,0
8263312,274.43,663,774,0
8263322,283.82,663,771,0
8263332,296.00,663,774,0
8263342,309.03,663,771,0
8263352,322.01,663,774,0
8263362,333.32,663,771,0
8263372,342.61,663,774,0
8263383,348.94,663,770,0
8263393,352.39,663,774,0
8263403,352.66,663,771,0
8263413,350.10,663,773,0
8263424,344.97,663,772,0
8263433,338.25,663,774,0
8263443,330.20,663,771,0
8263453,321.66,663,773,0
8263463,313.02,663,771,0
8263473,304.91,663,774,0
8263483,297.74,663,771,0
8263493,291.69,663,774,0
8263503,286.72,663,771,0
8263513,282.99,663,774,0
8263523,280.38,663,771,0
8263533,278.98,663,774,0
8263543,279.07,663,771,0
8263553,281.36,663,774,0
8263563,287.04,663,771,0
8263573,298.04,663,774,0
8263583,316.46,663,771,0
8263593,344.65,663,774,0
8263603,383.67,663,771,0
8263613,430.95,663,774,0
8263623,482.95,663,771,0
8263633,536.41,663,774,0
8263652,587.84,642,773,0
8263655,634.09,642,773,0
8263664,672.08,642,772,0
8263674,700.00,642,773,0
8263684,719.58,642,772,0
8263694,733.34,642,774,0
8263704,743.01,642,772,0
8263714,749.78,642,774,0
8263724,754.56,642,772,0
8263734,757.90,642,774,0
8263744,760.25,642,772,0
8263754,761.84,642,774,0
8263764,762.96,642,773,0
8263774,763.75,642,774,0
8263784,764.29,642,772,0
8263794,761.16,642,774,0
8263804,751.39,642,773,0
8263814,733.31,642,774,0
8263824,705.70,642,772,0
8263834,668.12,642,774,0
8263844,620.99,642,773,0
8263854,565.28,642,774,0
8263864,505.54,642,772,0
8263874,446.02,642,773,0
8263884,390.30,642,773,0
8263895,340.97,642,773,0
8263905,300.18,642,773,0
8263915,268.58,642,773,0
8263925,246.72,642,774,0
8263936,234.03,642,772,0
8263945,229.99,642,773,0
8263955,232.74,642,772,0
8263965,241.30,642,774,0
8263975,253.43,642,772,0
8263985,268.17,642,773,0
8263995,283.25,642,772,0
8264005,297.79,642,774,0
8264015,310.37,642,772,0
8264025,320.67,642,773,0
8264035,327.80,642,772,0
8264045,332.10,642,774,0
8264055,332.93,642,772,0
8264065,331.19,642,773,0
8264075,326.93,642,773,0
8264085,321.21,642,774,0
8264095,314.08,642,772,0
8264105,306.55,642,774,0
8264115,298.67,642,772,0
8264125,291.49,642,774,0
8264135,284.74,642,772,0
8264145,279.29,642,774,0
8264155,274.66,642,772,0
8264165,271.46,642,774,0
8264175,269.01,642,772,0
8264185,267.89,642,774,0
8264195,267.32,642,772,0
8264205,267.96,642,774,0
8264215,269.60,642,772,0
8264225,273.70,642,774,0
8264236,281.34,642,772,0
8264246,295.25,642,774,0
8264256,317.16,642,772,0
8264266,350.11,642,775,0
8264276,393.88,642,772,0
8264286,444.74,642,774,0
8264296,498.95,642,772,0
8264306,553.48,642,775,0
8264326,604.55,673,773,0
8264329,649.21,673,775,0
8264338,684.08,673,771,0
8264348,708.53,673,775,0
8264358,725.60,673,771,0
8264368,737.59,673,775,0
8264378,745.94,673,771,0
8264388,751.83,673,775,0
8264398,755.91,673,771,0
8264408,758.81,673,775,0
8264418,760.79,673,771,0
8264428,762.23,673,775,0
8264438,763.19,673,771,0
8264449,762.19,673,775,0
8264459,755.36,673,771,0
8264469,740.81,673,775,0
8264479,716.48,673,771,0
8264489,682.39,673,775,0
8264499,638.52,673,771,0
8264509,585.82,673,775,0
8264519,526.39,673,771,0
8264529,465.89,673,774,0
8264539,407.33,673,771,0
8264549,354.73,673,775,0
8264559,309.09,673,771,0
8264569,272.29,673,775,0
8264579,244.22,673,771,0
8264589,225.85,673,775,0
8264599,215.70,673,771,0
8264609,213.64,673,774,0
8264620,217.57,673,771,0
8264630,226.91,673,774,0
8264640,239.11,673,771,0
8264650,253.30,673,774,0
8264660,267.44,673,771,0
8264670,281.15,673,774,0
8264680,292.68,673,771,0
8264690,302.12,673,774,0
8264700,308.30,673,771,0
8264710,312.06,673,774,0
8264720,312.77,673,771,0
8264730,311.38,673,774,0
8264740,307.45,673,771,0
8264750,302.39,673,774,0
8264760,295.93,673,771,0
8264770,289.44,673,774,0
8264780,282.53,673,771,0
8264791,276.46,673,774,0
8264801,270.84,673,771,0
8264811,266.47,673,774,0
8264821,262.82,673,771,0
8264832,260.51,673,774,0
8264841,259.03,673,771,0
8264851,258.72,673,774,0
8264861,258.98,673,771,0
8264871,260.01,673,774,0
8264881,261.55,673,771,0
8264891,263.66,673,774,0
8264901,265.69,673,771,0
8264911,267.75,673,774,0
8264921,269.20,673,771,0
8264931,270.47,673,774,0
8264941,271.27,673,771,0
8264951,272.05,673,774,0
8264961,272.85,673,771,0
8264971,275.29,673,774,0
8264981,280.69,673,771,0
8264991,292.05,673,774,0
8265001,311.41,673,771,0
8265011,341.42,673,774,0
8265021,383.25,673,771,0
8265031,433.15,673,774,0
8265051,487.27,725,773,0
8265054,542.39,725,774,0
8265063,594.73,725,772,0
8265073,641.05,725,774,0
8265083,678.24,725,772,0
8265093,704.31,725,773,0
8265103,722.60,725,772,0
8265113,735.41,725,774,0
8265123,744.37,725,772,0
8265133,750.65,725,773,0
8265143,755.04,725,772,0
8265153,758.11,725,774,0
8265163,760.22,725,772,0
8265174,761.65,725,774,0
8265183,762.70,725,772,0
8265193,763.43,725,774,0
8265203,763.99,725,772,0
8265213,760.14,725,773,0
8265223,749.17,725,772,0
8265233,728.80,725,774,0
8265243,698.13,725,771,0
8265253,656.86,725,773,0
8265263,605.99,725,772,0
8265273,546.34,725,774,0
8265283,483.71,725,771,0
8265293,422.25,725,773,0
8265303,365.99,725,771,0
8265313,317.44,725,773,0
8265323,278.43,725,771,0
8265333,249.29,725,773,0
8265344,230.35,725,772,0
8265353,220.60,725,774,0
8265363,219.18,725,771,0
8265373,224.48,725,774,0
8265383,234.92,725,772,0
8265393,248.62,725,773,0
8265403,263.86,725,771,0
8265413,278.95,725,774,0
8265423,292.93,725,772,0
8265433,304.70,725,774,0
8265443,313.66,725,772,0
8265453,319.29,725,773,0
8265463,321.82,725,772,0
8265473,321.36,725,773,0
8265483,318.46,725,771,0
8265493,313.35,725,774,0
8265503,306.86,725,772,0
8265513,299.36,725,773,0
8265523,291.75,725,771,0
8265533,284.16,725,773,0
8265543,277.17,725,772,0
8265553,270.90,725,773,0
8265563,265.79,725,771,0
8265573,261.78,725,774,0
8265583,259.19,725,771,0
8265593,257.68,725,773,0
8265603,257.34,725,771,0
8265613,257.93,725,774,0
8265623,259.32,725,771,0
8265633,261.20,725,773,0
8265644,263.58,725,772,0
8265654,265.98,725,773,0
8265664,268.56,725,773,0
8265674,270.79,725,773,0
8265684,272.95,725,774,0
8265694,274.64,725,773,0
8265704,276.12,725,773,0
8265714,276.85,725,773,0
8265724,277.37,725,774,0
8265734,277.22,725,773,0
8265744,277.28,725,773,0
8265754,277.75,725,773,0
8265764,280.57,725,774,0
8265774,287.00,725,773,0
8265784,300.07,725,773,0
8265794,322.21,725,773,0
8265804,356.39,725,774,0
8265815,401.06,725,773,0
8265825,452.55,725,774,0
8265844,507.03,794,773,0
8265847,561.54,794,777,0
8265857,612.20,794,772,0
8265867,655.60,794,775,0
8265877,688.46,794,771,0
8265887,711.47,794,775,0
8265897,727.57,794,771,0
8265907,738.84,794,775,0
8265917,746.69,794,772,0
8265927,752.18,794,775,0
8265937,756.03,794,771,0
8265947,758.72,794,776,0
8265957,760.60,794,772,0
8265967,761.92,794,776,0
8265977,762.85,794,771,0
8265987,763.49,794,775,0
8265997,761.33,794,771,0
8266007,753.00,794,776,0
8266017,735.56,794,771,0
8266028,708.26,794,775,0
8266038,670.43,794,771,0
8266048,623.03,794,775,0
8266058,566.70,794,771,0
8266068,506.02,794,775,0
8266078,445.72,794,771,0
8266088,390.99,794,775,0
8266098,343.89,794,771,0
8266108,307.11,794,775,0
8266118,280.33,794,771,0
8266128,264.25,794,775,0
8266138,257.10,794,771,0
8266148,258.40,794,775,0
8266158,265.39,794,771,0
8266168,277.06,794,775,0
8266178,290.63,794,771,0
8266188,305.27,794,775,0
8266199,318.77,794,771,0
8266209,330.76,794,775,0
8266219,339.44,794,771,0
8266229,345.31,794,774,0
8266240,347.36,794,771,0
8266249,346.61,794,775,0
8266259,342.66,794,771,0
8266269,336.67,794,774,0
8266279,328.50,794,771,0
8266289,319.69,794,775,0
8266299,310.10,794,771,0
8266309,301.03,794,774,0
8266319,292.10,794,771,0
8266329,284.66,794,775,0
8266339,278.16,794,771,0
8266349,273.48,794,775,0
8266359,269.91,794,771,0
8266369,268.09,794,775,0
8266379,267.21,794,771,0
8266389,267.83,794,775,0
8266399,268.87,794,771,0
8266409,270.92,794,775,0
8266419,273.13,794,771,0
8266429,275.83,794,775,0
8266439,278.11,794,771,0
8266449,280.52,794,775,0
8266459,282.29,794,771,0
8266469,284.39,794,775,0
8266479,286.63,794,771,0
8266489,291.03,794,775,0
8266499,298.56,794,771,0
8266509,312.54,794,775,0
8266519,335.05,794,771,0
8266529,369.32,794,775,0
8266540,413.28,794,771,0
8266550,463.68,794,775,0
8266560,516.71,794,771,0
8266570,569.64,794,774,0
8266590,618.60,745,773,0
8266593,660.51,745,774,0
8266602,691.90,745,771,0
8266612,713.87,745,774,0
8266622,729.25,745,771,0
8266632,740.02,745,774,0
8266642,747.56,745,771,0
8266652,752.83,745,774,0
8266662,756.48,745,771,0
8266672,759.04,745,774,0
8266682,760.83,745,771,0
8266692,762.08,745,774,0
8266702,762.95,745,771,0
8266712,763.57,745,774,0
8266722,764.00,745,771,0
8266732,763.48,745,774,0
8266742,757.55,745,771,0
8266753,743.16,745,774,0
8266763,718.90,745,772,0
8266773,684.13,745,774,0
8266783,639.48,745,773,0
8266793,585.76,745,773,0
8266803,525.62,745,772,0
8266813,464.92,745,774,0
8266823,408.63,745,773,0
8266833,359.67,745,773,0
8266843,320.34,745,771,0
8266853,291.22,745,774,0
8266863,272.68,745,773,0
8266873,263.18,745,773,0
8266883,261.88,745,771,0
8266893,266.98,745,774,0
8266903,276.97,745,772,0
8266913,289.62,745,773,0
8266924,303.41,745,773,0
8266934,316.27,745,773,0
8266944,327.59,745,774,0
8266954,335.98,745,773,0
8266964,341.39,745,774,0
8266974,343.03,745,773,0
8266984,341.73,745,774,0
8266994,337.36,745,773,0
8267004,331.21,745,774,0
8267014,323.39,745,773,0
8267024,315.30,745,774,0
8267034,306.64,745,772,0
8267044,298.69,745,774,0
8267054,291.20,745,773,0
8267064,285.14,745,774,0
8267074,279.91,745,772,0
8267084,276.34,745,774,0
8267095,273.66,745,773,0
8267105,272.69,745,775,0
8267115,272.49,745,772,0
8267125,273.50,745,775,0
8267136,274.72,745,772,0
8267145,276.65,745,775,0
8267155,278.25,745,772,0
8267165,280.15,745,775,0
8267175,281.43,745,772,0
8267185,283.32,745,775,0
8267195,285.45,745,772,0
8267205,289.90,745,775,0
8267215,297.86,745,772,0
8267225,312.43,745,775,0
8267235,335.83,745,772,0
8267245,371.71,745,775,0
8267255,416.71,745,772,0
8267265,467.80,745,775,0
8267275,521.34,745,773,0
8267294,574.38,705,771,0
8267297,623.25,705,771,0
8267307,664.62,705,777,0
8267316,694.73,705,772,0
8267326,715.81,705,776,0
8267336,730.57,705,772,0
8267346,740.94,705,777,0
8267356,748.20,705,772,0
8267366,753.28,705,776,0
8267376,756.84,705,771,0
8267386,759.33,705,777,0
8267396,761.08,705,772,0
8267406,762.30,705,776,0
8267416,763.11,705,772,0
8267426,763.72,705,777,0
8267436,764.15,705,772,0
8267446,764.44,705,777,0
8267456,764.65,705,772,0
8267466,764.84,705,777,0
8267476,760.30,705,771,0
8267486,748.38,705,776,0
8267496,726.33,705,772,0
8267506,693.74,705,777,0
8267516,650.41,705,771,0
8267526,597.96,705,776,0
8267536,537.15,705,771,0
8267546,474.88,705,777,0
8267556,415.04,705,771,0
8267566,362.62,705,776,0
8267576,319.06,705,771,0
8267586,286.34,705,777,0
8267596,263.35,705,771,0
8267607,250.69,705,776,0
8267617,246.03,705,771,0
8267627,248.68,705,776,0
8267637,255.76,705,771,0
8267648,266.33,705,776,0
8267657,277.80,705,771,0
8267667,289.73,705,776,0
8267677,299.84,705,771,0
8267687,308.38,705,776,0
8267697,313.92,705,771,0
8267707,317.16,705,777,0
8267717,317.37,705,771,0
8267727,315.71,705,776,0
8267737,311.77,705,771,0
8267747,306.83,705,776,0
8267757,300.49,705,771,0
8267767,294.04,705,776,0
8267777,287.22,705,770,0
8267787,281.28,705,777,0
8267797,275.71,705,771,0
8267807,271.43,705,776,0
8267817,267.70,705,770,0
8267827,265.52,705,777,0
8267837,263.99,705,771,0
8267847,263.91,705,776,0
8267857,264.28,705,770,0
8267867,265.74,705,777,0
8267877,267.23,705,771,0
8267887,269.56,705,776,0
8267897,271.54,705,770,0
8267907,273.90,705,777,0
8267917,275.60,705,771,0
8267927,277.44,705,777,0
8267937,278.38,705,770,0
8267948,279.59,705,776,0
8267958,281.26,705,771,0
8267968,286.02,705,776,0
8267978,295.74,705,770,0
8267988,314.25,705,776,0
8267998,343.53,705,771,0
8268008,385.07,705,776,0
8268018,434.59,705,770,0
8268038,488.93,743,770,0
8268041,544.19,743,770,0
8268050,597.02,743,775,0
8268060,643.21,743,770,0
8268070,679.75,743,775,0
8268080,705.33,743,771,0
8268090,723.23,743,775,0
8268100,735.76,743,770,0
8268110,744.53,743,775,0
8268120,750.67,743,771,0
8268130,755.01,743,775,0
8268140,758.05,743,771,0
8268150,760.18,743,775,0
8268161,761.71,743,770,0
8268171,762.78,743,775,0
8268181,763.53,743,769,0
8268191,764.06,743,775,0
8268201,764.38,743,770,0
8268211,764.65,743,775,0
8268221,764.84,743,770,0
8268231,764.93,743,775,0
8268241,760.50,743,770,0
8268251,748.22,743,775,0
8268261,725.82,743,769,0
8268271,692.49,743,775,0
8268281,648.50,743,770,0
8268291,594.95,743,775,0
8268301,533.12,743,769,0
8268311,469.19,743,775,0
8268321,408.36,743,770,0
8268332,354.59,743,775,0
8268342,310.40,743,770,0
8268352,276.72,743,775,0
8268362,253.79,743,772,0
8268372,240.87,743,774,0
8268382,236.62,743,770,0
8268392,239.18,743,775,0
8268402,246.80,743,772,0
8268412,257.36,743,774,0
8268422,269.34,743,770,0
8268432,280.81,743,775,0
8268442,290.94,743,771,0
8268452,298.80,743,774,0
8268462,304.22,743,770,0
8268472,306.77,743,775,0
8268482,306.88,743,771,0
8268492,304.39,743,774,0
8268503,300.07,743,773,0
8268513,294.09,743,774,0
8268523,287.42,743,775,0
8268533,280.05,743,773,0
8268544,273.05,743,776,0
8268553,266.09,743,774,0
8268563,260.28,743,775,0
8268573,255.22,743,773,0
8268583,251.60,743,776,0
8268593,248.72,743,774,0
8268603,247.13,743,775,0
8268613,246.02,743,774,0
8268623,246.06,743,775,0
8268633,246.13,743,773,0
8268643,246.90,743,774,0
8268653,247.66,743,773,0
8268663,249.01,743,775,0
8268673,250.25,743,774,0
8268683,251.84,743,774,0
8268693,253.13,743,774,0
8268703,254.81,743,775,0
8268713,256.02,743,773,0
8268723,257.30,743,774,0
8268733,257.98,743,774,0
8268743,258.67,743,775,0
8268753,258.90,743,773,0
8268763,259.79,743,774,0
8268773,261.74,743,774,0
8268783,267.34,743,776,0
8268793,278.51,743,773,0
8268803,298.33,743,774,0
8268813,329.52,743,774,0
8268823,373.12,743,776,0
8268833,424.64,743,773,0
8268853,480.85,816,773,0
8268856,537.81,816,771,0
8268865,591.95,816,778,0
8268875,639.67,816,771,0
8268886,677.31,816,778,0
8268895,703.66,816,773,0
8268905,722.10,816,778,0
8268915,735.02,816,772,0
8268925,744.01,816,778,0
8268935,750.31,816,773,0
8268945,754.72,816,778,0
8268955,757.80,816,772,0
8268965,760.00,816,778,0
8268975,761.55,816,773,0
8268985,762.67,816,778,0
8268995,763.45,816,772,0
8269005,764.05,816,778,0
8269015,764.46,816,773,0
8269025,764.75,816,778,0
8269035,764.91,816,772,0
8269045,760.74,816,778,0
8269056,748.22,816,771,0
8269065,726.25,816,778,0
8269075,693.60,816,772,0
8269085,650.95,816,778,0
8269095,598.81,816,771,0
8269105,539.17,816,777,0
8269115,477.49,816,772,0
8269125,420.00,816,778,0
8269135,369.08,816,771,0
8269145,327.92,816,778,0
8269155,296.70,816,772,0
8269165,276.30,816,778,0
8269175,264.90,816,771,0
8269185,262.06,816,778,0
8269195,265.17,816,772,0
8269205,273.18,816,778,0
8269215,283.45,816,771,0
8269225,295.19,816,778,0
8269235,306.15,816,772,0
8269245,316.13,816,778,0
8269255,323.55,816,772,0
8269265,328.87,816,778,0
8269275,331.22,816,772,0
8269285,331.41,816,779,0
8269295,328.76,816,772,0
8269305,324.42,816,778,0
8269315,317.99,816,772,0
8269325,311.01,816,778,0
8269335,303.08,816,772,0
8269345,295.47,816,778,0
8269356,287.79,816,771,0
8269366,281.29,816,778,0
8269376,275.42,816,771,0
8269386,271.26,816,777,0
8269396,267.76,816,771,0
8269406,265.77,816,778,0
8269416,264.43,816,771,0
8269426,264.51,816,777,0
8269436,265.09,816,771,0
8269446,266.95,816,778,0
8269456,268.81,816,771,0
8269466,271.44,816,778,0
8269476,273.96,816,771,0
8269486,276.84,816,778,0
8269496,279.08,816,771,0
8269506,281.37,816,778,0
8269516,282.63,816,771,0
8269527,283.81,816,777,0
8269537,284.34,816,770,0
8269547,285.18,816,777,0
8269557,286.80,816,770,0
8269568,291.74,816,776,0
8269577,301.38,816,771,0
8269587,319.26,816,777,0
8269597,347.47,816,770,0
8269607,387.92,816,776,0
8269617,436.28,816,771,0
8269627,489.43,816,777,0
8269646,543.47,793,776,0
8269649,595.44,793,775,0
8269658,641.47,793,771,0
8269668,678.53,793,776,0
8269678,704.47,793,770,0
8269688,722.63,793,775,0
8269698,735.34,793,770,0
8269708,744.24,793,776,0
8269718,750.47,793,771,0
8269728,754.83,793,776,0
8269739,757.88,793,771,0
8269748,760.02,793,776,0
8269758,761.51,793,770,0
8269768,762.56,793,776,0
8269778,763.29,793,770,0
8269788,763.80,793,776,0
8269798,764.16,793,770,0
8269808,759.66,793,776,0
8269818,747.03,793,770,0
8269828,725.34,793,776,0
8269838,693.61,793,770,0
8269848,652.32,793,776,0
8269858,602.04,793,770,0
8269868,544.56,793,776,0
8269878,485.72,793,770,0
8269888,430.65,793,776,0
8269898,381.68,793,770,0
8269908,341.58,793,775,0
8269918,310.85,793,770,0
8269928,290.19,793,776,0
8269938,278.35,793,770,0
8269948,274.82,793,776,0
8269958,277.70,793,770,0
8269968,285.72,793,776,0
8269978,296.56,793,770,0
8269988,309.08,793,776,0
8269998,321.31,793,770,0
8270008,332.49,793,776,0
8270018,341.21,793,770,0
8270028,347.32,793,776,0
8270039,350.18,793,770,0
8270049,350.21,793,775,0
8270059,347.19,793,770,0
8270069,341.86,793,775,0
8270080,334.45,793,769,0
8270089,326.08,793,775,0
8270099,316.97,793,770,0
8270109,307.94,793,775,0
8270119,299.21,793,769,0
8270129,291.44,793,775,0
8270139,284.66,793,770,0
8270149,279.15,793,775,0
8270159,274.69,793,770,0
8270169,271.44,793,775,0
8270179,269.17,793,770,0
8270189,267.96,793,775,0
8270199,267.50,793,770,0
8270209,267.78,793,775,0
8270219,268.40,793,770,0
8270229,269.40,793,775,0
8270239,270.48,793,770,0
8270249,271.53,793,776,0
8270259,272.27,793,770,0
8270269,272.75,793,775,0
8270279,272.82,793,770,0
8270289,272.88,793,776,0
8270299,272.74,793,770,0
8270309,273.16,793,775,0
8270319,275.17,793,770,0
8270329,280.69,793,776,0
8270339,291.63,793,770,0
8270349,310.90,793,775,0
8270359,340.97,793,771,0
8270369,383.11,793,776,0
8270380,433.09,793,769,0
8270390,487.41,793,776,0
8270400,542.44,793,769,0
8270419,595.07,773,768,0
8270423,641.59,773,777,0
8270431,678.66,773,776,0
8270441,704.60,773,771,0
8270451,722.76,773,775,0
8270461,735.48,773,773,0
8270471,744.38,773,775,0
8270481,750.61,773,771,0
8270491,754.92,773,775,0
8270501,757.95,773,773,0
8270511,760.06,773,775,0
8270521,761.54,773,770,0
8270531,762.58,773,775,0
8270541,763.31,773,773,0
8270551,763.86,773,775,0
8270561,764.24,773,770,0
8270571,764.17,773,775,0
8270581,759.28,773,772,0
8270592,746.46,773,775,0
8270601,724.68,773,770,0
8270611,693.15,773,775,0
8270621,652.22,773,772,0
8270631,602.52,773,775,0
8270641,546.10,773,770,0
8270651,488.42,773,775,0
8270661,434.47,773,772,0
8270671,386.71,773,775,0
8270681,347.50,773,770,0
8270691,317.56,773,775,0
8270701,297.47,773,772,0
8270711,286.01,773,775,0
8270721,282.54,773,771,0
8270731,285.16,773,775,0
8270741,292.61,773,772,0
8270751,302.71,773,775,0
8270761,314.20,773,774,0
8270771,325.28,773,775,0
8270781,335.14,773,771,0
8270791,342.64,773,775,0
8270801,347.72,773,774,0
8270811,349.69,773,775,0
8270821,349.10,773,771,0
8270831,345.68,773,775,0
8270841,340.29,773,774,0
8270851,333.09,773,775,0
8270861,325.01,773,771,0
8270871,316.05,773,775,0
8270881,307.20,773,775,0
8270892,298.53,773,774,0
8270902,290.83,773,777,0
8270912,283.76,773,773,0
8270922,278.09,773,779,0
8270932,273.39,773,773,0
8270942,270.32,773,778,0
8270952,268.21,773,773,0
8270962,267.59,773,779,0
8270972,267.67,773,773,0
8270982,268.88,773,778,0
8270992,270.38,773,773,0
8271002,272.71,773,779,0
8271012,274.81,773,773,0
8271022,277.18,773,777,0
8271032,278.75,773,773,0
8271042,280.33,773,778,0
8271052,281.26,773,773,0
8271063,282.51,773,779,0
8271073,283.99,773,773,0
8271083,287.93,773,780,0
8271093,295.58,773,773,0
8271104,310.41,773,780,0
8271113,333.64,773,773,0
8271123,368.46,773,780,0
8271133,413.02,773,773,0
8271143,463.97,773,780,0
8271153,517.38,773,773,0
8271163,570.28,773,780,0
8271182,618.71,763,777,0
8271185,660.28,763,778,0
8271194,691.66,763,772,0
8271204,713.62,763,779,0
8271214,728.99,763,772,0
8271224,739.79,763,779,0
8271234,747.35,763,772,0
8271244,752.65,763,779,0
8271254,756.35,763,772,0
8271264,758.95,763,779,0
8271275,760.76,763,771,0
8271284,762.03,763,779,0
8271294,762.92,763,772,0
8271304,763.55,763,779,0
8271314,760.90,763,771,0
8271324,752.49,763,779,0
8271334,735.37,763,772,0
8271344,708.69,763,779,0
8271354,671.84,763,771,0
8271364,625.86,763,779,0
8271374,571.34,763,772,0
8271384,513.13,763,779,0
8271394,454.80,763,771,0
8271404,401.50,763,779,0
8271414,355.20,763,772,0
8271424,318.49,763,779,0
8271434,291.22,763,772,0
8271444,274.27,763,779,0
8271454,265.87,763,772,0
8271464,266.04,763,779,0
8271474,272.24,763,772,0
8271484,283.74,763,779,0
8271494,297.62,763,772,0
8271504,313.03,763,779,0
8271514,327.55,763,772,0
8271524,341.10,763,779,0
8271534,351.70,763,772,0
8271544,359.59,763,779,0
8271554,363.40,763,772,0
8271564,364.18,763,779,0
8271575,361.38,763,771,0
8271585,356.34,763,779,0
8271595,348.69,763,771,0
8271605,339.74,763,778,0
8271616,329.41,763,771,0
8271625,319.30,763,779,0
8271635,309.05,763,771,0
8271645,299.86,763,778,0
8271655,291.29,763,771,0
8271665,284.60,763,779,0
8271675,279.07,763,771,0
8271685,275.49,763,778,0
8271695,272.90,763,771,0
8271705,272.29,763,779,0
8271715,272.50,763,771,0
8271725,273.89,763,778,0
8271735,275.30,763,771,0
8271745,277.39,763,779,0
8271755,279.12,763,771,0
8271765,281.27,763,778,0
8271775,283.16,763,771,0
8271785,286.33,763,778,0
8271795,291.46,763,771,0
8271805,301.39,763,778,0
8271815,317.82,763,771,0
8271825,344.23,763,778,0
8271835,381.53,763,771,0
8271845,427.74,763,778,0
8271855,479.03,763,771,0
8271865,532.47,763,778,0
8271875,584.18,763,771,0
8271885,631.23,763,778,0
8271904,669.90,722,777,0
8271907,698.48,722,776,0
8271916,718.48,722,771,0
8271926,732.48,722,778,0
8271936,742.28,722,770,0
8271946,749.14,722,777,0
8271956,753.94,722,771,0
8271966,757.30,722,778,0
8271976,759.61,722,771,0
8271986,761.27,722,777,0
8271996,762.43,722,771,0
8272006,763.25,722,778,0
8272016,763.81,722,771,0
8272026,761.17,722,777,0
8272036,751.56,722,770,0
8272046,733.44,722,778,0
8272056,705.19,722,770,0
8272066,667.03,722,777,0
8272076,619.20,722,770,0
8272087,563.12,722,777,0
8272097,502.96,722,770,0
8272107,444.56,722,776,0
8272117,390.90,722,770,0
8272128,345.25,722,776,0
8272137,308.62,722,770,0
8272147,282.33,722,776,0
8272157,265.77,722,770,0
8272167,258.64,722,776,0
8272177,258.92,722,770,0
8272187,265.50,722,776,0
8272197,276.41,722,770,0
8272207,290.13,722,776,0
8272217,304.62,722,770,0
8272227,318.66,722,776,0
8272237,330.81,722,770,0
8272247,340.59,722,776,0
8272257,347.10,722,770,0
8272267,350.50,722,776,0
8272277,350.56,722,770,0
8272287,347.91,722,776,0
8272297,342.62,722,770,0
8272307,335.66,722,777,0
8272317,327.36,722,770,0
8272327,318.51,722,776,0
8272337,309.32,722,770,0
8272347,300.78,722,777,0
8272357,292.79,722,770,0
8272367,285.95,722,776,0
8272377,280.14,722,770,0
8272387,275.85,722,777,0
8272397,272.81,722,770,0
8272407,271.15,722,776,0
8272417,270.38,722,770,0
8272428,270.52,722,776,0
8272438,271.27,722,770,0
8272448,272.51,722,775,0
8272458,274.12,722,769,0
8272468,276.87,722,776,0
8272478,281.84,722,770,0
8272488,291.14,722,775,0
8272498,307.21,722,769,0
8272508,333.04,722,776,0
8272518,370.35,722,771,0
8272528,416.88,722,776,0
8272538,469.03,722,769,0
8272548,523.49,722,776,0
8272567,576.79,663,775,0
8272570,625.49,663,776,0
8272579,665.89,663,768,0
8272589,695.66,663,776,0
8272599,716.51,663,769,0
8272609,731.10,663,776,0
8272619,741.31,663,769,0
8272629,748.46,663,776,0
8272640,753.42,663,770,0
8272649,756.94,663,776,0
8272659,759.40,663,768,0
8272669,761.17,663,776,0
8272679,762.44,663,770,0
8272689,763.34,663,776,0
8272699,763.97,663,768,0
8272709,764.45,663,776,0
8272719,764.79,663,770,0
8272729,763.09,663,776,0
8272739,755.22,663,768,0
8272749,738.44,663,776,0
8272759,711.48,663,770,0
8272769,674.26,663,776,0
8272779,627.13,663,768,0
8272789,570.99,663,776,0
8272799,509.32,663,770,0
8272809,447.77,663,776,0
8272819,390.97,663,768,0
8272829,341.78,663,776,0
8272839,301.99,663,769,0
8272849,272.46,663,775,0
8272859,253.34,663,768,0
8272869,243.72,663,776,0
8272879,242.61,663,769,0
8272889,248.04,663,775,0
8272899,258.40,663,768,0
8272909,271.44,663,776,0
8272919,285.75,663,769,0
8272929,299.58,663,775,0
8272940,311.88,663,770,0
8272950,321.47,663,776,0
8272960,328.23,663,774,0
8272970,331.63,663,775,0
8272980,332.17,663,777,0
8272990,329.63,663,776,0
8273000,324.86,663,773,0
8273010,318.13,663,775,0
8273020,310.59,663,776,0
8273030,302.44,663,776,0
8273040,294.68,663,773,0
8273050,287.23,663,775,0
8273060,281.04,663,776,0
8273070,275.84,663,775,0
8273080,272.20,663,773,0
8273090,269.48,663,775,0
8273100,268.05,663,776,0
8273111,267.22,663,774,0
8273121,267.54,663,778,0
8273131,268.02,663,774,0
8273141,269.26,663,779,0
8273152,270.34,663,773,0
8273161,271.99,663,778,0
8273171,273.80,663,774,0
8273181,277.24,663,779,0
8273191,283.17,663,773,0
8273201,294.35,663,778,0
8273211,312.63,663,774,0
8273221,341.93,663,779,0
8273231,382.96,663,773,0
8273241,432.17,663,778,0
8273251,485.74,663,774,0
8273270,540.63,703,773,0
8273273,593.20,703,771,0
8273282,640.28,703,780,0
8273292,677.83,703,773,0
8273302,704.15,703,780,0
8273312,722.53,703,772,0
8273323,735.44,703,780,0
8273332,744.44,703,774,0
8273342,750.78,703,780,0
8273352,755.17,703,772,0
8273362,758.29,703,780,0
8273372,760.43,703,773,0
8273382,761.98,703,780,0
8273392,763.01,703,773,0
8273402,763.78,703,780,0
8273412,764.27,703,774,0
8273422,764.66,703,780,0
8273432,764.89,703,773,0
8273442,762.78,703,780,0
8273452,754.28,703,774,0
8273462,736.84,703,780,0
8273472,708.51,703,772,0
8273482,669.49,703,780,0
8273492,619.71,703,772,0
8273502,561.09,703,780,0
8273512,496.65,703,773,0
8273522,432.85,703,780,0
8273532,373.58,703,772,0
8273542,323.09,703,780,0
8273552,282.18,703,773,0
8273562,252.64,703,780,0
8273572,233.25,703,773,0
8273582,224.39,703,780,0
8273592,223.50,703,773,0
8273602,229.82,703,780,0
8273612,240.42,703,772,0
8273623,254.61,703,780,0
8273633,269.64,703,772,0
8273643,284.83,703,780,0
8273653,298.04,703,771,0
8273664,309.34,703,780,0
8273673,317.38,703,772,0
8273683,322.71,703,780,0
8273693,324.34,703,771,0
8273703,323.55,703,779,0
8273713,319.96,703,772,0
8273723,314.91,703,780,0
8273733,308.17,703,771,0
8273743,301.22,703,779,0
8273753,293.74,703,772,0
8273763,287.17,703,780,0
8273773,280.82,703,772,0
8273783,275.78,703,779,0
8273793,271.34,703,772,0
8273803,268.54,703,780,0
8273813,266.45,703,772,0
8273823,265.93,703,779,0
8273833,265.82,703,771,0
8273843,266.95,703,780,0
8273853,268.25,703,772,0
8273863,270.40,703,779,0
8273873,272.25,703,771,0
8273883,274.58,703,780,0
8273893,276.33,703,772,0
8273903,278.33,703,780,0
8273913,279.65,703,771,0
8273923,281.12,703,780,0
8273933,281.86,703,772,0
8273943,282.84,703,780,0
8273953,283.41,703,771,0
8273964,285.47,703,779,0
8273974,289.87,703,771,0
8273984,300.02,703,779,0
8273994,317.93,703,771,0
8274004,347.65,703,778,0
8274014,388.86,703,771,0
8274024,438.19,703,779,0
8274034,491.79,703,771,0
8274054,546.75,783,769,0
8274057,598.94,783,771,0
8274066,645.07,783,777,0
8274076,681.05,783,770,0
8274086,706.24,783,776,0
8274096,723.86,783,771,0
8274106,736.21,783,777,0
8274116,744.84,783,770,0
8274126,750.89,783,776,0
8274136,755.12,783,770,0
8274146,758.09,783,777,0
8274156,760.16,783,770,0
8274166,761.66,783,776,0
8274177,762.74,783,770,0
8274187,763.51,783,776,0
8274197,764.04,783,771,0
8274207,764.41,783,776,0
8274217,764.72,783,770,0
8274227,760.22,783,776,0
8274237,747.38,783,770,0
8274247,724.12,783,776,0
8274257,689.93,783,768,0
8274267,645.46,783,776,0
8274277,591.45,783,770,0
8274287,529.17,783,776,0
8274297,464.84,783,769,0
8274307,403.77,783,776,0
8274317,349.80,783,770,0
8274327,305.16,783,775,0
8274337,270.61,783,770,0
8274348,246.68,783,776,0
8274358,232.81,783,763,0
8274368,227.98,783,775,0
8274378,230.69,783,769,0
8274388,239.01,783,775,0
8274398,251.18,783,765,0
8274408,265.22,783,776,0
8274418,279.56,783,762,0
8274428,292.76,783,775,0
8274438,304.02,783,764,0
8274448,312.46,783,776,0
8274458,317.93,783,766,0
8274468,320.01,783,775,0
8274478,319.32,783,765,0
8274488,316.14,783,776,0
8274498,311.17,783,768,0
8274508,304.69,783,775,0
8274519,297.45,783,774,0
8274529,289.82,783,775,0
8274539,282.67,783,777,0
8274549,275.96,783,775,0
8274560,270.23,783,779,0
8274569,265.32,783,775,0
8274579,261.66,783,776,0
8274589,258.94,783,775,0
8274599,257.46,783,779,0
8274609,256.76,783,775,0
8274619,257.18,783,775,0
8274629,257.94,783,775,0
8274639,259.54,783,779,0
8274649,261.27,783,775,0
8274659,263.54,783,774,0
8274669,265.69,783,775,0
8274679,268.14,783,778,0
8274689,270.16,783,775,0
8274699,272.12,783,775,0
8274709,273.42,783,778,0
8274719,274.62,783,779,0
8274729,275.08,783,774,0
8274739,275.31,783,774,0
8274749,274.87,783,776,0
8274759,274.36,783,775,0
8274769,273.39,783,775,0
8274779,272.55,783,775,0
8274789,271.70,783,775,0
8274799,272.43,783,779,0
8274809,275.60,783,775,0
8274819,283.52,783,775,0
8274829,298.28,783,775,0
8274839,323.35,783,778,0
8274849,360.66,783,774,0
8274869,407.95,816,774,0
8274872,460.94,816,773,0
8274881,516.50,816,781,0
8274891,570.99,816,773,0
8274902,621.09,816,780,0
8274911,662.85,816,773,0
8274921,693.58,816,781,0
8274931,715.05,816,773,0
8274941,730.08,816,780,0
8274951,740.60,816,773,0
8274961,748.00,816,781,0
8274971,753.19,816,773,0
8274981,756.82,816,781,0
8274991,759.32,816,773,0
8275001,761.11,816,781,0
8275011,762.36,816,773,0
8275021,763.24,816,780,0
8275031,763.81,816,773,0
8275041,764.25,816,780,0
8275051,763.32,816,773,0
8275061,757.52,816,780,0
8275072,743.57,816,772,0
8275081,720.94,816,780,0
8275091,688.47,816,773,0
8275101,646.97,816,780,0
8275111,596.67,816,772,0
8275121,540.88,816,781,0
8275131,484.00,816,773,0
8275141,431.33,816,780,0
8275151,384.52,816,773,0
8275161,346.60,816,781,0
8275171,317.49,816,773,0
8275181,298.36,816,780,0
8275191,287.32,816,773,0
8275201,284.36,816,780,0
8275211,286.91,816,773,0
8275221,294.35,816,780,0
8275231,304.10,816,773,0
8275241,315.69,816,780,0
8275251,326.75,816,773,0
8275261,337.28,816,780,0
8275271,345.38,816,773,0
8275281,351.70,816,780,0
8275291,354.87,816,773,0
8275301,355.85,816,780,0
8275311,353.67,816,773,0
8275321,349.65,816,780,0
8275331,343.29,816,773,0
8275341,336.04,816,780,0
8275351,327.54,816,773,0
8275361,319.28,816,781,0
8275372,310.75,816,772,0
8275382,303.28,816,780,0
8275392,296.21,816,771,0
8275402,290.49,816,780,0
8275412,285.50,816,771,0
8275422,282.01,816,780,0
8275432,279.13,816,772,0
8275442,277.55,816,780,0
8275452,276.40,816,771,0
8275462,276.41,816,780,0
8275472,276.50,816,772,0
8275482,277.46,816,780,0
8275492,278.27,816,771,0
8275502,279.73,816,780,0
8275512,280.97,816,771,0
8275522,282.61,816,781,0
8275532,283.71,816,771,0
8275543,285.17,816,780,0
8275553,285.93,816,771,0
8275563,286.90,816,779,0
8275573,287.06,816,771,0
8275584,287.12,816,778,0
8275593,286.36,816,770,0
8275603,285.52,816,779,0
8275613,283.99,816,771,0
8275623,282.62,816,778,0
8275633,281.32,816,771,0
8275643,281.83,816,779,0
8275653,285.09,816,771,0
8275663,294.02,816,778,0
8275673,310.00,816,770,0
8275683,336.06,816,779,0
8275693,373.37,816,771,0
8275703,420.14,816,779,0
8275722,472.22,853,778,0
8275725,526.36,853,777,0
8275734,578.67,853,770,0
8275744,626.43,853,778,0
8275755,666.16,853,769,0
8275764,695.81,853,778,0
8275774,716.57,853,771,0
8275784,731.10,853,778,0
8275794,741.27,853,770,0
8275804,748.39,853,778,0
8275814,753.37,853,771,0
8275824,756.86,853,777,0
8275834,759.30,853,770,0
8275844,761.01,853,778,0
8275854,762.21,853,771,0
8275864,763.05,853,778,0
8275874,761.27,853,770,0
8275884,754.38,853,778,0
8275894,739.78,853,771,0
8275904,716.45,853,778,0
8275914,683.78,853,770,0
8275924,642.15,853,777,0
8275934,592.39,853,770,0
8275944,538.32,853,777,0
8275954,483.71,853,770,0
8275964,432.88,853,777,0
8275974,388.13,853,770,0
8275984,351.71,853,778,0
8275994,324.24,853,770,0
8276004,305.78,853,777,0
8276014,295.35,853,770,0
8276024,292.46,853,778,0
8276034,295.53,853,770,0
8276044,303.39,853,777,0
8276055,314.07,853,770,0
8276065,326.31,853,777,0
8276075,338.60,853,770,0
8276085,350.12,853,776,0
8276096,359.56,853,770,0
8276105,366.33,853,777,0
8276115,369.96,853,770,0
8276125,370.57,853,776,0
8276135,368.34,853,770,0
8276145,363.87,853,777,0
8276155,357.31,853,770,0
8276165,349.42,853,776,0
8276175,340.59,853,770,0
8276185,331.59,853,777,0
8276195,322.62,853,770,0
8276205,314.08,853,776,0
8276215,306.04,853,770,0
8276225,298.96,853,777,0
8276235,292.93,853,770,0
8276245,288.23,853,776,0
8276255,284.69,853,770,0
8276265,282.39,853,776,0
8276275,281.07,853,770,0
8276285,280.79,853,776,0
8276295,281.28,853,770,0
8276305,282.31,853,776,0
8276315,283.59,853,770,0
8276325,285.00,853,776,0
8276335,286.33,853,770,0
8276345,287.64,853,776,0
8276355,288.56,853,770,0
8276365,289.25,853,776,0
8276375,289.52,853,770,0
8276385,289.54,853,776,0
8276396,289.42,853,770,0
8276406,289.85,853,775,0
8276416,291.78,853,770,0
8276426,296.99,853,777,0
8276436,307.36,853,765,0
8276446,324.87,853,775,0
8276456,351.78,853,770,0
8276466,389.77,853,778,0
8276476,436.17,853,766,0
8276486,487.25,853,776,0
8276496,539.59,853,771,0
8276515,589.85,793,768,0
8276518,635.41,793,780,0
8276527,673.13,793,778,0
8276537,700.78,793,765,0
8276547,720.13,793,777,0
8276557,733.68,793,773,0
8276567,743.16,793,778,0
8276577,749.80,793,765,0
8276587,754.36,793,777,0
8276597,757.55,793,772,0
8276608,759.79,793,775,0
8276617,761.35,793,765,0
8276627,762.44,793,777,0
8276637,763.21,793,772,0
8276647,763.75,793,775,0
8276657,761.64,793,765,0
8276667,753.56,793,777,0
8276677,737.49,793,771,0
8276687,712.14,793,775,0
8276697,677.90,793,765,0
8276707,634.99,793,777,0
8276717,584.51,793,771,0
8276727,529.97,793,775,0
8276737,476.32,793,764,0
8276747,426.98,793,777,0
8276757,384.86,793,770,0
8276767,350.79,793,776,0
8276777,325.74,793,776,0
8276787,309.32,793,777,0
8276797,301.25,793,769,0
8276807,300.15,793,776,0
8276817,304.77,793,776,0
8276827,313.28,793,777,0
8276837,324.30,793,768,0
8276847,336.08,793,776,0
8276857,347.59,793,775,0
8276867,357.44,793,777,0
8276877,365.02,793,767,0
8276887,369.69,793,776,0
8276897,371.58,793,775,0
8276908,370.42,793,775,0
8276918,366.78,793,777,0
8276928,360.59,793,776,0
8276938,352.91,793,780,0
8276948,343.94,793,774,0
8276958,334.66,793,777,0
8276968,325.03,793,776,0
8276978,316.06,793,780,0
8276988,307.60,793,774,0
8276998,300.39,793,777,0
8277008,294.06,793,776,0
8277018,289.37,793,780,0
8277028,285.75,793,775,0
8277038,283.64,793,777,0
8277048,282.33,793,776,0
8277058,282.27,793,779,0
8277068,282.75,793,775,0
8277079,284.11,793,781,0
8277089,285.32,793,773,0
8277099,287.07,793,781,0
8277109,288.50,793,772,0
8277120,290.97,793,781,0
8277129,294.71,793,773,0
8277139,302.38,793,781,0
8277149,315.21,793,773,0
8277159,336.75,793,781,0
8277169,367.59,793,773,0
8277179,409.46,793,781,0
8277189,457.88,793,773,0
8277199,510.03,793,782,0
8277209,561.96,793,774,0
8277219,610.92,793,781,0
8277238,653.07,723,780,0
8277241,686.73,723,780,0
8277250,710.30,723,773,0
8277260,726.80,723,781,0
8277270,738.30,723,772,0
8277280,746.40,723,781,0
8277291,752.06,723,772,0
8277300,756.03,723,781,0
8277310,758.76,723,773,0
8277320,760.72,723,781,0
8277330,762.09,723,773,0
8277340,763.05,723,781,0
8277350,763.68,723,773,0
8277360,764.16,723,781,0
8277370,764.50,723,772,0
8277380,761.73,723,781,0
8277390,751.87,723,773,0
8277400,733.35,723,781,0
8277410,704.83,723,772,0
8277420,667.17,723,781,0
8277430,620.32,723,772,0
8277440,565.97,723,781,0
8277450,507.99,723,772,0
8277460,452.58,723,781,0
8277470,402.56,723,772,0
8277480,361.25,723,781,0
8277490,328.56,723,772,0
8277500,305.98,723,781,0
8277510,292.14,723,772,0
8277520,287.09,723,781,0
8277530,288.22,723,772,0
8277540,294.75,723,781,0
8277550,303.95,723,772,0
8277560,315.24,723,781,0
8277570,326.01,723,772,0
8277580,336.08,723,781,0
8277591,343.51,723,772,0
8277601,348.89,723,781,0
8277611,351.02,723,771,0
8277621,350.84,723,781,0
8277632,347.59,723,771,0
8277641,342.83,723,781,0
8277651,336.06,723,772,0
8277661,328.76,723,781,0
8277671,320.52,723,771,0
8277681,312.73,723,781,0
8277691,304.97,723,771,0
8277701,298.47,723,781,0
8277711,292.50,723,771,0
8277721,288.11,723,781,0
8277731,284.47,723,772,0
8277741,282.40,723,781,0
8277751,280.87,723,771,0
8277761,280.69,723,781,0
8277771,280.61,723,772,0
8277781,281.37,723,781,0
8277791,281.90,723,771,0
8277801,283.18,723,780,0
8277811,284.58,723,772,0
8277821,287.88,723,781,0
8277831,293.91,723,771,0
8277841,305.94,723,780,0
8277851,325.12,723,772,0
8277861,355.04,723,781,0
8277871,396.13,723,771,0
8277881,444.90,723,781,0
8277891,497.56,723,772,0
8277910,551.01,672,771,0
8277913,601.45,672,771,0
8277922,646.40,672,779,0
8277932,682.07,672,771,0
8277942,707.03,672,780,0
8277952,724.51,672,771,0
8277962,736.74,672,779,0
8277972,745.30,672,771,0
8277982,751.26,672,780,0
8277992,755.38,672,771,0
8278002,758.27,672,779,0
8278012,760.29,672,771,0
8278022,761.70,672,780,0
8278032,762.69,672,771,0
8278042,763.38,672,779,0
8278052,763.87,672,771,0
8278062,764.21,672,780,0
8278072,764.45,672,771,0
8278082,760.54,672,779,0
8278092,748.76,672,771,0
8278103,727.36,672,778,0
8278113,695.33,672,771,0
8278123,653.01,672,778,0
8278133,601.02,672,771,0
8278144,540.80,672,777,0
8278153,477.78,672,770,0
8278163,417.63,672,778,0
8278173,363.83,672,770,0
8278183,319.18,672,777,0
8278193,284.41,672,771,0
8278203,260.42,672,778,0
8278213,246.41,672,771,0
8278223,241.70,672,777,0
8278233,244.15,672,771,0
8278243,252.29,672,778,0
8278253,263.82,672,770,0
8278263,277.67,672,778,0
8278273,291.57,672,771,0
8278283,304.56,672,778,0
8278293,315.27,672,770,0
8278303,323.51,672,778,0
8278313,328.58,672,770,0
8278323,330.77,672,778,0
8278333,329.68,672,770,0
8278343,326.26,672,778,0
8278353,320.83,672,770,0
8278363,314.19,672,778,0
8278373,306.72,672,770,0
8278383,299.22,672,778,0
8278393,291.91,672,770,0
8278403,285.55,672,778,0
8278413,279.94,672,770,0
8278423,275.42,672,778,0
8278433,271.86,672,770,0
8278444,269.63,672,777,0
8278454,268.29,672,770,0
8278464,268.11,672,777,0
8278474,268.59,672,770,0
8278484,269.92,672,776,0
8278494,271.48,672,770,0
8278504,273.35,672,777,0
8278514,275.13,672,770,0
8278524,276.85,672,776,0
8278534,278.14,672,770,0
8278544,279.17,672,777,0
8278554,280.10,672,770,0
8278564,281.92,672,776,0
8278574,285.63,672,770,0
8278584,293.45,672,777,0
8278594,307.85,672,770,0
8278604,331.85,672,776,0
8278615,367.94,672,770,0
8278625,413.64,672,776,0
8278635,465.26,672,771,0
8278654,519.61,744,767,0
8278658,573.21,744,781,0
8278667,622.52,744,776,0
8278677,663.89,744,777,0
8278687,694.31,744,775,0
8278697,715.65,744,780,0
8278707,730.58,744,775,0
8278717,741.04,744,777,0
8278727,748.27,744,775,0
8278737,753.37,744,780,0
8278747,756.99,744,775,0
8278757,759.52,744,777,0
8278767,761.25,744,775,0
8278777,762.50,744,780,0
8278787,763.42,744,775,0
8278797,764.07,744,777,0
8278807,764.48,744,775,0
8278817,764.76,744,780,0
8278828,761.28,744,775,0
8278838,750.74,744,781,0
8278848,730.24,744,773,0
8278858,699.31,744,782,0
8278868,657.43,744,773,0
8278878,605.96,744,781,0
8278888,545.37,744,774,0
8278898,481.45,744,782,0
8278908,418.70,744,773,0
8278918,362.26,744,781,0
8278928,313.84,744,774,0
8278938,275.96,744,781,0
8278948,248.03,744,773,0
8278958,230.88,744,781,0
8278968,222.77,744,774,0
8278978,223.35,744,782,0
8278988,229.93,744,773,0
8278999,241.61,744,782,0
8279009,255.57,744,772,0
8279019,271.04,744,781,0
8279029,285.69,744,773,0
8279040,299.07,744,781,0
8279049,309.46,744,772,0
8279059,317.34,744,782,0
8279069,321.52,744,773,0
8279079,323.08,744,781,0
8279089,321.43,744,773,0
8279099,317.87,744,781,0
8279109,312.08,744,772,0
8279119,305.63,744,781,0
8279129,298.03,744,772,0
8279139,290.90,744,781,0
8279149,283.86,744,772,0
8279159,278.12,744,781,0
8279169,272.98,744,773,0
8279179,269.60,744,782,0
8279189,266.85,744,772,0
8279199,265.74,744,782,0
8279209,265.09,744,772,0
8279219,265.62,744,782,0
8279229,266.20,744,773,0
8279239,267.64,744,781,0
8279249,268.82,744,772,0
8279259,270.55,744,782,0
8279269,271.71,744,773,0
8279279,273.13,744,781,0
8279289,273.77,744,772,0
8279299,274.78,744,781,0
8279309,275.24,744,773,0
8279319,276.06,744,781,0
8279329,276.30,744,772,0
8279340,277.07,744,782,0
8279350,277.35,744,772,0
8279360,278.06,744,781,0
8279370,278.04,744,771,0
8279380,278.20,744,781,0
8279390,277.54,744,772,0
8279400,277.08,744,781,0
8279410,275.90,744,771,0
8279420,275.29,744,781,0
8279430,275.20,744,772,0
8279440,278.10,744,781,0
8279450,285.40,744,771,0
8279460,300.83,744,781,0
8279470,326.26,744,772,0
8279489,365.26,835,771,0
8279492,413.44,835,770,0
8279501,467.52,835,780,0
8279511,523.60,835,771,0
8279521,578.45,835,780,0
8279531,627.85,835,770,0
8279541,668.87,835,779,0
8279552,697.75,835,770,0
8279561,717.93,835,781,0
8279571,732.05,835,771,0
8279581,741.93,835,779,0
8279591,748.85,835,770,0
8279601,753.70,835,781,0
8279611,757.09,835,771,0
8279621,759.46,835,779,0
8279631,761.12,835,770,0
8279641,762.29,835,781,0
8279651,763.10,835,771,0
8279661,763.67,835,780,0
8279671,764.07,835,770,0
8279681,764.35,835,781,0
8279691,764.54,835,771,0
8279701,763.44,835,780,0
8279711,756.11,835,770,0
8279721,739.83,835,779,0
8279731,713.27,835,771,0
8279741,676.20,835,780,0
8279751,628.70,835,770,0
8279761,572.17,835,779,0
8279771,509.12,835,771,0
8279781,446.47,835,780,0
8279791,388.39,835,770,0
8279801,338.30,835,779,0
8279811,297.62,835,771,0
8279821,267.74,835,780,0
8279831,248.02,835,770,0
8279841,238.11,835,779,0
8279852,236.11,835,770,0
8279862,240.87,835,778,0
8279872,250.00,835,770,0
8279882,262.13,835,778,0
8279892,275.29,835,770,0
8279902,288.36,835,779,0
8279912,299.78,835,770,0
8279922,309.15,835,778,0
8279932,315.62,835,770,0
8279942,319.46,835,779,0
8279952,320.31,835,770,0
8279962,318.84,835,778,0
8279972,315.08,835,770,0
8279982,310.08,835,779,0
8279992,303.93,835,770,0
8280002,297.52,835,778,0
8280012,290.94,835,770,0
8280023,285.04,835,778,0
8280033,279.67,835,770,0
8280043,275.48,835,777,0
8280053,272.00,835,770,0
8280064,269.73,835,777,0
8280073,268.31,835,770,0
8280083,267.96,835,777,0
8280093,268.36,835,770,0
8280103,269.45,835,777,0
8280113,270.86,835,770,0
8280123,272.66,835,777,0
8280133,274.52,835,770,0
8280143,276.42,835,777,0
8280153,278.09,835,770,0
8280163,279.48,835,777,0
8280173,280.54,835,770,0
8280183,281.32,835,777,0
8280193,281.65,835,770,0
8280203,281.80,835,777,0
8280213,281.64,835,770,0
8280223,281.32,835,777,0
8280233,280.80,835,770,0
8280243,280.17,835,778,0
8280253,279.35,835,770,0
8280263,278.64,835,777,0
8280273,277.81,835,770,0
8280283,276.97,835,778,0
8280293,276.03,835,770,0
8280303,275.12,835,777,0
8280313,274.23,835,770,0
8280323,273.56,835,778,0
8280333,272.84,835,770,0
8280343,272.24,835,777,0
8280353,271.87,835,770,0
8280364,272.47,835,777,0
8280374,275.03,835,770,0
8280384,281.75,835,776,0
8280394,295.37,835,769,0
8280404,319.26,835,778,0
8280423,355.69,934,775,0
8280426,402.29,934,777,0
8280435,455.21,934,768,0
8280445,511.29,934,777,0
8280455,566.83,934,766,0
8280465,617.93,934,778,0
8280475,660.59,934,767,0
8280485,691.91,934,777,0
8280495,713.84,934,767,0
8280505,729.19,934,778,0
8280515,739.93,934,766,0
8280525,747.45,934,777,0
8280535,752.72,934,767,0
8280545,756.40,934,778,0
8280555,758.98,934,766,0
8280565,760.79,934,777,0
8280576,762.05,934,774,0
8280585,762.94,934,778,0
8280595,763.55,934,766,0
8280605,763.99,934,777,0
8280615,764.29,934,773,0
8280625,764.50,934,778,0
8280635,764.65,934,766,0
8280645,763.43,934,777,0
8280655,756.27,934,773,0
8280665,740.63,934,778,0
8280675,714.90,934,765,0
8280685,678.67,934,777,0
8280695,632.70,934,772,0
8280705,578.10,934,778,0
8280715,517.82,934,765,0
8280725,457.91,934,777,0
8280735,402.95,934,771,0
8280745,356.00,934,776,0
8280755,318.93,934,765,0
8280765,291.99,934,777,0
8280775,275.07,934,771,0
8280785,266.82,934,776,0
8280795,266.06,934,765,0
8280805,270.63,934,777,0
8280815,278.97,934,769,0
8280825,289.09,934,776,0
8280835,299.69,934,765,0
8280845,309.34,934,777,0
8280855,317.42,934,769,0
8280865,323.17,934,777,0
8280876,326.55,934,776,0
8280886,327.24,934,775,0
8280896,325.84,934,778,0
8280906,322.33,934,776,0
8280916,317.52,934,781,0
8280926,311.53,934,775,0
8280936,305.12,934,778,0
8280946,298.31,934,776,0
8280956,292.13,934,780,0
8280966,286.26,934,775,0
8280976,281.56,934,778,0
8280986,277.36,934,776,0
8280996,274.51,934,780,0
8281006,272.39,934,775,0
8281016,271.54,934,778,0
8281026,271.25,934,776,0
8281036,272.16,934,780,0
8281047,273.40,934,775,0
8281057,275.68,934,782,0
8281067,277.88,934,773,0
8281077,280.70,934,782,0
8281088,283.15,934,772,0
8281097,285.80,934,782,0
8281107,287.83,934,774,0
8281117,289.98,934,782,0
8281127,291.19,934,772,0
8281137,292.42,934,781,0
8281147,292.85,934,774,0
8281157,293.62,934,782,0
8281167,293.69,934,772,0
8281177,294.04,934,781,0
8281187,293.73,934,774,0
8281197,293.90,934,782,0
8281207,293.37,934,773,0
8281217,293.17,934,781,0
8281227,292.14,934,774,0
8281237,291.32,934,782,0
8281247,289.77,934,773,0
8281257,288.64,934,782,0
8281267,287.38,934,774,0
8281277,288.12,934,782,0
8281287,291.60,934,773,0
8281297,301.45,934,782,0
8281307,319.31,934,774,0
8281326,349.22,903,772,0
8281329,390.64,903,771,0
8281338,440.12,903,782,0
8281348,493.78,903,773,0
8281358,548.62,903,782,0
8281368,600.38,903,773,0
8281378,646.16,903,782,0
8281388,681.77,903,773,0
8281398,706.74,903,782,0
8281408,724.22,903,773,0
8281418,736.45,903,782,0
8281428,745.02,903,772,0
8281438,751.05,903,782,0
8281448,755.28,903,773,0
8281458,758.24,903,782,0
8281468,760.27,903,772,0
8281478,761.69,903,782,0
8281488,762.68,903,773,0
8281498,763.38,903,782,0
8281508,763.86,903,772,0
8281518,764.20,903,782,0
8281528,764.44,903,773,0
8281538,764.61,903,782,0
8281548,764.73,903,773,0
8281559,760.82,903,782,0
8281569,748.92,903,772,0
8281579,727.47,903,781,0
8281589,695.66,903,771,0
8281600,654.23,903,781,0
8281609,604.06,903,772,0
8281619,546.92,903,781,0
8281629,488.01,903,771,0
8281639,433.41,903,781,0
8281649,385.80,903,772,0
8281659,347.85,903,781,0
8281669,319.35,903,772,0
8281679,300.73,903,781,0
8281689,290.40,903,772,0
8281699,287.71,903,781,0
8281709,290.19,903,772,0
8281719,296.78,903,781,0
8281729,304.99,903,772,0
8281739,314.25,903,781,0
8281749,322.45,903,772,0
8281759,329.34,903,781,0
8281769,333.57,903,771,0
8281779,335.63,903,781,0
8281789,334.84,903,772,0
8281799,332.14,903,781,0
8281809,327.17,903,771,0
8281819,321.25,903,781,0
8281829,314.10,903,772,0
8281839,307.04,903,781,0
8281849,299.70,903,771,0
8281859,293.41,903,781,0
8281869,287.54,903,772,0
8281879,283.05,903,781,0
8281889,279.18,903,771,0
8281900,276.64,903,780,0
8281910,274.73,903,771,0
8281920,274.08,903,780,0
8281930,273.76,903,770,0
8281940,274.26,903,779,0
8281950,274.87,903,771,0
8281960,276.06,903,780,0
8281970,277.25,903,770,0
8281980,278.80,903,779,0
8281990,280.19,903,771,0
8282000,281.76,903,780,0
8282010,283.03,903,770,0
8282020,284.27,903,779,0
8282030,285.00,903,771,0
8282040,285.81,903,780,0
8282050,286.17,903,770,0
8282060,286.63,903,779,0
8282071,286.66,903,770,0
8282081,286.72,903,779,0
8282091,286.42,903,770,0
8282101,286.25,903,778,0
8282112,285.70,903,770,0
8282121,285.32,903,779,0
8282131,284.71,903,770,0
8282141,285.10,903,778,0
8282151,287.64,903,770,0
8282161,294.78,903,779,0
8282171,308.90,903,770,0
8282181,333.74,903,778,0
8282201,371.71,874,777,0
8282204,418.89,874,778,0
8282213,471.73,874,770,0
8282223,526.88,874,776,0
8282233,580.92,874,771,0
8282243,630.23,874,777,0
8282253,670.57,874,770,0
8282263,698.86,874,776,0
8282273,718.66,874,771,0
8282284,732.52,874,778,0
8282294,742.26,874,767,0
8282304,749.08,874,778,0
8282314,753.86,874,767,0
8282324,757.20,874,777,0
8282334,759.54,874,767,0
8282344,761.18,874,778,0
8282354,762.32,874,767,0
8282364,763.13,874,777,0
8282374,763.69,874,767,0
8282384,764.08,874,778,0
8282394,764.36,874,766,0
8282404,764.55,874,777,0
8282414,764.69,874,768,0
8282424,764.78,874,778,0
8282434,764.85,874,766,0
8282444,763.13,874,777,0
8282455,755.34,874,773,0
8282465,738.74,874,775,0
8282475,712.33,874,777,0
8282485,675.97,874,776,0
8282496,630.81,874,780,0
8282505,577.94,874,775,0
8282515,520.74,874,777,0
8282525,464.93,874,776,0
8282535,415.15,874,779,0
8282545,373.45,874,776,0
8282555,341.39,874,777,0
8282565,318.47,874,776,0
8282575,304.44,874,779,0
8282585,297.54,874,776,0
8282595,296.65,874,776,0
8282605,299.41,874,775,0
8282615,304.82,874,778,0
8282625,310.91,874,776,0
8282635,316.98,874,776,0
8282645,321.70,874,775,0
8282655,325.18,874,778,0
8282665,326.62,874,775,0
8282675,326.57,874,776,0
8282685,324.64,874,776,0
8282695,321.49,874,778,0
8282705,316.89,874,775,0
8282715,311.78,874,776,0
8282725,306.06,874,776,0
8282735,300.64,874,778,0
8282745,295.22,874,776,0
8282755,290.57,874,775,0
8282765,286.37,874,776,0
8282775,283.39,874,778,0
8282785,280.83,874,776,0
8282796,279.29,874,780,0
8282806,278.09,874,775,0
8282816,278.02,874,782,0
8282826,278.23,874,773,0
8282836,279.32,874,782,0
8282846,280.34,874,775,0
8282856,281.99,874,782,0
8282866,283.37,874,773,0
8282876,285.14,874,781,0
8282886,286.30,874,775,0
8282896,287.62,874,782,0
8282906,288.21,874,773,0
8282916,289.05,874,782,0
8282926,289.20,874,775,0
8282936,289.66,874,782,0
8282946,289.55,874,774,0
8282956,289.81,874,782,0
8282967,289.48,874,773,0
8282977,289.64,874,782,0
8282987,289.19,874,773,0
8282997,289.18,874,781,0
8283008,288.48,874,772,0
8283017,288.16,874,782,0
8283027,287.26,874,773,0
8283037,287.27,874,781,0
8283047,288.30,874,772,0
8283057,293.14,874,782,0
8283067,303.25,874,773,0
8283077,323.06,874,781,0
8283097,355.02,896,781,0
8283100,398.21,896,780,0
8283109,448.46,896,771,0
8283119,502.79,896,781,0
8283129,557.41,896,770,0
8283139,609.23,896,781,0
8283149,653.65,896,771,0
8283159,687.05,896,781,0
8283169,710.44,896,770,0
8283180,726.81,896,780,0
8283190,738.26,896,770,0
8283200,746.29,896,779,0
8283210,751.90,896,770,0
8283220,755.83,896,779,0
8283230,758.58,896,770,0
8283240,760.51,896,779,0
8283250,761.85,896,770,0
8283260,762.80,896,779,0
8283270,763.46,896,770,0
8283280,763.92,896,780,0
8283290,764.24,896,770,0
8283300,764.47,896,779,0
8283310,764.63,896,770,0
8283320,764.74,896,779,0
8283330,764.82,896,770,0
8283340,764.87,896,779,0
8283351,759.51,896,770,0
8283361,745.94,896,778,0
8283371,722.43,896,770,0
8283381,689.00,896,778,0
8283392,646.27,896,770,0
8283401,595.75,896,778,0
8283411,538.61,896,770,0
8283421,481.94,896,778,0
8283431,430.06,896,770,0
8283441,386.11,896,778,0
8283451,351.11,896,770,0
8283461,325.45,896,778,0
8283471,308.21,896,770,0
8283481,298.68,896,778,0
8283491,295.09,896,770,0
8283501,296.00,896,778,0
8283511,299.86,896,770,0
8283521,305.47,896,779,0
8283531,311.33,896,770,0
8283541,316.67,896,778,0
8283551,320.63,896,770,0
8283561,323.23,896,777,0
8283571,324.02,896,770,0
8283581,323.20,896,778,0
8283591,320.74,896,770,0
8283601,317.17,896,777,0
8283611,312.58,896,770,0
8283621,307.56,896,778,0
8283631,302.21,896,770,0
8283641,297.00,896,777,0
8283651,291.99,896,770,0
8283661,287.58,896,778,0
8283671,283.68,896,770,0
8283681,280.56,896,777,0
8283692,278.12,896,770,0
8283702,276.46,896,777,0
8283712,275.50,896,770,0
8283722,275.22,896,776,0
8283732,275.41,896,770,0
8283742,276.10,896,777,0
8283752,277.06,896,770,0
8283762,278.20,896,776,0
8283772,279.38,896,770,0
8283782,280.51,896,777,0
8283792,281.56,896,770,0
8283802,282.42,896,776,0
8283812,283.19,896,770,0
8283822,283.86,896,777,0
8283832,284.46,896,770,0
8283842,284.97,896,777,0
8283852,285.49,896,770,0
8283863,285.86,896,777,0
8283873,286.29,896,768,0
8283883,286.50,896,778,0
8283893,286.69,896,765,0
8283904,286.83,896,777,0
8283913,287.48,896,768,0
8283923,289.52,896,778,0
8283933,294.85,896,765,0
8283943,305.65,896,777,0
8283953,324.79,896,769,0
8283963,355.32,896,778,0
8283982,397.18,886,777,0
8283985,446.41,886,775,0
8283994,499.69,886,771,0
8284004,553.61,886,776,0
8284014,604.64,886,777,0
8284024,649.36,886,776,0
8284034,684.01,886,770,0
8284044,708.27,886,777,0
8284054,725.24,886,777,0
8284064,737.13,886,776,0
8284075,745.45,886,779,0
8284084,751.31,886,777,0
8284094,755.42,886,776,0
8284104,758.29,886,776,0
8284114,760.31,886,779,0
8284124,761.71,886,777,0
8284134,762.70,886,776,0
8284144,763.39,886,776,0
8284154,763.87,886,779,0
8284164,764.21,886,777,0
8284174,764.45,886,775,0
8284184,764.61,886,776,0
8284194,762.03,886,778,0
8284204,752.89,886,777,0
8284214,734.75,886,775,0
8284224,706.37,886,775,0
8284234,667.90,886,778,0
8284244,619.93,886,776,0
8284254,564.02,886,774,0
8284264,504.23,886,775,0
8284274,446.35,886,778,0
8284284,394.26,886,776,0
8284294,350.98,886,773,0
8284304,317.43,886,775,0
8284314,294.33,886,778,0
8284324,280.60,886,776,0
8284334,275.45,886,773,0
8284344,276.77,886,775,0
8284354,283.27,886,778,0
8284364,292.79,886,776,0
8284375,304.17,886,780,0
8284385,315.22,886,775,0
8284395,325.31,886,781,0
8284405,333.10,886,774,0
8284416,338.86,886,782,0
8284425,341.73,886,775,0
8284435,342.24,886,781,0
8284445,339.94,886,774,0
8284455,335.97,886,782,0
8284465,330.07,886,775,0
8284475,323.45,886,782,0
8284485,315.60,886,774,0
8284495,307.88,886,782,0
8284505,299.86,886,775,0
8284515,292.74,886,781,0
8284525,285.96,886,774,0
8284535,280.62,886,782,0
8284545,275.89,886,775,0
8284555,272.79,886,781,0
8284565,270.33,886,774,0
8284575,269.33,886,782,0
8284585,268.72,886,773,0
8284595,269.23,886,781,0
8284605,269.85,886,775,0
8284615,271.39,886,782,0
8284625,272.73,886,773,0
8284635,274.61,886,781,0
8284645,276.06,886,775,0
8284655,277.97,886,782,0
8284665,279.39,886,773,0
8284675,281.07,886,781,0
8284685,282.04,886,775,0
8284695,283.23,886,782,0
8284705,283.63,886,773,0
8284716,284.17,886,782,0
8284726,283.82,886,773,0
8284736,283.66,886,782,0
8284746,282.86,886,772,0
8284756,283.20,886,782,0
8284766,284.94,886,773,0
8284776,291.22,886,782,0
8284786,303.71,886,773,0
8284796,326.47,886,782,0
8284806,360.83,886,773,0
8284816,405.88,886,782,0
8284835,457.22,853,781,0
8284838,512.01,853,781,0
8284847,566.22,853,773,0
8284857,616.60,853,782,0
8284867,658.89,853,772,0
8284877,690.68,853,782,0
8284887,712.93,853,773,0
8284897,728.55,853,782,0
8284907,739.49,853,772,0
8284917,747.14,853,782,0
8284928,752.50,853,772,0
8284937,756.25,853,782,0
8284947,758.87,853,772,0
8284957,760.71,853,782,0
8284967,762.00,853,772,0
8284977,762.90,853,782,0
8284987,763.53,853,772,0
8284997,763.97,853,782,0
8285007,764.28,853,772,0
8285017,764.50,853,782,0
8285027,762.38,853,772,0
8285037,754.16,853,782,0
8285047,736.93,853,772,0
8285057,710.29,853,782,0
8285067,673.56,853,772,0
8285077,627.66,853,782,0
8285087,573.38,853,772,0
8285097,514.85,853,781,0
8285107,457.25,853,772,0
8285117,405.49,853,781,0
8285127,361.16,853,772,0
8285137,326.70,853,782,0
8285147,301.80,853,772,0
8285157,286.95,853,781,0
8285167,280.28,853,772,0
8285177,281.01,853,782,0
8285187,286.71,853,772,0
8285197,296.35,853,782,0
8285207,307.47,853,772,0
8285217,319.29,853,781,0
8285228,329.75,853,771,0
8285238,338.65,853,781,0
8285248,344.67,853,771,0
8285258,348.20,853,781,0
8285268,348.61,853,770,0
8285278,346.76,853,781,0
8285288,342.41,853,771,0
8285298,336.59,853,781,0
8285308,329.26,853,770,0
8285318,321.55,853,781,0
8285328,313.37,853,771,0
8285338,305.63,853,781,0
8285348,298.11,853,770,0
8285358,291.74,853,781,0
8285368,286.12,853,771,0
8285378,281.92,853,781,0
8285388,278.56,853,770,0
8285399,276.59,853,780,0
8285409,275.21,853,770,0
8285419,274.98,853,779,0
8285429,275.20,853,770,0
8285440,276.34,853,779,0
8285449,277.74,853,770,0
8285459,279.75,853,779,0
8285469,281.84,853,770,0
8285479,284.29,853,779,0
8285489,286.39,853,770,0
8285499,288.28,853,779,0
8285509,289.53,853,770,0
8285519,290.35,853,779,0
8285529,290.72,853,770,0
8285539,291.36,853,779,0
8285549,293.10,853,770,0
8285559,297.95,853,779,0
8285569,307.65,853,770,0
8285579,325.33,853,780,0
8285589,353.56,853,770,0
8285599,393.68,853,779,0
8285609,441.52,853,770,0
8285619,493.82,853,780,0
8285638,547.06,803,778,0
8285641,598.34,803,777,0
8285650,643.80,803,770,0
8285660,680.20,803,779,0
8285670,705.68,803,770,0
8285680,723.52,803,778,0
8285690,736.01,803,770,0
8285700,744.75,803,779,0
8285710,750.82,803,770,0
8285720,755.08,803,778,0
8285730,758.05,803,770,0
8285740,760.14,803,779,0
8285750,761.60,803,770,0
8285760,762.62,803,778,0
8285770,763.33,803,770,0
8285780,763.83,803,778,0
8285790,764.18,803,770,0
8285800,763.10,803,778,0
8285810,756.17,803,770,0
8285820,740.78,803,778,0
8285830,715.73,803,770,0
8285840,680.80,803,778,0
8285850,636.29,803,770,0
8285860,583.36,803,778,0
8285870,524.75,803,770,0
8285880,466.58,803,778,0
8285890,413.14,803,770,0
8285900,367.20,803,777,0
8285911,330.67,803,770,0
8285921,304.37,803,777,0
8285931,287.97,803,770,0
8285941,280.65,803,776,0
8285952,281.10,803,770,0
8285961,287.50,803,777,0
8285971,298.06,803,770,0
8285981,310.73,803,776,0
8285991,324.10,803,771,0
8286001,336.71,803,777,0
8286011,347.47,803,770,0
8286021,355.51,803,777,0
8286031,360.63,803,771,0
8286041,362.76,803,777,0
8286051,361.97,803,770,0
8286061,358.51,803,777,0
8286071,352.91,803,771,0
8286081,345.74,803,777,0
8286091,337.55,803,770,0
8286101,328.77,803,777,0
8286111,320.01,803,771,0
8286121,311.69,803,777,0
8286131,304.11,803,770,0
8286141,297.52,803,777,0
8286151,292.22,803,771,0
8286161,288.13,803,777,0
8286171,285.39,803,770,0
8286181,283.73,803,777,0
8286191,283.17,803,771,0
8286201,283.42,803,777,0
8286211,284.28,803,770,0
8286221,285.39,803,777,0
8286231,286.73,803,771,0
8286241,288.06,803,776,0
8286252,289.45,803,769,0
8286262,291.25,803,778,0
8286272,294.52,803,765,0
8286282,300.87,803,777,0
8286292,312.70,803,771,0
8286302,332.12,803,778,0
8286312,361.95,803,766,0
8286322,402.90,803,777,0
8286332,451.10,803,771,0
8286342,503.14,803,778,0
8286352,555.77,803,766,0
8286371,605.47,733,766,0
8286374,649.38,733,783,0
8286383,684.11,733,776,0
8286393,708.42,733,777,0
8286403,725.44,733,776,0
8286413,737.35,733,779,0
8286423,745.69,733,776,0
8286433,751.52,733,776,0
8286443,755.57,733,776,0
8286453,758.40,733,778,0
8286464,760.38,733,776,0
8286473,761.76,733,776,0
8286483,762.74,733,776,0
8286493,763.41,733,779,0
8286503,763.89,733,776,0
8286513,764.22,733,775,0
8286523,760.68,733,776,0
8286533,749.98,733,778,0
8286543,729.80,733,776,0
8286553,699.99,733,774,0
8286563,660.22,733,776,0
8286573,611.55,733,778,0
8286583,554.82,733,776,0
8286593,495.69,733,774,0
8286603,438.87,733,776,0
8286613,388.59,733,778,0
8286623,346.37,733,776,0
8286633,314.29,733,780,0
8286643,292.00,733,776,0
8286653,279.74,733,778,0
8286663,275.92,733,776,0
8286673,279.72,733,780,0
8286683,288.84,733,776,0
8286693,301.83,733,777,0
8286703,316.24,733,776,0
8286713,331.21,733,780,0
8286723,344.82,733,776,0
8286733,356.36,733,777,0
8286743,364.48,733,776,0
8286753,369.44,733,780,0
8286764,370.59,733,776,0
8286774,368.91,733,781,0
8286784,363.97,733,774,0
8286794,357.03,733,782,0
8286804,348.11,733,773,0
8286814,338.73,733,781,0
8286824,328.74,733,774,0
8286834,319.65,733,782,0
8286844,310.93,733,773,0
8286854,303.83,733,781,0
8286864,297.67,733,774,0
8286874,293.44,733,782,0
8286884,290.05,733,773,0
8286894,288.32,733,781,0
8286904,287.15,733,774,0
8286914,287.28,733,782,0
8286924,287.75,733,773,0
8286935,289.76,733,782,0
8286945,293.13,733,773,0
8286955,300.03,733,782,0
8286965,311.68,733,773,0
8286976,331.49,733,782,0
8286985,360.53,733,773,0
8286995,401.00,733,782,0
8287005,448.53,733,773,0
8287015,500.23,733,782,0
8287025,552.57,733,773,0
8287044,602.67,673,772,0
8287047,646.57,673,772,0
8287056,682.14,673,782,0
8287066,707.04,673,772,0
8287076,724.47,673,782,0
8287086,736.67,673,772,0
8287096,745.21,673,782,0
8287106,751.15,673,773,0
8287116,755.31,673,782,0
8287126,758.21,673,772,0
8287136,760.25,673,782,0
8287147,761.67,673,771,0
8287156,762.67,673,782,0
8287166,763.37,673,772,0
8287176,763.86,673,782,0
8287186,763.64,673,771,0
8287196,759.25,673,782,0
8287206,747.13,673,772,0
8287216,725.75,673,782,0
8287226,694.03,673,771,0
8287236,652.79,673,782,0
8287246,602.20,673,772,0
8287256,544.49,673,782,0
8287266,484.30,673,771,0
8287276,427.43,673,782,0
8287286,376.68,673,772,0
8287296,335.04,673,782,0
8287306,302.67,673,772,0
8287316,280.87,673,781,0
8287326,268.26,673,772,0
8287336,264.63,673,782,0
8287346,267.61,673,772,0
8287356,276.21,673,781,0
8287366,287.98,673,772,0
8287376,301.83,673,782,0
8287386,315.46,673,772,0
8287396,328.35,673,781,0
8287406,338.79,673,772,0
8287416,346.87,673,782,0
8287426,351.41,673,771,0
8287436,353.04,673,781,0
8287447,351.14,673,771,0
8287457,346.86,673,781,0
8287467,340.21,673,770,0
8287477,332.48,673,781,0
8287488,323.55,673,770,0
8287497,314.98,673,781,0
8287507,306.59,673,770,0
8287517,299.47,673,780,0
8287527,293.29,673,770,0
8287537,288.66,673,781,0
8287547,284.95,673,771,0
8287557,282.60,673,781,0
8287567,280.88,673,770,0
8287577,280.23,673,781,0
8287587,280.20,673,770,0
8287597,281.56,673,781,0
8287607,284.69,673,770,0
8287617,291.55,673,781,0
8287627,303.69,673,771,0
8287637,324.10,673,781,0
8287647,354.75,673,770,0
8287657,396.70,673,780,0
8287667,445.77,673,771,0
8287677,498.73,673,781,0
8287687,552.12,673,770,0
8287707,602.92,662,769,0
8287710,647.43,662,771,0
8287719,682.74,662,778,0
8287729,707.46,662,770,0
8287739,724.77,662,778,0
8287749,736.88,662,770,0
8287759,745.36,662,778,0
8287769,751.29,662,770,0
8287779,755.41,662,778,0
8287789,758.28,662,770,0
8287799,760.30,662,779,0
8287809,761.71,662,770,0
8287819,762.70,662,778,0
8287830,763.39,662,771,0
8287839,763.87,662,779,0
8287849,763.40,662,770,0
8287859,757.83,662,778,0
8287869,744.26,662,770,0
8287879,721.29,662,778,0
8287889,688.16,662,770,0
8287899,645.13,662,778,0
8287909,592.80,662,770,0
8287919,533.38,662,778,0
8287929,472.24,662,770,0
8287939,414.05,662,778,0
8287949,361.75,662,770,0
8287959,317.77,662,779,0
8287969,283.12,662,770,0
8287979,258.40,662,778,0
8287989,243.19,662,770,0
8288000,236.92,662,777,0
8288009,238.02,662,770,0
8288019,245.08,662,778,0
8288029,256.29,662,770,0
8288039,270.09,662,777,0
8288049,284.72,662,769,0
8288059,298.82,662,778,0
8288069,311.21,662,770,0
8288079,321.31,662,778,0
8288089,328.46,662,770,0
8288099,332.61,662,778,0
8288109,333.62,662,770,0
8288119,331.89,662,778,0
8288129,327.77,662,770,0
8288139,321.92,662,778,0
8288149,314.79,662,770,0
8288159,307.10,662,778,0
8288169,299.35,662,770,0
8288179,292.09,662,778,0
8288189,285.72,662,770,0
8288199,280.45,662,778,0
8288209,276.28,662,770,0
8288219,273.41,662,779,0
8288229,271.62,662,770,0
8288239,270.75,662,778,0
8288249,270.74,662,770,0
8288259,271.33,662,779,0
8288269,272.39,662,770,0
8288279,274.07,662,778,0
8288289,276.84,662,770,0
8288300,281.94,662,777,0
8288310,291.22,662,770,0
8288320,306.97,662,777,0
8288330,331.96,662,771,0
8288340,368.53,662,778,0
8288350,414.49,662,770,0
8288360,466.24,662,777,0
8288370,520.43,662,771,0
8288390,573.70,683,768,0
8288393,622.69,683,781,0
8288402,663.84,683,776,0
8288412,694.32,683,778,0
8288422,715.65,683,777,0
8288432,730.63,683,774,0
8288442,741.15,683,776,0
8288452,748.48,683,778,0
8288462,753.52,683,776,0
8288472,757.05,683,773,0
8288482,759.52,683,776,0
8288492,761.25,683,777,0
8288502,762.42,683,777,0
8288513,763.24,683,780,0
8288523,763.81,683,775,0
8288533,764.25,683,782,0
8288543,761.69,683,774,0
8288553,753.04,683,782,0
8288563,735.76,683,775,0
8288573,708.79,683,781,0
8288583,671.22,683,774,0
8288593,624.01,683,782,0
8288603,567.74,683,776,0
8288613,506.96,683,781,0
8288623,445.99,683,775,0
8288633,389.42,683,782,0
8288643,339.58,683,776,0
8288653,299.25,683,781,0
8288663,268.44,683,774,0
8288673,248.08,683,782,0
8288684,236.74,683,773,0
8288694,234.21,683,782,0
8288704,238.17,683,773,0
8288714,247.72,683,782,0
8288724,260.28,683,773,0
8288734,274.98,683,782,0
8288744,289.30,683,773,0
8288754,303.01,683,782,0
8288764,314.11,683,773,0
8288774,322.99,683,782,0
8288784,328.39,683,772,0
8288794,331.19,683,782,0
8288804,330.66,683,773,0
8288814,328.28,683,782,0
8288824,323.44,683,772,0
8288834,317.69,683,782,0
8288844,310.41,683,772,0
8288855,303.22,683,782,0
8288865,295.70,683,772,0
8288875,289.06,683,782,0
8288885,282.61,683,772,0
8288896,277.50,683,782,0
8288905,273.06,683,772,0
8288915,270.30,683,782,0
8288925,268.15,683,772,0
8288935,267.34,683,782,0
8288945,267.06,683,772,0
8288955,268.03,683,782,0
8288965,269.18,683,772,0
8288975,271.05,683,782,0
8288985,272.67,683,772,0
8288995,274.82,683,782,0
8289005,276.50,683,772,0
8289015,278.37,683,782,0
8289025,279.41,683,772,0
8289035,280.53,683,782,0
8289045,280.97,683,772,0
8289055,282.10,683,782,0
8289065,283.95,683,771,0
8289075,288.85,683,782,0
8289085,298.15,683,772,0
8289095,315.25,683,782,0
8289105,342.22,683,771,0
8289115,381.88,683,782,0
8289125,429.70,683,772,0
8289135,482.55,683,782,0
8289155,536.77,765,780,0
8289158,589.30,765,780,0
8289167,636.35,765,770,0
8289177,674.86,765,780,0
8289187,701.90,765,770,0
8289197,720.83,765,781,0
8289207,734.08,765,770,0
8289217,743.36,765,780,0
8289227,749.85,765,770,0
8289238,754.40,765,779,0
8289247,757.58,765,770,0
8289257,759.80,765,780,0
8289267,761.36,765,770,0
8289277,762.45,765,780,0
8289287,763.22,765,770,0
8289297,763.75,765,780,0
8289307,764.13,765,770,0
8289317,764.39,765,780,0
8289327,761.31,765,770,0
8289337,751.49,765,780,0
8289347,732.40,765,770,0
8289357,703.22,765,780,0
8289367,664.16,765,770,0
8289377,615.77,765,780,0
8289387,558.88,765,770,0
8289397,498.40,765,780,0
8289408,439.35,765,770,0
8289417,386.02,765,780,0
8289427,340.58,765,770,0
8289437,304.49,765,780,0
8289447,278.07,765,770,0
8289457,261.51,765,780,0
8289467,253.47,765,770,0
8289477,252.90,765,779,0
8289487,257.77,765,770,0
8289497,266.93,765,780,0
8289507,278.35,765,770,0
8289517,290.93,765,779,0
8289527,302.95,765,770,0
8289537,313.89,765,780,0
8289547,322.75,765,770,0
8289557,329.51,765,780,0
8289567,333.43,765,770,0
8289577,334.72,765,779,0
8289587,333.39,765,770,0
8289597,330.19,765,779,0
8289607,325.07,765,770,0
8289617,318.75,765,779,0
8289627,311.50,765,770,0
8289637,304.23,765,780,0
8289647,297.09,765,770,0
8289657,290.59,765,779,0
8289667,284.67,765,770,0
8289677,279.93,765,779,0
8289687,276.14,765,770,0
8289697,273.57,765,779,0
8289708,271.77,765,770,0
8289718,270.98,765,778,0
8289728,270.86,765,770,0
8289738,271.54,765,778,0
8289748,272.58,765,770,0
8289758,273.99,765,778,0
8289768,275.54,765,770,0
8289778,277.26,765,778,0
8289788,278.94,765,770,0
8289798,280.59,765,778,0
8289808,282.08,765,770,0
8289818,283.56,765,778,0
8289828,284.89,765,770,0
8289838,285.99,765,779,0
8289848,286.72,765,770,0
8289858,287.28,765,778,0
8289868,287.58,765,770,0
8289879,287.49,765,778,0
8289889,287.13,765,770,0
8289899,286.58,765,777,0
8289909,286.23,765,771,0
8289920,287.02,765,776,0
8289929,290.06,765,770,0
8289939,297.54,765,777,0
8289949,312.21,765,770,0
8289959,336.70,765,776,0
8289969,373.01,765,771,0
8289988,418.78,834,769,0
8289991,470.36,834,778,0
8290000,524.42,834,778,0
8290010,577.44,834,770,0
8290020,625.82,834,778,0
8290030,666.07,834,767,0
8290040,695.75,834,778,0
8290050,716.53,834,771,0
8290060,731.07,834,778,0
8290070,741.29,834,767,0
8290080,748.45,834,778,0
8290091,753.46,834,768,0
8290100,757.00,834,778,0
8290110,759.53,834,767,0
8290120,761.30,834,778,0
8290130,762.58,834,768,0
8290140,763.44,834,778,0
8290150,764.03,834,767,0
8290160,764.45,834,778,0
8290170,764.75,834,768,0
8290180,764.91,834,778,0
8290190,760.78,834,768,0
8290200,749.02,834,778,0
8290210,727.88,834,767,0
8290220,696.93,834,777,0
8290230,656.41,834,768,0
8290240,606.83,834,778,0
8290250,549.67,834,766,0
8290260,490.45,834,777,0
8290270,434.26,834,768,0
8290280,384.34,834,778,0
8290290,342.62,834,766,0
8290300,309.99,834,777,0
8290310,287.02,834,769,0
8290320,272.96,834,778,0
8290330,267.01,834,765,0
8290340,267.40,834,777,0
8290350,272.72,834,769,0
8290360,281.16,834,778,0
8290370,291.44,834,765,0
8290380,301.94,834,778,0
8290391,311.81,834,771,0
8290401,319.88,834,776,0
8290411,326.09,834,777,0
8290421,329.75,834,776,0
8290432,331.28,834,780,0
8290441,330.34,834,776,0
8290451,327.62,834,777,0
8290461,323.11,834,777,0
8290471,317.85,834,779,0
8290481,311.64,834,776,0
8290491,305.40,834,776,0
8290501,298.98,834,776,0
8290511,293.37,834,779,0
8290521,288.33,834,777,0
8290531,284.33,834,776,0
8290541,280.89,834,776,0
8290551,278.69,834,779,0
8290561,277.20,834,777,0
8290571,276.80,834,775,0
8290581,276.73,834,776,0
8290591,277.41,834,779,0
8290601,278.19,834,776,0
8290611,279.46,834,775,0
8290621,280.48,834,776,0
8290631,281.88,834,778,0
8290641,282.86,834,776,0
8290651,284.06,834,775,0
8290661,284.85,834,776,0
8290671,285.88,834,778,0
8290681,286.52,834,776,0
8290691,287.31,834,774,0
8290701,287.64,834,776,0
8290711,288.18,834,778,0
8290721,288.17,834,776,0
8290732,288.20,834,780,0
8290742,287.67,834,775,0
8290752,287.34,834,782,0
8290762,286.85,834,774,0
8290772,287.50,834,782,0
8290782,289.79,834,775,0
8290792,296.28,834,782,0
8290802,308.50,834,774,0
8290812,329.91,834,782,0
8290822,361.52,834,776,0
8290841,404.22,853,774,0
8290844,453.61,853,773,0
8290853,506.70,853,782,0
8290863,559.68,853,773,0
8290873,609.57,853,782,0
8290883,652.43,853,773,0
8290893,686.24,853,782,0
8290903,709.91,853,773,0
8290913,726.48,853,782,0
8290923,738.08,853,773,0
8290933,746.20,853,782,0
8290944,751.84,853,773,0
8290953,755.83,853,782,0
8290963,758.62,853,773,0
8290973,760.62,853,782,0
8290983,762.02,853,773,0
8290993,763.04,853,783,0
8291003,763.76,853,773,0
8291013,764.30,853,782,0
8291023,763.95,853,773,0
8291033,759.43,853,783,0
8291043,747.08,853,773,0
8291053,725.63,853,782,0
8291063,693.81,853,772,0
8291073,652.81,853,782,0
8291083,602.77,853,773,0
8291093,546.14,853,782,0
8291103,487.30,853,772,0
8291113,431.96,853,782,0
8291123,382.60,853,773,0
8291133,342.39,853,782,0
8291143,310.95,853,772,0
8291153,289.53,853,782,0
8291163,276.56,853,773,0
8291173,272.11,853,782,0
8291183,273.70,853,772,0
8291193,280.61,853,782,0
8291203,290.24,853,773,0
8291213,302.08,853,782,0
8291223,313.63,853,773,0
8291233,324.80,853,782,0
8291244,333.60,853,773,0
8291254,340.41,853,782,0
8291264,344.01,853,771,0
8291274,345.21,853,782,0
8291284,343.26,853,771,0
8291294,339.63,853,782,0
8291304,333.74,853,771,0
8291314,327.00,853,782,0
8291324,319.07,853,771,0
8291334,311.42,853,782,0
8291344,303.62,853,772,0
8291354,296.71,853,782,0
8291364,290.11,853,771,0
8291374,284.89,853,782,0
8291384,280.34,853,772,0
8291394,277.28,853,782,0
8291404,274.92,853,772,0
8291415,273.96,853,782,0
8291425,273.42,853,770,0
8291435,273.81,853,781,0
8291445,274.46,853,770,0
8291456,275.91,853,781,0
8291465,277.44,853,771,0
8291475,279.45,853,782,0
8291485,281.24,853,770,0
8291495,283.36,853,781,0
8291505,285.09,853,771,0
8291515,286.74,853,781,0
8291525,287.63,853,770,0
8291535,288.04,853,781,0
8291545,287.47,853,771,0
8291555,286.52,853,781,0
8291565,284.95,853,770,0
8291575,283.59,853,781,0
8291585,282.77,853,771,0
8291595,284.21,853,782,0
8291605,289.29,853,770,0
8291615,300.65,853,781,0
8291625,320.34,853,770,0
8291635,350.97,853,782,0
8291645,393.10,853,770,0
8291655,442.79,853,781,0
8291675,496.21,833,780,0
8291678,550.23,833,779,0
8291687,601.29,833,770,0
8291697,646.16,833,778,0
8291707,681.81,833,771,0
8291717,706.77,833,779,0
8291727,724.24,833,770,0
8291737,736.47,833,779,0
8291747,745.03,833,771,0
8291757,751.02,833,779,0
8291767,755.21,833,770,0
8291777,758.15,833,779,0
8291787,760.20,833,771,0
8291798,761.64,833,778,0
8291807,762.65,833,770,0
8291817,763.36,833,779,0
8291827,763.85,833,771,0
8291837,764.19,833,778,0
8291847,761.91,833,770,0
8291857,753.24,833,779,0
8291867,735.72,833,770,0
8291877,708.25,833,778,0
8291887,671.06,833,770,0
8291897,624.58,833,778,0
8291907,569.89,833,770,0
8291917,511.00,833,778,0
8291927,453.36,833,770,0
8291937,401.09,833,779,0
8291947,356.84,833,770,0
8291957,321.70,833,778,0
8291968,296.38,833,770,0
8291977,280.62,833,779,0
8291987,273.41,833,770,0
8291997,273.37,833,778,0
8292007,278.87,833,770,0
8292017,288.21,833,779,0
8292027,299.63,833,770,0
8292037,311.61,833,778,0
8292047,322.92,833,770,0
8292057,332.63,833,779,0
8292067,339.90,833,770,0
8292077,344.38,833,778,0
8292087,346.03,833,770,0
8292097,344.99,833,779,0
8292107,341.52,833,770,0
8292117,336.09,833,778,0
8292127,329.12,833,770,0
8292137,321.24,833,778,0
8292147,312.94,833,770,0
8292157,304.64,833,778,0
8292167,296.78,833,770,0
8292177,289.77,833,778,0
8292187,283.71,833,770,0
8292197,278.79,833,778,0
8292207,275.16,833,770,0
8292217,272.76,833,778,0
8292227,271.50,833,770,0
8292237,271.27,833,778,0
8292247,271.83,833,770,0
8292257,273.04,833,778,0
8292268,274.78,833,770,0
8292278,276.65,833,777,0
8292288,278.55,833,771,0
8292298,280.23,833,777,0
8292308,281.70,833,770,0
8292318,282.82,833,777,0
8292328,283.82,833,771,0
8292338,285.20,833,777,0
8292348,288.31,833,770,0
8292358,294.69,833,778,0
8292368,306.87,833,770,0
8292378,327.39,833,777,0
8292388,358.99,833,771,0
8292398,401.51,833,778,0
8292408,451.07,833,770,0
8292418,504.15,833,777,0
8292428,557.59,833,771,0
8292448,607.90,774,768,0
8292451,651.69,774,783,0
8292460,685.72,774,776,0
8292470,709.55,774,779,0
8292481,726.23,774,776,0
8292491,737.94,774,781,0
8292501,746.15,774,775,0
8292511,751.93,774,782,0
8292521,755.94,774,774,0
8292531,758.79,774,781,0
8292541,760.78,774,775,0
8292551,762.22,774,782,0
8292561,763.18,774,774,0
8292571,763.90,774,781,0
8292581,764.36,774,775,0
8292591,764.72,774,782,0
8292601,764.93,774,774,0
8292611,761.70,774,781,0
8292621,751.07,774,775,0
8292631,731.34,774,782,0
8292641,701.15,774,774,0
8292652,661.21,774,783,0
8292662,611.77,774,773,0
8292672,554.67,774,782,0
8292682,494.34,774,773,0
8292692,436.94,774,782,0
8292702,385.44,774,773,0
8292712,343.10,774,782,0
8292722,310.07,774,773,0
8292732,287.55,774,782,0
8292742,273.97,774,773,0
8292752,269.26,774,782,0
8292762,270.90,774,773,0
8292772,278.00,774,782,0
8292782,287.90,774,773,0
8292792,299.89,774,782,0
8292802,311.49,774,773,0
8292812,322.53,774,782,0
8292823,331.07,774,773,0
8292833,337.39,774,782,0
8292843,340.40,774,772,0
8292853,340.97,774,782,0
8292864,338.45,774,771,0
8292873,334.33,774,782,0
8292883,328.10,774,772,0
8292893,321.17,774,782,0
8292903,313.23,774,771,0
8292913,305.75,774,782,0
8292923,298.28,774,772,0
8292933,291.98,774,782,0
8292943,286.16,774,771,0
8292953,281.87,774,782,0
8292963,278.39,774,772,0
8292973,276.52,774,782,0
8292983,275.21,774,772,0
8292993,275.23,774,782,0
8293003,275.50,774,772,0
8293013,276.60,774,782,0
8293023,277.45,774,772,0
8293033,278.73,774,782,0
8293043,279.67,774,772,0
8293053,281.48,774,782,0
8293063,284.25,774,772,0
8293073,290.48,774,782,0
8293083,301.26,774,772,0
8293093,320.21,774,782,0
8293103,349.33,774,772,0
8293113,390.42,774,782,0
8293123,439.02,774,773,0
8293133,492.07,774,782,0
8293152,545.79,704,781,0
8293155,597.46,704,781,0
8293164,643.09,704,772,0
8293174,679.66,704,782,0
8293184,705.26,704,771,0
8293194,723.19,704,781,0
8293204,735.73,704,770,0
8293214,744.51,704,782,0
8293224,750.66,704,771,0
8293234,754.96,704,781,0
8293244,757.97,704,770,0
8293254,760.08,704,782,0
8293264,761.56,704,771,0
8293274,762.59,704,781,0
8293284,763.36,704,770,0
8293294,763.89,704,782,0
8293304,764.27,704,771,0
8293314,764.53,704,782,0
8293324,764.71,704,770,0
8293335,762.74,704,781,0
8293345,754.08,704,770,0
8293355,736.18,704,780,0
8293365,707.67,704,770,0
8293376,668.47,704,780,0
8293385,619.34,704,770,0
8293395,561.60,704,780,0
8293405,498.59,704,770,0
8293415,436.74,704,780,0
8293425,380.12,704,770,0
8293435,332.08,704,780,0
8293445,294.09,704,771,0
8293455,266.68,704,780,0
8293465,249.20,704,770,0
8293475,241.17,704,780,0
8293485,240.82,704,770,0
8293495,246.74,704,780,0
8293505,256.59,704,769,0
8293515,268.93,704,780,0
8293525,281.76,704,770,0
8293535,294.09,704,780,0
8293545,304.56,704,770,0
8293555,312.84,704,780,0
8293565,318.20,704,770,0
8293575,320.84,704,780,0
8293585,320.50,704,770,0
8293595,317.99,704,780,0
8293605,313.54,704,770,0
8293615,307.89,704,780,0
8293625,301.28,704,770,0
8293635,294.51,704,781,0
8293645,287.84,704,770,0
8293655,281.93,704,780,0
8293665,276.55,704,770,0
8293676,272.19,704,779,0
8293686,268.70,704,770,0
8293696,266.31,704,778,0
8293706,264.89,704,770,0
8293716,264.53,704,778,0
8293726,264.76,704,770,0
8293736,265.69,704,779,0
8293746,266.94,704,770,0
8293756,268.41,704,778,0
8293766,269.79,704,770,0
8293776,270.92,704,779,0
8293786,271.98,704,770,0
8293796,273.74,704,778,0
8293806,277.25,704,770,0
8293816,284.37,704,779,0
8293826,297.59,704,770,0
8293836,319.91,704,778,0
8293847,354.27,704,771,0
8293857,399.14,704,778,0
8293867,450.66,704,770,0
8293886,505.49,734,770,0
8293890,560.24,734,779,0
8293899,611.34,734,777,0
8293909,655.12,734,776,0
8293919,688.13,734,776,0
8293929,711.28,734,779,0
8293939,727.48,734,777,0
8293949,738.82,734,775,0
8293959,746.72,734,776,0
8293969,752.25,734,779,0
8293979,756.16,734,777,0
8293989,758.90,734,775,0
8293999,760.77,734,776,0
8294009,762.08,734,779,0
8294019,763.04,734,777,0
8294029,763.72,734,775,0
8294039,764.19,734,776,0
8294049,764.47,734,778,0
8294060,764.72,734,777,0
8294070,764.89,734,781,0
8294080,761.19,734,776,0
8294090,749.95,734,782,0
8294100,728.49,734,774,0
8294110,696.72,734,781,0
8294120,654.12,734,775,0
8294130,601.84,734,782,0
8294140,540.73,734,774,0
8294150,476.74,734,780,0
8294160,414.80,734,775,0
8294170,359.83,734,782,0
8294180,313.13,734,774,0
8294190,276.92,734,780,0
8294200,250.80,734,775,0
8294210,235.26,734,782,0
8294220,228.32,734,774,0
8294231,229.47,734,782,0
8294241,235.97,734,773,0
8294251,246.87,734,782,0
8294261,259.55,734,773,0
8294272,273.53,734,782,0
8294281,286.27,734,773,0
8294291,297.63,734,783,0
8294301,305.97,734,773,0
8294311,311.85,734,782,0
8294321,314.47,734,773,0
8294331,314.97,734,782,0
8294341,312.45,734,773,0
8294351,308.54,734,782,0
8294361,302.89,734,773,0
8294371,296.93,734,783,0
8294381,290.22,734,773,0
8294391,284.03,734,782,0
8294401,277.67,734,773,0
8294411,272.59,734,783,0
8294421,267.95,734,773,0
8294431,264.67,734,782,0
8294441,261.85,734,772,0
8294451,260.53,734,783,0
8294461,259.55,734,773,0
8294471,259.86,734,782,0
8294481,260.24,734,772,0
8294491,261.63,734,783,0
8294501,262.94,734,773,0
8294511,264.93,734,782,0
8294521,266.45,734,772,0
8294531,268.50,734,783,0
8294541,270.02,734,773,0
8294551,271.77,734,782,0
8294561,272.70,734,772,0
8294572,273.90,734,782,0
8294582,274.87,734,772,0
8294592,277.48,734,782,0
8294602,282.31,734,771,0
8294612,292.72,734,782,0
8294622,310.33,734,773,0
8294632,339.33,734,782,0
8294642,380.33,734,771,0
8294652,429.73,734,782,0
8294671,483.60,785,781,0
8294674,539.00,785,781,0
8294683,591.85,785,771,0
8294693,639.25,785,781,0
8294703,676.97,785,772,0
8294713,703.38,785,782,0
8294723,721.87,785,771,0
8294733,734.81,785,782,0
8294743,743.87,785,772,0
8294753,750.21,785,782,0
8294763,754.64,785,771,0
8294773,757.75,785,782,0
8294784,759.97,785,770,0
8294793,761.52,785,782,0
8294803,762.61,785,771,0
8294813,763.41,785,782,0
8294823,763.97,785,770,0
8294833,764.37,785,782,0
8294843,764.64,785,771,0
8294853,764.79,785,782,0
8294863,763.14,785,771,0
8294873,755.86,785,782,0
8294883,739.31,785,771,0
8294893,712.13,785,782,0
8294903,673.78,785,770,0
8294913,625.29,785,782,0
8294923,567.43,785,771,0
8294933,503.66,785,782,0
8294943,439.35,785,770,0
8294953,380.10,785,781,0
8294963,328.94,785,771,0
8294973,288.16,785,782,0
8294983,257.73,785,770,0
8294993,238.14,785,781,0
8295003,227.94,785,771,0
8295013,226.33,785,782,0
8295023,231.07,785,770,0
8295033,240.69,785,781,0
8295043,252.79,785,771,0
8295053,266.31,785,782,0
8295063,279.29,785,770,0
8295073,291.20,785,781,0
8295084,300.61,785,770,0
8295094,307.50,785,781,0
8295104,311.21,785,770,0
8295114,312.30,785,780,0
8295124,310.54,785,770,0
8295134,306.78,785,780,0
8295144,301.06,785,770,0
8295154,294.27,785,780,0
8295164,286.73,785,770,0
8295174,279.27,785,780,0
8295184,272.07,785,770,0
8295194,265.49,785,780,0
8295204,259.43,785,770,0
8295214,254.55,785,780,0
8295224,250.78,785,770,0
8295234,248.36,785,780,0
8295244,247.01,785,770,0
8295255,246.79,785,779,0
8295265,247.50,785,770,0
8295275,249.15,785,779,0
8295285,251.12,785,770,0
8295296,253.40,785,778,0
8295305,255.68,785,770,0
8295315,258.00,785,779,0
8295325,260.15,785,770,0
8295335,262.16,785,778,0
8295345,263.87,785,770,0
8295355,265.45,785,779,0
8295365,266.73,785,770,0
8295375,267.63,785,778,0
8295385,268.12,785,770,0
8295395,268.26,785,779,0
8295405,268.31,785,770,0
8295415,268.94,785,778,0
8295425,271.28,785,770,0
8295435,277.36,785,779,0
8295445,289.86,785,771,0
8295455,311.84,785,778,0
8295465,346.35,785,771,0
8295475,391.71,785,779,0
8295494,444.09,823,778,0
8295497,500.07,823,778,0
8295506,556.07,823,771,0
8295516,608.37,823,778,0
8295526,653.09,823,771,0
8295536,686.66,823,777,0
8295546,710.16,823,771,0
8295556,726.62,823,778,0
8295566,738.13,823,771,0
8295576,746.19,823,778,0
8295586,751.83,823,771,0
8295596,755.78,823,778,0
8295606,758.55,823,771,0
8295616,760.48,823,778,0
8295626,761.84,823,771,0
8295636,762.79,823,777,0
8295646,763.45,823,771,0
8295656,763.92,823,778,0
8295666,764.24,823,771,0
8295676,764.47,823,777,0
8295686,760.56,823,771,0
8295696,748.69,823,778,0
8295706,726.67,823,771,0
8295716,693.64,823,777,0
8295726,650.08,823,770,0
8295736,596.74,823,778,0
8295746,535.15,823,771,0
8295756,470.90,823,777,0
8295767,409.86,823,770,0
8295777,356.03,823,778,0
8295787,312.05,823,767,0
8295797,278.69,823,778,0
8295808,256.50,823,771,0
8295817,244.39,823,778,0
8295827,241.49,823,767,0
8295837,245.67,823,778,0
8295847,255.24,823,770,0
8295857,267.85,823,778,0
8295867,282.08,823,767,0
8295877,295.86,823,778,0
8295887,308.54,823,770,0
8295897,318.84,823,778,0
8295907,326.56,823,767,0
8295917,331.06,823,778,0
8295927,332.93,823,769,0
8295937,332.01,823,778,0
8295947,329.05,823,767,0
8295957,323.98,823,778,0
8295967,317.55,823,769,0
8295977,310.02,823,777,0
8295987,302.17,823,767,0
8295997,293.89,823,778,0
8296007,286.04,823,768,0
8296017,278.70,823,777,0
8296027,272.57,823,768,0
8296037,267.60,823,778,0
8296047,264.12,823,767,0
8296057,261.77,823,777,0
8296067,260.90,823,768,0
8296077,261.01,823,779,0
8296087,262.21,823,767,0
8296097,263.82,823,777,0
8296108,265.97,823,774,0
8296118,268.12,823,776,0
8296128,270.57,823,778,0
8296138,272.76,823,776,0
8296148,274.76,823,780,0
8296158,276.16,823,776,0
8296168,277.40,823,778,0
8296178,277.84,823,776,0
8296188,278.06,823,780,0
8296198,277.74,823,776,0
8296208,277.86,823,778,0
8296218,278.76,823,776,0
8296228,282.69,823,780,0
8296238,290.92,823,776,0
8296248,307.10,823,778,0
8296258,333.56,823,777,0
8296268,373.12,823,780,0
8296279,421.30,823,776,0
8296289,474.91,823,782,0
8296308,530.05,814,781,0
8296311,583.91,814,782,0
8296321,632.36,814,773,0
8296331,672.11,814,783,0
8296341,699.98,814,772,0
8296351,719.48,814,782,0
8296361,733.14,814,772,0
8296371,742.70,814,783,0
8296381,749.39,814,772,0
8296391,754.07,814,782,0
8296401,757.35,814,772,0
8296411,759.69,814,783,0
8296421,761.32,814,772,0
8296431,762.47,814,782,0
8296441,763.27,814,772,0
8296451,763.83,814,783,0
8296461,764.23,814,772,0
8296471,763.60,814,782,0
8296481,756.86,814,772,0
8296492,741.26,814,782,0
8296502,714.95,814,771,0
8296512,677.90,814,781,0
8296522,630.40,814,770,0
8296532,573.84,814,781,0
8296542,510.67,814,771,0
8296552,447.94,814,782,0
8296562,390.06,814,770,0
8296572,340.88,814,781,0
8296582,301.58,814,771,0
8296592,273.63,814,782,0
8296602,256.34,814,770,0
8296612,249.00,814,782,0
8296622,249.51,814,771,0
8296632,256.73,814,782,0
