Time,PPG,IBI,GSR,GSR_Event
7445736,296.89,542,778,0
7445746,286.42,542,780,0
7445756,275.37,542,779,0
7445766,266.21,542,780,0
7445776,260.19,542,779,0
7445786,260.26,542,780,0
7445796,268.07,542,779,0
7445806,286.22,542,780,0
7445816,319.15,542,779,0
7445826,365.69,542,780,0
7445836,420.34,542,779,0
7445847,478.91,542,780,0
7445857,536.97,542,779,0
7445876,591.11,543,779,0
7445879,638.22,543,781,0
7445889,675.74,543,781,0
7445899,702.04,543,780,0
7445909,720.50,543,781,0
7445919,733.47,543,780,0
7445929,742.58,543,781,0
7445939,749.01,543,780,0
7445949,753.51,543,781,0
7445959,756.14,543,780,0
7445969,754.08,543,781,0
7445979,744.93,543,780,0
7445989,727.38,543,781,0
7445999,700.18,543,780,0
7446009,663.83,543,781,0
7446019,618.58,543,780,0
7446029,566.16,543,781,0
7446039,510.53,543,780,0
7446049,455.94,543,781,0
7446060,405.04,543,780,0
7446070,360.85,543,781,0
7446080,323.95,543,780,0
7446090,295.59,543,780,0
7446100,275.31,543,781,0
7446110,263.26,543,781,0
7446120,258.04,543,780,0
7446130,258.89,543,780,0
7446140,264.06,543,781,0
7446150,272.57,543,781,0
7446160,282.43,543,781,0
7446170,292.93,543,781,0
7446180,302.55,543,781,0
7446190,311.09,543,781,0
7446200,317.40,543,781,0
7446210,321.61,543,781,0
7446220,323.18,543,781,0
7446231,322.74,543,781,0
7446241,319.86,543,781,0
7446251,315.40,543,781,0
7446261,309.20,543,781,0
7446272,302.15,543,781,0
7446281,294.22,543,781,0
7446291,286.14,543,780,0
7446301,278.00,543,781,0
7446311,270.63,543,780,0
7446321,264.48,543,780,0
7446331,261.12,543,780,0
7446341,262.24,543,781,0
7446351,270.36,543,780,0
7446361,287.31,543,780,0
7446371,315.80,543,780,0
7446381,356.96,543,781,0
7446391,407.63,543,780,0
7446401,463.58,543,780,0
7446411,520.97,543,781,0
7446430,575.92,554,780,0
7446433,625.40,554,781,0
7446443,665.87,554,781,0
7446452,695.31,554,780,0
7446462,715.91,554,781,0
7446472,730.34,554,780,0
7446482,740.44,554,781,0
7446492,747.51,554,780,0
7446502,752.45,554,781,0
7446512,755.92,554,780,0
7446522,755.13,554,781,0
7446532,747.93,554,780,0
7446542,732.27,554,781,0
7446552,707.20,554,780,0
7446562,672.73,554,781,0
7446572,629.31,554,780,0
7446582,577.62,554,780,0
7446592,521.97,554,780,0
7446602,466.27,554,781,0
7446612,413.99,554,780,0
7446622,367.75,554,781,0
7446632,329.00,554,780,0
7446642,298.48,554,781,0
7446652,276.61,554,780,0
7446662,262.80,554,780,0
7446672,256.34,554,780,0
7446682,256.24,554,781,0
7446692,260.93,554,780,0
7446702,268.92,554,780,0
7446712,278.72,554,780,0
7446722,289.04,554,781,0
7446732,298.97,554,780,0
7446743,307.51,554,781,0
7446753,313.83,554,780,0
7446763,317.87,554,781,0
7446773,319.32,554,780,0
7446784,318.62,554,781,0
7446793,315.69,554,780,0
7446803,311.11,554,781,0
7446813,304.95,554,780,0
7446823,298.19,554,781,0
7446833,290.81,554,780,0
7446843,283.41,554,781,0
7446853,275.74,554,780,0
7446863,268.41,554,781,0
7446873,261.43,554,780,0
7446883,255.26,554,781,0
7446893,249.61,554,780,0
7446903,245.31,554,781,0
7446913,242.95,554,780,0
7446923,244.42,554,781,0
7446933,251.49,554,780,0
7446943,266.82,554,781,0
7446953,292.67,554,780,0
7446963,330.87,554,781,0
7446973,379.98,554,780,0
7446983,435.92,554,781,0
7446993,494.61,554,780,0
7447012,552.41,582,779,0
7447015,605.35,582,781,0
7447024,650.11,582,781,0
7447034,684.24,582,780,0
7447044,708.12,582,781,0
7447054,724.84,582,780,0
7447064,736.55,582,781,0
7447074,744.74,582,780,0
7447084,750.48,582,781,0
7447094,754.49,582,780,0
7447104,757.34,582,781,0
7447114,756.34,582,780,0
7447124,748.95,582,781,0
7447134,733.41,582,780,0
7447144,708.69,582,781,0
7447154,674.24,582,780,0
7447164,630.80,582,781,0
7447174,579.00,582,780,0
7447184,523.29,582,781,0
7447194,467.36,582,780,0
7447204,415.05,582,781,0
7447214,368.53,582,780,0
7447224,330.10,582,781,0
7447234,299.99,582,780,0
7447244,278.86,582,781,0
7447255,265.70,582,780,0
7447265,260.39,582,781,0
7447275,260.83,582,780,0
7447285,266.50,582,781,0
7447296,274.92,582,780,0
7447305,285.36,582,781,0
7447315,295.71,582,780,0
7447325,305.52,582,781,0
7447335,313.25,582,780,0
7447345,319.13,582,781,0
7447355,322.01,582,779,0
7447365,322.82,582,781,0
7447375,320.73,582,780,0
7447385,317.00,582,781,0
7447395,311.13,582,779,0
7447405,304.40,582,781,0
7447415,296.31,582,780,0
7447425,288.16,582,781,0
7447435,279.54,582,779,0
7447445,271.62,582,781,0
7447455,263.68,582,779,0
7447465,256.92,582,781,0
7447475,250.47,582,779,0
7447485,245.36,582,781,0
7447495,240.66,582,780,0
7447505,237.25,582,781,0
7447515,234.26,582,779,0
7447525,232.47,582,781,0
7447535,230.91,582,779,0
7447545,230.60,582,781,0
7447555,231.19,582,779,0
7447565,234.65,582,781,0
7447575,241.87,582,779,0
7447585,256.35,582,781,0
7447596,279.90,582,779,0
7447606,316.06,582,782,0
7447616,363.74,582,780,0
7447626,419.19,582,781,0
7447646,478.15,633,780,0
7447649,537.42,633,782,0
7447658,592.62,633,780,0
7447668,640.61,633,781,0
7447678,677.50,633,779,0
7447688,703.36,633,781,0
7447698,721.47,633,780,0
7447708,734.18,633,781,0
7447718,743.04,633,780,0
7447728,749.24,633,781,0
7447738,753.59,633,780,0
7447748,756.67,633,781,0
7447758,758.78,633,780,0
7447768,760.26,633,781,0
7447778,758.13,633,780,0
7447788,749.65,633,781,0
7447798,732.27,633,780,0
7447809,705.40,633,781,0
7447819,668.81,633,780,0
7447829,623.39,633,780,0
7447839,569.83,633,780,0
7447849,512.93,633,780,0
7447859,456.93,633,780,0
7447869,406.34,633,780,0
7447879,362.99,633,780,0
7447889,328.62,633,780,0
7447899,303.15,633,780,0
7447909,286.86,633,780,0
7447919,278.29,633,780,0
7447929,276.66,633,780,0
7447939,279.68,633,780,0
7447949,286.42,633,780,0
7447959,294.78,633,780,0
7447969,303.97,633,781,0
7447980,312.30,633,780,0
7447990,319.45,633,780,0
7448000,324.24,633,780,0
7448010,326.91,633,780,0
7448020,326.85,633,781,0
7448030,324.80,633,780,0
7448040,320.36,633,780,0
7448050,314.29,633,780,0
7448060,306.75,633,780,0
7448070,298.55,633,780,0
7448080,289.86,633,780,0
7448090,281.20,633,780,0
7448100,272.65,633,780,0
7448110,264.87,633,780,0
7448120,257.80,633,780,0
7448130,251.69,633,780,0
7448140,246.42,633,781,0
7448151,242.22,633,780,0
7448161,238.99,633,781,0
7448171,236.59,633,780,0
7448181,234.96,633,781,0
7448192,234.03,633,780,0
7448201,233.68,633,781,0
7448211,233.77,633,780,0
7448221,234.23,633,781,0
7448231,235.27,633,780,0
7448241,237.46,633,781,0
7448251,242.17,633,780,0
7448261,251.63,633,781,0
7448271,268.54,633,780,0
7448281,295.38,633,781,0
7448291,334.74,633,780,0
7448301,384.36,633,781,0
7448311,440.44,633,780,0
7448321,499.19,633,781,0
7448331,556.86,633,780,0
7448350,609.53,705,779,0
7448353,653.99,705,780,0
7448363,686.99,705,781,0
7448372,710.09,705,780,0
7448382,726.27,705,781,0
7448392,737.59,705,780,0
7448402,745.51,705,781,0
7448412,751.06,705,779,0
7448422,754.94,705,781,0
7448432,757.66,705,780,0
7448442,759.56,705,781,0
7448452,760.89,705,779,0
7448462,761.82,705,781,0
7448472,761.28,705,780,0
7448482,755.54,705,781,0
7448492,742.35,705,780,0
7448502,720.30,705,781,0
7448512,688.84,705,780,0
7448522,648.60,705,781,0
7448532,600.25,705,779,0
7448542,546.65,705,781,0
7448552,492.75,705,780,0
7448562,442.64,705,781,0
7448572,398.82,705,779,0
7448582,363.30,705,781,0
7448592,336.25,705,780,0
7448602,317.88,705,781,0
7448612,306.81,705,779,0
7448622,302.33,705,781,0
7448632,302.66,705,780,0
7448642,306.70,705,781,0
7448652,312.71,705,779,0
7448663,319.74,705,781,0
7448673,326.33,705,780,0
7448683,332.15,705,781,0
7448693,336.09,705,779,0
7448704,338.16,705,781,0
7448713,337.90,705,780,0
7448723,335.79,705,781,0
7448733,331.44,705,779,0
7448743,325.73,705,781,0
7448753,318.44,705,780,0
7448763,310.81,705,781,0
7448773,302.51,705,779,0
7448783,294.56,705,781,0
7448793,286.55,705,780,0
7448803,279.44,705,781,0
7448813,272.67,705,779,0
7448823,266.94,705,781,0
7448833,261.56,705,780,0
7448843,257.27,705,781,0
7448853,253.42,705,780,0
7448863,250.77,705,782,0
7448873,249.25,705,780,0
7448883,250.59,705,781,0
7448893,255.98,705,780,0
7448903,268.59,705,782,0
7448913,290.44,705,780,0
7448923,324.42,705,781,0
7448933,370.20,705,780,0
7448943,423.84,705,782,0
7448963,481.40,612,780,0
7448966,539.48,612,782,0
7448975,593.81,612,780,0
7448985,641.05,612,782,0
7448995,677.89,612,780,0
7449005,703.73,612,781,0
7449015,721.81,612,780,0
7449025,734.47,612,782,0
7449035,743.33,612,780,0
7449046,749.53,612,782,0
7449055,753.87,612,780,0
7449065,756.91,612,781,0
7449075,759.04,612,780,0
7449085,760.53,612,781,0
7449095,761.57,612,780,0
7449105,762.30,612,781,0
7449115,758.57,612,780,0
7449125,747.72,612,781,0
7449135,727.88,612,779,0
7449145,698.56,612,781,0
7449155,659.48,612,779,0
7449165,611.76,612,781,0
7449175,556.29,612,779,0
7449185,499.12,612,781,0
7449195,444.01,612,779,0
7449205,394.98,612,781,0
7449216,353.41,612,780,0
7449225,321.23,612,781,0
7449235,297.89,612,780,0
7449245,283.70,612,781,0
7449255,276.67,612,780,0
7449265,276.34,612,781,0
7449275,280.14,612,779,0
7449285,287.38,612,781,0
7449295,295.75,612,779,0
7449305,304.70,612,781,0
7449315,312.25,612,780,0
7449325,318.56,612,781,0
7449335,322.25,612,780,0
7449345,323.97,612,781,0
7449355,322.78,612,780,0
7449365,319.80,612,781,0
7449375,314.38,612,780,0
7449385,307.88,612,781,0
7449395,299.86,612,780,0
7449405,291.76,612,781,0
7449415,282.96,612,780,0
7449425,274.83,612,781,0
7449435,266.61,612,780,0
7449445,259.57,612,781,0
7449455,252.80,612,780,0
7449465,247.33,612,781,0
7449475,242.22,612,780,0
7449485,238.51,612,781,0
7449495,235.36,612,780,0
7449505,234.01,612,781,0
7449516,234.39,612,780,0
7449526,238.99,612,781,0
7449536,249.32,612,780,0
7449546,269.20,612,781,0
7449556,300.89,612,780,0
7449566,346.10,612,781,0
7449576,399.90,612,780,0
7449595,458.94,633,779,0
7449598,519.17,633,781,0
7449607,577.06,633,781,0
7449617,628.17,633,780,0
7449627,668.96,633,781,0
7449637,697.52,633,780,0
7449647,717.51,633,781,0
7449657,731.50,633,780,0
7449667,741.25,633,781,0
7449677,748.07,633,780,0
7449687,752.85,633,781,0
7449697,756.20,633,780,0
7449707,758.54,633,781,0
7449717,760.18,633,780,0
7449728,761.32,633,781,0
7449737,762.13,633,780,0
7449747,762.69,633,781,0
7449757,763.04,633,780,0
7449767,758.48,633,781,0
7449777,746.04,633,780,0
7449787,724.08,633,781,0
7449797,691.66,633,780,0
7449807,649.38,633,781,0
7449817,597.83,633,780,0
7449827,538.70,633,781,0
7449837,477.85,633,780,0
7449847,420.25,633,781,0
7449857,368.70,633,780,0
7449867,326.06,633,781,0
7449877,292.53,633,780,0
7449887,268.67,633,781,0
7449897,253.13,633,780,0
7449907,245.42,633,781,0
7449917,243.58,633,779,0
7449927,246.66,633,781,0
7449937,252.33,633,780,0
7449947,259.91,633,781,0
7449957,267.52,633,780,0
7449967,274.82,633,781,0
7449977,280.53,633,780,0
7449987,284.53,633,781,0
7449997,285.96,633,780,0
7450007,285.54,633,781,0
7450017,282.76,633,780,0
7450028,278.55,633,781,0
7450038,272.64,633,780,0
7450048,266.06,633,781,0
7450058,258.80,633,780,0
7450068,251.79,633,780,0
7450078,244.74,633,780,0
7450088,238.56,633,781,0
7450098,232.99,633,780,0
7450108,228.62,633,780,0
7450118,224.96,633,780,0
7450128,222.40,633,781,0
7450138,220.61,633,780,0
7450148,219.87,633,780,0
7450158,219.70,633,780,0
7450168,221.03,633,781,0
7450178,224.88,633,780,0
7450188,233.70,633,780,0
7450199,250.12,633,780,0
7450209,277.34,633,781,0
7450219,317.95,633,781,0
7450229,369.44,633,780,0
7450249,427.55,653,779,0
7450252,488.71,653,780,0
7450261,548.93,653,781,0
7450271,604.19,653,780,0
7450281,650.55,653,781,0
7450291,684.58,653,780,0
7450301,708.41,653,781,0
7450311,725.09,653,780,0
7450321,736.76,653,781,0
7450331,744.93,653,780,0
7450341,750.65,653,781,0
7450351,754.66,653,780,0
7450361,757.46,653,781,0
7450371,759.42,653,780,0
7450381,760.80,653,781,0
7450391,761.76,653,780,0
7450401,762.43,653,781,0
7450412,761.96,653,780,0
7450422,756.10,653,781,0
7450432,741.76,653,779,0
7450442,717.66,653,781,0
7450452,683.17,653,780,0
7450462,639.28,653,781,0
7450472,586.52,653,779,0
7450482,527.57,653,781,0
7450492,467.87,653,780,0
7450502,412.58,653,781,0
7450512,364.11,653,780,0
7450522,324.86,653,781,0
7450532,294.56,653,780,0
7450542,273.82,653,781,0
7450552,261.10,653,780,0
7450562,255.89,653,781,0
7450572,255.92,653,780,0
7450583,260.36,653,781,0
7450593,266.85,653,780,0
7450603,274.87,653,781,0
7450613,282.49,653,780,0
7450624,289.54,653,781,0
7450633,294.65,653,780,0
7450643,298.19,653,781,0
7450653,299.33,653,780,0
7450663,298.89,653,781,0
7450673,296.22,653,780,0
7450683,292.64,653,781,0
7450693,287.78,653,780,0
7450703,282.79,653,781,0
7450713,277.24,653,780,0
7450723,272.11,653,781,0
7450733,266.68,653,780,0
7450743,262.10,653,782,0
7450753,257.40,653,780,0
7450763,253.68,653,781,0
7450773,250.13,653,780,0
7450783,247.65,653,782,0
7450793,245.48,653,780,0
7450803,245.21,653,782,0
7450813,246.78,653,779,0
7450823,252.93,653,781,0
7450833,265.08,653,780,0
7450843,286.44,653,781,0
7450853,318.97,653,779,0
7450863,364.15,653,781,0
7450873,417.16,653,780,0
7450892,474.76,644,779,0
7450895,532.77,644,780,0
7450904,587.78,644,781,0
7450914,636.06,644,780,0
7450924,674.44,644,781,0
7450934,701.27,644,779,0
7450944,720.04,644,781,0
7450954,733.19,644,780,0
7450964,742.39,644,781,0
7450974,748.79,644,779,0
7450984,753.26,644,781,0
7450994,756.40,644,780,0
7451004,758.64,644,781,0
7451014,760.16,644,780,0
7451024,761.23,644,782,0
7451034,761.97,644,780,0
7451044,762.54,644,781,0
7451054,758.95,644,780,0
7451064,748.12,644,781,0
7451074,727.47,644,780,0
7451084,696.81,644,781,0
7451095,655.81,644,780,0
7451105,605.68,644,781,0
7451115,547.41,644,780,0
7451125,486.90,644,781,0
7451136,428.52,644,780,0
7451145,376.85,644,781,0
7451155,333.22,644,780,0
7451165,299.81,644,781,0
7451175,275.78,644,780,0
7451185,261.15,644,781,0
7451195,253.90,644,780,0
7451205,253.50,644,781,0
7451215,257.47,644,780,0
7451225,264.96,644,781,0
7451235,273.28,644,780,0
7451245,282.16,644,781,0
7451255,289.87,644,780,0
7451265,296.55,644,781,0
7451275,300.88,644,780,0
7451285,303.49,644,781,0
7451295,303.60,644,780,0
7451305,302.22,644,781,0
7451315,298.98,644,780,0
7451325,294.92,644,781,0
7451335,289.50,644,780,0
7451345,283.86,644,781,0
7451355,277.52,644,780,0
7451365,271.53,644,781,0
7451375,265.29,644,780,0
7451385,259.63,644,781,0
7451395,253.91,644,780,0
7451405,249.44,644,781,0
7451415,246.22,644,780,0
7451425,246.58,644,781,0
7451436,251.89,644,780,0
7451446,265.64,644,781,0
7451456,289.83,644,780,0
7451466,327.64,644,781,0
7451476,376.56,644,780,0
7451486,432.75,644,781,0
7451496,491.93,644,780,0
7451515,550.53,623,779,0
7451518,604.37,623,781,0
7451527,650.08,623,781,0
7451537,684.25,623,780,0
7451547,708.18,623,781,0
7451557,724.92,623,781,0
7451567,736.65,623,781,0
7451577,744.85,623,780,0
7451587,750.60,623,781,0
7451597,754.62,623,781,0
7451607,757.43,623,781,0
7451617,759.40,623,780,0
7451627,760.78,623,780,0
7451637,761.75,623,781,0
7451648,762.42,623,781,0
7451657,759.00,623,781,0
7451667,748.45,623,780,0
7451677,728.48,623,781,0
7451687,698.46,623,781,0
7451697,658.55,623,780,0
7451707,609.49,623,780,0
7451717,552.25,623,780,0
7451727,492.31,623,780,0
7451737,434.23,623,780,0
7451747,382.17,623,780,0
7451757,337.98,623,781,0
7451767,302.97,623,780,0
7451777,277.18,623,780,0
7451787,260.54,623,780,0
7451797,251.76,623,780,0
7451807,249.73,623,780,0
7451817,252.60,623,780,0
7451827,259.19,623,780,0
7451837,267.45,623,780,0
7451847,276.44,623,780,0
7451857,284.62,623,781,0
7451867,291.59,623,780,0
7451877,296.30,623,780,0
7451887,298.70,623,781,0
7451897,298.40,623,780,0
7451907,296.05,623,780,0
7451917,291.54,623,780,0
7451927,285.63,623,780,0
7451937,278.46,623,780,0
7451948,270.78,623,780,0
7451958,262.79,623,781,0
7451968,254.92,623,780,0
7451978,247.32,623,781,0
7451988,240.28,623,780,0
7451998,233.94,623,781,0
7452008,228.39,623,780,0
7452018,223.73,623,781,0
7452028,220.34,623,780,0
7452038,218.91,623,781,0
7452048,220.99,623,780,0
7452058,228.79,623,781,0
7452068,244.93,623,780,0
7452078,271.65,623,781,0
7452088,311.57,623,780,0
7452098,362.87,623,781,0
7452108,421.28,623,780,0
7452128,482.65,613,779,0
7452131,543.10,613,780,0
7452140,598.48,613,781,0
7452150,645.65,613,780,0
7452161,681.20,613,782,0
7452171,706.08,613,780,0
7452181,723.50,613,781,0
7452191,735.69,613,779,0
7452201,744.19,613,782,0
7452211,750.13,613,780,0
7452221,754.29,613,781,0
7452231,757.20,613,779,0
7452241,759.24,613,781,0
7452251,760.67,613,780,0
7452261,761.67,613,781,0
7452271,762.37,613,779,0
7452281,759.94,613,782,0
7452291,750.96,613,779,0
7452301,733.32,613,781,0
7452311,705.75,613,779,0
7452321,668.50,613,782,0
7452332,621.89,613,779,0
7452342,567.37,613,781,0
7452352,508.84,613,779,0
7452362,451.76,613,782,0
7452372,399.50,613,779,0
7452382,355.21,613,781,0
7452392,319.62,613,779,0
7452402,293.76,613,781,0
7452412,276.56,613,779,0
7452422,267.82,613,781,0
7452432,265.43,613,779,0
7452442,268.52,613,781,0
7452452,274.53,613,779,0
7452462,282.64,613,781,0
7452472,290.85,613,779,0
7452482,298.91,613,781,0
7452492,305.02,613,779,0
7452503,309.52,613,781,0
7452513,311.33,613,779,0
7452523,311.40,613,781,0
7452533,308.97,613,780,0
7452544,305.08,613,781,0
7452553,299.14,613,779,0
7452563,292.67,613,781,0
7452573,285.10,613,780,0
7452583,277.74,613,781,0
7452593,270.06,613,779,0
7452603,263.19,613,781,0
7452613,256.49,613,780,0
7452623,250.94,613,781,0
7452633,245.77,613,779,0
7452643,241.90,613,781,0
7452653,238.67,613,780,0
7452663,237.48,613,781,0
7452673,238.62,613,779,0
7452683,244.99,613,781,0
7452693,258.45,613,779,0
7452703,282.62,613,781,0
7452713,319.16,613,780,0
7452723,367.54,613,781,0
7452733,423.14,613,780,0
7452752,482.71,624,778,0
7452755,541.85,624,780,0
7452764,597.01,624,781,0
7452774,643.98,624,780,0
7452784,679.99,624,781,0
7452794,705.19,624,780,0
7452804,722.83,624,781,0
7452814,735.18,624,780,0
7452824,743.83,624,781,0
7452834,749.88,624,780,0
7452844,754.12,624,781,0
7452854,757.08,624,780,0
7452864,759.16,624,781,0
7452874,760.61,624,780,0
7452884,761.63,624,781,0
7452894,762.34,624,780,0
7452904,762.84,624,781,0
7452914,758.77,624,780,0
7452924,747.44,624,781,0
7452934,726.95,624,780,0
7452944,696.92,624,781,0
7452954,656.92,624,780,0
7452964,608.17,624,781,0
7452974,551.55,624,780,0
7452984,493.27,624,781,0
7452994,437.35,624,780,0
7453004,387.57,624,781,0
7453015,345.49,624,780,0
7453025,313.07,624,781,0
7453035,289.69,624,780,0
7453045,275.47,624,781,0
7453056,268.69,624,780,0
7453065,268.44,624,781,0
7453075,272.42,624,780,0
7453085,279.54,624,781,0
7453095,287.78,624,780,0
7453105,296.46,624,781,0
7453115,303.86,624,780,0
7453125,309.90,624,781,0
7453135,313.58,624,780,0
7453145,315.42,624,781,0
7453155,314.73,624,780,0
7453165,312.20,624,781,0
7453175,307.47,624,780,0
7453185,301.67,624,781,0
7453195,294.57,624,780,0
7453205,287.11,624,781,0
7453215,279.06,624,780,0
7453225,271.46,624,781,0
7453235,264.04,624,780,0
7453245,257.64,624,780,0
7453255,251.62,624,780,0
7453265,246.50,624,780,0
7453275,242.11,624,780,0
7453285,239.25,624,781,0
7453295,237.89,624,780,0
7453305,239.55,624,781,0
7453315,245.26,624,780,0
7453325,258.17,624,780,0
7453335,280.62,624,779,0
7453345,315.87,624,781,0
7453356,362.93,624,780,0
7453366,417.76,624,780,0
7453385,476.38,633,779,0
7453388,535.54,633,781,0
7453398,591.09,633,781,0
7453407,639.53,633,780,0
7453417,676.87,633,780,0
7453427,703.01,633,780,0
7453437,721.31,633,781,0
7453447,734.12,633,780,0
7453457,743.08,633,780,0
7453467,749.36,633,780,0
7453477,753.75,633,781,0
7453487,756.82,633,780,0
7453497,758.98,633,781,0
7453507,760.48,633,780,0
7453517,761.54,633,781,0
7453527,762.28,633,780,0
7453537,762.79,633,780,0
7453547,763.16,633,780,0
7453557,761.57,633,781,0
7453568,754.02,633,780,0
7453577,738.42,633,780,0
7453587,713.31,633,780,0
7453597,678.46,633,781,0
7453607,634.43,633,780,0
7453617,582.36,633,780,0
7453627,525.55,633,780,0
7453637,469.46,633,780,0
7453647,417.72,633,780,0
7453657,373.15,633,780,0
7453667,337.15,633,780,0
7453677,310.15,633,781,0
7453687,291.67,633,780,0
7453697,280.71,633,780,0
7453707,276.09,633,780,0
7453717,276.27,633,781,0
7453727,279.71,633,780,0
7453737,285.07,633,781,0
7453747,291.00,633,780,0
7453757,296.53,633,781,0
7453767,300.91,633,780,0
7453777,303.68,633,781,0
7453787,304.59,633,780,0
7453797,303.69,633,781,0
7453807,301.08,633,780,0
7453817,297.11,633,781,0
7453827,292.15,633,780,0
7453837,286.53,633,781,0
7453847,280.50,633,780,0
7453857,274.44,633,781,0
7453868,268.43,633,780,0
7453878,262.82,633,781,0
7453888,257.60,633,780,0
7453898,253.18,633,781,0
7453908,249.31,633,780,0
7453918,246.30,633,781,0
7453928,243.90,633,780,0
7453938,242.60,633,781,0
7453948,241.91,633,779,0
7453958,242.15,633,781,0
7453968,242.70,633,780,0
7453978,244.12,633,781,0
7453988,246.66,633,779,0
7453998,251.77,633,781,0
7454008,261.14,633,780,0
7454018,277.81,633,781,0
7454028,304.44,633,779,0
7454039,344.04,633,781,0
7454058,393.35,673,780,0
7454061,448.79,673,782,0
7454070,506.80,673,780,0
7454081,563.77,673,781,0
7454091,615.83,673,779,0
7454101,659.29,673,782,0
7454111,690.79,673,779,0
7454121,712.84,673,781,0
7454131,728.23,673,779,0
7454141,739.05,673,781,0
7454151,746.62,673,779,0
7454161,751.92,673,781,0
7454171,755.59,673,779,0
7454181,758.15,673,781,0
7454191,759.95,673,779,0
7454201,761.21,673,782,0
7454211,762.05,673,779,0
7454221,762.63,673,781,0
7454231,763.04,673,779,0
7454241,760.59,673,781,0
7454252,750.98,673,779,0
7454262,732.22,673,781,0
7454272,702.71,673,779,0
7454282,662.90,673,781,0
7454292,613.04,673,779,0
7454302,554.87,673,781,0
7454312,492.08,673,779,0
7454322,431.07,673,782,0
7454332,375.16,673,779,0
7454342,327.97,673,781,0
7454352,290.05,673,779,0
7454362,262.82,673,781,0
7454372,245.09,673,779,0
7454382,236.71,673,781,0
7454392,235.51,673,779,0
7454402,240.54,673,781,0
7454412,249.25,673,779,0
7454423,260.62,673,781,0
7454433,272.13,673,779,0
7454443,283.06,673,781,0
7454453,291.87,673,780,0
7454464,298.60,673,781,0
7454473,302.32,673,779,0
7454483,303.64,673,781,0
7454493,302.12,673,780,0
7454503,298.78,673,781,0
7454513,293.32,673,779,0
7454523,286.88,673,781,0
7454533,279.24,673,779,0
7454543,271.63,673,781,0
7454553,263.64,673,779,0
7454563,256.25,673,781,0
7454573,249.06,673,780,0
7454583,242.96,673,781,0
7454593,237.44,673,779,0
7454603,233.19,673,781,0
7454613,229.36,673,780,0
7454623,226.64,673,781,0
7454633,224.39,673,780,0
7454643,223.12,673,781,0
7454653,222.18,673,780,0
7454663,222.13,673,781,0
7454673,222.13,673,780,0
7454683,222.91,673,781,0
7454693,223.62,673,779,0
7454703,224.63,673,781,0
7454713,225.34,673,780,0
7454723,226.53,673,781,0
7454733,227.31,673,780,0
7454743,228.42,673,781,0
7454753,229.41,673,780,0
7454764,231.64,673,781,0
7454774,236.16,673,780,0
7454784,245.93,673,780,0
7454794,263.52,673,780,0
7454804,293.15,673,781,0
7454814,336.48,673,780,0
7454824,389.31,673,781,0
7454834,447.80,673,780,0
7454854,508.63,795,779,0
7454857,567.71,795,781,0
7454866,620.94,795,780,0
7454876,663.82,795,781,0
7454886,693.87,795,780,0
7454896,714.91,795,781,0
7454906,729.64,795,780,0
7454916,739.95,795,781,0
7454926,747.16,795,780,0
7454936,752.21,795,781,0
7454946,755.75,795,780,0
7454956,758.22,795,781,0
7454966,759.96,795,780,0
7454977,761.17,795,781,0
7454987,762.02,795,780,0
7454997,762.61,795,781,0
7455007,763.03,795,780,0
7455017,763.32,795,781,0
7455027,763.52,795,780,0
7455037,763.67,795,781,0
7455047,760.60,795,779,0
7455057,750.56,795,781,0
7455067,731.58,795,780,0
7455077,702.65,795,781,0
7455087,663.62,795,779,0
7455097,615.39,795,781,0
7455107,559.13,795,780,0
7455117,499.48,795,781,0
7455127,441.52,795,779,0
7455137,388.99,795,781,0
7455148,344.00,795,779,0
7455158,308.17,795,781,0
7455168,281.12,795,779,0
7455178,262.70,795,781,0
7455188,251.43,795,779,0
7455198,246.50,795,781,0
7455208,245.92,795,779,0
7455218,248.73,795,781,0
7455228,252.80,795,779,0
7455238,257.79,795,781,0
7455248,262.18,795,779,0
7455258,266.03,795,781,0
7455268,268.33,795,779,0
7455278,269.48,795,781,0
7455288,268.90,795,778,0
7455298,267.39,795,781,0
7455308,264.57,795,779,0
7455319,261.27,795,781,0
7455329,257.03,795,779,0
7455339,252.82,795,781,0
7455349,248.08,795,779,0
7455360,243.77,795,781,0
7455369,239.55,795,779,0
7455379,236.09,795,781,0
7455389,232.63,795,779,0
7455399,230.13,795,781,0
7455409,227.73,795,779,0
7455419,226.36,795,781,0
7455429,225.01,795,779,0
7455439,224.45,795,781,0
7455449,223.76,795,779,0
7455459,223.79,795,781,0
7455469,223.81,795,779,0
7455479,224.85,795,781,0
7455489,226.87,795,779,0
7455499,232.31,795,781,0
7455509,242.80,795,779,0
7455519,261.89,795,781,0
7455529,291.67,795,779,0
7455539,334.49,795,782,0
7455558,386.85,705,780,0
7455561,445.22,705,782,0
7455570,505.41,705,779,0
7455580,563.79,705,782,0
7455590,616.22,705,779,0
7455600,659.44,705,781,0
7455610,690.72,705,779,0
7455620,712.62,705,782,0
7455630,727.95,705,779,0
7455640,738.72,705,781,0
7455650,746.26,705,779,0
7455660,751.54,705,782,0
7455670,755.24,705,779,0
7455680,757.86,705,781,0
7455690,759.71,705,779,0
7455700,760.99,705,782,0
7455710,761.90,705,779,0
7455720,761.76,705,781,0
7455730,756.04,705,779,0
7455740,742.19,705,781,0
7455750,718.60,705,779,0
7455760,685.08,705,781,0
7455770,641.21,705,779,0
7455780,588.35,705,781,0
7455790,528.07,705,779,0
7455800,466.94,705,781,0
7455810,408.63,705,779,0
7455820,356.92,705,781,0
7455831,313.06,705,779,0
7455841,279.31,705,781,0
7455851,254.92,705,779,0
7455861,240.20,705,781,0
7455872,233.28,705,780,0
7455881,233.80,705,781,0
7455891,239.09,705,779,0
7455901,248.36,705,781,0
7455911,259.01,705,779,0
7455921,270.45,705,781,0
7455931,280.64,705,779,0
7455941,289.49,705,781,0
7455951,295.56,705,780,0
7455961,299.38,705,781,0
7455971,300.08,705,779,0
7455981,298.60,705,781,0
7455991,294.43,705,780,0
7456001,288.90,705,781,0
7456011,281.56,705,779,0
7456021,273.64,705,781,0
7456031,264.74,705,780,0
7456041,256.16,705,781,0
7456051,247.46,705,779,0
7456061,239.69,705,781,0
7456071,232.24,705,780,0
7456081,226.17,705,781,0
7456091,220.68,705,779,0
7456101,216.66,705,781,0
7456111,213.25,705,780,0
7456121,211.29,705,781,0
7456131,210.26,705,779,0
7456141,211.55,705,781,0
7456151,215.54,705,780,0
7456161,225.07,705,781,0
7456172,241.76,705,780,0
7456182,268.83,705,781,0
7456192,307.58,705,780,0
7456202,358.11,705,781,0
7456212,415.59,705,780,0
7456231,476.48,673,778,0
7456234,536.55,673,781,0
7456243,592.36,673,781,0
7456253,640.08,673,780,0
7456263,677.17,673,781,0
7456273,703.13,673,780,0
7456283,721.31,673,781,0
7456293,734.07,673,780,0
7456303,743.01,673,781,0
7456313,749.26,673,780,0
7456323,753.64,673,781,0
7456333,756.75,673,780,0
7456343,758.92,673,781,0
7456353,759.16,673,780,0
7456363,753.93,673,781,0
7456373,740.49,673,780,0
7456384,717.37,673,780,0
7456393,684.22,673,780,0
7456403,641.17,673,780,0
7456413,588.66,673,780,0
7456423,529.10,673,780,0
7456433,467.57,673,780,0
7456443,408.69,673,781,0
7456453,355.38,673,780,0
7456463,310.01,673,780,0
7456473,273.66,673,780,0
7456483,247.66,673,781,0
7456493,231.69,673,780,0
7456503,225.49,673,780,0
7456513,227.35,673,780,0
7456523,236.33,673,781,0
7456533,250.25,673,780,0
7456543,267.87,673,780,0
7456553,286.64,673,780,0
7456563,305.39,673,780,0
7456573,322.29,673,780,0
7456583,336.77,673,780,0
7456593,347.68,673,780,0
7456603,355.11,673,780,0
7456613,358.38,673,780,0
7456623,358.18,673,780,0
7456633,354.27,673,780,0
7456643,347.67,673,781,0
7456653,338.38,673,780,0
7456663,327.56,673,780,0
7456673,315.17,673,780,0
7456684,302.31,673,780,0
7456694,289.19,673,780,0
7456704,276.96,673,780,0
7456714,265.83,673,780,0
7456724,257.27,673,780,0
7456734,251.83,673,780,0
7456744,252.01,673,780,0
7456754,259.93,673,781,0
7456764,278.51,673,779,0
7456774,309.34,673,781,0
7456784,353.81,673,779,0
7456794,407.05,673,781,0
7456804,465.45,673,779,0
7456814,524.76,673,781,0
7456824,581.15,673,779,0
7456834,630.69,673,780,0
7456844,670.60,673,779,0
7456855,698.57,673,781,0
7456874,718.20,643,780,0
7456877,731.98,643,782,0
7456886,741.63,643,778,0
7456897,748.39,643,782,0
7456907,753.11,643,779,0
7456917,756.42,643,781,0
7456927,758.74,643,779,0
7456937,760.36,643,781,0
7456947,761.45,643,778,0
7456957,759.09,643,781,0
7456967,749.42,643,778,0
7456977,730.44,643,782,0
7456987,701.21,643,779,0
7456997,661.76,643,781,0
7457007,612.33,643,779,0
7457017,554.37,643,781,0
7457027,492.25,643,779,0
7457037,431.74,643,781,0
7457047,376.28,643,779,0
7457057,328.71,643,782,0
7457068,290.14,643,779,0
7457078,261.90,643,781,0
7457088,243.11,643,779,0
7457098,233.57,643,781,0
7457108,231.42,643,779,0
7457118,235.75,643,781,0
7457128,244.23,643,779,0
7457138,255.99,643,781,0
7457148,268.68,643,778,0
7457158,281.76,643,781,0
7457168,293.32,643,778,0
7457178,303.29,643,782,0
7457188,310.49,643,778,0
7457198,315.49,643,781,0
7457208,317.27,643,779,0
7457218,316.76,643,781,0
7457228,313.45,643,779,0
7457239,308.56,643,782,0
7457249,301.75,643,778,0
7457259,294.24,643,782,0
7457269,285.64,643,779,0
7457280,277.30,643,781,0
7457289,269.24,643,778,0
7457299,262.87,643,781,0
7457309,258.84,643,779,0
7457319,260.17,643,782,0
7457329,268.82,643,779,0
7457339,288.80,643,782,0
7457349,322.33,643,779,0
7457359,368.39,643,782,0
7457369,422.49,643,778,0
7457379,481.18,643,782,0
7457389,540.10,643,779,0
7457399,595.66,643,783,0
7457418,643.24,544,781,0
7457421,679.51,544,781,0
7457430,704.90,544,780,0
7457440,722.67,544,782,0
7457451,735.12,544,780,0
7457460,743.82,544,782,0
7457470,749.92,544,779,0
7457480,754.19,544,783,0
7457490,757.13,544,781,0
7457500,759.19,544,784,0
7457510,760.63,544,781,0
7457520,761.64,544,783,0
7457530,762.35,544,781,0
7457540,762.85,544,782,0
7457550,763.19,544,779,0
7457560,760.91,544,783,0
7457570,751.72,544,780,0
7457580,734.06,544,782,0
7457590,706.19,544,780,0
7457600,668.33,544,781,0
7457610,620.45,544,780,0
7457620,564.00,544,781,0
7457630,502.50,544,780,0
7457640,442.22,544,782,0
7457650,385.88,544,779,0
7457660,337.15,544,782,0
7457670,296.73,544,780,0
7457680,266.04,544,783,0
7457690,244.30,544,780,0
7457700,231.31,544,783,0
7457710,225.22,544,781,0
7457720,225.37,544,782,0
7457730,229.41,544,780,0
7457740,236.70,544,781,0
7457751,245.19,544,780,0
7457761,254.05,544,782,0
7457771,261.75,544,780,0
7457781,267.95,544,783,0
7457792,271.70,544,781,0
7457801,273.54,544,781,0
7457811,272.57,544,780,0
7457821,269.65,544,781,0
7457831,264.57,544,780,0
7457841,258.44,544,781,0
7457851,251.15,544,779,0
7457861,243.44,544,781,0
7457871,234.95,544,780,0
7457881,226.86,544,781,0
7457891,218.93,544,780,0
7457901,212.48,544,781,0
7457911,208.22,544,781,0
7457921,208.84,544,781,0
7457931,217.07,544,780,0
7457941,236.72,544,781,0
7457951,270.02,544,780,0
7457961,318.23,544,780,0
7457971,376.19,544,780,0
7457981,439.86,544,781,0
7457991,504.83,544,780,0
7458001,566.68,544,781,0
7458020,620.82,602,780,0
7458023,663.77,602,780,0
7458032,693.84,602,781,0
7458042,714.89,602,781,0
7458052,729.62,602,780,0
7458062,739.94,602,781,0
7458072,747.16,602,780,0
7458082,752.21,602,780,0
7458092,755.75,602,780,0
7458102,758.22,602,780,0
7458112,759.96,602,781,0
7458122,761.17,602,781,0
7458132,762.02,602,781,0
7458142,760.38,602,781,0
7458152,752.25,602,780,0
7458162,735.25,602,780,0
7458172,707.96,602,780,0
7458182,670.60,602,780,0
7458192,623.23,602,780,0
7458202,566.94,602,780,0
7458212,505.07,602,781,0
7458222,443.51,602,780,0
7458232,385.88,602,780,0
7458242,335.47,602,780,0
7458252,293.29,602,781,0
7458263,260.67,602,780,0
7458273,237.29,602,781,0
7458283,222.76,602,780,0
7458293,215.67,602,781,0
7458304,215.00,602,780,0
7458313,218.73,602,781,0
7458323,225.62,602,780,0
7458333,233.92,602,781,0
7458343,242.56,602,780,0
7458353,250.32,602,781,0
7458363,256.57,602,780,0
7458373,260.85,602,781,0
7458383,263.04,602,780,0
7458393,262.99,602,781,0
7458403,260.98,602,780,0
7458413,257.21,602,781,0
7458423,252.13,602,779,0
7458433,246.05,602,781,0
7458443,239.56,602,780,0
7458453,232.84,602,780,0
7458463,226.46,602,780,0
7458473,220.49,602,781,0
7458483,215.37,602,780,0
7458493,211.28,602,780,0
7458503,208.58,602,780,0
7458513,207.55,602,781,0
7458523,209.44,602,780,0
7458533,215.52,602,781,0
7458543,228.22,602,780,0
7458553,249.84,602,781,0
7458563,282.29,602,780,0
7458573,327.12,602,781,0
7458583,381.51,602,780,0
7458593,441.23,602,781,0
7458613,502.40,593,780,0
7458616,561.12,593,781,0
7458625,613.67,593,779,0
7458635,657.23,593,782,0
7458646,689.30,593,780,0
7458655,711.75,593,781,0
7458665,727.47,593,779,0
7458675,738.47,593,782,0
7458685,746.13,593,780,0
7458695,751.49,593,781,0
7458705,755.20,593,779,0
7458715,757.80,593,781,0
7458725,759.62,593,780,0
7458735,760.20,593,781,0
7458745,755.68,593,780,0
7458755,743.74,593,781,0
7458765,722.60,593,779,0
7458775,692.21,593,781,0
7458785,652.37,593,779,0
7458795,604.05,593,781,0
7458805,548.58,593,779,0
7458816,491.75,593,781,0
7458825,437.35,593,780,0
7458835,388.99,593,781,0
7458845,347.72,593,780,0
7458855,315.28,593,781,0
7458865,291.28,593,779,0
7458875,276.11,593,781,0
7458885,268.36,593,780,0
7458895,267.23,593,781,0
7458905,270.80,593,778,0
7458915,278.19,593,783,0
7458925,287.22,593,781,0
7458935,297.48,593,783,0
7458945,307.37,593,779,0
7458955,316.47,593,783,0
7458965,323.49,593,781,0
7458975,328.70,593,784,0
7458985,331.32,593,781,0
7458995,332.08,593,784,0
7459005,330.30,593,782,0
7459015,326.78,593,784,0
7459025,321.06,593,781,0
7459035,314.31,593,784,0
7459045,306.08,593,782,0
7459055,297.53,593,784,0
7459065,288.28,593,781,0
7459075,279.41,593,784,0
7459085,270.63,593,782,0
7459095,262.90,593,784,0
7459105,255.81,593,780,0
7459116,250.26,593,784,0
7459126,246.02,593,780,0
7459136,244.56,593,781,0
7459146,246.11,593,779,0
7459156,252.63,593,781,0
7459166,264.70,593,779,0
7459176,284.37,593,781,0
7459186,312.25,593,779,0
7459196,349.72,593,781,0
7459206,395.14,593,779,0
7459216,446.87,593,781,0
7459226,500.48,593,779,0
7459246,553.22,632,778,0
7459249,601.80,632,780,0
7459258,644.20,632,781,0
7459268,678.26,632,780,0
7459278,703.98,632,781,0
7459288,721.17,632,780,0
7459298,730.16,632,781,0
7459308,730.20,632,779,0
7459318,721.44,632,780,0
7459329,703.31,632,779,0
7459339,676.69,632,781,0
7459349,641.55,632,780,0
7459359,599.73,632,780,0
7459369,553.52,632,780,0
7459379,506.78,632,781,0
7459389,460.90,632,780,0
7459399,418.59,632,781,0
7459409,380.14,632,780,0
7459419,347.44,632,781,0
7459429,320.10,632,779,0
7459439,298.98,632,781,0
7459449,283.26,632,780,0
7459459,273.37,632,782,0
7459469,268.24,632,780,0
7459479,267.87,632,781,0
7459489,270.57,632,780,0
7459500,276.35,632,781,0
7459510,283.83,632,780,0
7459520,292.54,632,780,0
7459530,301.12,632,780,0
7459540,309.44,632,780,0
7459550,316.42,632,780,0
7459560,322.25,632,780,0
7459570,325.99,632,780,0
7459580,328.18,632,780,0
7459590,328.25,632,780,0
7459600,327.11,632,780,0
7459610,324.20,632,780,0
7459620,320.37,632,780,0
7459630,315.33,632,780,0
7459640,309.96,632,780,0
7459650,303.93,632,780,0
7459660,298.12,632,780,0
7459671,292.04,632,780,0
7459681,286.54,632,780,0
7459691,281.24,632,780,0
7459701,276.71,632,780,0
7459712,272.64,632,780,0
7459721,269.36,632,780,0
7459731,266.51,632,780,0
7459741,264.60,632,780,0
7459751,263.31,632,780,0
7459761,263.26,632,780,0
7459771,264.81,632,780,0
7459781,269.19,632,780,0
7459791,277.11,632,780,0
7459801,289.63,632,780,0
7459811,307.19,632,780,0
7459821,330.66,632,780,0
7459831,359.73,632,780,0
7459841,393.84,632,780,0
7459851,431.17,632,780,0
7459870,470.17,625,779,0
7459873,508.56,625,781,0
7459883,544.39,625,779,0
7459892,575.13,625,780,0
7459902,599.22,625,780,0
7459912,615.40,625,780,0
7459922,622.99,625,779,0
7459932,622.18,625,780,0
7459942,613.51,625,779,0
7459952,598.02,625,780,0
7459962,577.14,625,779,0
7459972,552.45,625,780,0
7459982,525.28,625,779,0
7459992,497.04,625,780,0
7460002,468.74,625,779,0
7460012,441.52,625,780,0
7460022,416.16,625,780,0
7460032,393.14,625,780,0
7460042,372.91,625,779,0
7460052,355.93,625,780,0
7460062,342.40,625,780,0
7460072,332.34,625,780,0
7460082,325.64,625,779,0
7460092,322.06,625,780,0
7460102,321.49,625,779,0
7460112,323.23,625,780,0
7460122,326.76,625,779,0
7460132,331.76,625,780,0
7460142,337.62,625,779,0
7460152,343.82,625,780,0
7460162,349.74,625,779,0
7460172,355.09,625,780,0
7460183,359.48,625,779,0
7460193,362.94,625,780,0
7460203,365.01,625,779,0
7460213,365.87,625,780,0
7460224,365.31,625,778,0
7460233,363.71,625,781,0
7460243,360.89,625,779,0
7460253,357.23,625,780,0
7460263,352.49,625,779,0
7460273,347.24,625,780,0
7460283,341.47,625,779,0
7460293,335.63,625,780,0
7460303,329.48,625,779,0
7460313,323.60,625,780,0
7460323,317.85,625,779,0
7460333,312.75,625,780,0
7460343,307.98,625,779,0
7460353,304.00,625,780,0
7460363,300.62,625,779,0
7460373,298.42,625,780,0
7460383,297.39,625,779,0
7460393,298.60,625,780,0
7460403,302.19,625,779,0
7460413,309.29,625,780,0
7460423,320.26,625,779,0
7460433,336.04,625,780,0
7460443,356.39,625,779,0
7460453,381.43,625,780,0
7460463,409.97,625,779,0
7460473,441.39,625,780,0
7460492,473.85,622,779,0
7460495,505.82,622,781,0
7460504,535.57,622,779,0
7460514,561.80,622,781,0
7460524,582.90,622,778,0
7460534,598.32,622,781,0
7460544,606.97,622,779,0
7460554,609.42,622,780,0
7460564,605.48,622,778,0
7460574,596.16,622,780,0
7460584,581.93,622,779,0
7460594,564.34,622,780,0
7460604,543.88,622,777,0
7460614,522.36,622,783,0
7460624,499.79,622,780,0
7460634,477.78,622,783,0
7460644,456.16,622,781,0
7460654,436.44,622,782,0
7460664,418.57,622,778,0
7460674,403.40,622,781,0
7460684,390.46,622,777,0
7460695,380.77,622,781,0
7460705,373.51,622,778,0
7460715,369.20,622,781,0
7460725,366.82,622,777,0
7460736,366.45,622,781,0
7460745,367.21,622,778,0
7460755,369.34,622,782,0
7460765,371.72,622,777,0
7460775,374.72,622,783,0
7460785,377.29,622,779,0
7460795,379.95,622,781,0
7460805,381.80,622,777,0
7460815,383.28,622,781,0
7460825,383.58,622,776,0
7460835,383.36,622,781,0
7460845,382.01,622,778,0
7460855,380.38,622,780,0
7460865,377.69,622,778,0
7460875,374.70,622,781,0
7460885,370.89,622,777,0
7460895,367.11,622,780,0
7460905,362.70,622,778,0
7460915,358.51,622,782,0
7460925,353.90,622,778,0
7460935,349.64,622,781,0
7460945,345.16,622,777,0
7460955,341.30,622,781,0
7460965,337.40,622,777,0
7460975,334.36,622,781,0
7460985,331.43,622,777,0
7460995,329.67,622,780,0
7461005,328.87,622,777,0
7461015,330.45,622,782,0
7461025,334.34,622,778,0
7461036,342.26,622,781,0
7461046,353.92,622,777,0
7461056,370.75,622,781,0
7461066,391.82,622,777,0
7461076,417.50,622,780,0
7461095,445.94,603,779,0
7461098,476.64,603,780,0
7461107,507.31,603,777,0
7461117,536.91,603,780,0
7461127,562.87,603,778,0
7461137,584.68,603,780,0
7461147,600.50,603,777,0
7461157,610.60,603,780,0
7461167,614.10,603,778,0
7461177,611.71,603,781,0
7461187,603.44,603,779,0
7461197,591.14,603,782,0
7461207,575.11,603,778,0
7461217,556.95,603,780,0
7461227,536.91,603,778,0
7461237,516.49,603,780,0
7461248,495.73,603,779,0
7461257,476.14,603,780,0
7461267,457.24,603,778,0
7461277,440.20,603,780,0
7461287,424.58,603,779,0
7461297,411.59,603,780,0
7461307,400.53,603,778,0
7461317,392.27,603,780,0
7461327,385.93,603,778,0
7461337,382.22,603,780,0
7461347,380.01,603,779,0
7461357,380.01,603,781,0
7461367,380.95,603,778,0
7461377,383.19,603,781,0
7461387,385.66,603,778,0
7461397,388.64,603,781,0
7461407,391.15,603,778,0
7461417,393.63,603,780,0
7461427,395.03,603,778,0
7461437,396.00,603,780,0
7461447,395.79,603,779,0
7461457,395.08,603,780,0
7461467,393.26,603,778,0
7461477,391.04,603,780,0
7461487,387.85,603,779,0
7461497,384.60,603,780,0
7461507,380.65,603,779,0
7461517,376.94,603,780,0
7461527,372.80,603,779,0
7461537,369.05,603,780,0
7461548,365.13,603,779,0
7461558,361.84,603,780,0
7461568,358.50,603,779,0
7461578,355.73,603,779,0
7461588,352.94,603,779,0
7461598,350.90,603,779,0
7461608,349.09,603,779,0
7461618,348.42,603,780,0
7461628,348.68,603,779,0
7461638,351.09,603,779,0
7461648,355.78,603,779,0
7461658,364.16,603,780,0
7461668,376.24,603,779,0
7461678,393.05,603,779,0
7461688,414.04,603,779,0
7461698,439.44,603,780,0
7461718,468.07,622,778,0
7461721,498.90,622,779,0
7461730,530.05,622,779,0
7461740,560.16,622,779,0
7461750,587.07,622,779,0
7461761,609.72,622,778,0
7461771,626.60,622,780,0
7461781,637.14,622,779,0
7461791,641.17,622,781,0
7461801,638.80,622,778,0
7461811,630.76,622,780,0
7461821,618.10,622,779,0
7461831,601.70,622,779,0
7461841,582.55,622,778,0
7461851,561.90,622,779,0
7461861,540.54,622,778,0
7461871,519.38,622,779,0
7461881,498.78,622,778,0
7461891,479.56,622,779,0
7461901,462.04,622,779,0
7461911,446.72,622,779,0
7461921,433.44,622,778,0
7461932,422.59,622,780,0
7461942,414.10,622,778,0
7461952,408.33,622,780,0
7461962,404.50,622,778,0
7461972,402.89,622,780,0
7461982,402.88,622,778,0
7461992,404.55,622,780,0
7462002,407.08,622,778,0
7462012,410.49,622,780,0
7462022,413.77,622,778,0
7462032,417.10,622,780,0
7462042,419.51,622,778,0
7462052,421.37,622,780,0
7462062,422.03,622,778,0
7462072,421.76,622,780,0
7462082,419.99,622,778,0
7462092,417.42,622,781,0
7462103,413.65,622,778,0
7462113,409.56,622,780,0
7462123,404.68,622,778,0
7462133,399.67,622,780,0
7462144,394.24,622,778,0
7462153,389.28,622,780,0
7462163,384.36,622,778,0
7462173,380.26,622,780,0
7462183,376.20,622,778,0
7462193,372.88,622,780,0
7462203,369.70,622,778,0
7462213,367.35,622,780,0
7462223,365.02,622,778,0
7462233,363.25,622,780,0
7462243,361.59,622,778,0
7462253,361.03,622,780,0
7462263,361.41,622,778,0
7462273,364.03,622,780,0
7462283,369.20,622,778,0
7462293,378.61,622,780,0
7462303,392.62,622,778,0
7462313,412.62,622,780,0
7462323,438.10,622,778,0
7462333,469.44,622,780,0
7462343,505.22,622,778,0
7462363,544.24,645,777,0
7462366,583.34,645,779,0
7462375,620.65,645,780,0
7462385,653.97,645,778,0
7462395,682.65,645,780,0
7462405,705.60,645,778,0
7462415,722.95,645,780,0
7462425,733.21,645,778,0
7462435,737.43,645,780,0
7462445,735.54,645,778,0
7462455,728.10,645,780,0
7462465,714.65,645,778,0
7462475,695.99,645,779,0
7462486,671.86,645,778,0
7462495,644.99,645,779,0
7462505,615.85,645,778,0
7462515,586.54,645,780,0
7462525,557.40,645,778,0
7462535,530.41,645,779,0
7462545,505.35,645,778,0
7462555,483.86,645,779,0
7462565,465.30,645,778,0
7462575,450.85,645,779,0
7462585,439.58,645,777,0
7462595,432.38,645,779,0
7462605,428.02,645,777,0
7462615,426.94,645,779,0
7462625,427.65,645,777,0
7462635,430.54,645,779,0
7462645,434.06,645,777,0
7462656,438.59,645,779,0
7462665,442.40,645,777,0
7462675,445.96,645,779,0
7462685,448.03,645,777,0
7462695,449.09,645,779,0
7462705,448.17,645,777,0
7462715,446.14,645,779,0
7462725,442.12,645,777,0
7462735,437.20,645,779,0
7462745,430.75,645,777,0
7462755,423.93,645,779,0
7462765,416.11,645,777,0
7462775,408.44,645,779,0
7462785,400.25,645,777,0
7462795,392.76,645,779,0
7462805,385.25,645,777,0
7462815,378.70,645,779,0
7462825,372.36,645,777,0
7462835,367.28,645,779,0
7462845,362.70,645,777,0
7462855,359.15,645,779,0
7462865,355.76,645,777,0
7462875,353.60,645,779,0
7462885,351.71,645,777,0
7462895,350.85,645,779,0
7462905,350.08,645,777,0
7462915,350.23,645,779,0
7462925,351.23,645,777,0
7462935,354.51,645,779,0
7462945,359.93,645,777,0
7462956,369.68,645,779,0
7462966,384.34,645,777,0
7462976,406.36,645,778,0
7462986,435.86,645,777,0
7462996,473.45,645,779,0
7463006,515.31,645,777,0
7463016,559.10,645,779,0
7463026,601.67,645,777,0
7463036,641.16,645,778,0
7463046,674.88,645,777,0
7463065,701.57,703,776,0
7463068,720.26,703,778,0
7463077,733.34,703,778,0
7463087,742.49,703,777,0
7463097,748.95,703,778,0
7463107,753.46,703,777,0
7463117,756.62,703,778,0
7463127,758.84,703,777,0
7463137,760.39,703,778,0
7463147,761.47,703,777,0
7463157,761.29,703,778,0
7463168,757.00,703,778,0
7463177,747.36,703,778,0
7463187,730.88,703,777,0
7463197,707.43,703,778,0
7463207,676.83,703,777,0
7463217,640.02,703,778,0
7463227,598.36,703,777,0
7463237,556.21,703,778,0
7463247,515.69,703,777,0
7463257,479.65,703,778,0
7463267,448.81,703,777,0
7463277,424.57,703,778,0
7463287,406.40,703,778,0
7463297,394.62,703,779,0
7463307,387.75,703,777,0
7463317,385.38,703,778,0
7463327,385.82,703,777,0
7463337,388.66,703,778,0
7463347,392.24,703,777,0
7463357,396.11,703,778,0
7463367,398.95,703,777,0
7463377,400.89,703,778,0
7463387,400.97,703,777,0
7463397,399.56,703,778,0
7463407,396.09,703,777,0
7463417,391.35,703,778,0
7463427,385.07,703,776,0
7463437,378.28,703,778,0
7463447,370.53,703,777,0
7463457,362.74,703,777,0
7463468,354.67,703,776,0
7463478,347.19,703,777,0
7463488,339.93,703,777,0
7463498,333.57,703,777,0
7463508,327.61,703,777,0
7463518,322.80,703,777,0
7463528,318.57,703,777,0
7463538,315.40,703,777,0
7463548,312.84,703,778,0
7463558,311.09,703,778,0
7463568,309.69,703,778,0
7463578,308.88,703,777,0
7463588,308.19,703,778,0
7463598,308.00,703,777,0
7463608,307.83,703,777,0
7463618,308.01,703,777,0
7463628,308.39,703,777,0
7463639,309.78,703,777,0
7463649,312.76,703,777,0
7463659,318.96,703,777,0
7463669,330.03,703,777,0
7463680,348.23,703,777,0
7463689,374.78,703,777,0
7463699,411.44,703,777,0
7463709,455.63,703,778,0
7463719,504.04,703,777,0
7463729,553.40,703,778,0
7463739,600.64,703,777,0
7463758,642.87,693,776,0
7463761,678.01,693,777,0
7463770,703.81,693,778,0
7463780,721.87,693,777,0
7463790,734.51,693,778,0
7463800,743.35,693,777,0
7463810,749.55,693,778,0
7463820,753.88,693,777,0
7463830,756.92,693,778,0
7463840,759.04,693,777,0
7463851,760.53,693,778,0
7463860,758.40,693,777,0
7463870,750.31,693,778,0
7463880,734.62,693,776,0
7463890,710.60,693,778,0
7463900,678.36,693,777,0
7463910,638.27,693,778,0
7463920,590.87,693,776,0
7463930,540.55,693,778,0
7463940,490.97,693,776,0
7463950,445.17,693,778,0
7463960,405.09,693,776,0
7463970,372.19,693,778,0
7463980,347.02,693,777,0
7463990,330.00,693,778,0
7464000,320.31,693,776,0
7464010,317.31,693,778,0
7464020,319.57,693,776,0
7464030,326.04,693,778,0
7464040,334.77,693,776,0
7464050,344.70,693,778,0
7464060,354.26,693,777,0
7464070,362.84,693,778,0
7464080,369.44,693,776,0
7464090,373.85,693,778,0
7464100,375.53,693,776,0
7464110,374.81,693,778,0
7464120,371.53,693,776,0
7464130,366.40,693,778,0
7464140,359.33,693,776,0
7464151,351.13,693,778,0
7464161,342.01,693,776,0
7464171,332.92,693,778,0
7464181,323.86,693,776,0
7464192,315.63,693,778,0
7464201,307.98,693,776,0
7464211,301.90,693,778,0
7464221,296.96,693,776,0
7464231,293.76,693,778,0
7464241,291.52,693,776,0
7464251,290.68,693,778,0
7464261,290.52,693,776,0
7464271,291.43,693,778,0
7464281,292.55,693,776,0
7464291,294.14,693,778,0
7464301,295.55,693,776,0
7464311,297.57,693,778,0
7464321,300.19,693,776,0
7464331,304.93,693,778,0
7464341,312.79,693,776,0
7464351,326.18,693,778,0
7464361,346.62,693,776,0
7464371,376.17,693,778,0
7464381,415.55,693,777,0
7464391,461.84,693,778,0
7464401,511.43,693,776,0
7464411,561.40,693,778,0
7464421,608.42,693,776,0
7464440,650.00,682,775,0
7464443,683.68,682,777,0
7464452,707.82,682,778,0
7464462,724.72,682,776,0
7464472,736.55,682,778,0
7464482,744.82,682,776,0
7464492,750.62,682,778,0
7464502,754.68,682,777,0
7464512,757.47,682,778,0
7464522,756.73,682,776,0
7464532,750.38,682,778,0
7464542,736.77,682,776,0
7464552,715.07,682,778,0
7464562,684.62,682,776,0
7464572,645.90,682,778,0
7464582,599.39,682,776,0
7464592,548.96,682,778,0
7464602,497.59,682,776,0
7464612,448.90,682,778,0
7464622,404.66,682,776,0
7464632,367.34,682,778,0
7464642,337.28,682,776,0
7464652,315.51,682,778,0
7464663,301.26,682,776,0
7464673,294.97,682,778,0
7464683,294.59,682,776,0
7464693,299.90,682,778,0
7464704,308.63,682,776,0
7464713,320.23,682,778,0
7464723,332.33,682,776,0
7464733,344.40,682,778,0
7464743,354.44,682,776,0
7464753,362.66,682,778,0
7464763,367.65,682,776,0
7464773,369.86,682,778,0
7464783,368.61,682,776,0
7464793,365.04,682,778,0
7464803,358.73,682,776,0
7464813,351.10,682,778,0
7464823,341.73,682,776,0
7464833,332.16,682,778,0
7464843,322.17,682,776,0
7464853,312.91,682,778,0
7464863,303.85,682,776,0
7464873,296.31,682,778,0
7464883,289.44,682,776,0
7464893,284.30,682,778,0
7464903,279.75,682,776,0
7464913,276.78,682,778,0
7464923,274.45,682,776,0
7464933,273.41,682,778,0
7464943,272.65,682,776,0
7464953,273.01,682,778,0
7464963,273.61,682,776,0
7464973,275.40,682,778,0
7464983,277.76,682,776,0
7464993,282.51,682,778,0
7465004,290.45,682,776,0
7465014,304.55,682,778,0
7465024,326.15,682,777,0
7465034,358.29,682,778,0
7465044,400.89,682,777,0
7465054,450.55,682,778,0
7465064,503.40,682,777,0
7465074,556.59,682,778,0
7465084,606.35,682,777,0
7465103,649.96,663,775,0
7465106,684.17,663,778,0
7465115,708.12,663,778,0
7465125,724.88,663,777,0
7465135,736.62,663,778,0
7465145,744.83,663,777,0
7465155,750.58,663,778,0
7465165,754.61,663,777,0
7465175,757.43,663,778,0
7465185,759.40,663,777,0
7465195,760.78,663,778,0
7465205,761.75,663,777,0
7465216,758.65,663,778,0
7465225,749.07,663,777,0
7465235,731.73,663,778,0
7465245,705.46,663,777,0
7465255,670.48,663,777,0
7465265,627.18,663,777,0
7465275,576.64,663,778,0
7465285,523.35,663,777,0
7465295,471.56,663,778,0
7465305,423.52,663,777,0
7465315,382.31,663,778,0
7465325,348.49,663,777,0
7465335,323.14,663,778,0
7465345,305.61,663,776,0
7465355,296.13,663,778,0
7465365,292.88,663,777,0
7465375,295.36,663,778,0
7465385,301.38,663,777,0
7465395,310.14,663,778,0
7465405,319.48,663,777,0
7465415,328.89,663,778,0
7465425,336.73,663,776,0
7465435,342.89,663,778,0
7465445,346.18,663,777,0
7465455,347.11,663,777,0
7465465,345.07,663,776,0
7465475,341.02,663,778,0
7465485,334.58,663,776,0
7465495,326.95,663,778,0
7465505,317.88,663,776,0
7465516,308.66,663,778,0
7465526,298.90,663,777,0
7465536,289.72,663,777,0
7465546,280.89,663,777,0
7465556,273.29,663,777,0
7465566,266.48,663,777,0
7465576,261.23,663,777,0
7465586,257.05,663,777,0
7465596,254.42,663,777,0
7465606,252.79,663,777,0
7465616,252.30,663,777,0
7465626,252.59,663,777,0
7465636,254.22,663,777,0
7465646,257.45,663,777,0
7465656,263.74,663,777,0
7465666,274.41,663,777,0
7465676,292.24,663,777,0
7465687,319.43,663,777,0
7465697,358.30,663,777,0
7465707,406.38,663,777,0
7465717,459.97,663,777,0
7465737,515.52,633,776,0
7465740,570.01,633,777,0
7465749,619.63,633,778,0
7465759,661.31,633,777,0
7465769,692.16,633,778,0
7465779,713.76,633,777,0
7465789,728.87,633,778,0
7465799,739.45,633,776,0
7465809,746.82,633,778,0
7465819,751.97,633,777,0
7465829,755.58,633,778,0
7465839,758.11,633,777,0
7465849,759.87,633,778,0
7465859,761.11,633,777,0
7465869,761.98,633,778,0
7465879,760.53,633,777,0
7465889,753.56,633,778,0
7465900,738.56,633,776,0
7465910,714.48,633,778,0
7465920,680.78,633,776,0
7465930,638.24,633,778,0
7465940,587.39,633,776,0
7465950,532.03,633,778,0
7465960,476.48,633,776,0
7465970,425.08,633,778,0
7465980,380.05,633,776,0
7465990,343.57,633,778,0
7466000,315.67,633,776,0
7466010,296.95,633,778,0
7466020,285.91,633,776,0
7466030,282.12,633,778,0
7466040,283.63,633,776,0
7466050,289.53,633,778,0
7466060,297.64,633,776,0
7466071,307.09,633,778,0
7466081,315.93,633,776,0
7466091,323.88,633,779,0
7466101,329.62,633,776,0
7466112,333.38,633,778,0
7466121,334.33,633,776,0
7466131,333.12,633,778,0
7466141,329.36,633,776,0
7466151,324.19,633,778,0
7466161,317.32,633,777,0
7466171,309.81,633,778,0
7466181,301.30,633,776,0
7466191,292.98,633,778,0
7466201,284.50,633,777,0
7466211,276.94,633,778,0
7466221,269.63,633,776,0
7466231,263.65,633,778,0
7466241,258.23,633,776,0
7466251,254.35,633,778,0
7466261,251.28,633,776,0
7466271,250.13,633,778,0
7466281,250.69,633,776,0
7466291,254.90,633,778,0
7466301,263.76,633,776,0
7466311,280.50,633,778,0
7466321,306.75,633,776,0
7466331,344.80,633,779,0
7466341,392.81,633,777,0
7466351,447.17,633,779,0
7466371,503.99,634,777,0
7466374,560.01,634,779,0
7466383,611.26,634,777,0
7466393,654.68,634,778,0
7466403,687.56,634,777,0
7466413,710.58,634,778,0
7466423,726.65,634,777,0
7466433,737.90,634,778,0
7466443,745.73,634,777,0
7466454,751.21,634,778,0
7466463,755.05,634,777,0
7466473,757.78,634,778,0
7466483,759.69,634,776,0
7466493,761.07,634,778,0
7466503,759.85,634,777,0
7466513,752.91,634,778,0
7466523,737.42,634,776,0
7466533,712.44,634,778,0
7466543,677.59,634,777,0
7466553,633.53,634,778,0
7466563,580.61,634,776,0
7466573,522.66,634,778,0
7466583,464.22,634,776,0
7466593,410.24,634,778,0
7466603,362.81,634,776,0
7466613,324.25,634,778,0
7466624,294.73,634,777,0
7466633,275.10,634,778,0
7466643,264.06,634,776,0
7466653,261.34,634,778,0
7466663,264.54,634,777,0
7466673,272.82,634,778,0
7466683,283.50,634,776,0
7466693,295.87,634,778,0
7466703,307.78,634,777,0
7466713,318.86,634,778,0
7466723,327.17,634,776,0
7466733,333.03,634,778,0
7466743,335.47,634,777,0
7466753,335.28,634,778,0
7466763,331.86,634,776,0
7466773,326.46,634,778,0
7466783,318.73,634,777,0
7466793,310.07,634,778,0
7466803,300.19,634,777,0
7466813,290.45,634,778,0
7466823,280.50,634,777,0
7466833,271.61,634,778,0
7466843,263.15,634,777,0
7466853,256.16,634,778,0
7466863,249.94,634,777,0
7466873,245.33,634,778,0
7466883,241.42,634,777,0
7466893,238.98,634,778,0
7466903,237.23,634,777,0
7466913,237.37,634,778,0
7466924,239.49,634,777,0
7466934,245.69,634,778,0
7466944,257.39,634,777,0
7466954,278.10,634,778,0
7466964,309.87,634,777,0
7466974,354.70,634,778,0
7466984,407.67,634,777,0
7466994,465.41,634,778,0
7467004,524.09,634,777,0
7467023,580.46,653,776,0
7467026,630.38,653,778,0
7467035,670.55,653,778,0
7467045,698.67,653,778,0
7467055,718.40,653,778,0
7467065,732.21,653,778,0
7467075,741.92,653,778,0
7467085,748.67,653,778,0
7467095,753.40,653,778,0
7467105,756.71,653,778,0
7467115,759.02,653,778,0
7467125,760.60,653,778,0
7467136,761.71,653,778,0
7467145,762.44,653,778,0
7467155,758.66,653,778,0
7467165,747.11,653,778,0
7467175,726.12,653,777,0
7467185,695.23,653,777,0
7467195,654.79,653,778,0
7467205,605.18,653,778,0
7467215,547.70,653,777,0
7467225,488.00,653,778,0
7467235,431.26,653,778,0
7467245,380.52,653,777,0
7467255,338.07,653,777,0
7467265,304.45,653,777,0
7467275,280.78,653,778,0
7467285,266.28,653,777,0
7467295,260.24,653,777,0
7467305,260.85,653,778,0
7467315,266.94,653,778,0
7467325,276.26,653,777,0
7467335,287.71,653,777,0
7467345,299.24,653,778,0
7467355,310.05,653,778,0
7467365,318.82,653,777,0
7467375,325.13,653,777,0
7467385,328.35,653,778,0
7467395,328.93,653,778,0
7467405,326.55,653,777,0
7467415,321.97,653,777,0
7467425,315.25,653,778,0
7467436,307.25,653,778,0
7467446,298.22,653,778,0
7467456,288.98,653,777,0
7467466,279.51,653,778,0
7467476,270.62,653,777,0
7467486,262.29,653,778,0
7467496,255.17,653,777,0
7467506,249.08,653,778,0
7467516,244.34,653,777,0
7467526,240.68,653,778,0
7467536,238.29,653,777,0
7467546,236.96,653,778,0
7467556,236.54,653,777,0
7467566,236.77,653,778,0
7467576,237.69,653,777,0
7467586,239.50,653,778,0
7467596,243.08,653,777,0
7467607,250.00,653,778,0
7467617,262.51,653,777,0
7467627,283.44,653,778,0
7467637,315.54,653,777,0
7467648,360.08,653,778,0
7467657,412.81,653,777,0
7467667,470.13,653,778,0
7467686,528.42,663,777,0
7467689,584.09,663,779,0
7467698,633.31,663,777,0
7467708,672.56,663,779,0
7467718,700.03,663,777,0
7467728,719.27,663,779,0
7467738,732.73,663,777,0
7467748,742.15,663,779,0
7467758,748.71,663,777,0
7467768,753.30,663,778,0
7467778,756.51,663,777,0
7467788,758.75,663,779,0
7467798,760.33,663,777,0
7467808,761.47,663,779,0
7467819,762.27,663,777,0
7467828,762.83,663,779,0
7467838,759.07,663,777,0
7467848,747.99,663,779,0
7467858,727.38,663,777,0
7467868,697.22,663,778,0
7467878,657.26,663,777,0
7467888,608.54,663,778,0
7467898,551.98,663,777,0
7467908,493.65,663,778,0
7467918,437.92,663,777,0
7467928,388.87,663,778,0
7467938,347.89,663,777,0
7467948,316.68,663,778,0
7467958,295.22,663,777,0
7467968,283.54,663,778,0
7467978,279.91,663,777,0
7467988,283.45,663,778,0
7467998,291.93,663,777,0
7468008,303.95,663,779,0
7468018,317.42,663,777,0
7468028,331.22,663,778,0
7468038,343.67,663,777,0
7468048,354.44,663,779,0
7468058,362.37,663,777,0
7468068,367.78,663,778,0
7468078,370.29,663,777,0
7468088,370.50,663,778,0
7468098,368.30,663,777,0
7468108,364.61,663,778,0
7468119,359.41,663,777,0
7468129,353.84,663,779,0
7468139,347.72,663,777,0
7468149,341.93,663,778,0
7468160,336.30,663,777,0
7468169,331.41,663,780,0
7468179,326.83,663,777,0
7468189,322.94,663,779,0
7468199,319.14,663,776,0
7468209,315.84,663,780,0
7468219,312.25,663,776,0
7468229,308.79,663,780,0
7468239,304.74,663,777,0
7468249,300.83,663,780,0
7468259,296.77,663,777,0
7468269,294.01,663,780,0
7468279,293.75,663,777,0
7468289,298.84,663,779,0
7468299,311.44,663,777,0
7468309,335.27,663,779,0
7468319,371.96,663,777,0
7468329,418.60,663,780,0
7468339,471.05,663,776,0
7468349,525.98,663,779,0
7468368,579.51,682,779,0
7468371,628.34,682,781,0
7468380,668.44,682,777,0
7468390,697.19,682,780,0
7468400,717.28,682,777,0
7468410,731.38,682,780,0
7468420,741.25,682,777,0
7468430,748.16,682,780,0
7468440,752.96,682,776,0
7468450,756.36,682,779,0
7468460,758.73,682,777,0
7468470,760.40,682,780,0
7468480,761.52,682,777,0
7468490,762.35,682,780,0
7468500,758.86,682,776,0
7468510,748.83,682,779,0
7468520,729.60,682,777,0
7468530,700.66,682,779,0
7468540,661.68,682,777,0
7468550,613.99,682,779,0
7468560,558.19,682,777,0
7468570,500.23,682,779,0
7468580,443.64,682,777,0
7468590,393.13,682,779,0
7468600,350.41,682,776,0
7468610,317.58,682,779,0
7468620,293.92,682,777,0
7468631,280.10,682,778,0
7468641,274.29,682,776,0
7468651,275.79,682,779,0
7468661,282.02,682,777,0
7468672,291.96,682,778,0
7468681,302.94,682,777,0
7468691,314.32,682,779,0
7468701,323.61,682,777,0
7468711,330.80,682,778,0
7468721,334.59,682,777,0
7468731,335.70,682,779,0
7468741,333.34,682,777,0
7468751,328.70,682,778,0
7468761,321.37,682,776,0
7468771,312.95,682,779,0
7468781,303.11,682,777,0
7468791,293.17,682,778,0
7468801,282.75,682,776,0
7468811,273.14,682,779,0
7468821,264.01,682,777,0
7468831,256.59,682,778,0
7468841,250.07,682,777,0
7468851,245.38,682,779,0
7468861,241.75,682,777,0
7468871,239.98,682,778,0
7468881,239.09,682,777,0
7468891,239.70,682,779,0
7468901,240.65,682,777,0
7468911,242.90,682,778,0
7468921,245.71,682,777,0
7468931,250.51,682,779,0
7468941,257.65,682,777,0
7468951,270.05,682,779,0
7468961,289.41,682,777,0
7468972,319.46,682,779,0
7468982,361.58,682,777,0
7468992,412.32,682,778,0
7469002,467.68,682,777,0
7469012,524.78,682,778,0
7469031,579.70,663,778,0
7469034,629.29,663,779,0
7469043,669.49,663,777,0
7469053,697.93,663,778,0
7469063,717.84,663,778,0
7469073,731.81,663,778,0
7469083,741.60,663,778,0
7469093,748.49,663,778,0
7469103,753.27,663,777,0
7469113,756.66,663,778,0
7469123,758.99,663,778,0
7469133,760.67,663,778,0
7469143,761.79,663,778,0
7469153,762.63,663,778,0
7469163,763.17,663,778,0
7469173,763.55,663,778,0
7469184,760.13,663,779,0
7469193,750.14,663,778,0
7469203,730.77,663,778,0
7469213,701.23,663,778,0
7469223,661.22,663,778,0
7469233,611.82,663,778,0
7469243,553.93,663,777,0
7469253,493.01,663,778,0
7469263,433.35,663,778,0
7469273,379.63,663,778,0
7469283,333.97,663,778,0
7469293,298.28,663,778,0
7469303,272.35,663,778,0
7469313,256.26,663,778,0
7469323,248.21,663,778,0
7469333,247.38,663,778,0
7469343,251.55,663,778,0
7469353,259.48,663,778,0
7469363,268.98,663,777,0
7469373,279.10,663,778,0
7469383,288.24,663,778,0
7469393,296.14,663,778,0
7469403,301.67,663,778,0
7469413,305.03,663,778,0
7469423,305.62,663,778,0
7469433,304.02,663,778,0
7469443,300.11,663,778,0
7469453,294.68,663,778,0
7469463,287.62,663,778,0
7469473,279.76,663,778,0
7469484,271.22,663,778,0
7469494,262.84,663,778,0
7469504,254.62,663,778,0
7469514,247.10,663,778,0
7469524,240.26,663,778,0
7469534,234.61,663,777,0
7469544,229.84,663,778,0
7469554,226.20,663,778,0
7469564,223.44,663,778,0
7469574,221.72,663,778,0
7469584,220.56,663,778,0
7469594,220.05,663,778,0
7469604,220.04,663,778,0
7469614,221.10,663,778,0
7469624,223.94,663,778,0
7469634,230.34,663,778,0
7469644,242.50,663,778,0
7469655,263.31,663,777,0
7469665,295.36,663,778,0
7469675,340.59,663,778,0
7469685,394.71,663,779,0
7469696,453.90,663,777,0
7469714,514.32,683,777,0
7469717,572.21,683,778,0
7469726,623.83,683,779,0
7469736,665.67,683,777,0
7469746,695.25,683,779,0
7469756,715.96,683,777,0
7469766,730.50,683,779,0
7469776,740.68,683,777,0
7469786,747.80,683,779,0
7469796,752.75,683,777,0
7469806,756.25,683,779,0
7469816,758.71,683,777,0
7469826,760.42,683,779,0
7469836,761.58,683,777,0
7469846,762.39,683,779,0
7469856,758.16,683,777,0
7469867,746.20,683,779,0
7469876,724.92,683,777,0
7469886,693.62,683,779,0
7469896,652.20,683,777,0
7469906,601.61,683,779,0
7469916,542.89,683,777,0
7469926,482.32,683,779,0
7469936,424.15,683,777,0
7469946,371.91,683,779,0
7469956,327.62,683,777,0
7469966,292.85,683,779,0
7469976,267.61,683,777,0
7469986,251.87,683,779,0
7469996,244.45,683,777,0
7470006,244.23,683,779,0
7470016,249.30,683,776,0
7470026,258.47,683,779,0
7470036,269.86,683,777,0
7470046,282.24,683,780,0
7470056,294.04,683,777,0
7470066,304.61,683,779,0
7470076,312.92,683,777,0
7470086,318.86,683,779,0
7470096,321.98,683,777,0
7470106,322.67,683,780,0
7470116,320.76,683,777,0
7470126,317.02,683,780,0
7470136,311.57,683,777,0
7470146,305.40,683,779,0
7470156,298.46,683,777,0
7470167,291.43,683,779,0
7470177,284.27,683,777,0
7470187,277.76,683,779,0
7470197,271.53,683,777,0
7470208,266.27,683,779,0
7470217,261.78,683,777,0
7470227,258.71,683,779,0
7470237,257.17,683,777,0
7470247,258.58,683,779,0
7470257,263.93,683,777,0
7470267,275.95,683,779,0
7470277,296.41,683,777,0
7470287,328.26,683,779,0
7470297,372.02,683,777,0
7470307,423.79,683,779,0
7470317,479.57,683,777,0
7470327,536.22,683,779,0
7470346,589.94,632,778,0
7470349,637.57,632,779,0
7470358,675.46,632,777,0
7470368,702.11,632,779,0
7470379,720.76,632,777,0
7470388,733.86,632,779,0
7470398,743.03,632,777,0
7470408,749.49,632,779,0
7470418,753.97,632,777,0
7470428,757.15,632,779,0
7470438,759.34,632,777,0
7470448,760.86,632,779,0
7470458,761.89,632,777,0
7470468,762.61,632,779,0
7470478,759.60,632,777,0
7470488,749.73,632,779,0
7470498,730.44,632,777,0
7470508,701.55,632,778,0
7470518,662.39,632,777,0
7470528,613.97,632,779,0
7470538,556.94,632,777,0
7470548,496.66,632,779,0
7470558,437.57,632,777,0
7470568,384.39,632,779,0
7470578,338.46,632,777,0
7470588,302.41,632,779,0
7470598,275.80,632,777,0
7470608,259.32,632,779,0
7470618,251.21,632,777,0
7470628,250.97,632,779,0
7470638,256.17,632,777,0
7470648,265.80,632,779,0
7470658,277.30,632,777,0
7470668,289.94,632,779,0
7470679,301.57,632,777,0
7470689,311.90,632,779,0
7470699,319.43,632,777,0
7470709,324.44,632,779,0
7470720,326.15,632,777,0
7470729,325.46,632,779,0
7470739,321.94,632,777,0
7470749,316.69,632,779,0
7470759,309.45,632,777,0
7470769,301.64,632,779,0
7470779,292.97,632,777,0
7470789,284.75,632,779,0
7470799,276.29,632,777,0
7470809,268.79,632,779,0
7470819,261.83,632,777,0
7470829,256.82,632,779,0
7470839,253.92,632,777,0
7470849,255.49,632,779,0
7470859,263.14,632,777,0
7470869,280.67,632,779,0
7470879,310.13,632,777,0
7470889,353.46,632,779,0
7470899,405.69,632,777,0
7470909,463.34,632,779,0
7470919,522.38,632,777,0
7470939,579.22,592,776,0
7470942,629.56,592,778,0
7470951,670.06,592,779,0
7470961,698.41,592,778,0
7470971,718.30,592,778,0
7470981,732.18,592,778,0
7470991,741.94,592,779,0
7471001,748.73,592,778,0
7471011,753.44,592,778,0
7471021,756.69,592,777,0
7471031,758.97,592,778,0
7471041,760.52,592,777,0
7471051,761.61,592,778,0
7471062,762.33,592,777,0
7471071,762.87,592,778,0
7471081,758.54,592,777,0
7471091,746.46,592,778,0
7471101,724.38,592,777,0
7471111,692.34,592,778,0
7471121,649.89,592,777,0
7471131,598.03,592,778,0
7471141,537.59,592,777,0
7471151,475.23,592,778,0
7471161,415.12,592,777,0
7471171,361.64,592,778,0
7471181,315.98,592,777,0
7471191,280.33,592,778,0
7471201,254.39,592,777,0
7471211,238.54,592,778,0
7471221,231.01,592,778,0
7471232,231.13,592,778,0
7471241,236.36,592,778,0
7471251,245.60,592,779,0
7471261,256.48,592,778,0
7471271,268.25,592,778,0
7471281,278.76,592,777,0
7471291,287.70,592,778,0
7471301,293.71,592,777,0
7471311,297.18,592,778,0
7471321,297.47,592,777,0
7471331,295.31,592,778,0
7471341,290.38,592,778,0
7471351,283.79,592,778,0
7471361,275.58,592,777,0
7471371,266.97,592,778,0
7471381,257.68,592,777,0
7471391,248.82,592,778,0
7471401,240.04,592,777,0
7471411,232.44,592,778,0
7471421,225.84,592,777,0
7471431,221.52,592,778,0
7471441,220.03,592,777,0
7471451,223.79,592,778,0
7471461,234.48,592,778,0
7471471,255.34,592,778,0
7471481,288.15,592,778,0
7471491,334.56,592,779,0
7471501,389.98,592,778,0
7471511,450.50,592,778,0
7471521,511.94,592,778,0
7471541,570.67,603,777,0
7471544,622.67,603,779,0
7471553,664.77,603,778,0
7471563,694.71,603,778,0
7471574,715.67,603,778,0
7471583,730.34,603,778,0
7471593,740.65,603,778,0
7471603,747.83,603,778,0
7471613,752.81,603,778,0
7471623,756.29,603,778,0
7471633,758.78,603,778,0
7471643,760.56,603,778,0
7471653,761.76,603,778,0
7471663,760.33,603,778,0
7471673,753.16,603,778,0
7471683,737.68,603,778,0
7471693,712.71,603,778,0
7471703,678.17,603,778,0
7471713,634.32,603,777,0
7471723,581.98,603,778,0
7471733,524.51,603,777,0
7471744,466.72,603,778,0
7471753,412.67,603,777,0
7471763,365.16,603,778,0
7471773,325.72,603,777,0
7471783,295.38,603,778,0
7471793,274.22,603,777,0
7471803,261.86,603,778,0
7471813,257.23,603,777,0
7471823,258.96,603,778,0
7471833,265.49,603,778,0
7471843,275.03,603,778,0
7471853,286.08,603,777,0
7471863,297.28,603,778,0
7471873,307.61,603,777,0
7471883,316.00,603,778,0
7471893,321.91,603,777,0
7471903,324.98,603,778,0
7471913,325.12,603,777,0
7471923,322.60,603,778,0
7471933,317.79,603,777,0
7471943,310.99,603,778,0
7471953,302.77,603,777,0
7471963,293.75,603,778,0
7471973,284.35,603,777,0
7471983,275.08,603,778,0
7471993,266.14,603,777,0
7472003,257.83,603,778,0
7472013,250.46,603,777,0
7472023,244.15,603,778,0
7472033,238.92,603,777,0
7472044,235.05,603,778,0
7472054,233.10,603,777,0
7472064,234.10,603,778,0
7472074,239.60,603,777,0
7472084,251.81,603,779,0
7472094,272.73,603,777,0
7472104,304.91,603,778,0
7472114,349.90,603,777,0
7472124,403.54,603,778,0
7472134,461.79,603,777,0
7472153,521.00,612,776,0
7472156,577.23,612,777,0
7472165,627.43,612,778,0
7472175,668.14,612,777,0
7472185,697.07,612,778,0
7472195,717.37,612,777,0
7472205,731.61,612,778,0
7472215,741.54,612,777,0
7472225,748.49,612,778,0
7472235,753.32,612,777,0
7472245,756.74,612,778,0
7472256,759.09,612,776,0
7472265,760.73,612,778,0
7472275,761.84,612,777,0
7472285,759.75,612,778,0
7472295,751.12,612,776,0
7472305,734.67,612,778,0
7472315,709.14,612,776,0
7472325,674.60,612,778,0
7472335,631.18,612,776,0
7472345,580.08,612,778,0
7472355,525.11,612,776,0
7472365,471.17,612,778,0
7472375,420.80,612,776,0
7472385,376.89,612,778,0
7472395,340.54,612,777,0
7472405,312.99,612,778,0
7472415,293.62,612,776,0
7472425,282.51,612,778,0
7472435,278.03,612,776,0
7472445,279.43,612,778,0
7472455,284.96,612,776,0
7472465,293.50,612,778,0
7472475,303.16,612,776,0
7472485,313.19,612,778,0
7472495,322.00,612,776,0
7472505,329.46,612,777,0
7472515,334.72,612,776,0
7472525,337.76,612,778,0
7472535,338.00,612,777,0
7472545,336.07,612,778,0
7472556,331.77,612,777,0
7472566,325.88,612,779,0
7472576,318.37,612,777,0
7472586,310.16,612,778,0
7472596,301.11,612,777,0
7472606,292.51,612,778,0
7472616,283.83,612,776,0
7472626,276.16,612,778,0
7472636,268.96,612,776,0
7472646,263.14,612,778,0
7472656,258.09,612,776,0
7472666,254.50,612,778,0
7472676,251.52,612,776,0
7472686,249.95,612,778,0
7472696,249.19,612,776,0
7472706,250.38,612,777,0
7472716,253.57,612,776,0
7472727,260.77,612,778,0
7472737,273.09,612,776,0
7472747,293.04,612,777,0
7472757,321.83,612,776,0
7472768,361.35,612,778,0
7472777,409.84,612,776,0
7472787,463.59,612,778,0
7472806,518.61,653,776,0
7472809,571.96,653,778,0
7472818,620.23,653,775,0
7472828,661.05,653,777,0
7472838,691.97,653,776,0
7472848,713.67,653,777,0
7472858,728.85,653,776,0
7472868,739.48,653,777,0
7472878,746.88,653,776,0
7472888,752.10,653,777,0
7472898,755.76,653,776,0
7472908,757.76,653,777,0
7472918,754.83,653,776,0
7472928,745.24,653,777,0
7472939,727.17,653,776,0
7472948,700.80,653,777,0
7472958,665.55,653,776,0
7472968,622.23,653,777,0
7472978,571.67,653,776,0
7472988,518.93,653,777,0
7472998,466.71,653,775,0
7473008,418.62,653,777,0
7473018,375.32,653,775,0
7473028,339.05,653,777,0
7473038,309.72,653,775,0
7473048,288.59,653,777,0
7473058,274.36,653,775,0
7473068,267.39,653,777,0
7473078,266.08,653,775,0
7473088,270.30,653,777,0
7473098,278.01,653,775,0
7473108,289.02,653,777,0
7473118,301.06,653,775,0
7473128,313.98,653,777,0
7473138,325.86,653,775,0
7473148,336.57,653,777,0
7473158,344.67,653,775,0
7473168,350.73,653,777,0
7473178,353.51,653,775,0
7473188,354.00,653,776,0
7473198,351.60,653,775,0
7473208,347.52,653,777,0
7473218,341.28,653,775,0
7473228,334.34,653,776,0
7473239,326.05,653,774,0
7473249,317.72,653,776,0
7473259,308.89,653,775,0
7473269,300.91,653,776,0
7473280,293.09,653,775,0
7473289,286.68,653,776,0
7473299,280.69,653,776,0
7473309,276.24,653,776,0
7473319,272.65,653,775,0
7473329,271.04,653,776,0
7473339,270.94,653,775,0
7473349,274.22,653,776,0
7473359,281.35,653,774,0
7473369,294.28,653,776,0
7473379,313.82,653,774,0
7473389,342.25,653,776,0
7473399,379.50,653,774,0
7473409,425.68,653,776,0
7473419,476.30,653,775,0
7473429,528.20,653,776,0
7473448,578.28,642,774,0
7473452,624.14,642,776,0
7473460,662.93,642,775,0
7473470,693.38,642,776,0
7473480,714.69,642,775,0
7473490,729.66,642,776,0
7473500,740.13,642,775,0
7473510,747.51,642,776,0
7473520,752.63,642,775,0
7473530,756.25,642,776,0
7473540,758.79,642,775,0
7473550,760.14,642,776,0
7473560,757.14,642,775,0
7473570,748.01,642,776,0
7473580,731.38,642,775,0
7473590,706.75,642,775,0
7473600,673.65,642,775,0
7473610,632.70,642,776,0
7473620,584.96,642,775,0
7473630,535.09,642,776,0
7473640,485.82,642,775,0
7473650,440.27,642,775,0
7473660,400.08,642,775,0
7473670,367.18,642,776,0
7473680,341.63,642,775,0
7473690,324.04,642,776,0
7473700,313.40,642,775,0
7473710,309.64,642,775,0
7473720,310.90,642,775,0
7473730,316.42,642,775,0
7473740,324.35,642,775,0
7473751,334.02,642,775,0
7473761,343.65,642,775,0
7473771,352.72,642,775,0
7473781,359.91,642,775,0
7473792,365.21,642,775,0
7473801,368.02,642,775,0
7473811,368.57,642,775,0
7473821,366.73,642,775,0
7473831,362.91,642,775,0
7473841,357.37,642,775,0
7473851,350.78,642,775,0
7473861,343.35,642,775,0
7473871,335.62,642,775,0
7473881,327.72,642,775,0
7473891,320.26,642,775,0
7473901,313.67,642,776,0
7473911,308.80,642,776,0
7473921,306.33,642,775,0
7473931,308.16,642,775,0
7473941,315.95,642,775,0
7473951,331.95,642,775,0
7473961,357.81,642,775,0
7473971,394.60,642,775,0
7473981,439.89,642,775,0
7473991,490.19,642,775,0
7474001,541.82,642,775,0
7474020,591.59,572,774,0
7474023,636.33,572,776,0
7474032,673.34,572,775,0
7474042,700.84,572,776,0
7474052,720.09,572,775,0
7474062,733.56,572,776,0
7474072,742.99,572,775,0
7474082,749.60,572,776,0
7474092,754.22,572,775,0
7474102,757.45,572,776,0
7474112,759.72,572,775,0
7474122,761.30,572,776,0
7474132,759.50,572,775,0
7474142,752.15,572,776,0
7474152,737.53,572,775,0
7474162,714.57,572,776,0
7474172,683.07,572,775,0
7474182,643.49,572,776,0
7474192,596.46,572,775,0
7474202,545.92,572,776,0
7474212,495.16,572,775,0
7474222,447.41,572,776,0
7474232,405.07,572,775,0
7474242,369.69,572,776,0
7474252,341.89,572,775,0
7474263,322.12,572,776,0
7474273,309.96,572,775,0
7474283,305.04,572,776,0
7474293,305.89,572,775,0
7474304,311.71,572,776,0
7474313,320.79,572,775,0
7474323,332.00,572,776,0
7474333,343.61,572,775,0
7474343,354.83,572,777,0
7474353,364.57,572,775,0
7474363,372.50,572,776,0
7474373,377.62,572,775,0
7474383,380.18,572,777,0
7474393,379.95,572,775,0
7474403,377.39,572,777,0
7474413,372.43,572,775,0
7474423,365.70,572,777,0
7474433,357.44,572,775,0
7474443,348.39,572,776,0
7474453,338.59,572,775,0
7474463,328.68,572,776,0
7474473,318.88,572,775,0
7474483,310.09,572,776,0
7474493,302.60,572,775,0
7474503,297.75,572,777,0
7474513,296.67,572,775,0
7474523,301.31,572,776,0
7474533,313.47,572,775,0
7474543,335.62,572,776,0
7474553,368.73,572,775,0
7474563,412.48,572,776,0
7474573,462.57,572,775,0
7474583,515.41,572,776,0
7474593,567.66,572,775,0
7474613,616.10,593,774,0
7474616,657.52,593,775,0
7474625,689.76,593,776,0
7474635,712.33,593,775,0
7474646,728.13,593,776,0
7474655,739.19,593,774,0
7474665,746.94,593,776,0
7474675,752.35,593,775,0
7474685,754.99,593,776,0
7474695,752.42,593,774,0
7474705,743.17,593,776,0
7474715,725.59,593,774,0
7474725,699.57,593,776,0
7474735,664.98,593,774,0
7474745,622.56,593,776,0
7474755,573.62,593,774,0
7474765,522.26,593,776,0
7474775,471.01,593,774,0
7474785,423.05,593,776,0
7474795,379.49,593,774,0
7474805,341.93,593,776,0
7474816,310.28,593,774,0
7474825,285.72,593,775,0
7474835,267.68,593,774,0
7474845,256.46,593,776,0
7474855,250.79,593,774,0
7474865,250.38,593,776,0
7474875,253.61,593,774,0
7474885,260.37,593,776,0
7474895,268.79,593,774,0
7474905,278.49,593,776,0
7474915,287.69,593,774,0
7474925,296.53,593,776,0
7474935,303.65,593,774,0
7474945,309.54,593,776,0
7474955,313.07,593,774,0
7474965,314.85,593,776,0
7474975,314.21,593,774,0
7474985,312.22,593,776,0
7474995,308.29,593,775,0
7475005,303.62,593,776,0
7475015,297.48,593,774,0
7475025,291.12,593,776,0
7475035,284.27,593,774,0
7475045,277.89,593,776,0
7475055,271.28,593,774,0
7475065,265.32,593,776,0
7475075,259.44,593,774,0
7475085,254.85,593,776,0
7475095,250.61,593,774,0
7475105,247.94,593,776,0
7475116,246.97,593,774,0
7475126,250.07,593,776,0
7475136,258.02,593,774,0
7475146,273.61,593,776,0
7475156,297.86,593,774,0
7475166,333.09,593,776,0
7475176,379.22,593,774,0
7475186,432.64,593,776,0
7475196,488.85,593,774,0
7475215,544.86,602,773,0
7475218,596.89,602,776,0
7475227,642.35,602,776,0
7475237,678.67,602,775,0
7475247,704.53,602,776,0
7475257,722.63,602,774,0
7475267,735.34,602,776,0
7475277,744.24,602,774,0
7475287,750.47,602,776,0
7475297,752.34,602,774,0
7475307,747.78,602,776,0
7475317,734.43,602,774,0
7475328,711.72,602,776,0
7475337,679.23,602,774,0
7475347,637.59,602,776,0
7475357,586.80,602,774,0
7475367,530.80,602,776,0
7475377,473.09,602,774,0
7475387,418.16,602,775,0
7475397,367.80,602,774,0
7475407,324.49,602,776,0
7475417,288.56,602,774,0
7475427,261.65,602,776,0
7475437,242.94,602,774,0
7475447,232.63,602,776,0
7475457,229.01,602,774,0
7475467,231.75,602,776,0
7475477,238.64,602,774,0
7475487,249.20,602,776,0
7475497,261.27,602,774,0
7475507,274.18,602,776,0
7475517,285.99,602,774,0
7475527,296.71,602,776,0
7475537,304.90,602,774,0
7475547,311.06,602,776,0
7475557,314.04,602,774,0
7475567,314.63,602,776,0
7475577,312.30,602,774,0
7475587,308.39,602,776,0
7475597,302.36,602,774,0
7475607,295.52,602,776,0
7475617,287.44,602,775,0
7475628,279.42,602,776,0
7475638,271.15,602,774,0
7475648,263.61,602,776,0
7475658,256.31,602,775,0
7475668,250.35,602,775,0
7475678,245.10,602,774,0
7475688,241.30,602,776,0
7475698,238.21,602,775,0
7475708,236.39,602,776,0
7475718,235.33,602,774,0
7475728,235.62,602,776,0
7475738,236.97,602,775,0
7475748,240.88,602,775,0
7475758,247.73,602,774,0
7475768,259.90,602,776,0
7475778,278.66,602,775,0
7475788,306.53,602,776,0
7475799,344.21,602,775,0
7475809,392.19,602,776,0
7475819,445.79,602,775,0
7475838,501.87,623,774,0
7475842,556.64,623,776,0
7475851,607.27,623,775,0
7475861,650.61,623,776,0
7475871,684.80,623,775,0
7475881,708.73,623,776,0
7475891,725.48,623,775,0
7475901,736.61,623,776,0
7475911,740.15,623,775,0
7475921,734.75,623,775,0
7475931,720.00,623,775,0
7475941,695.48,623,775,0
7475951,661.27,623,775,0
7475961,618.07,623,776,0
7475971,567.31,623,775,0
7475981,513.43,623,775,0
7475991,459.86,623,775,0
7476001,409.20,623,776,0
7476012,363.58,623,775,0
7476022,324.84,623,776,0
7476032,293.43,623,774,0
7476042,270.07,623,776,0
7476052,254.45,623,774,0
7476062,246.60,623,776,0
7476072,245.43,623,775,0
7476082,250.28,623,776,0
7476092,259.49,623,774,0
7476102,272.16,623,776,0
7476112,286.51,623,775,0
7476122,301.87,623,776,0
7476132,316.70,623,775,0
7476142,330.33,623,776,0
7476152,341.72,623,775,0
7476162,350.80,623,776,0
7476172,356.86,623,774,0
7476183,360.25,623,777,0
7476193,360.51,623,774,0
7476203,358.47,623,776,0
7476213,353.96,623,774,0
7476224,348.02,623,776,0
7476233,340.47,623,775,0
7476243,332.48,623,777,0
7476253,323.81,623,774,0
7476263,315.55,623,776,0
7476273,307.29,623,774,0
7476283,299.87,623,777,0
7476293,292.84,623,774,0
7476303,286.97,623,777,0
7476313,281.62,623,775,0
7476323,277.41,623,777,0
7476333,273.60,623,775,0
7476343,270.81,623,779,0
7476353,268.55,623,775,0
7476363,267.36,623,779,0
7476373,267.08,623,775,0
7476383,268.94,623,782,0
7476393,273.76,623,777,0
7476403,283.52,623,779,0
7476413,299.56,623,774,0
7476423,324.38,623,779,0
7476433,358.94,623,776,0
7476443,403.78,623,777,0
7476453,454.68,623,775,0
7476463,508.17,623,777,0
7476483,560.88,644,775,0
7476486,609.99,644,776,0
7476495,652.29,644,774,0
7476505,685.80,644,777,0
7476515,709.31,644,775,0
7476525,725.80,644,776,0
7476535,737.35,644,774,0
7476545,745.43,644,779,0
7476555,750.40,644,776,0
7476566,750.15,644,778,0
7476575,742.86,644,775,0
7476585,727.43,644,778,0
7476595,702.79,644,776,0
7476605,669.51,644,777,0
7476615,628.08,644,775,0
7476625,580.10,644,781,0
7476635,529.03,644,778,0
7476645,478.88,644,779,0
7476655,432.16,644,776,0
7476665,391.61,644,780,0
7476675,357.91,644,777,0
7476685,332.22,644,778,0
7476695,314.11,644,775,0
7476705,304.27,644,777,0
7476715,301.10,644,775,0
7476725,304.20,644,777,0
7476736,311.72,644,775,0
7476745,322.91,644,779,0
7476755,335.54,644,776,0
7476765,349.05,644,779,0
7476775,361.55,644,777,0
7476785,372.78,644,780,0
7476795,381.29,644,777,0
7476805,387.29,644,779,0
7476815,389.95,644,776,0
7476825,389.96,644,779,0
7476835,386.84,644,775,0
7476845,381.53,644,779,0
7476855,373.92,644,776,0
7476865,365.24,644,778,0
7476875,355.35,644,775,0
7476885,345.43,644,777,0
7476895,335.10,644,774,0
7476905,325.56,644,778,0
7476915,316.39,644,775,0
7476925,308.52,644,777,0
7476935,301.25,644,775,0
7476945,295.52,644,777,0
7476955,290.56,644,775,0
7476965,287.22,644,779,0
7476975,284.80,644,776,0
7476985,283.92,644,777,0
7476995,283.77,644,774,0
7477005,285.38,644,777,0
7477015,288.61,644,774,0
7477025,295.41,644,776,0
7477036,306.60,644,775,0
7477046,324.72,644,776,0
7477056,351.12,644,775,0
7477066,388.03,644,776,0
7477076,433.23,644,776,0
7477086,483.52,644,777,0
7477096,535.09,644,775,0
7477106,585.34,644,776,0
7477126,630.84,643,775,0
7477129,669.11,643,776,0
7477138,697.67,643,775,0
7477148,717.65,643,775,0
7477158,731.60,643,775,0
7477168,741.36,643,776,0
7477178,748.15,643,775,0
7477188,752.91,643,775,0
7477198,756.24,643,776,0
7477208,758.61,643,776,0
7477218,759.41,643,775,0
7477228,755.77,643,775,0
7477238,745.30,643,776,0
7477249,726.78,643,775,0
7477259,699.59,643,776,0
7477269,664.01,643,776,0
7477279,620.64,643,779,0
7477289,571.42,643,775,0
7477299,520.68,643,778,0
7477309,472.17,643,777,0
7477319,428.62,643,779,0
7477329,391.96,643,776,0
7477339,363.05,643,779,0
7477349,342.20,643,776,0
7477359,329.07,643,777,0
7477369,322.84,643,776,0
7477379,322.54,643,776,0
7477389,326.84,643,775,0
7477399,334.34,643,778,0
7477409,343.67,643,776,0
7477420,353.54,643,777,0
7477430,362.85,643,775,0
7477440,370.91,643,776,0
7477450,376.94,643,775,0
7477460,380.64,643,776,0
7477470,381.82,643,774,0
7477480,380.55,643,777,0
7477490,376.95,643,775,0
7477500,371.57,643,776,0
7477510,364.58,643,775,0
7477520,356.57,643,776,0
7477530,347.74,643,775,0
7477540,338.82,643,776,0
7477550,330.09,643,775,0
7477560,321.96,643,776,0
7477570,314.43,643,775,0
7477580,307.87,643,776,0
7477591,302.30,643,775,0
7477601,298.18,643,776,0
7477611,294.87,643,775,0
7477621,292.81,643,776,0
7477632,292.05,643,774,0
7477641,293.54,643,776,0
7477651,298.00,643,775,0
7477661,307.52,643,776,0
7477671,323.73,643,774,0
7477681,349.23,643,776,0
7477691,385.76,643,775,0
7477701,431.09,643,776,0
7477711,481.38,643,775,0
7477721,533.68,643,777,0
7477740,584.47,615,775,0
7477743,630.75,615,777,0
7477752,669.48,615,774,0
7477762,698.01,615,777,0
7477772,717.93,615,775,0
7477782,731.92,615,779,0
7477792,741.68,615,775,0
7477803,748.54,615,778,0
7477812,753.31,615,775,0
7477822,756.69,615,778,0
7477832,759.01,615,775,0
7477842,760.68,615,778,0
7477852,761.80,615,775,0
7477862,762.63,615,777,0
7477872,761.07,615,775,0
7477882,754.15,615,777,0
7477892,739.66,615,775,0
7477902,716.66,615,776,0
7477912,684.62,615,775,0
7477922,644.41,615,776,0
7477932,596.84,615,775,0
7477942,545.46,615,776,0
7477952,494.28,615,774,0
7477962,447.27,615,776,0
7477972,406.43,615,775,0
7477982,373.77,615,776,0
7477992,349.07,615,775,0
7478002,332.63,615,776,0
7478012,323.14,615,775,0
7478022,320.36,615,776,0
7478032,322.18,615,775,0
7478042,327.87,615,776,0
7478052,335.19,615,775,0
7478062,343.66,615,776,0
7478072,351.31,615,775,0
7478082,357.99,615,776,0
7478092,362.28,615,775,0
7478103,364.59,615,776,0
7478113,364.03,615,775,0
7478123,361.49,615,777,0
7478133,356.37,615,775,0
7478144,349.79,615,776,0
7478153,341.54,615,775,0
7478163,332.85,615,776,0
7478173,323.34,615,775,0
7478183,314.11,615,776,0
7478193,304.82,615,775,0
7478203,296.56,615,776,0
7478213,288.72,615,775,0
7478223,282.25,615,776,0
7478233,276.34,615,775,0
7478243,271.91,615,776,0
7478253,268.42,615,775,0
7478263,267.18,615,776,0
7478273,268.29,615,775,0
7478283,274.20,615,776,0
7478293,286.23,615,775,0
7478303,307.71,615,777,0
7478313,340.29,615,775,0
7478323,384.60,615,776,0
7478333,436.02,615,775,0
7478352,491.47,612,773,0
7478355,547.04,612,775,0
7478364,599.57,612,777,0
7478374,645.13,612,775,0
7478384,680.96,612,776,0
7478394,706.09,612,775,0
7478404,723.72,612,776,0
7478414,736.06,612,775,0
7478424,744.70,612,777,0
7478434,750.75,612,775,0
7478444,755.02,612,777,0
7478454,758.02,612,774,0
7478464,760.11,612,777,0
7478474,761.58,612,775,0
7478484,762.60,612,776,0
7478494,762.29,612,775,0
7478504,757.15,612,777,0
7478514,744.16,612,775,0
7478524,722.17,612,776,0
7478534,690.66,612,774,0
7478544,650.31,612,776,0
7478554,601.49,612,774,0
7478564,546.91,612,776,0
7478574,491.31,612,775,0
7478584,439.70,612,776,0
7478594,394.28,612,774,0
7478604,357.34,612,776,0
7478615,328.99,612,774,0
7478625,310.31,612,776,0
7478635,299.76,612,775,0
7478645,297.05,612,776,0
7478656,299.77,612,775,0
7478665,307.17,612,776,0
7478675,316.72,612,775,0
7478685,327.78,612,776,0
7478695,337.96,612,775,0
7478705,347.10,612,776,0
7478715,353.41,612,775,0
7478725,357.27,612,776,0
7478735,357.92,612,775,0
7478745,356.19,612,776,0
7478755,351.50,612,774,0
7478765,344.92,612,776,0
7478775,335.95,612,774,0
7478785,326.02,612,776,0
7478795,315.13,612,774,0
7478805,304.33,612,776,0
7478815,293.52,612,774,0
7478825,283.76,612,776,0
7478835,274.75,612,774,0
7478845,267.62,612,776,0
7478855,261.61,612,774,0
7478865,257.40,612,776,0
7478875,254.79,612,775,0
7478885,255.33,612,776,0
7478895,259.73,612,774,0
7478905,271.00,612,776,0
7478915,290.37,612,774,0
7478925,321.20,612,776,0
7478935,364.51,612,774,0
7478945,416.43,612,776,0
7478956,472.74,612,775,0
7478975,530.21,623,774,0
7478978,584.70,623,776,0
7478987,633.43,623,776,0
7478998,672.69,623,775,0
7479007,700.38,623,775,0
7479017,719.77,623,775,0
7479027,733.34,623,775,0
7479037,742.84,623,775,0
7479047,749.49,623,776,0
7479057,754.14,623,775,0
7479067,757.40,623,775,0
7479077,759.68,623,775,0
7479087,761.27,623,776,0
7479097,762.35,623,775,0
7479107,763.10,623,776,0
7479117,759.86,623,775,0
7479127,750.04,623,775,0
7479137,731.26,623,775,0
7479147,702.77,623,775,0
7479157,664.39,623,775,0
7479168,617.05,623,775,0
7479177,561.75,623,775,0
7479187,503.71,623,775,0
7479197,447.14,623,775,0
7479207,396.40,623,775,0
7479217,353.59,623,775,0
7479227,320.41,623,775,0
7479237,297.02,623,775,0
7479247,283.21,623,775,0
7479257,277.75,623,775,0
7479267,279.37,623,775,0
7479277,285.94,623,775,0
7479287,295.95,623,775,0
7479297,307.32,623,775,0
7479307,318.88,623,775,0
7479317,328.99,623,775,0
7479327,337.13,623,775,0
7479337,342.45,623,775,0
7479347,345.02,623,775,0
7479357,344.54,623,775,0
7479367,341.46,623,775,0
7479377,335.80,623,775,0
7479387,328.44,623,775,0
7479397,319.61,623,775,0
7479407,310.08,623,775,0
7479417,300.12,623,775,0
7479427,290.48,623,775,0
7479437,281.42,623,775,0
7479447,273.71,623,775,0
7479457,267.88,623,775,0
7479468,265.56,623,775,0
7479478,268.48,623,775,0
7479488,279.05,623,775,0
7479498,299.65,623,776,0
7479508,332.88,623,775,0
7479518,378.13,623,776,0
7479528,431.19,623,775,0
7479538,488.09,623,776,0
7479548,545.15,623,775,0
7479567,598.63,592,774,0
7479570,645.07,592,775,0
7479579,681.09,592,776,0
7479589,706.31,592,775,0
7479599,723.96,592,776,0
7479609,736.31,592,775,0
7479619,744.96,592,776,0
7479629,751.02,592,774,0
7479639,755.21,592,776,0
7479649,758.15,592,775,0
7479659,760.20,592,776,0
7479669,761.64,592,774,0
7479680,762.65,592,776,0
7479689,763.31,592,775,0
7479699,758.89,592,776,0
7479709,746.28,592,774,0
7479719,724.00,592,776,0
7479729,691.51,592,775,0
7479739,649.14,592,776,0
7479749,597.54,592,774,0
7479759,538.37,592,776,0
7479769,477.91,592,775,0
7479779,421.07,592,776,0
7479789,370.86,592,774,0
7479799,329.46,592,776,0
7479809,297.52,592,775,0
7479819,275.64,592,776,0
7479829,262.80,592,774,0
7479839,258.19,592,776,0
7479849,259.93,592,774,0
7479859,266.55,592,776,0
7479869,275.99,592,774,0
7479879,287.13,592,776,0
7479889,298.02,592,774,0
7479899,307.79,592,776,0
7479909,315.05,592,774,0
7479919,319.75,592,776,0
7479929,321.32,592,775,0
7479939,320.20,592,776,0
7479949,316.28,592,775,0
7479959,310.37,592,776,0
7479969,302.54,592,775,0
7479980,293.85,592,776,0
7479990,284.38,592,774,0
7480000,275.01,592,776,0
7480010,265.71,592,774,0
7480020,257.44,592,776,0
7480030,250.66,592,774,0
7480040,247.16,592,776,0
7480050,248.14,592,774,0
7480060,256.63,592,776,0
7480070,274.27,592,775,0
7480080,304.45,592,776,0
7480090,348.41,592,775,0
7480100,401.73,592,776,0
7480110,459.97,592,775,0
7480120,519.64,592,776,0
7480130,576.44,592,775,0
7480150,627.44,582,773,0
7480153,668.62,582,775,0
7480162,697.54,582,777,0
7480172,717.77,582,775,0
7480182,731.94,582,776,0
7480193,741.86,582,774,0
7480203,748.80,582,776,0
7480213,753.66,582,775,0
7480223,757.06,582,776,0
7480233,759.44,582,775,0
7480243,761.11,582,776,0
7480253,762.28,582,775,0
7480263,761.64,582,776,0
7480273,754.89,582,775,0
7480283,739.96,582,776,0
7480293,714.82,582,774,0
7480303,679.47,582,776,0
7480313,633.86,582,774,0
7480323,579.30,582,776,0
7480333,518.14,582,774,0
7480343,456.94,582,776,0
7480353,399.10,582,775,0
7480364,348.97,582,776,0
7480374,307.62,582,775,0
7480384,276.84,582,776,0
7480394,255.97,582,775,0
7480404,245.05,582,776,0
7480414,241.86,582,775,0
7480424,245.68,582,776,0
7480434,253.57,582,775,0
7480444,264.72,582,776,0
7480454,276.54,582,775,0
7480464,288.30,582,776,0
7480474,298.28,582,775,0
7480484,306.38,582,776,0
7480494,311.28,582,775,0
7480504,313.68,582,776,0
7480514,312.79,582,775,0
7480524,309.68,582,775,0
7480535,304.08,582,775,0
7480545,297.03,582,775,0
7480555,288.53,582,775,0
7480565,279.80,582,775,0
7480576,270.82,582,775,0
7480585,262.60,582,775,0
7480595,254.96,582,775,0
7480605,248.80,582,775,0
7480615,244.11,582,775,0
7480625,241.93,582,776,0
7480635,242.98,582,775,0
7480645,249.59,582,775,0
7480655,263.51,582,775,0
7480665,287.36,582,776,0
7480675,323.04,582,775,0
7480685,370.51,582,775,0
7480695,425.30,582,775,0
7480705,483.80,582,776,0
7480715,541.89,582,775,0
7480734,596.13,585,774,0
7480737,643.07,585,777,0
7480747,679.65,585,775,0
7480756,705.25,585,775,0
7480766,723.18,585,775,0
7480776,735.72,585,776,0
7480786,744.51,585,775,0
7480796,750.65,585,775,0
7480806,754.96,585,775,0
7480816,757.97,585,776,0
7480826,760.08,585,775,0
7480836,761.56,585,775,0
7480846,762.59,585,775,0
7480856,758.81,585,775,0
7480866,747.47,585,775,0
7480876,726.80,585,775,0
7480886,696.22,585,775,0
7480896,655.39,585,776,0
7480906,605.09,585,775,0
7480916,546.22,585,776,0
7480926,485.13,585,775,0
7480936,425.99,585,775,0
7480946,372.46,585,775,0
7480956,326.72,585,776,0
7480966,290.55,585,775,0
7480976,264.37,585,775,0
7480986,248.27,585,775,0
7480996,240.91,585,776,0
7481006,241.23,585,776,0
7481016,247.16,585,775,0
7481026,257.14,585,775,0
7481036,269.23,585,776,0
7481047,281.93,585,775,0
7481057,293.57,585,776,0
7481067,303.25,585,775,0
7481077,310.21,585,776,0
7481088,314.17,585,775,0
7481097,314.94,585,776,0
7481107,312.90,585,775,0
7481117,308.34,585,776,0
7481127,301.85,585,775,0
7481137,293.93,585,776,0
7481147,285.25,585,775,0
7481157,276.47,585,776,0
7481167,267.93,585,775,0
7481177,260.07,585,776,0
7481187,253.02,585,775,0
7481197,247.14,585,776,0
7481207,242.34,585,775,0
7481217,238.72,585,776,0
7481227,236.24,585,776,0
7481237,235.05,585,777,0
7481247,235.64,585,775,0
7481257,239.52,585,777,0
7481267,248.10,585,776,0
7481277,263.84,585,776,0
7481287,289.35,585,775,0
7481297,327.30,585,776,0
7481307,376.28,585,775,0
7481317,432.08,585,776,0
7481327,490.69,585,775,0
7481347,548.77,612,774,0
7481350,602.75,612,776,0
7481359,648.85,612,776,0
7481369,683.74,612,775,0
7481379,708.16,612,776,0
7481389,725.26,612,775,0
7481399,737.22,612,776,0
7481409,745.60,612,775,0
7481419,751.42,612,776,0
7481430,755.49,612,775,0
7481439,758.35,612,776,0
7481449,760.34,612,775,0
7481459,761.74,612,776,0
7481469,762.72,612,775,0
7481479,762.03,612,776,0
7481489,755.21,612,775,0
7481499,739.80,612,776,0
7481509,713.93,612,775,0
7481519,677.87,612,776,0
7481529,631.45,612,775,0
7481539,575.81,612,776,0
7481549,513.43,612,775,0
7481559,450.86,612,776,0
7481569,392.10,612,775,0
7481579,341.11,612,776,0
7481589,298.91,612,774,0
7481600,267.26,612,778,0
7481609,245.76,612,775,0
7481619,234.26,612,776,0
7481629,230.71,612,775,0
7481639,234.14,612,776,0
7481649,241.94,612,775,0
7481659,253.10,612,776,0
7481669,265.41,612,775,0
7481679,278.02,612,776,0
7481689,289.07,612,775,0
7481699,298.31,612,776,0
7481709,304.51,612,775,0
7481719,308.26,612,776,0
7481729,308.87,612,775,0
7481739,307.02,612,776,0
7481749,302.39,612,775,0
7481759,296.27,612,776,0
7481769,288.99,612,775,0
7481779,281.75,612,776,0
7481789,274.28,612,775,0
7481799,267.60,612,777,0
7481809,261.50,612,775,0
7481819,257.07,612,777,0
7481829,253.62,612,775,0
7481839,251.55,612,776,0
7481849,249.97,612,775,0
7481859,249.72,612,776,0
7481869,249.93,612,775,0
7481879,251.07,612,776,0
7481889,252.16,612,775,0
7481900,253.70,612,776,0
7481910,255.03,612,775,0
7481920,257.21,612,777,0
7481930,260.10,612,775,0
7481940,265.94,612,777,0
7481950,275.82,612,775,0
7481960,293.14,612,777,0
7481970,320.31,612,775,0
7481980,360.46,612,777,0
7481990,409.52,612,775,0
7482000,464.18,612,777,0
7482019,520.48,673,776,0
7482022,575.58,673,778,0
7482031,625.46,673,774,0
7482041,666.81,673,777,0
7482051,696.27,673,775,0
7482061,716.89,673,776,0
7482071,731.32,673,774,0
7482081,741.42,673,777,0
7482091,748.50,673,775,0
7482101,753.45,673,778,0
7482112,756.91,673,776,0
7482121,759.34,673,778,0
7482131,761.04,673,775,0
7482141,762.23,673,777,0
7482151,763.06,673,775,0
7482161,761.37,673,777,0
7482171,752.99,673,775,0
7482181,735.68,673,777,0
7482191,707.79,673,775,0
7482201,669.79,673,777,0
7482211,621.64,673,775,0
7482221,564.79,673,777,0
7482231,502.45,673,774,0
7482241,441.12,673,777,0
7482251,384.34,673,775,0
7482261,336.02,673,776,0
7482271,296.72,673,774,0
7482281,268.22,673,776,0
7482291,249.55,673,775,0
7482301,240.94,673,776,0
7482311,240.15,673,775,0
7482321,246.27,673,776,0
7482331,256.39,673,775,0
7482341,269.47,673,777,0
7482351,282.83,673,775,0
7482361,295.91,673,776,0
7482371,306.65,673,775,0
7482381,314.98,673,776,0
7482391,319.66,673,775,0
7482401,321.48,673,777,0
7482412,319.79,673,775,0
7482422,315.74,673,776,0
7482432,309.00,673,775,0
7482442,300.95,673,776,0
7482452,291.45,673,775,0
7482462,281.80,673,776,0
7482472,271.70,673,775,0
7482482,262.75,673,776,0
7482492,254.55,673,775,0
7482502,248.26,673,776,0
7482512,243.25,673,775,0
7482522,240.31,673,776,0
7482532,238.76,673,775,0
7482542,239.30,673,776,0
7482552,240.62,673,775,0
7482562,243.22,673,776,0
7482572,245.98,673,775,0
7482583,249.33,673,776,0
7482593,252.32,673,775,0
7482603,255.44,673,776,0
7482613,258.01,673,775,0
7482624,261.09,673,776,0
7482633,265.09,673,775,0
7482643,272.35,673,776,0
7482653,284.76,673,775,0
7482663,305.75,673,776,0
7482673,337.15,673,775,0
7482683,380.43,673,776,0
7482693,431.30,673,776,0
7482703,486.54,673,776,0
7482713,542.39,673,775,0
7482732,595.46,713,774,0
7482735,641.82,713,777,0
7482744,678.78,713,776,0
7482754,704.64,713,776,0
7482764,722.75,713,776,0
7482774,735.43,713,776,0
7482784,744.30,713,776,0
7482795,750.51,713,776,0
7482804,754.86,713,776,0
7482814,757.90,713,777,0
7482824,760.03,713,776,0
7482834,761.52,713,776,0
7482844,762.56,713,776,0
7482854,763.30,713,776,0
7482864,763.81,713,776,0
7482874,761.55,713,776,0
7482884,753.29,713,776,0
7482894,736.10,713,776,0
7482904,709.03,713,776,0
7482914,671.73,713,777,0
7482924,625.36,713,776,0
7482934,570.69,713,778,0
7482944,512.11,713,776,0
7482954,454.35,713,776,0
7482964,402.30,713,775,0
7482974,358.20,713,776,0
7482984,323.94,713,776,0
7482994,299.31,713,776,0
7483004,284.31,713,775,0
7483014,277.31,713,776,0
7483024,277.09,713,776,0
7483034,281.35,713,776,0
7483044,288.70,713,775,0
7483054,297.02,713,776,0
7483064,305.07,713,776,0
7483074,311.44,713,776,0
7483084,315.68,713,775,0
7483095,317.19,713,776,0
7483105,316.15,713,775,0
7483115,312.46,713,776,0
7483125,306.71,713,775,0
7483136,299.29,713,776,0
7483145,291.02,713,775,0
7483155,282.19,713,776,0
7483165,273.34,713,775,0
7483175,265.06,713,776,0
7483185,257.71,713,775,0
7483195,251.67,713,776,0
7483205,247.01,713,775,0
7483215,243.79,713,776,0
7483225,242.14,713,776,0
7483235,241.88,713,776,0
7483245,242.82,713,775,0
7483255,244.72,713,776,0
7483265,247.16,713,775,0
7483275,250.11,713,776,0
7483285,253.16,713,775,0
7483295,256.33,713,776,0
7483305,260.13,713,775,0
7483315,265.45,713,776,0
7483325,274.06,713,775,0
7483335,288.35,713,776,0
7483345,311.26,713,775,0
7483355,345.17,713,776,0
7483365,389.90,713,775,0
7483375,441.62,713,776,0
7483395,496.85,662,775,0
7483398,552.22,662,777,0
7483407,604.23,662,775,0
7483417,648.99,662,777,0
7483427,683.75,662,775,0
7483437,708.12,662,777,0
7483447,725.19,662,775,0
7483457,737.13,662,777,0
7483467,745.49,662,775,0
7483478,751.34,662,777,0
7483487,755.44,662,775,0
7483497,758.31,662,777,0
7483507,760.32,662,775,0
7483517,761.72,662,777,0
7483527,762.70,662,775,0
7483537,763.39,662,776,0
7483547,763.88,662,775,0
7483557,764.21,662,777,0
7483567,762.43,662,775,0
7483577,754.55,662,776,0
7483587,737.71,662,775,0
7483597,710.84,662,777,0
7483607,673.82,662,775,0
7483617,627.24,662,777,0
7483627,572.06,662,775,0
7483637,511.83,662,777,0
7483648,452.09,662,775,0
7483657,397.68,662,776,0
7483667,350.89,662,774,0
7483677,313.59,662,776,0
7483687,286.16,662,774,0
7483697,268.63,662,776,0
7483707,259.69,662,775,0
7483717,258.33,662,776,0
7483727,262.22,662,775,0
7483737,270.12,662,776,0
7483747,279.64,662,775,0
7483757,289.56,662,776,0
7483767,298.22,662,775,0
7483777,305.31,662,776,0
7483787,309.72,662,775,0
7483797,311.78,662,776,0
7483807,310.81,662,775,0
7483817,307.61,662,776,0
7483827,302.24,662,775,0
7483837,295.74,662,776,0
7483847,288.02,662,774,0
7483857,280.13,662,776,0
7483867,271.99,662,775,0
7483877,264.62,662,776,0
7483887,257.79,662,775,0
7483897,252.24,662,776,0
7483907,247.45,662,775,0
7483917,244.10,662,776,0
7483927,241.59,662,775,0
7483937,240.42,662,776,0
7483948,240.08,662,775,0
7483958,241.09,662,777,0
7483968,242.65,662,775,0
7483978,245.37,662,776,0
7483988,248.21,662,774,0
7483998,251.75,662,776,0
7484008,254.95,662,774,0
7484018,258.35,662,776,0
7484028,261.29,662,774,0
7484038,264.59,662,776,0
7484048,268.05,662,774,0
7484058,273.78,662,776,0
7484068,283.19,662,774,0
7484078,299.80,662,776,0
7484088,326.26,662,775,0
7484098,365.91,662,777,0
7484108,414.20,662,774,0
7484119,468.05,662,777,0
7484138,523.92,744,776,0
7484141,578.63,744,777,0
7484150,628.28,744,775,0
7484161,669.26,744,776,0
7484171,697.98,744,775,0
7484181,718.09,744,776,0
7484191,732.16,744,775,0
7484201,742.01,744,776,0
7484211,748.91,744,775,0
7484221,753.74,744,776,0
7484231,757.12,744,775,0
7484241,759.48,744,776,0
7484251,761.14,744,775,0
7484261,762.30,744,776,0
7484271,763.11,744,775,0
7484281,763.67,744,776,0
7484291,764.07,744,775,0
7484301,764.35,744,776,0
7484311,764.55,744,775,0
7484321,763.91,744,776,0
7484332,757.51,744,775,0
7484342,742.53,744,776,0
7484352,717.25,744,775,0
7484362,681.86,744,776,0
7484372,636.69,744,775,0
7484382,583.30,744,776,0
7484392,523.59,744,775,0
7484402,464.49,744,776,0
7484412,410.43,744,775,0
7484422,364.70,744,776,0
7484432,328.10,744,775,0
7484442,301.50,744,776,0
7484452,283.56,744,775,0
7484462,273.84,744,776,0
7484472,270.16,744,775,0
7484482,271.27,744,776,0
7484492,274.96,744,775,0
7484503,280.20,744,776,0
7484513,285.28,744,775,0
7484523,289.91,744,776,0
7484533,292.81,744,775,0
7484544,294.11,744,775,0
7484553,293.22,744,775,0
7484563,290.80,744,776,0
7484573,286.61,744,775,0
7484583,281.37,744,775,0
7484593,275.39,744,775,0
7484603,269.44,744,776,0
7484613,263.53,744,776,0
7484623,258.01,744,775,0
7484633,252.86,744,775,0
7484643,248.66,744,775,0
7484653,245.16,744,775,0
7484663,242.46,744,775,0
7484673,240.31,744,775,0
7484683,239.27,744,776,0
7484693,239.06,744,775,0
7484703,239.81,744,775,0
7484713,241.11,744,775,0
7484723,243.22,744,776,0
7484733,245.60,744,775,0
7484743,248.20,744,775,0
7484753,250.46,744,775,0
7484763,252.63,744,775,0
7484773,254.24,744,775,0
7484783,255.50,744,775,0
7484793,256.25,744,775,0
7484803,257.03,744,776,0
7484813,258.39,744,776,0
7484823,261.88,744,775,0
7484833,269.28,744,775,0
7484844,284.03,744,775,0
7484854,309.31,744,776,0
7484864,348.34,744,775,0
7484874,397.10,744,776,0
7484884,452.10,744,775,0
7484903,509.80,765,774,0
7484906,566.77,765,775,0
7484915,618.95,765,776,0
7484925,662.34,765,775,0
7484935,693.14,765,776,0
7484945,714.70,765,775,0
7484955,729.79,765,776,0
7484965,740.35,765,775,0
7484975,747.75,765,776,0
7484985,752.92,765,775,0
7484995,756.55,765,777,0
7485005,759.08,765,775,0
7485015,760.86,765,776,0
7485025,762.10,765,775,0
7485035,762.97,765,776,0
7485045,763.58,765,775,0
7485056,764.01,765,777,0
7485065,764.30,765,775,0
7485075,764.51,765,776,0
7485085,760.16,765,775,0
7485095,747.81,765,777,0
7485105,725.67,765,775,0
7485115,693.02,765,776,0
7485125,649.99,765,775,0
7485135,597.58,765,776,0
7485145,537.23,765,775,0
7485155,475.15,765,776,0
7485165,416.30,765,775,0
7485175,364.31,765,776,0
7485185,320.98,765,775,0
7485195,287.68,765,776,0
7485205,264.21,765,775,0
7485215,249.96,765,776,0
7485225,243.29,765,775,0
7485235,242.90,765,776,0
7485245,246.66,765,775,0
7485255,253.45,765,776,0
7485265,261.24,765,775,0
7485275,269.10,765,776,0
7485285,275.54,765,774,0
7485295,280.39,765,777,0
7485305,282.85,765,775,0
7485315,283.28,765,776,0
7485325,281.44,765,775,0
7485335,277.83,765,776,0
7485345,272.40,765,775,0
7485356,266.06,765,776,0
7485366,258.97,765,775,0
7485376,252.12,765,777,0
7485386,245.19,765,775,0
7485396,238.96,765,776,0
7485406,233.53,765,775,0
7485416,229.56,765,777,0
7485426,226.43,765,775,0
7485436,224.67,765,777,0
7485446,223.53,765,775,0
7485456,223.76,765,777,0
7485466,224.51,765,775,0
7485476,226.16,765,777,0
7485486,227.87,765,775,0
7485496,230.31,765,777,0
7485506,232.66,765,775,0
7485516,235.50,765,777,0
7485527,237.97,765,774,0
7485537,240.63,765,777,0
7485547,242.63,765,775,0
7485557,244.76,765,777,0
7485568,246.37,765,774,0
7485577,248.75,765,777,0
7485587,252.51,765,775,0
7485597,260.84,765,777,0
7485607,276.32,765,774,0
7485617,302.49,765,777,0
7485627,341.90,765,775,0
7485637,391.52,765,777,0
7485647,447.25,765,775,0
7485666,506.10,763,774,0
7485669,563.80,763,776,0
7485678,616.45,763,777,0
7485688,660.15,763,775,0
7485698,691.52,763,777,0
7485708,713.48,763,775,0
7485718,728.89,763,777,0
7485728,739.64,763,775,0
7485739,747.16,763,777,0
7485748,752.43,763,775,0
7485758,756.16,763,777,0
7485768,758.72,763,775,0
7485778,760.52,763,777,0
7485788,761.78,763,775,0
7485798,762.70,763,777,0
7485808,763.31,763,775,0
7485818,763.73,763,777,0
7485828,764.02,763,775,0
7485838,762.35,763,777,0
7485848,754.06,763,775,0
7485858,736.85,763,777,0
7485868,709.47,763,775,0
7485878,672.09,763,777,0
7485888,624.66,763,775,0
7485898,568.83,763,777,0
7485908,507.60,763,775,0
7485918,447.80,763,777,0
7485928,393.01,763,775,0
7485938,346.46,763,777,0
7485948,308.99,763,775,0
7485958,281.95,763,777,0
7485968,264.05,763,775,0
7485978,255.12,763,776,0
7485988,252.56,763,775,0
7485998,255.56,763,777,0
7486008,261.61,763,775,0
7486018,269.61,763,776,0
7486028,277.48,763,775,0
7486039,284.80,763,777,0
7486049,289.79,763,775,0
7486059,292.94,763,776,0
7486069,293.17,763,775,0
7486080,291.19,763,776,0
7486089,286.68,763,775,0
7486099,280.73,763,776,0
7486109,273.10,763,775,0
7486119,265.10,763,776,0
7486129,256.37,763,775,0
7486139,248.16,763,776,0
7486149,240.01,763,775,0
7486159,233.06,763,776,0
7486169,226.70,763,775,0
7486179,221.91,763,776,0
7486189,218.08,763,775,0
7486199,215.91,763,776,0
7486209,214.61,763,775,0
7486219,214.98,763,776,0
7486229,216.27,763,775,0
7486239,218.93,763,777,0
7486249,221.95,763,775,0
7486259,225.61,763,776,0
7486269,228.98,763,775,0
7486279,232.76,763,776,0
7486289,236.35,763,775,0
7486299,241.00,763,776,0
7486309,247.81,763,775,0
7486319,260.00,763,776,0
7486329,280.06,763,775,0
7486339,311.50,763,776,0
7486349,355.45,763,775,0
7486359,408.11,763,777,0
7486369,465.55,763,775,0
7486389,524.53,723,774,0
7486392,580.86,723,777,0
7486401,630.96,723,776,0
7486411,671.13,723,776,0
7486422,699.29,723,776,0
7486431,719.00,723,776,0
7486441,732.80,723,776,0
7486451,742.46,723,776,0
7486461,749.18,723,776,0
7486471,753.88,723,776,0
7486481,757.18,723,776,0
7486491,759.48,723,776,0
7486501,761.05,723,776,0
7486511,762.15,723,776,0
7486521,762.92,723,776,0
7486531,763.50,723,776,0
7486541,763.86,723,776,0
7486551,759.28,723,776,0
7486561,746.68,723,776,0
7486571,723.85,723,776,0
7486581,690.29,723,776,0
7486592,646.19,723,776,0
7486601,592.82,723,776,0
7486611,531.33,723,776,0
7486621,468.40,723,776,0
7486631,408.84,723,776,0
7486641,356.82,723,776,0
7486651,314.01,723,775,0
7486661,281.91,723,776,0
7486671,260.17,723,776,0
7486681,248.59,723,776,0
7486691,245.58,723,776,0
7486701,249.52,723,776,0
7486711,258.28,723,775,0
7486721,270.32,723,776,0
7486731,283.34,723,776,0
7486741,296.10,723,776,0
7486751,306.95,723,775,0
7486761,315.24,723,776,0
7486771,320.27,723,776,0
7486781,322.16,723,776,0
7486791,320.74,723,775,0
7486801,316.49,723,776,0
7486811,309.74,723,776,0
7486821,301.33,723,776,0
7486831,291.81,723,775,0
7486841,281.92,723,776,0
7486851,271.92,723,776,0
7486861,262.68,723,776,0
7486871,254.51,723,775,0
7486881,247.63,723,776,0
7486892,242.12,723,776,0
7486902,238.02,723,775,0
7486912,235.31,723,776,0
7486922,234.02,723,776,0
7486932,233.84,723,776,0
7486942,234.87,723,776,0
7486952,237.40,723,776,0
7486962,242.42,723,775,0
7486972,251.89,723,776,0
7486982,267.96,723,776,0
7486992,293.51,723,776,0
7487002,331.63,723,776,0
7487012,380.30,723,776,0
7487022,435.62,723,776,0
7487032,494.02,723,776,0
7487051,551.79,662,775,0
7487054,605.46,662,778,0
7487063,651.23,662,775,0
7487073,685.31,662,776,0
7487083,709.18,662,775,0
7487093,725.88,662,777,0
7487104,737.62,662,775,0
7487113,745.83,662,776,0
7487123,751.58,662,775,0
7487133,755.61,662,777,0
7487143,758.43,662,775,0
7487153,760.35,662,776,0
7487163,761.71,662,775,0
7487173,762.65,662,777,0
7487183,763.31,662,775,0
7487193,763.73,662,776,0
7487203,764.03,662,775,0
7487213,763.55,662,777,0
7487223,757.55,662,775,0
7487233,743.37,662,777,0
7487243,719.05,662,775,0
7487253,684.32,662,777,0
7487263,639.44,662,775,0
7487273,585.78,662,777,0
7487283,525.37,662,775,0
7487293,464.83,662,777,0
7487303,408.31,662,775,0
7487313,359.70,662,777,0
7487323,320.36,662,775,0
7487333,291.45,662,777,0
7487343,272.25,662,775,0
7487353,262.06,662,777,0
7487363,259.13,662,775,0
7487373,262.00,662,777,0
7487383,268.43,662,775,0
7487393,277.09,662,776,0
7487404,286.02,662,774,0
7487414,294.41,662,777,0
7487424,301.02,662,775,0
7487434,305.51,662,777,0
7487444,307.24,662,775,0
7487454,306.66,662,777,0
7487464,303.59,662,775,0
7487474,298.74,662,777,0
7487484,291.88,662,775,0
7487494,283.98,662,777,0
7487504,275.12,662,775,0
7487514,266.25,662,777,0
7487524,257.13,662,775,0
7487534,248.48,662,777,0
7487544,240.28,662,775,0
7487554,233.60,662,777,0
7487564,227.89,662,775,0
7487575,223.76,662,777,0
7487585,220.66,662,775,0
7487595,219.82,662,777,0
7487605,221.59,662,774,0
7487616,228.40,662,777,0
7487625,241.61,662,775,0
7487635,265.13,662,777,0
7487645,301.82,662,775,0
7487655,350.99,662,777,0
7487665,407.78,662,775,0
7487684,468.96,633,774,0
7487687,530.17,633,776,0
7487696,588.06,633,777,0
7487706,637.97,633,775,0
7487716,676.04,633,777,0
7487726,702.68,633,775,0
7487736,721.38,633,777,0
7487746,734.46,633,775,0
7487756,743.63,633,777,0
7487766,749.99,633,775,0
7487776,754.45,633,777,0
7487787,757.57,633,775,0
7487796,759.76,633,777,0
7487806,761.25,633,775,0
7487816,762.29,633,777,0
7487826,763.01,633,775,0
7487836,763.57,633,777,0
7487846,763.91,633,775,0
7487856,764.15,633,777,0
7487866,761.41,633,775,0
7487876,752.41,633,777,0
7487886,733.95,633,774,0
7487896,705.08,633,777,0
7487906,665.33,633,775,0
7487916,616.16,633,776,0
7487926,558.21,633,774,0
7487936,496.56,633,777,0
7487946,435.84,633,775,0
7487956,381.63,633,777,0
7487966,335.71,633,775,0
7487976,300.35,633,777,0
7487986,274.79,633,775,0
7487996,259.47,633,776,0
7488006,252.13,633,775,0
7488016,252.09,633,777,0
7488026,256.48,633,775,0
7488036,264.61,633,777,0
7488046,273.85,633,775,0
7488056,283.50,633,777,0
7488066,291.62,633,775,0
7488076,298.50,633,777,0
7488087,302.81,633,775,0
7488097,304.97,633,777,0
7488107,304.16,633,775,0
7488117,301.50,633,776,0
7488128,296.59,633,775,0
7488137,290.63,633,777,0
7488147,283.07,633,775,0
7488157,275.16,633,776,0
7488167,266.54,633,775,0
7488177,258.45,633,776,0
7488187,250.30,633,775,0
7488197,243.35,633,776,0
7488207,236.99,633,775,0
7488217,232.02,633,776,0
7488227,227.69,633,775,0
7488237,224.95,633,776,0
7488247,222.95,633,775,0
7488257,222.75,633,776,0
7488267,223.38,633,775,0
7488277,226.48,633,776,0
7488287,233.20,633,776,0
7488297,246.85,633,777,0
7488307,269.40,633,776,0
7488317,305.06,633,777,0
7488327,352.57,633,775,0
7488337,408.37,633,776,0
7488356,468.39,672,776,0
7488359,529.17,672,776,0
7488368,586.33,672,775,0
7488378,636.46,672,776,0
7488388,674.98,672,775,0
7488398,701.99,672,776,0
7488408,720.85,672,775,0
7488418,734.05,672,776,0
7488428,743.29,672,775,0
7488438,749.76,672,776,0
7488448,754.29,672,775,0
7488458,757.46,672,776,0
7488468,759.68,672,776,0
7488478,761.28,672,776,0
7488488,762.39,672,775,0
7488498,763.18,672,776,0
7488508,763.72,672,775,0
7488518,764.11,672,776,0
7488528,761.67,672,775,0
7488538,752.56,672,776,0
7488548,733.62,672,775,0
7488558,704.38,672,776,0
7488568,664.36,672,775,0
7488578,614.45,672,776,0
7488588,555.43,672,775,0
7488599,491.92,672,776,0
7488609,429.54,672,775,0
7488619,373.49,672,776,0
7488629,325.77,672,776,0
7488640,288.47,672,776,0
7488649,261.46,672,776,0
7488659,244.95,672,776,0
7488669,237.21,672,776,0
7488679,236.85,672,776,0
7488689,241.65,672,776,0
7488699,250.03,672,776,0
7488709,259.79,672,776,0
7488719,269.75,672,776,0
7488729,278.36,672,775,0
7488739,285.32,672,775,0
7488749,289.81,672,775,0
7488759,291.80,672,776,0
7488769,291.13,672,776,0
7488779,288.39,672,776,0
7488789,283.86,672,776,0
7488799,278.07,672,776,0
7488809,271.02,672,776,0
7488819,263.56,672,776,0
7488829,255.81,672,776,0
7488839,248.41,672,776,0
7488849,241.38,672,776,0
7488859,235.23,672,776,0
7488869,229.89,672,776,0
7488879,225.81,672,776,0
7488889,222.78,672,776,0
7488899,221.09,672,776,0
7488909,220.25,672,776,0
7488919,220.39,672,776,0
7488929,221.13,672,776,0
7488940,222.63,672,776,0
7488950,224.80,672,776,0
7488960,227.86,672,776,0
7488970,232.70,672,776,0
7488980,241.23,672,775,0
7488990,255.65,672,776,0
7489000,279.37,672,776,0
7489010,315.69,672,776,0
7489020,363.48,672,776,0
7489030,418.75,672,776,0
7489049,477.88,693,775,0
7489052,537.28,693,778,0
7489061,593.29,693,775,0
7489071,641.76,693,776,0
7489081,678.69,693,775,0
7489091,704.54,693,777,0
7489101,722.64,693,775,0
7489111,735.30,693,776,0
7489121,744.17,693,775,0
7489131,750.42,693,777,0
7489141,754.79,693,775,0
7489152,757.85,693,776,0
7489161,760.00,693,775,0
7489171,761.50,693,777,0
7489181,762.55,693,775,0
7489191,763.28,693,776,0
7489201,763.76,693,776,0
7489211,760.96,693,777,0
7489221,750.98,693,775,0
7489231,731.49,693,776,0
7489241,701.73,693,775,0
7489251,661.61,693,776,0
7489261,611.63,693,775,0
7489271,553.20,693,776,0
7489281,491.12,693,775,0
7489291,431.13,693,776,0
7489301,377.09,693,775,0
7489311,331.55,693,776,0
7489321,295.77,693,775,0
7489331,270.42,693,776,0
7489341,254.91,693,775,0
7489351,248.30,693,776,0
7489361,248.72,693,775,0
7489371,254.68,693,776,0
7489381,264.03,693,775,0
7489391,275.42,693,776,0
7489401,287.04,693,775,0
7489411,297.83,693,776,0
7489421,306.28,693,775,0
7489431,312.19,693,776,0
7489441,314.97,693,775,0
7489452,314.89,693,776,0
7489462,311.75,693,775,0
7489472,306.34,693,776,0
7489482,298.48,693,775,0
7489492,289.38,693,777,0
7489502,279.11,693,775,0
7489512,268.66,693,776,0
7489522,258.13,693,775,0
7489532,248.41,693,777,0
7489542,239.41,693,775,0
7489552,231.96,693,777,0
7489562,225.37,693,775,0
7489572,220.38,693,777,0
7489582,216.49,693,775,0
7489592,214.29,693,777,0
7489602,213.13,693,775,0
7489612,213.35,693,777,0
7489623,214.19,693,775,0
7489633,216.27,693,777,0
7489643,218.63,693,775,0
7489653,222.00,693,777,0
7489664,225.56,693,775,0
7489673,230.70,693,776,0
7489683,238.55,693,775,0
7489693,252.74,693,777,0
7489703,275.88,693,775,0
7489713,311.40,693,777,0
7489723,358.42,693,775,0
7489733,413.50,693,777,0
7489743,472.79,693,775,0
7489753,532.98,693,777,0
7489763,589.56,693,775,0
7489782,638.59,733,774,0
7489785,676.47,733,775,0
7489794,703.03,733,777,0
7489804,721.58,733,774,0
7489814,734.56,733,776,0
7489824,743.65,733,775,0
7489835,750.01,733,777,0
7489844,754.42,733,774,0
7489854,757.51,733,777,0
7489864,759.63,733,775,0
7489874,761.15,733,777,0
7489884,762.18,733,774,0
7489894,762.90,733,777,0
7489904,763.36,733,775,0
7489914,763.21,733,777,0
7489924,757.79,733,775,0
7489934,744.18,733,777,0
7489944,720.17,733,775,0
7489954,685.75,733,776,0
7489964,641.12,733,774,0
7489974,587.56,733,777,0
7489984,526.70,733,775,0
7489994,465.42,733,777,0
7490004,408.08,733,774,0
7490014,358.81,733,777,0
7490024,318.67,733,775,0
7490034,289.03,733,776,0
7490044,269.13,733,774,0
7490054,258.68,733,777,0
7490064,255.30,733,775,0
7490074,258.13,733,777,0
7490084,264.56,733,774,0
7490094,274.03,733,777,0
7490104,284.05,733,775,0
7490114,293.85,733,777,0
7490124,301.87,733,774,0
7490135,308.16,733,777,0
7490145,311.50,733,775,0
7490155,312.55,733,777,0
7490165,310.24,733,775,0
7490176,305.76,733,777,0
7490185,298.97,733,775,0
7490195,290.92,733,776,0
7490205,281.43,733,775,0
7490215,271.79,733,777,0
7490225,261.99,733,775,0
7490235,253.17,733,777,0
7490245,244.76,733,775,0
7490255,237.93,733,777,0
7490265,232.00,733,775,0
7490275,227.80,733,777,0
7490285,224.56,733,775,0
7490295,222.85,733,777,0
7490305,221.82,733,775,0
7490315,222.18,733,776,0
7490325,222.77,733,775,0
7490335,224.46,733,777,0
7490345,226.73,733,775,0
7490355,230.58,733,777,0
7490365,236.23,733,775,0
7490375,246.79,733,777,0
7490385,264.43,733,775,0
7490395,292.76,733,777,0
7490405,333.93,733,775,0
7490415,384.95,733,777,0
7490425,441.84,733,775,0
7490444,501.63,662,774,0
7490447,560.07,662,777,0
7490456,613.45,662,777,0
7490466,657.80,662,776,0
7490476,689.92,662,777,0
7490486,712.36,662,775,0
7490496,728.11,662,776,0
7490506,739.13,662,776,0
7490516,746.85,662,776,0
7490526,752.25,662,775,0
7490536,756.03,662,776,0
7490546,758.64,662,775,0
7490556,760.50,662,776,0
7490566,761.77,662,775,0
7490576,762.65,662,776,0
7490586,763.27,662,776,0
7490596,763.70,662,776,0
7490606,761.56,662,775,0
7490616,752.99,662,776,0
7490626,735.08,662,775,0
7490636,707.11,662,776,0
7490647,668.72,662,775,0
7490657,621.11,662,776,0
7490667,565.23,662,776,0
7490677,505.38,662,776,0
7490688,447.19,662,776,0
7490697,395.32,662,776,0
7490707,351.90,662,776,0
7490717,318.67,662,776,0
7490727,295.37,662,776,0
7490737,281.80,662,776,0
7490747,276.29,662,776,0
7490757,277.40,662,776,0
7490767,283.15,662,776,0
7490777,291.98,662,776,0
7490787,301.93,662,776,0
7490797,311.72,662,776,0
7490807,319.90,662,776,0
7490817,326.06,662,776,0
7490827,329.26,662,776,0
7490837,329.65,662,776,0
7490847,326.97,662,776,0
7490857,321.67,662,776,0
7490867,314.01,662,776,0
7490877,304.83,662,776,0
7490887,294.34,662,776,0
7490897,283.57,662,776,0
7490907,272.68,662,776,0
7490917,262.66,662,776,0
7490927,253.59,662,776,0
7490937,245.92,662,776,0
7490947,239.55,662,776,0
7490957,234.97,662,776,0
7490967,231.77,662,776,0
7490977,230.08,662,776,0
7490988,229.28,662,776,0
7490998,229.54,662,776,0
7491008,230.97,662,776,0
7491018,234.62,662,776,0
7491028,241.93,662,776,0
7491038,255.24,662,776,0
7491048,277.50,662,776,0
7491058,312.45,662,776,0
7491068,359.46,662,777,0
7491078,414.30,662,776,0
7491088,473.31,662,776,0
7491107,532.79,663,775,0
7491110,589.21,663,777,0
7491119,638.48,663,776,0
7491129,676.35,663,777,0
7491139,702.81,663,775,0
7491149,721.38,663,777,0
7491159,734.38,663,776,0
7491169,743.53,663,776,0
7491179,749.88,663,775,0
7491189,754.33,663,777,0
7491200,757.45,663,775,0
7491209,759.67,663,777,0
7491219,761.23,663,776,0
7491229,762.32,663,776,0
7491239,763.08,663,775,0
7491249,763.65,663,777,0
7491259,764.06,663,775,0
7491269,764.34,663,777,0
7491279,764.50,663,775,0
7491289,759.93,663,777,0
7491299,747.27,663,775,0
7491309,724.82,663,776,0
7491319,692.00,663,775,0
7491329,649.70,663,776,0
7491339,598.92,663,775,0
7491349,541.13,663,776,0
7491359,482.42,663,775,0
7491369,428.04,663,777,0
7491379,381.01,663,775,0
7491389,343.25,663,776,0
7491399,314.80,663,775,0
7491409,295.53,663,777,0
7491419,284.27,663,775,0
7491429,279.86,663,776,0
7491439,280.29,663,775,0
7491449,284.15,663,777,0
7491459,289.67,663,775,0
7491469,295.69,663,776,0
7491479,300.79,663,775,0
7491489,304.46,663,777,0
7491500,305.95,663,775,0
7491510,305.45,663,777,0
7491520,302.61,663,775,0
7491530,298.06,663,777,0
7491540,291.87,663,775,0
7491550,284.88,663,776,0
7491560,277.24,663,775,0
7491570,269.71,663,777,0
7491580,262.13,663,775,0
7491590,255.32,663,777,0
7491600,249.14,663,775,0
7491610,244.25,663,777,0
7491620,240.15,663,775,0
7491630,237.23,663,777,0
7491640,235.11,663,775,0
7491650,234.13,663,777,0
7491660,233.66,663,775,0
7491671,234.24,663,777,0
7491681,235.24,663,775,0
7491691,238.17,663,777,0
7491701,243.82,663,775,0
7491712,255.06,663,777,0
7491721,274.03,663,775,0
7491731,304.87,663,777,0
7491741,348.63,663,775,0
7491761,401.41,653,774,0
7491764,459.10,653,776,0
7491773,518.64,653,777,0
7491783,575.84,653,775,0
7491793,627.36,653,777,0
7491803,668.61,653,775,0
7491813,697.52,653,777,0
7491823,717.77,653,775,0
7491833,731.94,653,777,0
7491843,741.86,653,775,0
7491853,748.80,653,777,0
7491863,753.66,653,775,0
7491873,757.06,653,777,0
7491884,759.44,653,776,0
7491894,761.11,653,777,0
7491904,762.28,653,775,0
7491914,763.09,653,777,0
7491924,763.67,653,776,0
7491934,764.07,653,777,0
7491944,764.35,653,775,0
7491954,763.09,653,777,0
7491964,755.73,653,776,0
7491974,740.51,653,777,0
7491984,715.42,653,775,0
7491994,680.58,653,776,0
7492004,636.22,653,776,0
7492014,584.17,653,777,0
7492024,526.86,653,775,0
7492034,470.80,653,777,0
7492044,418.96,653,776,0
7492055,375.30,653,777,0
7492065,340.50,653,776,0
7492075,315.66,653,776,0
7492085,299.09,653,776,0
7492096,290.45,653,776,0
7492105,287.62,653,776,0
7492115,289.57,653,776,0
7492125,293.86,653,776,0
7492135,299.60,653,776,0
7492145,304.82,653,776,0
7492155,309.42,653,777,0
7492165,312.12,653,776,0
7492175,313.07,653,776,0
7492185,311.81,653,776,0
7492195,308.86,653,776,0
7492205,304.06,653,776,0
7492215,298.30,653,776,0
7492225,291.31,653,776,0
7492235,284.27,653,776,0
7492245,276.95,653,776,0
7492255,270.19,653,776,0
7492265,263.84,653,776,0
7492275,258.57,653,776,0
7492285,253.98,653,776,0
7492295,250.60,653,776,0
7492305,248.02,653,776,0
7492315,246.86,653,777,0
7492325,246.30,653,775,0
7492335,246.81,653,776,0
7492345,247.72,653,776,0
7492355,249.48,653,776,0
7492365,251.56,653,775,0
7492375,254.01,653,776,0
7492385,256.49,653,776,0
7492396,260.07,653,776,0
7492406,265.67,653,776,0
7492416,275.67,653,776,0
7492426,292.48,653,776,0
7492436,319.76,653,776,0
7492446,359.48,653,776,0
7492456,408.41,653,776,0
7492475,462.84,715,775,0
7492478,519.55,715,776,0
7492487,574.93,715,776,0
7492497,625.30,715,776,0
7492507,666.57,715,777,0
7492517,696.10,715,776,0
7492527,716.77,715,776,0
7492537,731.24,715,776,0
7492547,741.37,715,777,0
7492557,748.46,715,776,0
7492567,753.42,715,776,0
7492577,756.89,715,776,0
7492587,759.33,715,777,0
7492597,761.03,715,776,0
7492608,762.22,715,777,0
7492617,763.05,715,776,0
7492627,763.64,715,777,0
7492637,764.05,715,776,0
7492647,764.33,715,777,0
7492657,764.53,715,776,0
7492667,762.92,715,777,0
7492677,755.53,715,776,0
7492687,739.90,715,777,0
7492697,715.11,715,776,0
7492707,681.01,715,777,0
7492717,638.11,715,776,0
7492727,587.46,715,777,0
7492737,532.34,715,776,0
7492747,477.98,715,777,0
7492757,428.27,715,776,0
7492767,385.59,715,777,0
7492777,351.13,715,776,0
7492787,325.37,715,777,0
7492797,307.78,715,776,0
7492807,297.21,715,777,0
7492817,292.48,715,776,0
7492827,292.16,715,777,0
7492837,294.69,715,776,0
7492847,298.72,715,777,0
7492857,302.92,715,776,0
7492867,306.54,715,777,0
7492877,308.91,715,776,0
7492887,309.79,715,777,0
7492897,308.91,715,776,0
7492908,306.37,715,777,0
7492918,302.27,715,776,0
7492928,297.00,715,777,0
7492938,290.75,715,775,0
7492948,284.09,715,777,0
7492958,277.42,715,775,0
7492968,271.25,715,777,0
7492978,265.43,715,775,0
7492988,260.68,715,777,0
7492998,256.79,715,776,0
7493008,253.94,715,777,0
7493018,251.68,715,775,0
7493028,250.32,715,777,0
7493038,249.41,715,775,0
7493048,249.42,715,777,0
7493058,249.85,715,775,0
7493068,251.14,715,777,0
7493079,252.68,715,775,0
7493089,254.96,715,777,0
7493099,257.25,715,775,0
7493109,260.43,715,777,0
7493120,265.01,715,775,0
7493129,272.77,715,777,0
7493139,285.61,715,775,0
7493149,307.15,715,777,0
7493159,339.72,715,775,0
7493169,383.78,715,778,0
7493179,435.06,715,775,0
7493198,490.37,723,774,0
7493201,546.19,723,776,0
7493210,599.15,723,778,0
7493220,645.22,723,775,0
7493230,681.15,723,778,0
7493240,706.31,723,775,0
7493250,723.96,723,778,0
7493260,736.27,723,775,0
7493270,744.89,723,778,0
7493280,750.88,723,775,0
7493291,755.07,723,778,0
7493300,757.97,723,775,0
7493310,759.99,723,778,0
7493320,761.41,723,776,0
7493330,762.44,723,778,0
7493340,763.17,723,775,0
7493350,763.67,723,778,0
7493360,763.26,723,776,0
7493370,758.12,723,778,0
7493380,745.49,723,775,0
7493390,723.95,723,778,0
7493400,692.47,723,775,0
7493410,651.57,723,777,0
7493420,602.03,723,775,0
7493430,546.13,723,778,0
7493440,488.79,723,775,0
7493450,434.73,723,777,0
7493460,386.55,723,775,0
7493470,347.17,723,778,0
7493480,316.78,723,775,0
7493490,295.93,723,777,0
7493500,283.31,723,775,0
7493510,278.46,723,778,0
7493520,279.09,723,775,0
7493530,284.16,723,777,0
7493540,291.23,723,775,0
7493550,299.73,723,777,0
7493560,307.53,723,775,0
7493570,314.35,723,777,0
7493580,318.79,723,775,0
7493591,321.34,723,778,0
7493601,321.11,723,775,0
7493611,318.76,723,777,0
7493621,313.78,723,775,0
7493632,307.33,723,777,0
7493641,299.22,723,775,0
7493651,290.79,723,777,0
7493661,281.56,723,775,0
7493671,272.95,723,777,0
7493681,264.73,723,775,0
7493691,258.00,723,777,0
7493701,252.13,723,776,0
7493711,247.98,723,777,0
7493721,244.81,723,775,0
7493731,243.41,723,777,0
7493741,242.82,723,775,0
7493751,243.64,723,777,0
7493761,244.78,723,775,0
7493771,246.90,723,777,0
7493781,249.07,723,776,0
7493791,252.05,723,777,0
7493801,255.89,723,776,0
7493811,262.35,723,778,0
7493821,272.75,723,776,0
7493831,290.48,723,777,0
7493841,317.68,723,776,0
7493851,357.25,723,778,0
7493861,405.94,723,775,0
7493871,460.30,723,777,0
7493891,516.74,692,776,0
7493894,572.06,692,777,0
7493903,622.23,692,776,0
7493913,663.99,692,777,0
7493923,694.29,692,776,0
7493933,715.50,692,777,0
