Time,PPG,IBI,GSR,GSR_Event
3529114,343.25,854,750,0
3529124,344.59,854,750,0
3529134,344.80,854,750,0
3529144,344.43,854,750,0
3529154,344.00,854,750,0
3529164,343.57,854,750,0
3529175,343.27,854,750,0
3529185,343.96,854,749,0
3529195,347.74,854,750,0
3529205,351.34,854,749,0
3529216,354.15,854,750,0
3529225,355.30,854,749,0
3529235,354.83,854,750,0
3529245,352.74,854,749,0
3529255,349.82,854,750,0
3529265,346.14,854,749,0
3529275,342.63,854,750,0
3529285,338.97,854,749,0
3529295,336.02,854,750,0
3529305,333.66,854,749,0
3529315,332.17,854,750,0
3529325,331.09,854,749,0
3529335,330.89,854,750,0
3529345,330.97,854,749,0
3529355,331.66,854,750,0
3529365,332.32,854,749,0
3529375,333.47,854,750,0
3529385,334.36,854,749,0
3529395,335.49,854,750,0
3529405,336.16,854,749,0
3529415,336.97,854,750,0
3529425,337.53,854,749,0
3529435,338.19,854,750,0
3529445,338.39,854,749,0
3529455,338.83,854,750,0
3529465,339.18,854,749,0
3529475,339.64,854,750,0
3529485,339.83,854,749,0
3529495,340.31,854,750,0
3529505,340.43,854,749,0
3529516,340.77,854,750,0
3529526,340.59,854,749,0
3529536,340.45,854,750,0
3529546,340.02,854,749,0
3529556,340.23,854,750,0
3529566,340.59,854,749,0
3529576,343.20,854,750,0
3529586,348.88,854,749,0
3529596,360.87,854,750,0
3529606,379.77,854,748,0
3529625,408.34,863,749,0
3529628,444.67,863,752,0
3529637,486.38,863,752,0
3529647,530.15,863,750,0
3529657,573.52,863,752,0
3529667,613.01,863,750,0
3529677,646.86,863,752,0
3529687,672.27,863,750,0
3529697,690.11,863,752,0
3529707,702.59,863,750,0
3529717,711.37,863,752,0
3529728,717.47,863,750,0
3529737,721.75,863,752,0
3529747,724.74,863,750,0
3529757,726.87,863,752,0
3529767,728.32,863,750,0
3529777,728.61,863,752,0
3529787,725.04,863,751,0
3529797,716.63,863,752,0
3529807,701.78,863,750,0
3529817,680.63,863,752,0
3529827,652.76,863,750,0
3529837,619.02,863,752,0
3529847,580.10,863,750,0
3529857,539.87,863,752,0
3529867,500.01,863,750,0
3529877,463.41,863,752,0
3529887,430.50,863,750,0
3529897,403.05,863,752,0
3529907,380.66,863,750,0
3529917,364.35,863,752,0
3529927,353.27,863,750,0
3529937,347.62,863,752,0
3529947,345.85,863,750,0
3529957,347.82,863,752,0
3529967,351.69,863,750,0
3529977,357.18,863,752,0
3529987,362.57,863,750,0
3529997,367.80,863,752,0
3530007,371.37,863,750,0
3530017,373.66,863,752,0
3530028,373.63,863,750,0
3530038,372.07,863,752,0
3530048,368.32,863,750,0
3530058,363.55,863,752,0
3530068,357.35,863,751,0
3530078,350.98,863,751,0
3530088,344.09,863,751,0
3530098,337.76,863,752,0
3530108,331.62,863,751,0
3530118,326.80,863,751,0
3530128,322.79,863,751,0
3530138,320.28,863,751,0
3530148,318.61,863,751,0
3530158,318.60,863,752,0
3530168,319.36,863,750,0
3530178,321.61,863,752,0
3530188,324.26,863,751,0
3530199,327.78,863,751,0
3530209,331.32,863,751,0
3530219,335.29,863,752,0
3530229,338.68,863,751,0
3530240,342.20,863,751,0
3530249,344.93,863,751,0
3530259,347.61,863,752,0
3530269,349.31,863,751,0
3530279,350.85,863,752,0
3530289,351.53,863,751,0
3530299,352.15,863,752,0
3530309,352.19,863,751,0
3530319,352.17,863,751,0
3530329,351.52,863,751,0
3530339,351.07,863,752,0
3530349,350.10,863,751,0
3530359,349.39,863,751,0
3530369,348.67,863,751,0
3530379,348.21,863,752,0
3530389,347.63,863,751,0
3530399,347.62,863,751,0
3530409,347.35,863,751,0
3530419,347.54,863,752,0
3530429,347.51,863,751,0
3530439,347.61,863,751,0
3530449,347.43,863,751,0
3530459,347.77,863,752,0
3530469,348.53,863,751,0
3530479,351.58,863,751,0
3530489,358.05,863,751,0
3530499,370.04,863,751,0
3530509,389.52,863,751,0
3530519,418.90,863,751,0
3530539,455.57,913,750,0
3530542,496.93,913,752,0
3530551,540.02,913,752,0
3530561,582.23,913,751,0
3530571,620.99,913,752,0
3530582,653.35,913,751,0
3530591,676.90,913,751,0
3530601,693.39,913,751,0
3530611,704.97,913,752,0
3530621,713.08,913,751,0
3530631,718.76,913,752,0
3530641,722.73,913,751,0
3530651,725.51,913,751,0
3530661,727.46,913,750,0
3530671,728.82,913,751,0
3530681,729.77,913,751,0
3530691,730.44,913,751,0
3530701,730.87,913,750,0
3530711,730.26,913,752,0
3530721,725.90,913,751,0
3530731,715.77,913,752,0
3530741,698.87,913,750,0
3530752,674.87,913,752,0
3530761,644.35,913,751,0
3530771,607.82,913,752,0
3530781,566.94,913,751,0
3530791,525.43,913,752,0
3530801,486.43,913,751,0
3530811,451.80,913,752,0
3530821,422.85,913,751,0
3530831,399.84,913,752,0
3530841,382.83,913,751,0
3530851,371.31,913,752,0
3530861,364.79,913,751,0
3530871,362.02,913,752,0
3530881,362.44,913,751,0
3530891,364.54,913,752,0
3530901,367.25,913,751,0
3530911,369.75,913,752,0
3530921,371.62,913,751,0
3530931,372.12,913,752,0
3530941,371.31,913,751,0
3530951,368.78,913,752,0
3530961,365.07,913,751,0
3530971,360.29,913,751,0
3530981,354.98,913,751,0
3530991,349.33,913,752,0
3531001,343.79,913,751,0
3531011,338.71,913,752,0
3531021,334.38,913,751,0
3531031,330.75,913,752,0
3531041,328.26,913,751,0
3531052,326.68,913,751,0
3531062,325.88,913,750,0
3531072,325.96,913,752,0
3531082,326.57,913,750,0
3531092,327.77,913,751,0
3531102,329.42,913,750,0
3531112,331.44,913,752,0
3531122,333.58,913,750,0
3531132,336.11,913,751,0
3531142,338.60,913,750,0
3531152,341.25,913,752,0
3531162,343.49,913,750,0
3531172,345.83,913,751,0
3531182,347.64,913,750,0
3531192,349.59,913,751,0
3531202,350.83,913,749,0
3531212,351.99,913,751,0
3531223,352.42,913,749,0
3531233,353.11,913,751,0
3531243,352.91,913,749,0
3531253,352.85,913,751,0
3531264,351.87,913,749,0
3531273,351.05,913,751,0
3531283,349.53,913,749,0
3531293,348.30,913,751,0
3531303,346.50,913,749,0
3531313,345.19,913,752,0
3531323,343.68,913,749,0
3531333,343.09,913,752,0
3531343,343.28,913,749,0
3531353,346.19,913,752,0
3531363,352.78,913,750,0
3531373,365.53,913,752,0
3531383,385.77,913,750,0
3531393,415.45,913,752,0
3531412,452.60,874,751,0
3531415,494.55,874,752,0
3531424,538.10,874,750,0
3531435,580.71,874,752,0
3531444,619.37,874,750,0
3531454,651.87,874,752,0
3531464,675.95,874,750,0
3531474,692.81,874,752,0
3531484,704.61,874,750,0
3531494,712.87,874,752,0
3531504,718.65,874,750,0
3531514,722.70,874,752,0
3531524,725.53,874,750,0
3531534,727.52,874,752,0
3531544,728.90,874,750,0
3531554,727.99,874,751,0
3531564,722.29,874,750,0
3531574,710.55,874,751,0
3531584,691.40,874,750,0
3531594,665.09,874,751,0
3531604,631.64,874,750,0
3531614,592.19,874,751,0
3531624,548.85,874,750,0
3531634,505.74,874,751,0
3531644,464.84,874,750,0
3531654,429.19,874,752,0
3531664,399.13,874,750,0
3531674,375.95,874,751,0
3531684,358.74,874,750,0
3531694,348.32,874,752,0
3531704,343.04,874,750,0
3531714,342.60,874,751,0
3531724,345.20,874,750,0
3531735,350.46,874,751,0
3531745,356.53,874,750,0
3531755,363.06,874,751,0
3531765,368.48,874,750,0
3531776,372.80,874,751,0
3531785,375.21,874,750,0
3531795,375.79,874,751,0
3531805,373.84,874,751,0
3531815,370.25,874,752,0
3531825,364.81,874,750,0
3531835,358.48,874,751,0
3531845,351.05,874,751,0
3531855,343.62,874,752,0
3531865,336.02,874,750,0
3531875,329.59,874,751,0
3531885,323.63,874,751,0
3531895,319.32,874,752,0
3531905,315.80,874,750,0
3531915,314.10,874,752,0
3531925,313.34,874,751,0
3531935,314.23,874,752,0
3531945,315.66,874,751,0
3531955,318.46,874,751,0
3531965,321.32,874,751,0
3531975,325.13,874,751,0
3531985,328.82,874,751,0
3531995,332.77,874,751,0
3532005,335.97,874,751,0
3532015,339.28,874,751,0
3532025,341.72,874,751,0
3532035,344.16,874,751,0
3532045,345.61,874,751,0
3532055,346.97,874,752,0
3532065,347.50,874,751,0
3532076,348.20,874,751,0
3532086,348.10,874,751,0
3532096,348.24,874,752,0
3532106,347.57,874,751,0
3532116,347.01,874,751,0
3532126,345.72,874,751,0
3532136,344.69,874,751,0
3532146,343.20,874,751,0
3532156,342.32,874,751,0
3532166,340.98,874,751,0
3532176,340.30,874,751,0
3532186,340.13,874,751,0
3532196,341.80,874,751,0
3532206,345.76,874,751,0
3532216,354.23,874,751,0
3532226,368.43,874,751,0
3532236,391.19,874,752,0
3532247,423.28,874,751,0
3532266,462.15,854,750,0
3532269,504.66,854,751,0
3532278,548.44,854,751,0
3532289,590.48,854,752,0
3532299,628.22,854,751,0
3532309,658.88,854,751,0
3532319,680.86,854,751,0
3532329,696.24,854,752,0
3532339,706.97,854,751,0
3532349,714.48,854,751,0
3532359,719.74,854,751,0
3532369,723.42,854,752,0
3532379,725.99,854,751,0
3532389,727.79,854,752,0
3532399,729.06,854,751,0
3532409,729.94,854,752,0
3532419,727.81,854,751,0
3532429,720.58,854,751,0
3532439,706.82,854,751,0
3532449,685.83,854,752,0
3532460,657.60,854,751,0
3532470,622.66,854,751,0
3532480,581.53,854,750,0
3532490,537.96,854,752,0
3532500,494.90,854,751,0
3532510,455.03,854,752,0
3532520,419.84,854,750,0
3532530,390.48,854,752,0
3532540,366.98,854,750,0
3532550,349.67,854,752,0
3532560,337.81,854,750,0
3532570,331.23,854,752,0
3532580,328.46,854,750,0
3532590,329.14,854,751,0
3532600,331.71,854,750,0
3532610,335.74,854,751,0
3532620,339.93,854,750,0
3532631,343.98,854,752,0
3532641,346.77,854,750,0
3532651,348.68,854,751,0
3532661,348.95,854,750,0
3532672,348.02,854,751,0
3532681,345.49,854,750,0
3532691,342.08,854,752,0
3532701,337.82,854,750,0
3532711,333.46,854,751,0
3532721,328.73,854,750,0
3532731,324.49,854,752,0
3532741,320.44,854,750,0
3532751,317.56,854,751,0
3532761,315.21,854,750,0
3532771,313.90,854,751,0
3532781,313.08,854,750,0
3532791,313.74,854,751,0
3532801,314.59,854,750,0
3532811,316.17,854,751,0
3532821,317.58,854,750,0
3532831,319.46,854,752,0
3532841,320.95,854,750,0
3532851,322.68,854,751,0
3532861,323.59,854,750,0
3532871,324.70,854,752,0
3532881,325.35,854,750,0
3532891,326.19,854,751,0
3532901,326.60,854,750,0
3532911,327.45,854,751,0
3532921,327.96,854,750,0
3532931,328.78,854,751,0
3532941,329.28,854,750,0
3532951,330.22,854,752,0
3532961,330.80,854,750,0
3532972,331.80,854,751,0
3532982,332.33,854,750,0
3532992,333.30,854,752,0
3533002,333.77,854,750,0
3533012,334.70,854,751,0
3533022,335.26,854,750,0
3533032,336.42,854,751,0
3533042,337.58,854,750,0
3533052,340.32,854,751,0
3533062,344.73,854,750,0
3533072,353.38,854,751,0
3533091,367.41,825,750,0
3533094,390.47,825,752,0
3533103,422.77,825,750,0
3533113,461.84,825,751,0
3533123,504.40,825,750,0
3533133,548.42,825,751,0
3533143,590.77,825,750,0
3533153,629.11,825,752,0
3533163,659.68,825,750,0
3533173,681.37,825,752,0
3533184,696.56,825,751,0
3533193,707.19,825,752,0
3533203,714.64,825,750,0
3533213,719.84,825,752,0
3533223,723.49,825,751,0
3533233,726.09,825,752,0
3533243,727.90,825,750,0
3533253,728.79,825,752,0
3533263,725.68,825,751,0
3533273,717.63,825,752,0
3533283,702.87,825,750,0
3533293,681.22,825,751,0
3533303,652.40,825,751,0
3533313,617.05,825,752,0
3533323,575.68,825,750,0
3533333,532.58,825,751,0
3533343,489.46,825,751,0
3533353,449.12,825,751,0
3533363,412.44,825,750,0
3533373,381.07,825,751,0
3533383,354.82,825,751,0
3533393,334.90,825,751,0
3533403,320.23,825,750,0
3533413,311.12,825,751,0
3533423,306.41,825,751,0
3533433,306.20,825,751,0
3533443,308.46,825,750,0
3533453,313.16,825,751,0
3533463,318.38,825,750,0
3533473,324.36,825,751,0
3533484,329.48,825,750,0
3533494,334.01,825,751,0
3533504,336.66,825,751,0
3533514,338.18,825,751,0
3533524,337.91,825,751,0
3533534,336.57,825,751,0
3533544,333.82,825,751,0
3533554,330.32,825,752,0
3533564,325.98,825,751,0
3533574,321.74,825,751,0
3533584,317.41,825,751,0
3533594,313.73,825,751,0
3533604,310.51,825,751,0
3533614,308.30,825,751,0
3533624,306.88,825,751,0
3533634,306.70,825,751,0
3533644,307.13,825,751,0
3533655,308.64,825,751,0
3533665,310.46,825,751,0
3533675,313.02,825,751,0
3533685,315.59,825,751,0
3533696,318.41,825,751,0
3533705,320.90,825,751,0
3533715,323.37,825,751,0
3533725,325.36,825,751,0
3533735,327.27,825,751,0
3533745,328.73,825,751,0
3533755,330.14,825,751,0
3533765,331.51,825,751,0
3533775,332.82,825,751,0
3533785,333.99,825,751,0
3533795,335.23,825,751,0
3533805,336.23,825,751,0
3533815,336.89,825,751,0
3533825,337.14,825,751,0
3533835,337.14,825,751,0
3533845,336.67,825,751,0
3533855,336.17,825,751,0
3533865,335.22,825,751,0
3533875,334.42,825,751,0
3533885,333.57,825,751,0
3533895,333.05,825,751,0
3533905,332.57,825,751,0
3533915,333.13,825,751,0
3533925,335.27,825,751,0
3533935,340.93,825,751,0
3533945,351.45,825,751,0
3533955,369.19,825,751,0
3533965,395.62,825,751,0
3533984,431.18,893,750,0
3533987,472.52,893,751,0
3533996,516.72,893,751,0
3534006,560.86,893,751,0
3534016,602.22,893,751,0
3534026,638.15,893,751,0
3534036,666.31,893,751,0
3534046,686.02,893,751,0
3534056,699.81,893,751,0
3534066,709.47,893,751,0
3534076,716.23,893,751,0
3534086,720.96,893,752,0
3534096,724.27,893,751,0
3534106,726.59,893,751,0
3534116,725.56,893,751,0
3534126,719.95,893,751,0
3534136,708.56,893,751,0
3534146,690.78,893,751,0
3534156,666.37,893,751,0
3534167,635.62,893,751,0
3534177,598.66,893,750,0
3534187,558.91,893,751,0
3534197,518.18,893,751,0
3534208,478.95,893,751,0
3534217,442.50,893,751,0
3534227,410.12,893,751,0
3534237,382.23,893,750,0
3534247,359.87,893,752,0
3534257,342.68,893,750,0
3534267,331.08,893,751,0
3534277,324.20,893,751,0
3534287,321.95,893,752,0
3534297,323.25,893,750,0
3534307,327.51,893,751,0
3534317,333.23,893,750,0
3534327,340.01,893,751,0
3534337,346.65,893,750,0
3534347,352.71,893,751,0
3534357,357.17,893,750,0
3534367,360.16,893,752,0
3534377,361.14,893,750,0
3534387,360.63,893,751,0
3534397,358.21,893,750,0
3534407,354.81,893,751,0
3534417,350.02,893,750,0
3534427,344.91,893,751,0
3534437,339.24,893,750,0
3534447,333.90,893,752,0
3534457,328.78,893,750,0
3534467,324.69,893,752,0
3534477,321.01,893,750,0
3534487,318.78,893,751,0
3534497,317.43,893,750,0
3534508,317.56,893,751,0
3534518,318.68,893,750,0
3534528,320.83,893,752,0
3534538,323.37,893,750,0
3534548,326.77,893,751,0
3534558,330.31,893,750,0
3534568,334.12,893,751,0
3534578,337.47,893,750,0
3534588,340.67,893,751,0
3534598,343.08,893,750,0
3534608,345.42,893,751,0
3534618,346.66,893,750,0
3534628,347.41,893,751,0
3534638,347.28,893,750,0
3534648,347.11,893,751,0
3534658,346.18,893,750,0
3534668,345.44,893,751,0
3534679,344.19,893,750,0
3534689,343.54,893,751,0
3534699,342.77,893,750,0
3534709,342.80,893,751,0
3534720,342.47,893,750,0
3534729,342.76,893,751,0
3534739,342.70,893,750,0
3534749,343.26,893,752,0
3534759,344.21,893,750,0
3534769,347.19,893,752,0
3534779,352.79,893,750,0
3534789,363.91,893,751,0
3534799,381.85,893,750,0
3534809,408.98,893,752,0
3534828,444.30,844,750,0
3534831,485.01,844,752,0
3534840,528.04,844,750,0
3534850,570.97,844,752,0
3534860,610.66,844,750,0
3534870,644.75,844,752,0
3534880,670.88,844,750,0
3534891,689.17,844,752,0
3534900,701.98,844,750,0
3534910,710.94,844,751,0
3534920,717.17,844,750,0
3534930,721.54,844,752,0
3534940,724.55,844,750,0
3534950,723.87,844,751,0
3534960,717.69,844,750,0
3534970,705.53,844,751,0
3534980,686.81,844,750,0
3534990,661.88,844,751,0
3535000,630.59,844,750,0
3535010,593.68,844,751,0
3535020,554.26,844,750,0
3535030,515.36,844,751,0
3535040,477.96,844,750,0
3535050,443.90,844,751,0
3535060,413.50,844,750,0
3535070,388.32,844,751,0
3535080,367.91,844,750,0
3535090,353.07,844,751,0
3535100,342.98,844,750,0
3535110,337.97,844,751,0
3535120,336.78,844,750,0
3535130,339.29,844,751,0
3535140,343.62,844,750,0
3535150,349.65,844,751,0
3535160,355.71,844,750,0
3535170,361.58,844,751,0
3535180,365.95,844,750,0
3535191,369.05,844,751,0
3535201,369.89,844,750,0
3535211,369.11,844,751,0
3535221,366.42,844,750,0
3535232,362.44,844,751,0
3535241,356.95,844,750,0
3535251,351.09,844,751,0
3535261,344.59,844,751,0
3535271,338.54,844,751,0
3535281,332.64,844,750,0
3535291,327.78,844,751,0
3535301,323.56,844,750,0
3535311,320.95,844,751,0
3535321,319.12,844,750,0
3535331,318.78,844,751,0
3535341,319.28,844,750,0
3535351,321.17,844,751,0
3535361,323.39,844,750,0
3535371,326.70,844,752,0
3535381,330.05,844,750,0
3535391,334.02,844,751,0
3535401,337.87,844,751,0
3535411,341.68,844,751,0
3535421,344.90,844,750,0
3535431,347.93,844,751,0
3535441,350.01,844,751,0
3535451,351.85,844,752,0
3535461,352.67,844,751,0
3535471,353.07,844,751,0
3535481,352.79,844,751,0
3535491,352.38,844,751,0
3535501,351.45,844,751,0
3535511,350.76,844,751,0
3535521,349.72,844,751,0
3535532,349.03,844,751,0
3535542,348.12,844,751,0
3535552,347.53,844,751,0
3535562,346.68,844,751,0
3535572,346.22,844,751,0
3535582,345.56,844,751,0
3535592,345.05,844,751,0
3535602,344.69,844,751,0
3535612,345.47,844,751,0
3535622,348.07,844,751,0
3535632,354.48,844,751,0
3535642,366.29,844,751,0
3535652,385.92,844,751,0
3535662,414.49,844,751,0
3535672,450.98,844,751,0
3535691,492.22,863,750,0
3535694,535.57,863,751,0
3535703,578.08,863,751,0
3535713,617.06,863,751,0
3535723,649.70,863,751,0
3535733,674.35,863,751,0
3535744,691.60,863,751,0
3535753,703.68,863,751,0
3535763,712.17,863,751,0
3535773,718.08,863,751,0
3535783,722.21,863,751,0
3535793,725.15,863,751,0
3535803,727.20,863,751,0
3535813,728.64,863,750,0
3535823,729.65,863,751,0
3535833,729.03,863,751,0
3535843,724.86,863,751,0
3535853,715.22,863,750,0
3535863,699.12,863,751,0
3535873,676.37,863,751,0
3535883,646.99,863,751,0
3535893,611.29,863,750,0
3535903,571.05,863,751,0
3535913,529.08,863,750,0
3535923,488.34,863,751,0
3535933,450.99,863,750,0
3535943,418.04,863,751,0
3535953,390.43,863,750,0
3535963,368.53,863,751,0
3535973,352.60,863,750,0
3535983,342.43,863,751,0
3535993,337.20,863,750,0
3536003,335.81,863,751,0
3536013,337.58,863,751,0
3536023,341.48,863,751,0
3536033,346.44,863,751,0
3536044,351.75,863,751,0
3536054,356.20,863,750,0
3536064,359.61,863,752,0
3536074,361.35,863,750,0
3536084,361.55,863,751,0
3536094,360.01,863,750,0
3536104,357.27,863,751,0
3536114,353.24,863,750,0
3536124,348.88,863,751,0
3536134,344.25,863,750,0
3536144,340.14,863,751,0
3536154,336.46,863,750,0
3536164,333.79,863,751,0
3536174,332.05,863,750,0
3536184,331.44,863,751,0
3536194,331.65,863,750,0
3536204,332.87,863,751,0
3536215,334.67,863,750,0
3536225,337.25,863,751,0
3536235,340.09,863,750,0
3536245,343.23,863,751,0
3536256,346.34,863,750,0
3536265,349.71,863,751,0
3536275,352.67,863,750,0
3536285,355.51,863,751,0
3536295,357.67,863,750,0
3536305,359.57,863,751,0
3536315,360.90,863,750,0
3536325,361.91,863,751,0
3536335,361.98,863,750,0
3536345,361.90,863,752,0
3536355,361.25,863,750,0
3536365,360.44,863,751,0
3536375,359.15,863,750,0
3536385,357.86,863,752,0
3536395,356.45,863,750,0
3536405,355.50,863,751,0
3536415,354.32,863,750,0
3536425,353.54,863,751,0
3536435,352.86,863,750,0
3536445,352.52,863,751,0
3536455,351.98,863,750,0
3536465,351.77,863,752,0
3536475,351.41,863,750,0
3536485,351.84,863,751,0
3536495,352.92,863,750,0
3536505,356.20,863,752,0
3536515,362.78,863,750,0
3536525,375.11,863,751,0
3536535,394.96,863,750,0
3536545,424.97,863,752,0
3536565,461.75,874,750,0
3536568,502.93,874,751,0
3536577,545.59,874,750,0
3536587,587.46,874,752,0
3536598,625.59,874,750,0
3536607,657.26,874,751,0
3536617,679.68,874,750,0
3536627,695.38,874,751,0
3536637,706.36,874,750,0
3536647,714.05,874,751,0
3536657,719.44,874,750,0
3536667,723.21,874,752,0
3536677,725.84,874,750,0
3536687,727.69,874,751,0
3536697,728.98,874,750,0
3536707,729.89,874,751,0
3536717,730.52,874,750,0
3536727,730.97,874,751,0
3536737,731.28,874,750,0
3536747,728.54,874,751,0
3536757,720.10,874,750,0
3536768,704.94,874,751,0
3536777,682.12,874,750,0
3536787,652.00,874,751,0
3536797,614.71,874,750,0
3536807,571.13,874,751,0
3536817,524.89,874,750,0
3536827,480.14,874,751,0
3536837,438.70,874,750,0
3536847,403.09,874,751,0
3536857,373.70,874,750,0
3536867,351.34,874,751,0
3536877,335.33,874,750,0
3536887,326.06,874,751,0
3536897,321.59,874,750,0
3536907,321.93,874,751,0
3536917,324.73,874,750,0
3536927,329.57,874,751,0
3536937,334.84,874,750,0
3536947,340.63,874,751,0
3536957,345.20,874,750,0
3536967,349.25,874,751,0
3536977,351.15,874,750,0
3536987,352.00,874,751,0
3536997,351.02,874,750,0
3537007,349.30,874,751,0
3537017,346.21,874,750,0
3537027,342.97,874,751,0
3537037,338.91,874,750,0
3537047,335.47,874,751,0
3537057,331.98,874,750,0
3537068,329.46,874,751,0
3537078,327.22,874,750,0
3537088,326.26,874,751,0
3537098,325.54,874,750,0
3537108,325.93,874,751,0
3537118,326.42,874,750,0
3537128,327.63,874,751,0
3537138,328.68,874,750,0
3537148,330.19,874,751,0
3537158,331.08,874,750,0
3537168,332.38,874,751,0
3537178,333.17,874,750,0
3537188,334.15,874,751,0
3537198,334.66,874,750,0
3537208,335.49,874,751,0
3537218,336.03,874,750,0
3537228,336.75,874,751,0
3537239,336.91,874,751,0
3537249,337.02,874,751,0
3537259,336.59,874,750,0
3537269,336.20,874,751,0
3537280,335.28,874,751,0
3537289,334.47,874,751,0
3537299,333.56,874,751,0
3537309,333.05,874,751,0
3537319,332.82,874,751,0
3537329,333.17,874,751,0
3537339,333.59,874,750,0
3537349,334.57,874,751,0
3537359,335.51,874,751,0
3537369,336.90,874,751,0
3537379,338.05,874,751,0
3537389,339.36,874,751,0
3537399,340.41,874,751,0
3537409,341.92,874,751,0
3537419,343.70,874,751,0
3537429,347.13,874,751,0
3537439,353.05,874,751,0
3537449,363.83,874,751,0
3537468,380.73,903,750,0
3537471,406.95,903,751,0
3537480,441.55,903,751,0
3537490,481.71,903,751,0
3537500,524.44,903,751,0
3537510,567.30,903,751,0
3537520,607.36,903,751,0
3537530,642.48,903,751,0
3537540,669.34,903,751,0
3537550,688.14,903,751,0
3537560,701.30,903,751,0
3537570,710.51,903,751,0
3537580,716.95,903,751,0
3537590,721.47,903,751,0
3537600,724.63,903,751,0
3537610,726.84,903,751,0
3537620,728.39,903,751,0
3537630,729.47,903,751,0
3537640,727.92,903,751,0
3537650,721.90,903,751,0
3537660,709.84,903,751,0
3537670,691.20,903,751,0
3537680,665.34,903,751,0
3537690,632.54,903,751,0
3537700,593.16,903,751,0
3537710,550.26,903,751,0
3537720,506.34,903,751,0
3537730,464.28,903,751,0
3537740,425.32,903,751,0
3537751,391.28,903,751,0
3537761,362.83,903,751,0
3537771,340.55,903,751,0
3537781,324.23,903,751,0
3537792,313.92,903,750,0
3537801,308.63,903,751,0
3537811,308.10,903,751,0
3537821,311.02,903,751,0
3537831,316.37,903,750,0
3537841,323.03,903,751,0
3537851,330.22,903,750,0
3537861,336.93,903,751,0
3537871,342.52,903,750,0
3537881,346.39,903,751,0
3537891,348.38,903,751,0
3537901,348.69,903,751,0
3537911,347.07,903,750,0
3537921,343.96,903,751,0
3537931,339.73,903,751,0
3537941,334.97,903,751,0
3537951,329.96,903,750,0
3537961,325.30,903,751,0
3537971,320.97,903,750,0
3537981,317.64,903,751,0
3537991,315.52,903,750,0
3538001,314.59,903,751,0
3538011,314.71,903,751,0
3538021,315.87,903,751,0
3538031,317.97,903,750,0
3538041,320.76,903,751,0
3538051,324.09,903,751,0
3538061,327.41,903,751,0
3538071,330.54,903,750,0
3538081,333.59,903,751,0
3538092,336.29,903,750,0
3538102,338.77,903,751,0
3538112,340.68,903,750,0
3538122,342.36,903,751,0
3538132,343.45,903,750,0
3538142,344.39,903,751,0
3538152,344.66,903,750,0
3538162,345.02,903,751,0
3538172,344.46,903,750,0
3538182,343.89,903,752,0
3538192,342.68,903,750,0
3538202,341.49,903,751,0
3538212,339.84,903,750,0
3538222,338.48,903,751,0
3538232,336.79,903,750,0
3538242,335.74,903,751,0
3538252,334.62,903,750,0
3538263,333.92,903,751,0
3538273,333.39,903,750,0
3538283,333.40,903,751,0
3538293,333.58,903,750,0
3538304,334.86,903,752,0
3538313,337.69,903,750,0
3538323,344.21,903,751,0
3538333,355.38,903,750,0
3538343,373.73,903,751,0
3538353,400.13,903,750,0
3538372,435.53,904,749,0
3538375,476.30,904,750,0
3538384,519.88,904,751,0
3538394,563.07,904,750,0
3538404,603.72,904,751,0
3538414,638.74,904,750,0
3538424,666.67,904,751,0
3538434,686.23,904,750,0
3538444,699.96,904,751,0
3538454,709.57,904,751,0
3538464,716.30,904,752,0
3538475,721.01,904,750,0
3538484,724.31,904,752,0
3538494,723.91,904,751,0
3538504,718.58,904,752,0
3538514,707.01,904,750,0
3538524,689.22,904,751,0
3538534,664.51,904,750,0
3538544,633.59,904,751,0
3538554,596.42,904,750,0
3538564,556.83,904,751,0
3538574,516.51,904,750,0
3538584,478.17,904,751,0
3538594,442.12,904,750,0
3538604,410.54,904,751,0
3538614,383.12,904,750,0
3538624,361.01,904,751,0
3538634,343.44,904,750,0
3538644,331.26,904,751,0
3538654,323.34,904,750,0
3538664,320.32,904,751,0
3538674,320.44,904,750,0
3538684,323.69,904,751,0
3538694,328.24,904,750,0
3538704,334.08,904,751,0
3538714,339.55,904,750,0
3538724,344.78,904,751,0
3538734,348.23,904,749,0
3538744,350.39,904,751,0
3538754,350.45,904,750,0
3538764,349.37,904,751,0
3538775,346.26,904,750,0
3538785,342.24,904,752,0
3538795,336.72,904,750,0
3538805,330.94,904,751,0
3538816,324.48,904,750,0
3538825,318.60,904,751,0
3538835,312.80,904,750,0
3538845,308.45,904,751,0
3538855,304.84,904,750,0
3538865,302.92,904,751,0
3538875,301.91,904,750,0
3538885,302.54,904,751,0
3538895,303.75,904,750,0
3538905,306.22,904,752,0
3538915,309.11,904,750,0
3538925,313.02,904,751,0
3538935,316.66,904,750,0
3538945,320.79,904,751,0
3538955,324.71,904,750,0
3538965,329.13,904,751,0
3538975,333.03,904,750,0
3538985,337.09,904,752,0
3538995,340.19,904,750,0
3539005,343.74,904,752,0
3539015,346.39,904,750,0
3539025,348.93,904,752,0
3539035,350.32,904,750,0
3539045,351.55,904,752,0
3539055,351.56,904,750,0
3539065,351.48,904,752,0
3539075,350.31,904,750,0
3539085,349.27,904,751,0
3539095,347.43,904,750,0
3539105,345.72,904,752,0
3539116,343.49,904,751,0
3539126,341.76,904,752,0
3539136,340.50,904,750,0
3539146,341.04,904,751,0
3539156,344.20,904,751,0
3539166,352.32,904,751,0
3539176,366.80,904,750,0
3539186,390.39,904,752,0
3539196,423.61,904,751,0
3539206,463.42,904,751,0
3539225,506.75,853,750,0
3539228,550.92,853,753,0
3539237,593.03,853,751,0
3539247,630.69,853,751,0
3539257,660.87,853,751,0
3539267,682.21,853,752,0
3539277,697.15,853,751,0
3539287,707.60,853,752,0
3539297,714.92,853,751,0
3539307,720.05,853,752,0
3539317,723.63,853,751,0
3539328,726.14,853,751,0
3539337,725.59,853,751,0
3539347,720.57,853,752,0
3539357,709.90,853,751,0
3539367,693.26,853,751,0
3539377,670.38,853,751,0
3539387,641.59,853,752,0
3539397,607.00,853,751,0
3539407,569.37,853,751,0
3539417,530.82,853,751,0
3539427,493.46,853,752,0
3539437,458.22,853,751,0
3539447,426.48,853,751,0
3539457,398.44,853,751,0
3539467,375.08,853,751,0
3539477,356.41,853,751,0
3539487,342.79,853,751,0
3539497,333.72,853,751,0
3539507,329.26,853,751,0
3539517,328.63,853,751,0
3539527,331.05,853,751,0
3539537,335.54,853,751,0
3539547,341.46,853,751,0
3539557,347.67,853,751,0
3539567,353.85,853,751,0
3539577,359.08,853,751,0
3539587,363.04,853,751,0
3539597,365.60,853,751,0
3539607,366.62,853,751,0
3539617,366.01,853,751,0
3539628,364.03,853,751,0
3539638,360.68,853,751,0
3539648,356.45,853,751,0
3539658,351.51,853,751,0
3539668,346.47,853,751,0
3539678,341.57,853,751,0
3539688,337.29,853,751,0
3539698,333.77,853,751,0
3539708,331.06,853,751,0
3539718,329.28,853,751,0
3539728,328.38,853,751,0
3539738,328.27,853,751,0
3539748,328.83,853,751,0
3539758,330.04,853,751,0
3539768,331.48,853,751,0
3539778,333.35,853,751,0
3539788,335.30,853,750,0
3539799,337.36,853,751,0
3539809,339.31,853,751,0
3539819,341.27,853,751,0
3539829,342.60,853,750,0
3539840,343.84,853,752,0
3539849,344.53,853,751,0
3539859,344.84,853,752,0
3539869,344.63,853,750,0
3539879,344.14,853,752,0
3539889,343.20,853,751,0
3539899,342.41,853,752,0
3539909,341.52,853,750,0
3539919,340.89,853,752,0
3539929,340.49,853,751,0
3539939,340.52,853,751,0
3539949,340.53,853,750,0
3539959,340.72,853,752,0
3539969,340.80,853,751,0
3539979,341.50,853,752,0
3539989,342.72,853,750,0
3539999,345.72,853,751,0
3540009,351.72,853,750,0
3540019,362.86,853,751,0
3540029,381.07,853,750,0
3540048,408.57,823,749,0
3540051,443.97,823,751,0
3540060,484.78,823,752,0
3540070,527.87,823,750,0
3540080,570.73,823,752,0
3540090,610.62,823,750,0
3540100,644.85,823,751,0
3540110,670.87,823,750,0
3540120,689.12,823,752,0
3540130,701.90,823,750,0
3540140,710.89,823,752,0
3540150,717.18,823,751,0
3540160,721.58,823,752,0
3540170,724.66,823,750,0
3540180,726.86,823,752,0
3540190,728.41,823,751,0
3540200,729.48,823,752,0
3540210,728.40,823,750,0
3540220,723.52,823,751,0
3540230,713.42,823,750,0
3540240,697.57,823,752,0
3540250,675.11,823,750,0
3540260,646.45,823,751,0
3540270,612.20,823,750,0
3540280,574.38,823,752,0
3540290,535.53,823,751,0
3540300,498.04,823,752,0
3540311,462.88,823,751,0
3540321,432.10,823,752,0
3540331,405.76,823,751,0
3540341,384.40,823,752,0
3540352,368.04,823,750,0
3540361,356.63,823,752,0
3540371,349.28,823,750,0
3540381,346.03,823,752,0
3540391,345.46,823,750,0
3540401,347.42,823,752,0
3540411,349.95,823,750,0
3540421,353.01,823,752,0
3540431,355.32,823,750,0
3540441,357.32,823,752,0
3540451,357.87,823,750,0
3540461,357.39,823,752,0
3540471,355.52,823,750,0
3540481,353.18,823,752,0
3540491,349.91,823,750,0
3540501,346.47,823,751,0
3540511,342.30,823,750,0
3540521,338.74,823,752,0
3540531,335.43,823,750,0
3540541,333.07,823,752,0
3540551,331.47,823,750,0
3540561,331.20,823,752,0
3540571,331.82,823,750,0
3540581,333.76,823,752,0
3540591,335.98,823,750,0
3540601,339.20,823,752,0
3540611,342.18,823,750,0
3540621,345.64,823,752,0
3540631,348.49,823,750,0
3540641,351.39,823,752,0
3540652,353.54,823,750,0
3540662,356.08,823,752,0
3540672,357.56,823,750,0
3540682,359.02,823,752,0
3540692,359.40,823,750,0
3540702,360.09,823,752,0
3540712,360.11,823,750,0
3540722,360.16,823,751,0
3540732,359.21,823,750,0
3540742,358.63,823,752,0
3540752,357.67,823,750,0
3540762,357.17,823,751,0
3540772,356.18,823,751,0
3540782,355.65,823,752,0
3540792,354.90,823,750,0
3540802,354.84,823,751,0
3540812,354.42,823,750,0
3540823,354.46,823,752,0
3540833,354.15,823,750,0
3540843,354.45,823,752,0
3540853,354.44,823,751,0
3540864,355.08,823,752,0
3540873,355.74,823,750,0
3540883,358.31,823,751,0
3540893,363.23,823,751,0
3540903,373.06,823,751,0
3540913,388.64,823,751,0
3540923,413.14,823,751,0
3540942,446.05,894,751,0
3540945,484.86,894,751,0
3540954,526.31,894,751,0
3540964,568.21,894,751,0
3540974,607.54,894,751,0
3540984,642.30,894,752,0
3540994,669.30,894,751,0
3541004,688.19,894,751,0
3541014,701.38,894,751,0
3541024,710.69,894,751,0
3541035,717.26,894,751,0
3541044,721.85,894,751,0
3541054,724.98,894,751,0
3541064,727.22,894,752,0
3541074,728.82,894,751,0
3541084,729.95,894,752,0
3541094,730.69,894,751,0
3541104,731.21,894,752,0
3541114,731.62,894,751,0
3541124,730.02,894,752,0
3541134,723.63,894,751,0
3541144,711.48,894,752,0
3541154,692.18,894,751,0
3541164,665.98,894,752,0
3541174,633.03,894,751,0
3541184,594.36,894,752,0
3541194,552.38,894,751,0
3541204,511.13,894,752,0
3541214,472.39,894,751,0
3541224,438.76,894,752,0
3541234,410.76,894,751,0
3541244,388.93,894,751,0
3541254,372.37,894,751,0
3541264,361.46,894,752,0
3541274,354.85,894,751,0
3541284,352.28,894,752,0
3541294,352.02,894,751,0
3541304,353.52,894,752,0
3541314,355.50,894,751,0
3541324,358.22,894,751,0
3541335,360.09,894,751,0
3541345,361.26,894,751,0
3541355,360.80,894,751,0
3541365,359.40,894,751,0
3541376,356.37,894,752,0
3541385,352.74,894,752,0
3541395,347.81,894,751,0
3541405,342.42,894,751,0
3541415,336.59,894,752,0
3541425,331.19,894,752,0
3541435,326.16,894,751,0
3541445,322.21,894,751,0
3541455,318.89,894,752,0
3541465,316.82,894,752,0
3541475,315.85,894,751,0
3541485,316.24,894,751,0
3541495,317.28,894,752,0
3541505,319.21,894,751,0
3541515,321.55,894,751,0
3541525,324.51,894,751,0
3541535,327.40,894,752,0
3541545,330.32,894,751,0
3541555,332.71,894,751,0
3541565,334.86,894,751,0
3541575,336.31,894,751,0
3541585,337.38,894,751,0
3541595,337.61,894,751,0
3541605,337.55,894,751,0
3541615,336.96,894,752,0
3541625,336.11,894,751,0
3541635,334.92,894,751,0
3541645,333.66,894,751,0
3541655,332.05,894,751,0
3541665,330.32,894,751,0
3541676,328.47,894,752,0
3541686,326.78,894,751,0
3541696,325.22,894,752,0
3541706,323.95,894,751,0
3541716,322.77,894,752,0
3541726,322.07,894,751,0
3541736,321.66,894,751,0
3541746,321.51,894,751,0
3541756,321.61,894,752,0
3541766,322.16,894,751,0
3541776,323.40,894,751,0
3541786,326.06,894,751,0
3541796,331.40,894,752,0
3541806,340.45,894,751,0
3541816,354.80,894,751,0
3541826,376.16,894,751,0
3541846,406.37,903,750,0
3541849,444.19,903,751,0
3541858,486.52,903,751,0
3541868,530.20,903,751,0
3541878,573.09,903,752,0
3541889,612.66,903,750,0
3541899,646.49,903,751,0
3541909,672.10,903,751,0
3541919,690.07,903,752,0
3541929,702.65,903,751,0
3541939,711.45,903,751,0
3541949,717.62,903,750,0
3541959,721.93,903,752,0
3541969,722.08,903,751,0
3541979,717.34,903,751,0
3541989,706.57,903,751,0
3541999,689.64,903,752,0
3542009,666.13,903,750,0
3542019,636.87,903,751,0
3542029,602.02,903,751,0
3542039,565.29,903,752,0
3542049,528.04,903,750,0
3542060,492.76,903,751,0
3542070,460.09,903,751,0
3542080,431.82,903,752,0
3542090,407.49,903,750,0
3542100,388.06,903,751,0
3542110,372.87,903,750,0
3542120,362.49,903,752,0
3542130,355.83,903,751,0
3542140,353.18,903,751,0
3542150,352.96,903,751,0
3542160,355.33,903,752,0
3542170,358.61,903,750,0
3542180,362.93,903,751,0
3542190,366.89,903,751,0
3542200,370.74,903,751,0
3542210,373.13,903,750,0
3542220,374.68,903,751,0
3542231,374.39,903,750,0
3542241,373.24,903,752,0
3542251,370.38,903,750,0
3542261,366.80,903,751,0
3542272,361.84,903,751,0
3542281,356.75,903,752,0
3542291,350.95,903,751,0
3542301,345.52,903,751,0
3542311,339.84,903,751,0
3542321,335.09,903,752,0
3542331,330.60,903,751,0
3542341,327.42,903,751,0
3542351,324.81,903,751,0
3542361,323.58,903,751,0
3542371,322.89,903,751,0
3542381,323.44,903,751,0
3542391,324.38,903,751,0
3542401,326.37,903,752,0
3542411,328.40,903,750,0
3542421,331.11,903,752,0
3542431,333.43,903,751,0
3542441,336.09,903,752,0
3542451,338.08,903,750,0
3542461,340.07,903,751,0
3542471,341.16,903,751,0
3542481,342.18,903,751,0
3542491,342.69,903,750,0
3542501,343.08,903,751,0
3542511,342.67,903,751,0
3542521,342.43,903,751,0
3542531,341.57,903,750,0
3542541,341.06,903,751,0
3542551,340.18,903,751,0
3542561,339.40,903,751,0
3542572,338.59,903,751,0
3542582,338.37,903,751,0
3542592,337.88,903,751,0
3542602,337.91,903,751,0
3542612,337.85,903,751,0
3542622,338.45,903,751,0
3542632,339.43,903,751,0
3542642,342.22,903,751,0
3542652,347.42,903,751,0
3542662,356.90,903,751,0
3542672,371.24,903,751,0
3542682,392.38,903,752,0
3542702,420.34,856,750,0
3542705,455.64,856,750,0
3542714,495.22,856,752,0
3542724,536.38,856,751,0
3542734,576.47,856,752,0
3542744,613.57,856,751,0
3542754,645.33,856,751,0
3542764,670.90,856,751,0
3542774,689.23,856,751,0
3542785,699.88,856,751,0
3542795,702.96,856,752,0
3542805,698.68,856,751,0
3542815,687.16,856,751,0
3542825,668.56,856,751,0
3542835,643.58,856,752,0
3542845,612.89,856,751,0
3542855,579.28,856,752,0
3542865,544.91,856,751,0
3542875,511.47,856,752,0
3542885,480.21,856,751,0
3542895,452.33,856,751,0
3542905,428.11,856,751,0
3542915,407.85,856,751,0
3542925,391.73,856,751,0
3542935,379.73,856,751,0
3542945,371.50,856,751,0
3542956,366.98,856,752,0
3542966,365.57,856,751,0
3542976,366.90,856,751,0
3542986,370.23,856,750,0
3542996,375.00,856,752,0
3543006,380.44,856,751,0
3543016,386.05,856,751,0
3543026,390.92,856,750,0
3543036,394.89,856,752,0
3543046,397.41,856,751,0
3543056,398.83,856,751,0
3543066,398.19,856,750,0
3543076,396.21,856,752,0
3543086,392.46,856,750,0
3543096,387.65,856,752,0
3543106,381.54,856,750,0
3543116,374.78,856,751,0
3543127,367.05,856,750,0
3543137,359.70,856,752,0
3543147,352.25,856,750,0
3543157,345.83,856,752,0
3543168,340.01,856,750,0
3543177,335.68,856,752,0
3543187,332.26,856,750,0
3543197,330.34,856,751,0
3543207,329.42,856,750,0
3543217,329.77,856,751,0
3543227,330.69,856,750,0
3543237,332.59,856,751,0
3543247,334.64,856,750,0
3543257,337.36,856,751,0
3543267,340.08,856,750,0
3543277,342.93,856,751,0
3543287,345.52,856,750,0
3543297,348.49,856,752,0
3543307,350.92,856,750,0
3543317,353.21,856,751,0
3543327,354.65,856,750,0
3543337,355.74,856,752,0
3543347,356.03,856,750,0
3543357,356.11,856,751,0
3543367,355.13,856,750,0
3543377,354.45,856,752,0
3543387,353.33,856,750,0
3543397,352.33,856,751,0
3543407,351.29,856,750,0
3543417,351.07,856,751,0
3543427,351.74,856,750,0
3543437,354.90,856,751,0
3543447,360.97,856,750,0
3543457,372.25,856,751,0
3543468,389.58,856,750,0
3543478,414.13,856,751,0
3543497,445.59,796,750,0
3543500,483.04,796,752,0
3543510,523.14,796,751,0
3543519,563.47,796,751,0
3543529,601.22,796,751,0
3543539,634.75,796,752,0
3543549,662.25,796,751,0
3543559,683.18,796,752,0
3543569,697.82,796,750,0
3543579,707.18,796,752,0
3543589,710.47,796,750,0
3543599,708.10,796,752,0
3543609,699.50,796,750,0
3543619,685.12,796,751,0
3543629,664.86,796,750,0
3543639,639.57,796,751,0
3543649,610.38,796,750,0
3543659,580.27,796,751,0
3543669,549.89,796,750,0
3543680,521.46,796,751,0
3543689,495.44,796,751,0
3543699,472.89,796,751,0
3543709,453.43,796,750,0
3543719,437.61,796,751,0
3543729,424.66,796,751,0
3543739,415.03,796,752,0
3543749,407.69,796,750,0
3543759,402.99,796,751,0
3543769,399.86,796,750,0
3543779,398.66,796,751,0
3543789,398.38,796,750,0
3543799,399.55,796,751,0
3543809,400.88,796,750,0
3543819,402.76,796,752,0
3543829,403.78,796,750,0
3543839,404.57,796,751,0
3543849,404.10,796,751,0
3543859,402.87,796,751,0
3543869,399.95,796,750,0
3543879,396.45,796,751,0
3543889,391.47,796,751,0
3543899,386.15,796,751,0
3543909,380.02,796,750,0
3543919,373.97,796,751,0
3543929,367.72,796,751,0
3543939,362.10,796,751,0
3543949,356.50,796,750,0
3543959,352.11,796,751,0
3543969,348.26,796,750,0
3543980,345.83,796,751,0
3543990,344.08,796,751,0
3544000,343.50,796,751,0
3544010,343.48,796,751,0
3544020,344.62,796,751,0
3544030,345.89,796,750,0
3544040,347.85,796,751,0
3544050,349.57,796,751,0
3544060,351.67,796,751,0
3544070,353.61,796,751,0
3544080,355.83,796,751,0
3544090,357.47,796,751,0
3544100,359.30,796,751,0
3544110,360.54,796,751,0
3544120,361.70,796,751,0
3544130,362.05,796,751,0
3544140,362.04,796,751,0
3544151,361.25,796,751,0
3544161,360.62,796,751,0
3544171,359.62,796,751,0
3544181,358.88,796,751,0
3544192,358.23,796,751,0
3544201,358.80,796,751,0
3544211,360.32,796,751,0
3544221,364.38,796,751,0
3544231,371.89,796,751,0
3544241,384.87,796,751,0
3544251,404.32,796,751,0
3544261,431.57,796,751,0
3544281,465.81,783,750,0
3544284,504.78,783,751,0
3544293,545.35,783,752,0
3544303,585.06,783,751,0
3544313,621.30,783,752,0
3544323,652.28,783,751,0
3544333,676.24,783,751,0
3544343,693.01,783,751,0
3544353,704.71,783,751,0
3544364,712.89,783,751,0
3544374,718.63,783,751,0
3544384,720.58,783,751,0
3544394,717.96,783,751,0
3544404,710.17,783,750,0
3544414,697.18,783,751,0
3544424,678.57,783,751,0
3544434,654.83,783,751,0
3544444,625.86,783,750,0
3544454,594.75,783,751,0
3544464,562.89,783,751,0
3544474,531.85,783,752,0
3544484,502.28,783,750,0
3544494,475.24,783,751,0
3544504,450.78,783,750,0
3544514,429.63,783,751,0
3544524,411.53,783,750,0
3544535,396.67,783,751,0
3544545,384.73,783,750,0
3544555,375.85,783,751,0
3544565,369.51,783,750,0
3544576,365.59,783,751,0
3544585,363.35,783,750,0
3544595,362.35,783,751,0
3544605,362.07,783,750,0
3544615,362.39,783,751,0
3544625,362.70,783,750,0
3544635,362.84,783,751,0
3544645,362.16,783,750,0
3544655,361.08,783,751,0
3544665,359.04,783,751,0
3544675,356.76,783,752,0
3544685,353.49,783,750,0
3544695,349.66,783,751,0
3544705,345.34,783,750,0
3544715,341.30,783,751,0
3544725,337.09,783,750,0
3544735,333.47,783,751,0
3544745,329.77,783,750,0
3544755,327.01,783,751,0
3544765,324.78,783,750,0
3544775,323.52,783,751,0
3544785,322.59,783,750,0
3544795,322.54,783,751,0
3544805,322.72,783,750,0
3544815,323.66,783,751,0
3544825,324.66,783,750,0
3544835,326.18,783,751,0
3544845,327.54,783,750,0
3544855,329.31,783,751,0
3544865,330.59,783,750,0
3544876,332.04,783,751,0
3544886,332.88,783,750,0
3544896,333.86,783,751,0
3544906,334.29,783,750,0
3544916,334.97,783,751,0
3544926,335.11,783,750,0
3544936,335.63,783,751,0
3544946,335.70,783,750,0
3544956,336.01,783,752,0
3544966,336.00,783,750,0
3544976,336.00,783,752,0
3544986,335.44,783,750,0
3544996,335.27,783,751,0
3545006,335.27,783,750,0
3545016,337.21,783,751,0
3545026,341.64,783,750,0
3545036,350.75,783,751,0
3545047,365.87,783,750,0
3545066,388.88,786,749,0
3545069,420.12,786,750,0
3545078,458.65,786,751,0
3545089,500.84,786,751,0
3545099,544.22,786,751,0
3545109,585.64,786,751,0
3545119,622.99,786,752,0
3545129,653.98,786,751,0
3545139,677.43,786,751,0
3545149,693.33,786,751,0
3545159,702.23,786,751,0
3545169,703.75,786,751,0
3545179,698.29,786,751,0
3545189,685.65,786,751,0
3545199,666.51,786,751,0
3545209,641.07,786,751,0
3545219,611.01,786,751,0
3545229,578.18,786,751,0
3545239,545.30,786,751,0
3545249,512.98,786,751,0
3545260,483.46,786,751,0
3545270,456.19,786,751,0
3545280,432.13,786,751,0
3545290,410.45,786,751,0
3545300,391.89,786,751,0
3545310,375.89,786,751,0
3545320,363.20,786,751,0
3545330,352.81,786,751,0
3545340,345.41,786,751,0
3545350,340.27,786,751,0
3545360,337.70,786,751,0
3545370,337.02,786,751,0
3545380,338.00,786,751,0
3545390,339.97,786,751,0
3545400,342.42,786,751,0
3545410,344.57,786,751,0
3545420,346.67,786,751,0
3545431,347.63,786,751,0
3545441,347.61,786,751,0
3545451,346.14,786,751,0
3545461,343.36,786,751,0
3545472,339.43,786,752,0
3545481,334.93,786,751,0
3545491,329.60,786,751,0
3545501,324.53,786,751,0
3545511,319.27,786,752,0
3545521,314.69,786,751,0
3545531,310.67,786,751,0
3545541,307.51,786,751,0
3545551,305.43,786,752,0
3545561,304.44,786,751,0
3545571,304.27,786,751,0
3545581,304.92,786,751,0
3545591,306.27,786,752,0
3545601,308.12,786,751,0
3545611,310.18,786,751,0
3545621,312.36,786,751,0
3545631,314.43,786,752,0
3545641,316.36,786,751,0
3545651,318.01,786,751,0
3545661,319.25,786,751,0
3545671,320.25,786,751,0
3545681,321.20,786,751,0
3545691,321.91,786,751,0
3545701,322.45,786,751,0
3545711,322.79,786,751,0
3545721,323.15,786,751,0
3545731,323.45,786,751,0
3545741,323.83,786,751,0
3545751,324.09,786,751,0
3545761,324.24,786,751,0
3545772,324.47,786,752,0
3545782,324.54,786,751,0
3545792,324.81,786,751,0
3545802,324.91,786,751,0
3545812,325.02,786,752,0
3545822,324.89,786,751,0
3545832,324.75,786,751,0
3545842,324.61,786,751,0
3545852,325.28,786,752,0
3545862,327.08,786,751,0
3545872,331.56,786,751,0
3545882,340.01,786,751,0
3545892,354.28,786,752,0
3545902,375.36,786,751,0
3545921,404.31,855,749,0
3545924,441.12,855,750,0
3545933,482.87,855,752,0
3545943,526.45,855,751,0
3545953,568.96,855,751,0
3545963,608.01,855,751,0
3545973,641.78,855,752,0
3545984,668.63,855,750,0
3545993,687.64,855,752,0
3546003,698.98,855,751,0
3546013,703.14,855,752,0
3546023,700.01,855,750,0
3546033,690.20,855,752,0
3546043,673.81,855,751,0
3546053,651.75,855,751,0
3546063,624.10,855,750,0
3546073,594.03,855,751,0
3546083,563.03,855,751,0
3546093,533.15,855,752,0
3546103,504.78,855,750,0
3546113,478.96,855,752,0
3546123,455.53,855,751,0
3546133,435.23,855,751,0
3546143,417.12,855,750,0
3546153,401.74,855,752,0
3546163,388.66,855,751,0
3546173,378.35,855,752,0
3546183,370.27,855,750,0
3546193,364.70,855,752,0
3546203,361.06,855,751,0
3546213,359.50,855,752,0
3546223,359.22,855,750,0
3546233,360.44,855,751,0
3546243,362.20,855,751,0
3546253,364.67,855,752,0
3546263,366.65,855,750,0
3546273,368.38,855,752,0
3546284,369.04,855,750,0
3546294,368.90,855,751,0
3546304,367.17,855,750,0
3546314,364.46,855,751,0
3546324,360.30,855,750,0
3546334,355.66,855,752,0
3546344,350.28,855,750,0
3546354,345.05,855,752,0
3546364,339.85,855,751,0
3546374,335.22,855,752,0
3546384,330.79,855,750,0
3546394,327.51,855,751,0
3546404,324.65,855,751,0
3546414,322.83,855,752,0
3546424,321.51,855,750,0
3546434,321.31,855,751,0
3546444,321.82,855,750,0
3546455,323.80,855,752,0
3546465,326.00,855,750,0
3546475,329.00,855,751,0
3546485,331.96,855,750,0
3546496,335.53,855,752,0
3546505,338.50,855,750,0
3546515,341.56,855,751,0
3546525,343.54,855,751,0
3546535,345.30,855,752,0
3546545,346.28,855,750,0
3546555,347.10,855,752,0
3546565,346.94,855,750,0
3546575,346.79,855,752,0
3546585,345.95,855,750,0
3546595,345.41,855,752,0
3546605,344.60,855,750,0
3546615,344.08,855,752,0
3546625,343.28,855,750,0
3546635,342.90,855,752,0
3546645,341.99,855,750,0
3546655,341.52,855,752,0
3546665,340.46,855,750,0
3546675,339.77,855,752,0
3546685,338.68,855,750,0
3546695,338.05,855,752,0
3546705,337.35,855,750,0
3546715,337.97,855,752,0
3546725,339.65,855,750,0
3546735,344.34,855,752,0
3546745,352.34,855,750,0
3546755,365.99,855,751,0
3546765,385.97,855,750,0
3546775,414.13,855,752,0
3546795,449.79,873,751,0
3546798,490.23,873,751,0
3546807,532.29,873,750,0
3546817,573.73,873,752,0
3546827,611.91,873,751,0
3546838,645.02,873,752,0
3546847,670.90,873,751,0
3546857,689.19,873,752,0
3546867,701.99,873,751,0
3546877,710.26,873,751,0
3546887,713.14,873,751,0
3546897,710.40,873,752,0
3546907,701.11,873,751,0
3546917,685.86,873,752,0
3546927,664.52,873,750,0
3546937,638.05,873,751,0
3546947,607.18,873,751,0
3546957,575.02,873,751,0
3546967,542.75,873,750,0
3546977,512.39,873,752,0
3546987,484.12,873,751,0
3546997,458.97,873,752,0
3547008,436.61,873,751,0
3547017,418.00,873,752,0
3547027,402.35,873,751,0
3547037,390.33,873,752,0
3547047,381.45,873,751,0
3547057,375.96,873,752,0
3547067,373.10,873,751,0
3547077,372.85,873,751,0
3547087,374.01,873,751,0
3547097,376.62,873,752,0
3547107,379.39,873,751,0
3547117,382.53,873,751,0
3547127,384.94,873,751,0
3547137,387.10,873,752,0
3547147,387.97,873,751,0
3547157,387.72,873,751,0
3547167,385.88,873,751,0
3547177,383.04,873,752,0
3547187,379.00,873,751,0
3547197,374.37,873,751,0
3547207,368.78,873,751,0
3547217,362.97,873,752,0
3547227,357.07,873,751,0
3547237,351.73,873,751,0
3547247,346.80,873,751,0
3547257,342.83,873,752,0
3547267,339.50,873,751,0
3547277,337.29,873,751,0
3547287,335.83,873,751,0
3547297,335.67,873,752,0
3547308,336.11,873,751,0
3547318,337.58,873,751,0
3547328,339.38,873,751,0
3547338,342.13,873,752,0
3547348,344.92,873,751,0
3547358,348.20,873,751,0
3547368,351.14,873,751,0
3547378,353.93,873,752,0
3547388,356.05,873,751,0
3547398,358.01,873,752,0
3547408,358.95,873,751,0
3547418,359.48,873,752,0
3547428,359.12,873,751,0
3547438,358.57,873,751,0
3547448,357.67,873,751,0
3547458,356.87,873,752,0
3547468,355.75,873,751,0
3547479,354.63,873,751,0
3547489,353.37,873,751,0
3547499,352.40,873,751,0
3547509,351.34,873,751,0
3547520,350.42,873,751,0
3547529,349.61,873,751,0
3547539,349.26,873,752,0
3547549,350.16,873,751,0
3547559,353.46,873,751,0
3547569,359.83,873,751,0
3547579,371.11,873,751,0
3547589,388.86,873,752,0
3547599,414.45,873,751,0
3547618,447.91,824,750,0
3547621,486.64,824,751,0
3547630,527.63,824,752,0
3547640,568.71,824,751,0
3547650,607.20,824,752,0
3547660,640.83,824,751,0
3547670,667.62,824,752,0
3547680,686.89,824,751,0
3547691,700.42,824,752,0
3547700,709.90,824,750,0
3547710,715.33,824,752,0
3547720,715.70,824,751,0
3547730,710.52,824,752,0
3547740,699.69,824,750,0
3547750,683.24,824,751,0
3547760,661.31,824,751,0
3547770,634.18,824,751,0
3547780,603.61,824,750,0
3547790,572.01,824,752,0
3547800,540.89,824,751,0
3547810,511.27,824,751,0
3547820,483.93,824,751,0
3547830,459.44,824,752,0
3547840,438.01,824,751,0
3547850,419.79,824,751,0
3547860,404.64,824,750,0
3547870,392.79,824,752,0
3547880,383.98,824,751,0
3547890,378.20,824,751,0
3547900,374.97,824,750,0
3547910,374.16,824,752,0
3547920,374.97,824,751,0
3547930,377.12,824,751,0
3547940,379.74,824,750,0
3547950,382.56,824,752,0
3547960,384.79,824,751,0
3547970,386.27,824,752,0
3547980,386.49,824,750,0
3547991,385.61,824,752,0
3548001,383.37,824,750,0
3548011,380.13,824,752,0
3548021,375.76,824,750,0
3548032,370.86,824,752,0
3548041,365.50,824,751,0
3548051,360.42,824,752,0
3548061,355.37,824,750,0
3548071,351.14,824,752,0
3548081,347.33,824,751,0
3548091,344.70,824,752,0
3548101,342.61,824,750,0
3548111,341.52,824,752,0
3548121,340.85,824,751,0
3548131,341.15,824,752,0
3548141,341.66,824,750,0
3548151,342.97,824,752,0
3548161,344.22,824,750,0
3548171,346.00,824,751,0
3548181,347.63,824,750,0
3548191,349.41,824,752,0
3548201,350.96,824,750,0
3548211,352.43,824,752,0
3548221,353.54,824,751,0
3548231,354.45,824,752,0
3548241,354.70,824,750,0
3548251,354.83,824,752,0
3548261,354.46,824,750,0
3548271,353.93,824,752,0
3548281,353.05,824,750,0
3548291,352.09,824,752,0
3548301,350.99,824,750,0
3548311,350.52,824,752,0
3548321,349.81,824,750,0
3548332,349.44,824,751,0
3548342,349.05,824,750,0
3548352,349.03,824,752,0
3548362,348.60,824,750,0
3548372,348.42,824,752,0
3548382,347.91,824,750,0
3548392,348.41,824,752,0
3548402,350.34,824,750,0
3548412,355.30,824,752,0
3548422,364.16,824,750,0
3548432,379.59,824,752,0
3548451,402.51,833,751,0
3548454,434.97,833,752,0
3548463,473.42,833,750,0
3548473,515.12,833,752,0
3548483,557.17,833,750,0
3548493,597.54,833,752,0
3548503,633.42,833,750,0
3548513,662.86,833,752,0
3548523,683.52,833,750,0
3548533,698.02,833,752,0
3548544,708.17,833,750,0
3548553,715.28,833,751,0
3548563,720.25,833,750,0
3548573,722.83,833,752,0
3548583,721.21,833,750,0
3548593,715.11,833,751,0
3548603,703.42,833,750,0
3548613,686.36,833,751,0
3548623,663.71,833,750,0
3548633,635.81,833,751,0
3548643,603.73,833,750,0
3548653,570.42,833,752,0
3548663,536.61,833,750,0
3548673,504.54,833,751,0
3548683,474.55,833,750,0
3548693,448.16,833,751,0
3548703,425.14,833,750,0
3548713,406.41,833,751,0
3548723,391.33,833,750,0
3548733,380.69,833,751,0
3548743,373.41,833,750,0
3548753,369.77,833,751,0
3548763,368.38,833,750,0
3548773,369.38,833,751,0
3548783,371.45,833,750,0
3548793,374.57,833,751,0
3548803,377.36,833,750,0
3548813,380.04,833,752,0
3548823,381.40,833,750,0
3548833,381.79,833,751,0
3548844,380.53,833,750,0
3548854,378.23,833,751,0
3548864,374.47,833,751,0
3548874,370.17,833,751,0
3548884,364.89,833,751,0
3548894,359.70,833,751,0
3548904,354.22,833,750,0
3548914,349.44,833,751,0
3548924,344.81,833,751,0
3548934,341.26,833,751,0
3548944,338.23,833,750,0
3548954,336.75,833,751,0
3548964,335.62,833,751,0
3548974,335.65,833,752,0
3548984,335.97,833,750,0
3548994,337.31,833,752,0
3549004,338.89,833,751,0
3549015,341.23,833,751,0
3549025,343.22,833,751,0
3549035,345.85,833,751,0
3549045,348.08,833,751,0
3549056,350.67,833,751,0
3549065,352.66,833,751,0
3549075,354.43,833,751,0
3549085,355.42,833,751,0
3549095,356.28,833,751,0
3549105,356.37,833,751,0
3549115,356.51,833,751,0
3549125,356.06,833,751,0
3549135,355.53,833,751,0
3549145,354.55,833,751,0
3549155,353.92,833,751,0
3549165,352.83,833,751,0
3549175,351.94,833,751,0
3549185,350.71,833,750,0
3549195,349.94,833,751,0
3549205,349.23,833,751,0
3549215,349.20,833,751,0
3549225,349.19,833,751,0
3549235,349.56,833,751,0
3549245,349.65,833,751,0
3549255,350.05,833,751,0
3549265,350.34,833,751,0
3549275,350.79,833,751,0
3549285,351.20,833,751,0
3549295,352.98,833,751,0
3549305,357.32,833,751,0
3549315,366.31,833,751,0
3549325,381.09,833,751,0
3549335,403.86,833,751,0
3549355,435.66,903,750,0
3549358,473.90,903,752,0
3549367,515.38,903,751,0
3549377,557.61,903,751,0
3549387,597.84,903,751,0
3549398,633.84,903,751,0
3549407,662.86,903,752,0
3549417,683.56,903,751,0
3549427,698.09,903,751,0
3549437,708.22,903,751,0
3549447,715.31,903,751,0
3549457,720.28,903,751,0
3549467,723.75,903,751,0
3549477,724.43,903,751,0
3549487,721.00,903,751,0
3549497,712.64,903,751,0
3549507,698.73,903,751,0
3549517,679.10,903,751,0
3549527,653.87,903,751,0
3549537,623.39,903,751,0
3549547,589.85,903,751,0
3549557,555.31,903,751,0
3549568,521.53,903,752,0
3549577,489.79,903,751,0
3549587,460.88,903,751,0
3549597,435.63,903,751,0
3549607,414.14,903,751,0
3549617,396.83,903,751,0
3549627,383.46,903,751,0
3549637,373.90,903,751,0
3549647,367.80,903,751,0
3549657,365.07,903,751,0
3549667,364.54,903,751,0
3549677,365.83,903,751,0
3549687,368.20,903,751,0
3549697,371.18,903,751,0
3549707,374.21,903,751,0
3549717,376.72,903,751,0
3549727,378.05,903,751,0
3549737,378.25,903,751,0
3549747,377.40,903,751,0
3549757,375.27,903,751,0
3549767,371.84,903,751,0
3549777,367.09,903,751,0
3549787,361.79,903,751,0
3549797,356.20,903,751,0
3549807,350.57,903,751,0
3549817,345.04,903,751,0
3549827,339.97,903,751,0
3549837,335.99,903,751,0
3549847,333.30,903,751,0
3549857,331.75,903,751,0
3549868,331.40,903,751,0
3549878,332.35,903,751,0
3549888,334.30,903,751,0
3549898,337.04,903,751,0
3549908,340.16,903,751,0
3549918,343.45,903,751,0
3549928,346.62,903,751,0
3549938,349.39,903,751,0
3549948,351.80,903,752,0
3549958,353.70,903,751,0
3549968,355.34,903,751,0
3549978,356.39,903,751,0
3549988,357.05,903,752,0
3549998,357.33,903,751,0
3550008,357.36,903,751,0
3550018,356.95,903,751,0
3550028,356.41,903,751,0
3550039,355.39,903,750,0
3550049,354.41,903,751,0
3550059,353.35,903,750,0
3550069,352.39,903,751,0
3550080,351.41,903,750,0
3550089,350.65,903,751,0
3550099,350.24,903,751,0
3550109,350.12,903,751,0
3550119,349.87,903,750,0
3550129,349.91,903,751,0
3550139,349.68,903,751,0
3550149,349.95,903,752,0
3550159,349.92,903,750,0
3550169,349.73,903,751,0
3550179,349.43,903,751,0
3550189,349.77,903,751,0
3550199,350.65,903,750,0
3550209,353.67,903,751,0
3550219,359.68,903,751,0
3550229,371.09,903,751,0
3550239,389.45,903,750,0
3550259,416.70,904,749,0
3550262,451.72,904,751,0
3550271,491.83,904,752,0
3550281,534.14,904,750,0
3550291,575.97,904,752,0
3550301,614.64,904,750,0
3550311,647.66,904,751,0
3550321,672.88,904,750,0
3550331,690.57,904,752,0
3550341,702.96,904,751,0
3550351,711.63,904,752,0
3550361,717.70,904,750,0
3550371,721.99,904,752,0
3550381,724.99,904,751,0
3550391,724.74,904,751,0
3550401,719.37,904,750,0
3550411,708.55,904,752,0
3550422,691.45,904,750,0
3550431,668.86,904,751,0
3550441,640.27,904,750,0
3550451,606.68,904,751,0
3550461,570.56,904,750,0
3550471,535.33,904,752,0
3550481,501.59,904,750,0
3550491,471.11,904,752,0
3550501,443.69,904,750,0
3550511,420.86,904,752,0
3550521,402.13,904,750,0
3550531,388.08,904,751,0
3550541,377.68,904,750,0
3550551,371.35,904,752,0
3550561,368.16,904,750,0
3550571,368.15,904,751,0
3550581,369.95,904,750,0
3550592,373.48,904,752,0
3550601,377.32,904,750,0
3550611,381.47,904,752,0
3550621,384.58,904,750,0
3550631,386.94,904,752,0
3550641,387.30,904,750,0
3550651,386.52,904,751,0
3550661,383.41,904,750,0
3550671,379.34,904,752,0
3550681,373.67,904,750,0
3550691,367.47,904,751,0
3550701,360.43,904,750,0
3550711,353.91,904,751,0
3550721,347.38,904,750,0
3550731,342.25,904,751,0
3550741,337.72,904,750,0
3550751,334.72,904,752,0
3550761,332.75,904,750,0
3550771,332.44,904,751,0
3550781,332.82,904,750,0
3550791,334.55,904,751,0
3550801,336.74,904,750,0
3550811,339.82,904,751,0
3550821,342.79,904,750,0
3550831,346.36,904,752,0
3550841,349.56,904,750,0
3550851,352.95,904,751,0
3550861,355.53,904,750,0
3550871,357.82,904,751,0
3550881,358.99,904,750,0
3550892,359.89,904,751,0
3550902,359.71,904,750,0
3550912,359.24,904,751,0
3550922,357.92,904,750,0
3550932,356.53,904,751,0
3550942,354.53,904,750,0
3550952,352.83,904,751,0
3550962,350.78,904,750,0
3550972,349.09,904,751,0
3550982,347.22,904,750,0
3550992,346.00,904,752,0
3551002,344.71,904,750,0
3551012,344.11,904,751,0
3551022,343.56,904,750,0
3551032,343.57,904,751,0
3551042,343.44,904,750,0
3551052,344.21,904,751,0
3551063,344.49,904,750,0
3551073,345.50,904,751,0
3551083,346.12,904,750,0
3551093,347.67,904,751,0
3551104,350.43,904,750,0
3551113,356.43,904,752,0
3551123,366.28,904,750,0
3551133,383.26,904,751,0
3551143,407.91,904,751,0
3551162,441.66,904,749,0
3551165,480.85,904,752,0
3551174,523.07,904,751,0
3551184,565.30,904,751,0
3551194,605.28,904,752,0
3551204,639.96,904,751,0
3551214,667.48,904,751,0
3551224,686.80,904,751,0
3551234,700.31,904,752,0
3551244,709.78,904,751,0
3551254,716.44,904,751,0
3551264,721.07,904,751,0
3551275,723.10,904,751,0
3551284,720.63,904,751,0
3551294,712.81,904,751,0
3551304,698.55,904,751,0
3551314,677.95,904,751,0
3551324,650.96,904,751,0
3551334,618.40,904,751,0
3551344,581.64,904,751,0
3551354,543.90,904,752,0
3551364,507.03,904,751,0
3551374,473.08,904,751,0
3551384,442.76,904,751,0
3551394,416.94,904,751,0
3551404,395.45,904,751,0
3551414,379.03,904,751,0
3551424,367.28,904,751,0
3551434,359.99,904,751,0
3551444,356.61,904,751,0
3551454,356.73,904,751,0
3551464,359.08,904,751,0
3551474,363.56,904,751,0
3551484,368.66,904,751,0
3551494,374.08,904,751,0
3551504,378.64,904,751,0
3551514,382.22,904,751,0
3551524,383.95,904,751,0
3551534,384.48,904,751,0
3551544,382.92,904,751,0
3551554,379.95,904,751,0
3551564,375.16,904,751,0
3551575,369.46,904,751,0
3551585,362.85,904,751,0
3551595,356.08,904,751,0
3551605,349.20,904,751,0
3551616,342.97,904,751,0
3551625,337.45,904,751,0
3551635,333.41,904,751,0
3551645,330.72,904,751,0
3551655,329.39,904,751,0
3551665,329.36,904,751,0
3551675,330.71,904,751,0
3551685,332.72,904,751,0
3551695,335.59,904,751,0
3551705,338.50,904,751,0
3551715,341.74,904,751,0
3551725,344.86,904,751,0
3551735,347.90,904,751,0
3551745,350.29,904,751,0
3551755,352.69,904,751,0
3551765,354.54,904,751,0
3551775,356.09,904,751,0
3551785,356.88,904,751,0
3551795,357.26,904,751,0
3551805,357.14,904,751,0
3551815,356.80,904,751,0
3551825,355.91,904,751,0
3551835,354.83,904,751,0
3551845,353.38,904,751,0
3551855,351.89,904,751,0
3551865,350.25,904,751,0
3551875,348.81,904,751,0
3551885,347.41,904,751,0
3551895,346.51,904,751,0
3551905,345.67,904,751,0
3551916,345.34,904,751,0
3551926,345.20,904,751,0
3551936,345.48,904,751,0
3551946,345.72,904,751,0
3551956,346.06,904,750,0
3551966,346.26,904,751,0
3551976,347.00,904,751,0
3551986,348.71,904,751,0
3551996,352.61,904,750,0
3552006,359.93,904,751,0
3552016,372.76,904,751,0
3552026,393.15,904,751,0
3552046,422.55,883,750,0
3552049,459.15,883,753,0
3552058,500.04,883,751,0
3552068,542.50,883,752,0
3552078,584.01,883,750,0
3552088,621.85,883,752,0
3552098,653.48,883,751,0
3552108,676.95,883,751,0
3552118,693.38,883,750,0
3552129,704.88,883,752,0
3552139,712.93,883,750,0
3552149,718.61,883,752,0
3552159,722.54,883,750,0
3552169,725.25,883,752,0
3552179,724.36,883,750,0
3552189,718.98,883,751,0
3552199,707.97,883,750,0
3552209,691.48,883,751,0
3552219,669.35,883,750,0
3552229,641.69,883,751,0
3552239,608.74,883,750,0
3552249,573.80,883,751,0
3552259,538.59,883,750,0
3552269,505.16,883,752,0
3552279,473.74,883,750,0
3552289,445.57,883,752,0
3552300,421.10,883,750,0
3552310,401.01,883,752,0
3552320,385.24,883,750,0
3552330,373.98,883,752,0
3552340,366.40,883,750,0
3552350,363.02,883,751,0
3552360,362.29,883,750,0
3552370,364.26,883,752,0
3552380,367.27,883,750,0
3552390,371.09,883,751,0
3552400,374.40,883,750,0
3552410,377.50,883,752,0
3552420,378.80,883,750,0
3552430,379.16,883,752,0
3552440,377.40,883,750,0
3552450,374.62,883,752,0
3552460,370.45,883,750,0
3552471,365.77,883,751,0
3552481,360.27,883,750,0
3552491,355.13,883,752,0
3552501,350.03,883,750,0
3552512,346.12,883,751,0
3552521,343.00,883,750,0
3552531,341.24,883,752,0
3552541,340.06,883,750,0
3552551,340.13,883,751,0
3552561,340.73,883,750,0
3552571,342.44,883,752,0
3552581,344.37,883,750,0
3552591,346.96,883,751,0
3552601,349.28,883,750,0
3552611,352.24,883,752,0
3552621,354.78,883,750,0
3552631,357.63,883,751,0
3552641,359.72,883,750,0
3552651,361.77,883,752,0
3552661,362.95,883,750,0
3552671,364.08,883,751,0
3552681,364.31,883,750,0
3552691,364.43,883,752,0
3552701,363.75,883,750,0
3552711,363.05,883,751,0
3552721,361.84,883,750,0
3552731,360.73,883,751,0
3552741,359.05,883,750,0
3552751,357.71,883,751,0
3552761,355.87,883,750,0
3552771,354.54,883,751,0
3552781,352.92,883,750,0
3552791,351.74,883,751,0
3552801,350.49,883,750,0
3552812,350.09,883,752,0
3552822,349.50,883,750,0
3552832,349.70,883,751,0
3552842,349.57,883,751,0
3552852,350.17,883,751,0
3552862,350.42,883,750,0
3552872,351.32,883,751,0
3552882,352.64,883,750,0
3552892,356.43,883,751,0
3552902,363.55,883,751,0
3552912,376.45,883,751,0
3552922,396.76,883,751,0
3552942,426.62,896,749,0
3552945,463.33,896,753,0
3552954,504.42,896,751,0
3552964,546.85,896,751,0
3552974,588.25,896,751,0
3552984,625.76,896,751,0
3552994,656.78,896,751,0
3553004,679.30,896,751,0
3553014,695.11,896,751,0
3553025,706.18,896,751,0
3553035,713.92,896,751,0
3553045,719.35,896,751,0
3553055,723.14,896,751,0
3553065,725.80,896,751,0
3553075,727.66,896,751,0
3553085,728.28,896,751,0
3553095,725.79,896,750,0
3553105,718.96,896,751,0
3553115,707.10,896,751,0
3553125,689.58,896,751,0
3553135,666.26,896,751,0
3553145,637.26,896,751,0
3553155,603.88,896,751,0
3553165,568.47,896,751,0
3553175,533.15,896,750,0
3553185,499.37,896,751,0
3553196,468.79,896,751,0
3553206,442.28,896,752,0
3553216,420.38,896,750,0
3553226,403.25,896,751,0
3553236,390.92,896,751,0
3553246,383.02,896,752,0
3553256,378.98,896,750,0
3553266,378.00,896,752,0
3553276,379.20,896,750,0
3553286,382.01,896,751,0
3553296,385.22,896,750,0
3553306,388.33,896,751,0
3553316,390.76,896,750,0
3553326,392.37,896,752,0
3553336,392.65,896,750,0
3553346,391.34,896,752,0
3553356,388.62,896,751,0
3553367,384.62,896,751,0
3553377,379.59,896,750,0
3553387,374.06,896,752,0
3553397,368.30,896,750,0
3553408,362.89,896,751,0
3553417,358.60,896,750,0
3553427,355.20,896,752,0
3553437,353.26,896,750,0
3553447,352.71,896,752,0
3553457,353.22,896,750,0
3553467,354.87,896,752,0
3553477,357.10,896,750,0
3553487,359.94,896,751,0
3553497,363.00,896,750,0
3553507,366.21,896,752,0
3553517,369.24,896,750,0
3553527,372.25,896,751,0
3553537,374.62,896,750,0
3553547,376.83,896,752,0
3553557,378.47,896,750,0
3553567,379.87,896,752,0
3553577,380.55,896,750,0
3553587,381.03,896,752,0
3553597,380.89,896,750,0
3553607,380.54,896,752,0
3553617,379.73,896,750,0
3553627,378.70,896,752,0
3553637,377.33,896,750,0
3553647,376.25,896,751,0
3553657,374.93,896,750,0
3553667,374.01,896,752,0
3553677,372.98,896,750,0
3553687,372.38,896,751,0
3553697,371.63,896,750,0
3553708,371.14,896,752,0
3553718,370.41,896,750,0
3553728,370.16,896,751,0
3553738,369.68,896,750,0
3553748,369.74,896,752,0
3553758,369.60,896,750,0
3553768,370.06,896,751,0
3553778,370.73,896,750,0
3553788,372.74,896,752,0
3553798,376.63,896,750,0
3553808,384.41,896,751,0
3553818,398.00,896,750,0
3553828,420.07,896,752,0
3553847,450.69,906,750,0
3553850,487.30,906,753,0
3553859,527.11,906,750,0
3553869,567.88,906,752,0
3553879,607.00,906,750,0
3553889,641.54,906,751,0
3553899,668.68,906,750,0
3553909,687.68,906,752,0
3553920,700.97,906,750,0
3553929,710.32,906,752,0
3553939,716.87,906,750,0
3553949,721.49,906,752,0
3553959,724.73,906,750,0
3553969,727.04,906,752,0
3553979,728.66,906,750,0
3553989,729.79,906,752,0
3553999,730.54,906,750,0
3554009,731.11,906,752,0
3554019,731.46,906,750,0
3554029,731.71,906,751,0
3554039,731.84,906,750,0
3554049,731.93,906,752,0
3554059,731.99,906,750,0
3554069,732.04,906,752,0
3554079,729.11,906,750,0
3554089,721.45,906,752,0
3554099,707.69,906,750,0
3554109,687.17,906,751,0
3554119,659.73,906,750,0
3554129,626.60,906,751,0
3554139,588.10,906,750,0
3554149,548.39,906,751,0
3554159,509.87,906,750,0
3554169,475.24,906,751,0
3554179,445.47,906,750,0
3554189,421.37,906,751,0
3554199,401.84,906,750,0
3554209,387.15,906,751,0
3554220,375.96,906,750,0
3554230,368.13,906,751,0
3554240,361.96,906,750,0
3554250,357.65,906,751,0
3554260,354.15,906,750,0
3554270,351.71,906,751,0
3554280,349.39,906,750,0
3554290,347.78,906,751,0
3554300,346.13,906,750,0
3554310,345.28,906,751,0
3554320,344.46,906,750,0
3554330,344.63,906,752,0
3554340,344.91,906,750,0
3554350,346.05,906,751,0
3554360,347.19,906,750,0
3554370,349.23,906,751,0
3554380,351.09,906,750,0
3554391,353.64,906,751,0
3554401,355.63,906,750,0
3554411,358.01,906,751,0
3554421,359.94,906,750,0
3554432,362.14,906,751,0
3554441,363.47,906,751,0
3554451,364.96,906,751,0
3554461,365.57,906,750,0
3554471,366.21,906,751,0
3554481,366.24,906,751,0
3554491,366.12,906,751,0
3554501,365.19,906,751,0
3554511,364.19,906,751,0
3554521,362.55,906,751,0
3554531,361.05,906,751,0
3554541,359.02,906,750,0
3554551,357.13,906,751,0
3554561,354.91,906,751,0
3554571,353.22,906,752,0
3554581,351.44,906,750,0
3554591,350.19,906,751,0
3554601,348.72,906,751,0
3554611,348.12,906,751,0
3554621,347.35,906,751,0
3554631,347.33,906,751,0
3554641,346.89,906,751,0
3554651,347.14,906,751,0
3554661,347.61,906,750,0
3554671,349.53,906,751,0
3554681,353.31,906,751,0
3554691,361.36,906,751,0
3554701,375.22,906,750,0
3554711,398.09,906,751,0
3554731,430.25,883,751,0
3554734,468.91,883,752,0
3554743,511.15,883,751,0
3554753,554.48,883,751,0
3554763,596.12,883,752,0
3554774,633.33,883,751,0
3554783,663.06,883,751,0
3554793,683.95,883,751,0
3554803,698.58,883,752,0
3554813,708.87,883,751,0
3554823,716.11,883,751,0
3554833,721.17,883,751,0
3554843,724.68,883,752,0
3554853,727.13,883,751,0
3554863,728.85,883,751,0
3554873,730.05,883,751,0
3554883,730.89,883,751,0
3554893,731.44,883,751,0
3554903,728.78,883,751,0
3554913,720.79,883,751,0
3554923,705.81,883,751,0
3554933,683.28,883,751,0
3554944,653.28,883,751,0
3554953,616.34,883,751,0
3554963,573.04,883,751,0
3554973,527.26,883,751,0
3554983,482.18,883,751,0
3554993,440.68,883,751,0
3555003,404.22,883,751,0
3555013,373.98,883,751,0
3555023,350.07,883,751,0
3555033,332.91,883,751,0
3555043,321.66,883,751,0
3555053,315.89,883,751,0
3555063,314.34,883,751,0
3555073,316.38,883,751,0
3555083,320.38,883,751,0
3555093,325.71,883,751,0
3555103,331.11,883,751,0
3555113,336.18,883,751,0
3555123,340.02,883,751,0
3555133,342.63,883,751,0
3555143,343.56,883,751,0
3555153,343.13,883,751,0
3555163,341.34,883,751,0
3555173,338.53,883,751,0
3555183,334.99,883,751,0
3555193,331.35,883,751,0
3555203,327.56,883,751,0
3555213,324.26,883,751,0
3555223,321.53,883,751,0
3555233,319.70,883,751,0
3555244,318.63,883,751,0
3555254,318.74,883,751,0
3555264,319.59,883,751,0
3555274,321.38,883,751,0
3555284,323.54,883,751,0
3555294,326.16,883,751,0
3555304,328.90,883,751,0
3555314,331.76,883,751,0
3555324,334.40,883,751,0
3555334,337.02,883,751,0
3555344,339.37,883,751,0
3555354,341.49,883,751,0
3555364,343.01,883,751,0
3555374,344.04,883,751,0
3555384,344.50,883,751,0
3555394,344.35,883,751,0
3555404,343.69,883,751,0
3555415,342.45,883,751,0
3555425,341.03,883,751,0
3555435,339.52,883,751,0
3555445,337.95,883,751,0
3555456,336.34,883,750,0
3555465,334.91,883,751,0
3555475,333.52,883,750,0
3555485,332.64,883,751,0
3555495,331.85,883,750,0
3555505,331.59,883,751,0
3555515,331.67,883,751,0
3555525,332.16,883,751,0
3555535,332.84,883,751,0
3555545,333.83,883,751,0
3555555,334.74,883,751,0
3555565,336.06,883,752,0
3555575,337.63,883,751,0
3555585,340.74,883,751,0
3555595,346.86,883,750,0
3555605,358.04,883,751,0
3555615,375.99,883,751,0
3555635,403.08,904,749,0
3555638,438.58,904,751,0
3555647,479.68,904,752,0
3555657,523.36,904,751,0
3555667,566.97,904,752,0
3555677,607.52,904,750,0
3555687,642.59,904,751,0
3555697,669.50,904,750,0
3555707,688.34,904,752,0
3555717,701.52,904,750,0
3555727,710.75,904,752,0
3555737,717.17,904,751,0
3555747,721.70,904,752,0
3555757,724.88,904,750,0
3555767,727.14,904,751,0
3555777,728.73,904,751,0
3555787,728.85,904,752,0
3555798,725.04,904,750,0
3555807,716.33,904,751,0
3555817,701.32,904,750,0
3555827,679.84,904,751,0
3555837,651.26,904,750,0
3555847,616.59,904,752,0
3555857,576.64,904,751,0
3555867,535.01,904,751,0
3555877,493.13,904,750,0
3555887,453.88,904,751,0
3555897,418.04,904,750,0
3555907,387.26,904,751,0
3555917,361.17,904,750,0
3555927,341.02,904,752,0
3555937,326.23,904,750,0
3555947,317.12,904,752,0
3555957,312.20,904,750,0
3555968,311.41,904,751,0
3555977,313.39,904,750,0
3555987,317.73,904,752,0
3555997,322.87,904,750,0
3556007,328.61,904,752,0
3556017,333.48,904,750,0
3556027,337.67,904,752,0
3556037,340.17,904,750,0
3556047,341.57,904,751,0
3556057,341.23,904,750,0
3556067,340.00,904,752,0
3556077,337.43,904,750,0
3556087,334.60,904,751,0
3556097,331.21,904,750,0
3556107,328.19,904,752,0
3556117,325.13,904,750,0
3556127,322.86,904,751,0
3556137,320.93,904,750,0
3556147,319.92,904,752,0
3556157,319.22,904,750,0
3556167,319.41,904,751,0
3556177,319.72,904,750,0
3556187,320.66,904,752,0
3556197,321.57,904,750,0
3556207,322.90,904,751,0
3556217,323.92,904,750,0
3556227,325.23,904,752,0
3556237,326.19,904,750,0
3556247,327.42,904,751,0
3556257,328.24,904,750,0
3556268,329.54,904,752,0
3556278,330.19,904,750,0
3556288,330.95,904,751,0
3556298,331.13,904,750,0
3556308,331.52,904,751,0
3556318,331.54,904,750,0
3556328,331.68,904,751,0
3556338,331.09,904,750,0
3556348,330.98,904,751,0
3556358,330.60,904,750,0
3556368,330.76,904,752,0
3556378,330.66,904,750,0
3556388,330.85,904,752,0
3556398,330.85,904,750,0
3556408,331.07,904,752,0
3556418,330.79,904,750,0
3556428,330.98,904,752,0
3556439,330.77,904,750,0
3556449,330.93,904,751,0
3556459,330.78,904,750,0
3556469,331.06,904,752,0
3556480,331.21,904,750,0
3556489,332.13,904,752,0
3556499,333.29,904,750,0
3556509,336.21,904,752,0
3556519,341.03,904,750,0
3556529,350.02,904,751,0
3556548,364.37,914,750,0
3556551,387.19,914,751,0
3556560,419.27,914,751,0
3556570,458.28,914,752,0
3556580,500.84,914,751,0
3556590,544.77,914,752,0
3556600,587.18,914,751,0
3556610,625.70,914,752,0
3556620,657.08,914,751,0
3556630,679.64,914,751,0
3556640,695.39,914,751,0
3556651,706.46,914,751,0
3556660,714.21,914,751,0
3556670,719.63,914,752,0
3556680,723.43,914,751,0
3556690,726.13,914,752,0
3556700,726.17,914,751,0
3556710,722.22,914,752,0
3556720,712.68,914,751,0
3556730,697.22,914,751,0
3556740,675.34,914,750,0
3556750,647.30,914,752,0
3556760,613.01,914,751,0
3556770,574.90,914,751,0
3556780,534.95,914,750,0
3556790,495.71,914,752,0
3556800,458.04,914,751,0
3556810,423.61,914,751,0
3556820,392.74,914,751,0
3556830,366.63,914,751,0
3556840,345.10,914,750,0
3556850,328.66,914,751,0
3556860,316.67,914,751,0
3556870,309.53,914,751,0
3556880,305.98,914,751,0
3556890,306.16,914,751,0
3556900,308.43,914,751,0
3556910,312.71,914,751,0
3556920,317.56,914,751,0
3556930,322.75,914,751,0
3556940,327.02,914,751,0
3556951,330.53,914,751,0
3556961,332.21,914,751,0
3556971,332.66,914,751,0
3556981,331.26,914,751,0
3556992,328.91,914,752,0
3557001,325.47,914,751,0
3557011,321.68,914,751,0
3557021,317.49,914,751,0
3557031,313.66,914,752,0
3557041,310.03,914,751,0
3557051,307.28,914,751,0
3557061,305.14,914,751,0
3557071,303.90,914,751,0
3557081,303.37,914,751,0
3557091,303.77,914,751,0
3557101,304.53,914,751,0
3557111,306.13,914,751,0
3557121,307.67,914,751,0
3557131,309.74,914,751,0
3557141,311.58,914,751,0
3557151,313.46,914,751,0
3557161,315.08,914,751,0
3557171,316.86,914,751,0
3557181,318.06,914,751,0
3557191,319.24,914,751,0
3557201,319.90,914,751,0
3557211,320.66,914,751,0
3557221,321.14,914,751,0
3557231,321.57,914,751,0
3557241,321.74,914,751,0
3557251,322.16,914,751,0
3557261,322.33,914,751,0
3557271,322.66,914,751,0
3557281,322.80,914,751,0
3557292,323.12,914,751,0
3557302,323.38,914,751,0
3557312,323.78,914,751,0
3557322,323.98,914,751,0
3557332,324.67,914,751,0
3557342,325.33,914,751,0
3557352,326.51,914,751,0
3557362,327.77,914,751,0
3557372,329.77,914,751,0
3557382,331.60,914,751,0
3557392,333.47,914,751,0
3557402,335.26,914,751,0
3557412,337.41,914,751,0
3557422,340.59,914,751,0
3557432,345.81,914,751,0
3557442,354.40,914,751,0
3557452,368.76,914,751,0
3557472,390.78,924,750,0
3557475,421.79,924,751,0
3557484,459.78,924,752,0
3557494,501.59,924,751,0
3557505,544.78,924,752,0
3557515,586.46,924,750,0
3557525,624.17,924,752,0
3557535,655.40,924,751,0
3557545,678.38,924,751,0
3557555,694.47,924,750,0
3557565,705.73,924,752,0
3557575,713.61,924,750,0
3557585,716.90,924,751,0
3557595,714.66,924,750,0
3557605,706.32,924,751,0
3557615,691.31,924,750,0
3557625,670.09,924,751,0
3557635,642.89,924,750,0
3557645,610.39,924,752,0
3557655,575.00,924,750,0
3557665,539.09,924,751,0
3557676,504.05,924,750,0
3557686,471.72,924,752,0
3557696,442.19,924,750,0
3557706,416.25,924,751,0
3557716,393.72,924,750,0
3557726,375.29,924,752,0
3557736,360.54,924,750,0
3557746,349.92,924,751,0
3557756,342.36,924,750,0
3557766,338.22,924,752,0
3557776,336.53,924,750,0
3557786,337.27,924,751,0
3557796,339.33,924,750,0
3557806,342.70,924,752,0
3557816,346.14,924,750,0
3557826,349.91,924,751,0
3557836,352.76,924,750,0
3557847,354.98,924,752,0
3557857,355.46,924,750,0
3557867,354.76,924,751,0
3557877,352.18,924,750,0
3557888,348.61,924,752,0
3557897,343.63,924,750,0
3557907,338.34,924,752,0
3557917,332.28,924,750,0
3557927,326.75,924,752,0
3557937,321.38,924,750,0
3557947,317.37,924,751,0
3557957,313.74,924,750,0
3557967,311.38,924,752,0
3557977,309.72,924,750,0
3557987,309.55,924,751,0
3557997,309.90,924,750,0
3558007,311.47,924,752,0
3558017,313.17,924,750,0
3558027,316.04,924,751,0
3558037,318.90,924,750,0
3558047,322.18,924,752,0
3558057,324.91,924,750,0
3558067,327.81,924,752,0
3558077,329.97,924,750,0
3558087,331.95,924,752,0
3558097,333.04,924,750,0
3558107,334.14,924,752,0
3558117,334.53,924,750,0
3558127,335.05,924,752,0
3558137,335.04,924,750,0
3558147,335.20,924,751,0
3558157,334.92,924,750,0
3558167,335.12,924,752,0
3558177,334.65,924,750,0
3558188,334.63,924,752,0
3558198,334.05,924,750,0
3558208,333.61,924,752,0
3558218,332.74,924,750,0
3558228,332.43,924,751,0
3558238,331.75,924,750,0
3558248,332.21,924,752,0
3558258,332.40,924,750,0
3558268,333.35,924,751,0
3558278,334.32,924,750,0
3558288,335.85,924,752,0
3558298,337.05,924,750,0
3558308,338.62,924,751,0
3558318,339.81,924,750,0
3558328,342.14,924,751,0
3558338,346.08,924,750,0
3558348,353.64,924,751,0
3558359,365.92,924,750,0
3558369,385.40,924,751,0
3558388,413.05,916,750,0
3558391,448.82,916,752,0
3558401,489.33,916,751,0
3558411,532.00,916,752,0
3558421,574.00,916,751,0
3558431,613.00,916,751,0
3558441,646.26,916,751,0
3558451,671.98,916,751,0
3558461,689.99,916,751,0
3558471,702.59,916,751,0
3558481,711.41,916,751,0
3558491,717.59,916,751,0
3558501,720.41,916,751,0
3558511,718.87,916,751,0
3558521,711.80,916,751,0
3558531,699.34,916,751,0
3558541,681.07,916,751,0
3558551,657.43,916,751,0
3558561,628.50,916,751,0
3558572,596.34,916,751,0
3558582,562.98,916,751,0
3558592,530.50,916,751,0
3558602,499.41,916,751,0
3558612,471.09,916,751,0
3558622,445.30,916,751,0
3558632,422.80,916,751,0
3558642,403.44,916,751,0
3558652,387.28,916,750,0
3558662,374.47,916,751,0
3558672,364.81,916,751,0
3558682,358.14,916,752,0
3558692,354.11,916,750,0
3558702,352.36,916,751,0
3558712,352.60,916,751,0
3558722,354.22,916,751,0
3558732,356.60,916,751,0
3558743,359.25,916,752,0
3558753,361.31,916,751,0
3558763,362.85,916,752,0
3558773,363.15,916,750,0
3558784,362.08,916,751,0
3558793,359.61,916,751,0
3558803,355.83,916,751,0
3558813,351.29,916,750,0
3558823,346.11,916,752,0
3558833,340.76,916,751,0
3558843,335.77,916,752,0
3558853,331.39,916,750,0
3558863,327.97,916,752,0
3558873,325.45,916,751,0
3558883,324.07,916,752,0
3558893,323.45,916,750,0
3558903,323.70,916,752,0
3558913,324.56,916,751,0
3558923,326.15,916,751,0
3558933,328.25,916,750,0
3558943,330.87,916,752,0
3558953,333.18,916,750,0
3558963,335.91,916,751,0
3558973,338.51,916,750,0
3558983,341.06,916,752,0
3558993,343.14,916,751,0
3559003,344.77,916,751,0
3559013,345.91,916,751,0
3559023,346.67,916,752,0
3559033,346.72,916,751,0
3559043,346.38,916,751,0
3559053,345.58,916,751,0
3559063,345.02,916,752,0
3559073,344.07,916,751,0
3559084,343.02,916,752,0
3559094,341.77,916,751,0
3559104,340.85,916,752,0
3559114,339.74,916,751,0
3559124,339.05,916,752,0
3559134,337.75,916,751,0
3559144,336.92,916,752,0
3559154,335.79,916,751,0
3559164,335.08,916,752,0
3559174,334.29,916,751,0
3559184,334.16,916,752,0
3559194,334.15,916,751,0
3559204,334.75,916,752,0
3559214,335.47,916,751,0
3559224,336.91,916,752,0
3559234,338.78,916,751,0
3559244,342.28,916,752,0
3559255,348.02,916,751,0
3559265,357.92,916,752,0
3559275,374.01,916,751,0
3559294,397.84,906,750,0
3559298,430.71,906,752,0
3559307,469.97,906,752,0
3559317,512.45,906,751,0
3559327,555.77,906,752,0
3559337,596.98,906,751,0
3559347,633.33,906,752,0
3559357,662.80,906,751,0
3559367,683.65,906,752,0
3559377,698.20,906,751,0
3559387,708.38,906,752,0
3559397,715.47,906,751,0
3559407,720.47,906,752,0
3559417,723.16,906,751,0
3559427,722.64,906,752,0
3559437,717.05,906,750,0
3559447,706.36,906,752,0
3559457,689.80,906,751,0
3559468,667.83,906,752,0
3559478,640.24,906,751,0
3559488,608.71,906,752,0
3559498,574.68,906,751,0
3559508,541.13,906,752,0
3559518,508.52,906,751,0
3559528,478.71,906,752,0
3559538,451.50,906,751,0
3559548,428.12,906,752,0
3559558,407.85,906,751,0
3559568,391.57,906,752,0
3559578,378.67,906,751,0
3559588,369.68,906,752,0
3559598,363.69,906,751,0
3559608,361.04,906,752,0
3559618,360.34,906,751,0
3559628,362.08,906,752,0
3559639,364.59,906,751,0
3559649,367.97,906,752,0
3559659,370.89,906,751,0
3559669,373.32,906,752,0
3559680,374.34,906,751,0
3559689,374.45,906,752,0
3559699,372.52,906,751,0
3559709,369.70,906,752,0
3559719,365.34,906,751,0
3559729,360.65,906,752,0
3559739,355.31,906,751,0
3559749,350.08,906,752,0
3559759,344.74,906,751,0
3559769,340.62,906,752,0
3559779,337.00,906,751,0
3559789,334.60,906,752,0
3559799,332.79,906,751,0
3559809,332.26,906,752,0
3559819,332.44,906,751,0
3559829,333.80,906,752,0
3559839,335.49,906,751,0
3559849,338.00,906,752,0
3559859,340.66,906,751,0
3559869,343.63,906,752,0
3559879,346.27,906,751,0
3559889,349.02,906,752,0
3559899,351.11,906,751,0
3559909,352.92,906,751,0
3559919,353.93,906,751,0
3559929,354.72,906,752,0
3559939,354.72,906,751,0
3559949,354.50,906,751,0
3559959,353.62,906,751,0
3559969,352.71,906,752,0
3559980,351.38,906,751,0
3559990,350.20,906,751,0
3560000,348.68,906,751,0
3560010,347.49,906,752,0
3560020,346.23,906,752,0
3560030,345.26,906,751,0
3560040,344.24,906,751,0
3560050,343.52,906,752,0
3560060,342.81,906,752,0
3560070,342.57,906,752,0
3560080,342.27,906,751,0
3560090,342.36,906,752,0
3560100,342.64,906,751,0
3560110,343.35,906,751,0
3560120,344.14,906,752,0
3560130,345.13,906,752,0
3560140,346.08,906,752,0
3560151,347.51,906,751,0
3560161,349.71,906,752,0
3560171,354.04,906,751,0
3560181,361.87,906,752,0
3560192,375.54,906,751,0
3560210,396.33,916,750,0
3560213,426.53,916,750,0
3560222,463.70,916,752,0
3560232,505.02,916,751,0
3560242,547.66,916,752,0
3560252,589.07,916,751,0
3560262,626.29,916,752,0
3560272,657.45,916,751,0
3560282,679.90,916,752,0
3560292,695.57,916,751,0
3560302,706.54,916,752,0
3560312,714.22,916,751,0
3560322,719.56,916,752,0
3560332,723.29,916,751,0
3560342,725.47,916,752,0
3560352,724.05,916,751,0
3560363,718.03,916,752,0
3560372,706.75,916,751,0
3560382,689.77,916,752,0
3560392,667.08,916,751,0
3560402,638.90,916,752,0
3560412,606.32,916,751,0
3560422,572.15,916,752,0
3560432,537.95,916,751,0
3560442,505.22,916,752,0
3560452,475.15,916,751,0
3560462,448.58,916,752,0
3560472,425.73,916,751,0
3560482,406.79,916,752,0
3560492,391.68,916,751,0
3560502,380.80,916,752,0
3560512,373.62,916,751,0
3560522,369.71,916,752,0
3560532,368.25,916,751,0
3560542,369.25,916,752,0
3560552,371.36,916,751,0
3560562,374.17,916,752,0
3560572,376.69,916,751,0
3560582,378.75,916,752,0
3560592,379.98,916,751,0
3560602,380.03,916,752,0
3560612,378.35,916,751,0
3560622,375.42,916,752,0
3560632,371.26,916,751,0
3560642,366.38,916,752,0
3560652,360.65,916,751,0
3560663,354.59,916,752,0
3560673,348.58,916,751,0
3560683,343.31,916,752,0
3560693,338.76,916,751,0
3560704,335.45,916,752,0
3560713,333.13,916,751,0
3560723,332.23,916,752,0
3560733,332.42,916,751,0
3560743,334.05,916,752,0
3560753,336.22,916,751,0
3560763,339.20,916,752,0
3560773,342.31,916,751,0
3560783,345.73,916,752,0
3560793,348.94,916,751,0
3560803,352.26,916,752,0
3560813,354.67,916,751,0
3560823,356.61,916,752,0
3560833,357.71,916,751,0
3560843,358.44,916,751,0
3560853,358.39,916,751,0
3560863,358.19,916,752,0
3560873,357.15,916,750,0
3560883,356.20,916,751,0
3560893,355.07,916,751,0
3560903,354.24,916,752,0
3560913,353.18,916,750,0
3560923,352.40,916,751,0
3560933,351.38,916,751,0
3560943,350.75,916,752,0
3560953,350.05,916,750,0
3560963,349.78,916,752,0
3560973,349.50,916,751,0
3560983,349.61,916,752,0
3560993,349.64,916,750,0
3561004,350.05,916,752,0
3561014,350.21,916,750,0
3561024,350.62,916,752,0
3561034,351.12,916,750,0
3561044,353.05,916,751,0
3561054,357.32,916,750,0
3561064,366.27,916,752,0
3561074,380.85,916,750,0
3561084,403.69,916,752,0
3561103,435.37,893,751,0
3561106,473.62,893,753,0
3561115,515.17,893,750,0
3561125,557.59,893,752,0
3561135,597.74,893,751,0
3561145,633.73,893,752,0
3561155,662.74,893,750,0
3561165,683.56,893,752,0
3561175,698.14,893,751,0
3561185,708.34,893,752,0
3561195,715.48,893,750,0
3561205,720.48,893,752,0
3561216,723.94,893,750,0
3561225,724.38,893,752,0
3561235,719.94,893,750,0
3561245,709.84,893,752,0
3561255,693.56,893,750,0
3561265,671.45,893,752,0
3561275,643.54,893,750,0
3561285,610.55,893,752,0
3561295,574.52,893,751,0
3561305,538.66,893,752,0
3561315,503.96,893,750,0
3561325,472.30,893,752,0
3561335,443.80,893,751,0
3561345,419.64,893,752,0
3561355,399.44,893,751,0
3561365,384.13,893,752,0
3561375,372.78,893,751,0
3561385,366.33,893,752,0
3561395,363.10,893,750,0
3561405,363.24,893,752,0
3561415,365.23,893,751,0
3561425,369.10,893,752,0
3561435,373.27,893,750,0
3561445,377.95,893,752,0
3561455,381.39,893,751,0
3561465,384.19,893,752,0
3561475,385.33,893,750,0
3561485,385.40,893,752,0
3561495,383.40,893,751,0
3561505,380.28,893,752,0
3561516,375.35,893,750,0
3561526,369.85,893,752,0
3561536,363.34,893,751,0
3561546,356.93,893,752,0
3561556,350.27,893,751,0
3561566,344.75,893,752,0
3561576,339.68,893,751,0
3561586,336.22,893,752,0
3561596,333.75,893,751,0
3561606,333.14,893,752,0
3561616,333.44,893,750,0
3561626,335.28,893,752,0
3561636,337.77,893,751,0
3561646,341.39,893,752,0
3561656,345.00,893,750,0
3561666,349.07,893,752,0
3561676,352.82,893,751,0
3561687,356.65,893,752,0
3561697,359.54,893,751,0
3561707,361.99,893,752,0
3561717,363.37,893,751,0
3561728,364.37,893,752,0
3561737,364.34,893,751,0
3561747,363.94,893,752,0
3561757,362.72,893,751,0
3561767,361.60,893,752,0
3561777,360.01,893,751,0
3561787,358.68,893,752,0
3561797,356.97,893,751,0
3561807,355.70,893,752,0
3561817,354.03,893,751,0
3561827,352.86,893,752,0
3561837,351.49,893,751,0
3561847,350.61,893,752,0
3561857,349.66,893,750,0
3561867,349.16,893,752,0
3561877,348.68,893,751,0
3561887,348.69,893,752,0
3561897,348.49,893,751,0
3561907,349.11,893,752,0
3561917,350.71,893,751,0
3561927,355.34,893,752,0
3561937,364.24,893,750,0
3561947,379.51,893,752,0
3561957,402.67,893,751,0
3561967,435.43,893,752,0
3561987,474.21,883,750,0
3561990,516.49,883,752,0
3561999,559.12,883,752,0
3562009,599.75,883,752,0
3562019,635.57,883,751,0
3562029,664.58,883,752,0
3562039,684.89,883,751,0
3562049,699.15,883,752,0
3562059,709.14,883,751,0
3562070,716.12,883,752,0
3562079,720.97,883,752,0
3562089,724.41,883,752,0
3562099,726.77,883,751,0
3562109,726.11,883,752,0
3562119,721.15,883,751,0
3562129,711.08,883,752,0
3562139,695.37,883,751,0
3562149,673.91,883,752,0
3562159,646.85,883,751,0
3562169,614.63,883,751,0
3562179,579.72,883,751,0
3562189,544.19,883,752,0
3562199,509.59,883,751,0
3562209,477.27,883,751,0
3562219,447.88,883,751,0
3562229,422.24,883,752,0
3562240,400.65,883,752,0
3562249,383.74,883,752,0
3562259,371.31,883,751,0
3562269,363.29,883,752,0
3562279,358.96,883,752,0
3562289,358.11,883,752,0
3562299,359.54,883,751,0
3562309,362.68,883,752,0
3562319,366.46,883,752,0
3562329,370.44,883,752,0
3562339,373.78,883,751,0
3562349,376.16,883,752,0
3562359,377.14,883,751,0
3562369,376.88,883,751,0
3562379,375.12,883,751,0
3562389,372.25,883,752,0
3562399,368.19,883,752,0
3562409,363.55,883,751,0
3562419,358.54,883,751,0
3562429,353.66,883,752,0
3562439,349.05,883,752,0
3562449,345.22,883,751,0
3562459,342.16,883,751,0
3562469,340.22,883,752,0
3562479,339.08,883,752,0
3562489,338.97,883,752,0
3562499,339.54,883,751,0
3562509,340.83,883,752,0
3562519,342.81,883,752,0
3562529,344.80,883,751,0
3562540,346.70,883,751,0
3562550,348.46,883,752,0
3562560,349.91,883,752,0
3562570,351.14,883,751,0
3562580,352.17,883,752,0
3562590,352.63,883,752,0
3562600,353.13,883,752,0
3562610,353.52,883,751,0
3562620,353.96,883,752,0
3562630,354.45,883,752,0
3562640,354.78,883,752,0
3562650,354.89,883,751,0
3562660,354.75,883,752,0
3562670,354.44,883,751,0
3562680,353.88,883,752,0
3562690,353.14,883,751,0
3562700,352.33,883,752,0
3562711,351.89,883,751,0
3562721,351.66,883,752,0
3562731,351.55,883,751,0
3562741,351.51,883,752,0
3562752,351.70,883,751,0
3562761,352.18,883,752,0
3562771,352.47,883,751,0
3562781,352.50,883,752,0
3562791,352.31,883,751,0
3562801,352.39,883,752,0
3562811,352.74,883,751,0
3562821,354.10,883,752,0
3562831,357.33,883,751,0
3562841,364.60,883,752,0
3562851,377.54,883,751,0
3562870,398.29,884,750,0
3562873,428.72,884,752,0
3562882,466.04,884,752,0
3562892,507.30,884,751,0
3562902,549.98,884,752,0
3562912,591.30,884,750,0
3562923,628.67,884,752,0
3562932,659.50,884,751,0
3562942,681.33,884,752,0
3562952,696.58,884,750,0
3562962,707.29,884,752,0
3562972,714.83,884,751,0
3562982,720.15,884,752,0
3562992,723.88,884,750,0
3563002,726.49,884,752,0
3563012,728.27,884,751,0
3563022,729.56,884,752,0
3563032,728.19,884,750,0
3563042,723.33,884,752,0
3563052,713.55,884,751,0
3563062,698.34,884,752,0
3563072,677.11,884,750,0
3563082,650.08,884,752,0
3563092,617.35,884,751,0
3563102,581.93,884,752,0
3563112,545.10,884,750,0
3563122,509.24,884,752,0
3563132,475.70,884,751,0
3563142,445.92,884,752,0
3563152,420.23,884,751,0
3563162,399.50,884,752,0
3563172,383.32,884,751,0
3563182,372.34,884,752,0
3563192,365.42,884,750,0
3563202,362.34,884,752,0
3563212,361.98,884,751,0
3563223,364.09,884,752,0
3563233,367.15,884,751,0
3563243,371.30,884,752,0
3563253,374.55,884,751,0
3563264,377.47,884,752,0
3563273,378.87,884,751,0
3563283,379.21,884,752,0
3563293,377.91,884,751,0
3563303,375.66,884,752,0
3563313,371.91,884,751,0
3563323,367.99,884,752,0
3563333,363.49,884,751,0
3563343,359.53,884,752,0
3563353,355.99,884,751,0
3563363,353.33,884,752,0
3563373,351.18,884,751,0
3563383,350.09,884,752,0
3563393,349.68,884,751,0
3563403,350.38,884,752,0
3563413,351.16,884,751,0
3563423,352.31,884,752,0
3563433,353.33,884,750,0
3563443,354.82,884,752,0
3563453,356.16,884,751,0
3563463,357.44,884,752,0
3563473,357.99,884,750,0
3563483,358.77,884,752,0
3563493,359.09,884,751,0
3563503,359.32,884,752,0
3563513,358.80,884,751,0
3563523,358.09,884,752,0
3563533,357.08,884,751,0
3563543,356.28,884,752,0
3563553,354.91,884,750,0
3563564,353.65,884,752,0
3563574,352.34,884,751,0
3563584,351.55,884,752,0
3563594,350.49,884,750,0
3563604,349.66,884,752,0
3563614,348.73,884,751,0
3563624,348.47,884,752,0
3563634,347.99,884,750,0
3563644,347.90,884,752,0
3563654,347.59,884,750,0
3563664,348.06,884,752,0
3563674,348.42,884,750,0
3563684,349.45,884,752,0
3563694,350.60,884,751,0
3563704,353.21,884,752,0
3563714,357.86,884,750,0
3563724,366.69,884,752,0
3563735,380.97,884,751,0
3563754,403.48,884,749,0
3563757,434.96,884,752,0
3563766,472.86,884,752,0
3563777,514.30,884,751,0
3563787,556.85,884,752,0
3563797,597.70,884,751,0
3563807,634.26,884,752,0
3563817,663.71,884,751,0
3563827,684.41,884,752,0
3563837,698.90,884,751,0
3563847,709.09,884,752,0
3563857,716.22,884,751,0
3563867,721.21,884,752,0
3563877,724.70,884,751,0
3563887,727.19,884,752,0
3563897,728.94,884,752,0
3563907,729.73,884,752,0
3563917,727.15,884,751,0
3563927,720.12,884,751,0
3563937,707.06,884,751,0
3563948,687.75,884,752,0
3563958,661.64,884,751,0
3563968,629.26,884,751,0
3563978,591.43,884,752,0
3563988,551.57,884,751,0
3563998,511.59,884,751,0
3564008,474.25,884,751,0
3564018,440.62,884,752,0
3564028,412.28,884,752,0
3564038,389.31,884,751,0
3564048,372.12,884,751,0
3564058,360.30,884,752,0
3564068,353.44,884,751,0
3564078,350.43,884,751,0
3564088,350.65,884,751,0
3564098,352.85,884,752,0
3564108,356.33,884,752,0
3564119,360.00,884,751,0
3564129,363.09,884,751,0
3564139,365.07,884,752,0
3564149,365.87,884,751,0
3564160,365.18,884,752,0
3564169,363.24,884,751,0
3564179,360.08,884,752,0
3564189,356.11,884,751,0
3564199,351.79,884,752,0
3564209,347.40,884,751,0
3564219,343.04,884,752,0
3564229,339.08,884,751,0
3564239,335.71,884,752,0
3564249,333.19,884,751,0
3564259,331.46,884,752,0
3564269,330.68,884,751,0
3564279,330.82,884,752,0
3564289,331.94,884,751,0
3564299,334.10,884,752,0
3564309,336.69,884,751,0
3564319,339.65,884,752,0
3564329,342.80,884,751,0
3564339,346.07,884,752,0
3564349,349.22,884,751,0
3564359,352.03,884,752,0
3564369,354.08,884,751,0
3564379,355.94,884,752,0
3564389,357.37,884,751,0
3564399,358.50,884,752,0
3564409,359.21,884,751,0
3564419,359.62,884,752,0
3564429,359.90,884,751,0
3564439,360.10,884,752,0
3564449,360.03,884,751,0
3564460,359.85,884,752,0
3564470,359.55,884,751,0
3564480,359.09,884,752,0
3564490,358.29,884,751,0
3564500,357.39,884,752,0
3564510,356.50,884,751,0
3564520,356.22,884,752,0
3564530,357.18,884,751,0
3564540,360.69,884,752,0
3564550,368.11,884,751,0
3564560,381.79,884,752,0
3564570,403.32,884,751,0
3564590,434.34,835,750,0
3564593,471.78,835,751,0
3564602,512.95,835,752,0
3564612,555.05,835,750,0
3564622,595.71,835,752,0
3564632,632.09,835,751,0
3564642,661.89,835,752,0
3564652,683.05,835,751,0
3564662,697.91,835,752,0
3564673,708.27,835,750,0
3564683,715.56,835,752,0
3564693,720.62,835,750,0
3564703,724.20,835,752,0
3564713,726.71,835,751,0
3564723,727.57,835,752,0
3564733,724.57,835,750,0
3564743,716.90,835,752,0
3564753,703.22,835,751,0
3564763,683.78,835,752,0
3564773,657.87,835,751,0
3564783,625.94,835,752,0
3564793,588.93,835,751,0
3564803,550.08,835,752,0
3564813,510.54,835,751,0
3564823,472.96,835,752,0
3564833,437.70,835,751,0
3564844,406.94,835,752,0
3564854,380.77,835,751,0
3564864,360.57,835,752,0
3564874,345.53,835,751,0
3564884,336.54,835,752,0
3564894,332.13,835,750,0
3564904,332.39,835,752,0
3564914,335.45,835,751,0
3564924,341.27,835,752,0
3564934,347.62,835,750,0
3564944,354.50,835,752,0
3564954,360.22,835,751,0
3564964,365.09,835,752,0
3564974,367.89,835,750,0
3564984,369.25,835,752,0
3564994,368.15,835,751,0
3565004,365.79,835,752,0
3565015,361.69,835,750,0
3565025,357.03,835,752,0
3565035,351.71,835,751,0
3565045,346.74,835,752,0
3565056,341.84,835,751,0
3565065,338.08,835,753,0
3565075,334.75,835,751,0
3565085,333.11,835,752,0
3565095,332.35,835,751,0
3565105,332.80,835,752,0
3565115,333.55,835,751,0
3565125,335.14,835,752,0
3565135,336.77,835,751,0
3565145,339.20,835,752,0
3565155,341.28,835,751,0
3565165,343.85,835,752,0
3565175,346.00,835,751,0
3565185,348.48,835,752,0
3565195,350.31,835,751,0
3565205,351.97,835,752,0
3565215,352.92,835,751,0
3565225,353.59,835,752,0
3565235,353.16,835,751,0
3565245,352.64,835,752,0
3565255,351.67,835,751,0
3565265,351.00,835,752,0
3565275,349.93,835,751,0
3565285,349.09,835,752,0
3565295,347.91,835,751,0
3565305,347.16,835,752,0
3565315,345.96,835,751,0
3565325,344.94,835,752,0
3565335,343.59,835,751,0
3565345,343.03,835,751,0
3565356,342.38,835,751,0
3565366,343.03,835,752,0
3565376,345.04,835,751,0
3565386,350.38,835,751,0
3565396,359.91,835,751,0
3565406,376.10,835,752,0
3565416,400.02,835,751,0
3565435,433.49,846,750,0
3565438,472.77,846,753,0
3565447,515.35,846,752,0
3565457,558.32,846,752,0
3565467,599.28,846,751,0
3565477,635.45,846,752,0
3565487,664.63,846,752,0
3565497,685.10,846,752,0
3565507,699.38,846,751,0
3565517,709.38,846,752,0
3565527,716.38,846,752,0
3565537,721.32,846,752,0
3565547,724.74,846,752,0
3565557,727.13,846,752,0
3565568,728.81,846,752,0
3565577,730.02,846,751,0
3565587,730.27,846,752,0
3565597,727.11,846,752,0
3565607,719.19,846,752,0
3565617,705.25,846,751,0
3565627,684.81,846,752,0
3565637,657.44,846,752,0
3565647,623.54,846,752,0
3565657,584.08,846,752,0
3565667,542.53,846,752,0
3565677,500.84,846,752,0
3565687,461.50,846,752,0
3565697,425.82,846,751,0
3565707,395.45,846,752,0
3565717,370.54,846,752,0
3565727,351.74,846,752,0
3565737,338.44,846,752,0
3565747,330.73,846,752,0
3565757,327.51,846,752,0
3565767,328.30,846,752,0
3565777,331.64,846,752,0
3565787,337.06,846,752,0
3565797,343.09,846,752,0
3565807,349.32,846,752,0
3565817,354.79,846,752,0
3565827,359.44,846,752,0
3565837,362.35,846,752,0
3565847,363.83,846,752,0
3565857,363.54,846,752,0
3565868,362.05,846,751,0
3565878,359.38,846,752,0
3565888,355.96,846,751,0
3565898,352.03,846,752,0
3565908,348.17,846,751,0
3565918,344.52,846,752,0
3565928,341.53,846,751,0
3565938,339.44,846,752,0
3565948,338.24,846,751,0
3565958,337.78,846,752,0
3565968,338.15,846,751,0
3565978,339.05,846,752,0
3565988,340.45,846,751,0
3565998,342.07,846,752,0
3566008,343.72,846,751,0
3566018,345.35,846,752,0
3566028,347.17,846,751,0
3566039,348.49,846,752,0
3566049,349.50,846,751,0
3566059,350.21,846,752,0
3566069,350.57,846,751,0
3566080,350.62,846,752,0
3566089,350.35,846,751,0
3566099,349.68,846,752,0
3566109,348.71,846,751,0
3566119,347.72,846,752,0
3566129,346.56,846,751,0
3566139,345.58,846,752,0
3566149,344.63,846,751,0
3566159,344.14,846,752,0
3566169,343.93,846,751,0
3566179,344.64,846,752,0
3566189,345.99,846,751,0
3566199,348.13,846,752,0
3566209,350.88,846,751,0
3566219,354.30,846,752,0
3566229,358.07,846,751,0
3566239,362.29,846,752,0
3566249,366.62,846,751,0
3566259,371.23,846,752,0
3566269,376.35,846,751,0
3566279,382.93,846,751,0
3566299,392.17,863,751,0
3566302,406.90,863,753,0
3566311,428.96,863,750,0
3566321,459.10,863,752,0
3566331,494.56,863,751,0
3566341,533.17,863,752,0
3566351,572.68,863,751,0
3566361,610.92,863,752,0
3566371,644.41,863,750,0
3566381,670.95,863,752,0
3566391,689.52,863,751,0
3566401,702.48,863,751,0
3566411,711.55,863,750,0
3566422,717.90,863,752,0
3566431,722.34,863,751,0
3566441,725.50,863,752,0
3566451,727.71,863,751,0
3566461,729.25,863,752,0
3566471,730.38,863,751,0
3566481,731.16,863,752,0
3566491,731.71,863,751,0
3566501,732.10,863,752,0
3566511,732.41,863,751,0
3566521,732.63,863,752,0
3566531,732.79,863,751,0
3566541,732.89,863,752,0
3566551,730.22,863,751,0
3566561,722.87,863,752,0
3566571,708.34,863,751,0
3566581,686.38,863,752,0
3566592,656.61,863,750,0
3566601,620.38,863,752,0
3566611,577.67,863,751,0
3566621,532.47,863,752,0
3566631,487.20,863,750,0
3566641,445.74,863,752,0
3566651,408.92,863,751,0
3566661,378.00,863,752,0
3566671,352.29,863,750,0
3566681,332.49,863,752,0
3566691,317.51,863,751,0
3566701,307.50,863,752,0
3566711,301.01,863,750,0
3566721,297.83,863,752,0
3566731,297.03,863,751,0
3566741,298.30,863,752,0
3566751,300.66,863,750,0
3566761,304.27,863,752,0
3566771,308.05,863,751,0
3566781,312.41,863,752,0
3566791,316.36,863,750,0
3566801,320.53,863,752,0
3566811,324.15,863,751,0
3566821,327.87,863,752,0
3566831,330.95,863,750,0
3566841,334.35,863,752,0
3566851,337.29,863,751,0
3566861,340.59,863,752,0
3566871,343.28,863,750,0
3566881,346.07,863,752,0
3566892,348.15,863,751,0
3566902,350.25,863,752,0
3566912,351.24,863,750,0
3566922,351.77,863,752,0
3566932,351.15,863,751,0
3566942,350.16,863,752,0
3566952,348.06,863,750,0
3566962,345.68,863,752,0
3566972,342.31,863,751,0
3566982,339.00,863,752,0
3566992,335.19,863,750,0
3567002,331.70,863,752,0
3567012,328.02,863,750,0
3567022,325.19,863,752,0
3567032,322.60,863,750,0
3567042,321.18,863,752,0
3567052,320.27,863,750,0
3567063,320.66,863,752,0
3567073,321.79,863,750,0
3567083,324.21,863,752,0
3567093,326.93,863,751,0
3567104,330.47,863,752,0
3567113,333.97,863,750,0
3567123,338.01,863,752,0
3567133,342.16,863,750,0
3567143,347.43,863,752,0
3567153,354.11,863,750,0
3567163,364.75,863,752,0
3567173,380.43,863,750,0
3567183,403.96,863,752,0
3567202,435.55,904,751,0
3567205,473.36,904,753,0
3567214,514.44,904,751,0
3567224,556.69,904,752,0
3567234,596.98,904,751,0
3567244,633.20,904,752,0
3567254,662.37,904,751,0
3567264,683.56,904,752,0
3567275,698.39,904,751,0
3567284,708.77,904,752,0
3567294,716.04,904,750,0
3567304,721.13,904,752,0
3567314,724.69,904,751,0
3567324,727.18,904,752,0
3567334,728.93,904,750,0
3567344,730.15,904,752,0
3567354,731.00,904,751,0
3567364,731.60,904,752,0
3567374,730.48,904,751,0
3567384,725.75,904,752,0
3567394,715.50,904,751,0
3567404,699.53,904,752,0
3567414,676.53,904,750,0
3567424,646.76,904,752,0
3567434,610.02,904,751,0
3567444,568.70,904,752,0
3567454,525.24,904,751,0
3567464,482.83,904,752,0
3567474,442.25,904,751,0
3567484,406.39,904,752,0
3567494,375.16,904,751,0
3567504,349.95,904,752,0
3567514,330.30,904,751,0
3567524,316.66,904,752,0
3567534,307.85,904,751,0
3567544,303.87,904,752,0
3567554,303.18,904,751,0
3567564,305.65,904,752,0
3567575,309.79,904,751,0
3567585,315.42,904,752,0
3567595,321.04,904,751,0
3567605,326.47,904,752,0
3567616,330.91,904,751,0
3567625,334.11,904,752,0
3567635,335.58,904,751,0
3567645,335.92,904,752,0
3567655,334.61,904,751,0
3567665,332.76,904,752,0
3567675,329.96,904,751,0
3567685,326.76,904,752,0
3567695,323.44,904,751,0
3567705,320.65,904,752,0
3567715,318.19,904,751,0
3567725,316.37,904,752,0
3567735,314.68,904,751,0
3567745,313.87,904,752,0
3567755,313.57,904,751,0
3567765,314.00,904,752,0
3567775,315.03,904,752,0
3567785,316.60,904,752,0
3567795,318.44,904,751,0
3567805,320.75,904,752,0
3567815,322.75,904,751,0
3567825,324.88,904,752,0
3567835,326.46,904,751,0
3567845,327.78,904,752,0
3567855,328.32,904,752,0
3567865,328.69,904,752,0
3567875,328.36,904,751,0
3567885,328.21,904,752,0
3567895,327.63,904,751,0
3567905,326.97,904,752,0
3567916,325.95,904,752,0
3567926,324.98,904,752,0
3567936,323.74,904,752,0
3567946,322.49,904,752,0
3567956,321.06,904,752,0
3567966,319.67,904,752,0
3567976,318.35,904,752,0
3567986,317.13,904,752,0
3567996,316.37,904,752,0
3568006,315.78,904,752,0
3568016,315.33,904,752,0
3568026,315.06,904,752,0
3568036,315.17,904,752,0
3568046,316.32,904,752,0
3568056,319.18,904,752,0
3568066,325.17,904,752,0
3568076,335.75,904,752,0
3568087,352.88,904,751,0
3568106,377.86,904,750,0
3568109,411.89,904,752,0
3568118,452.68,904,752,0
3568129,497.17,904,751,0
3568139,542.08,904,752,0
3568149,585.04,904,751,0
3568159,623.43,904,752,0
3568169,655.19,904,751,0
3568179,678.53,904,752,0
3568189,694.87,904,751,0
3568199,706.31,904,752,0
3568209,714.32,904,751,0
3568219,719.92,904,752,0
3568229,722.90,904,751,0
3568239,721.82,904,752,0
3568249,715.44,904,751,0
3568259,703.82,904,752,0
3568269,685.96,904,750,0
3568279,662.15,904,752,0
3568289,632.27,904,751,0
3568300,598.25,904,752,0
3568310,562.05,904,750,0
3568320,526.07,904,752,0
3568330,490.82,904,750,0
3568340,458.56,904,752,0
3568350,429.38,904,750,0
3568360,404.62,904,752,0
3568370,383.56,904,751,0
3568380,367.28,904,752,0
3568390,354.77,904,750,0
3568400,346.31,904,752,0
3568410,340.99,904,751,0
3568420,338.76,904,752,0
3568430,338.41,904,750,0
3568440,339.96,904,752,0
3568450,342.33,904,752,0
3568460,345.74,904,752,0
3568471,349.12,904,751,0
3568481,352.26,904,752,0
3568491,354.41,904,752,0
3568501,355.70,904,752,0
3568512,355.28,904,752,0
3568521,353.52,904,752,0
3568531,350.06,904,752,0
3568541,345.97,904,752,0
3568551,340.75,904,752,0
3568561,335.64,904,752,0
3568571,330.05,904,752,0
3568581,325.36,904,752,0
3568591,320.67,904,751,0
3568601,317.04,904,752,0
3568611,313.68,904,751,0
3568621,311.46,904,752,0
3568631,309.53,904,751,0
3568641,308.72,904,752,0
3568651,308.38,904,751,0
3568661,309.04,904,752,0
3568671,309.67,904,751,0
3568681,310.84,904,752,0
3568691,312.04,904,751,0
3568701,313.57,904,752,0
3568711,314.64,904,751,0
3568721,315.65,904,752,0
3568731,316.23,904,751,0
3568741,317.23,904,752,0
3568751,317.76,904,751,0
3568761,318.48,904,752,0
3568771,318.80,904,751,0
3568781,319.63,904,752,0
3568791,320.17,904,751,0
3568801,321.19,904,752,0
3568812,321.82,904,751,0
3568822,322.86,904,752,0
3568832,323.54,904,751,0
3568842,324.54,904,752,0
3568852,325.15,904,752,0
3568862,325.96,904,752,0
3568872,326.32,904,752,0
3568882,326.82,904,752,0
3568892,326.92,904,752,0
3568902,327.16,904,752,0
3568912,326.90,904,751,0
3568922,327.01,904,752,0
3568932,326.88,904,752,0
3568942,327.52,904,752,0
3568952,328.73,904,751,0
3568962,332.24,904,752,0
3568972,338.68,904,752,0
3568983,350.39,904,752,0
3569002,367.97,896,751,0
3569005,394.17,896,753,0
3569014,428.70,896,752,0
3569025,469.34,896,752,0
3569035,512.61,896,752,0
3569045,556.22,896,752,0
3569055,597.26,896,752,0
3569065,633.78,896,752,0
3569075,662.95,896,752,0
3569085,683.92,896,752,0
3569095,698.60,896,752,0
3569105,708.92,896,752,0
3569115,716.14,896,752,0
3569125,720.77,896,752,0
3569135,721.10,896,752,0
3569145,716.18,896,752,0
3569155,705.54,896,752,0
3569165,688.97,896,752,0
3569175,666.26,896,752,0
3569185,637.73,896,752,0
3569196,604.25,896,752,0
3569206,568.73,896,752,0
3569216,533.03,896,752,0
3569226,498.60,896,751,0
3569236,466.45,896,752,0
3569246,437.69,896,752,0
3569256,412.71,896,752,0
3569266,391.75,896,751,0
3569276,374.94,896,752,0
3569286,362.23,896,752,0
3569296,353.25,896,752,0
3569306,347.73,896,751,0
3569316,345.03,896,752,0
3569326,344.50,896,751,0
3569336,345.55,896,752,0
3569346,347.49,896,751,0
3569356,349.78,896,752,0
3569367,352.03,896,751,0
3569377,353.78,896,752,0
3569387,354.58,896,751,0
3569397,354.53,896,752,0
3569408,353.30,896,751,0
3569417,351.11,896,752,0
3569427,347.82,896,751,0
3569437,343.85,896,752,0
3569447,339.13,896,751,0
3569457,334.38,896,752,0
3569467,329.55,896,751,0
3569477,325.36,896,752,0
3569487,321.65,896,751,0
3569497,318.97,896,752,0
3569507,317.05,896,751,0
3569517,316.26,896,752,0
3569527,316.10,896,751,0
3569537,316.75,896,752,0
3569547,317.94,896,751,0
3569557,319.76,896,752,0
3569567,322.02,896,751,0
3569577,324.58,896,752,0
3569587,327.24,896,751,0
3569597,330.34,896,752,0
3569607,333.49,896,751,0
3569617,336.73,896,752,0
3569627,339.81,896,751,0
3569637,342.70,896,752,0
3569647,345.23,896,751,0
3569657,347.65,896,752,0
3569667,349.51,896,751,0
3569677,351.03,896,752,0
3569687,351.79,896,751,0
3569697,352.07,896,752,0
3569708,351.58,896,751,0
3569718,350.76,896,752,0
3569728,349.16,896,750,0
3569738,347.36,896,752,0
3569748,345.15,896,750,0
3569758,343.18,896,752,0
3569768,341.32,896,750,0
3569778,340.45,896,752,0
3569788,340.62,896,751,0
3569798,343.30,896,752,0
3569808,349.30,896,750,0
3569818,360.65,896,752,0
3569828,378.54,896,751,0
3569838,404.31,896,752,0
3569857,438.12,855,750,0
3569860,477.77,855,753,0
3569869,520.09,855,751,0
3569879,562.58,855,752,0
3569889,602.31,855,750,0
3569899,637.14,855,752,0
3569909,665.26,855,751,0
3569920,685.54,855,752,0
3569929,699.69,855,750,0
3569939,709.60,855,752,0
3569949,716.45,855,751,0
3569959,718.41,855,752,0
3569969,714.17,855,750,0
3569979,703.28,855,752,0
3569989,685.20,855,750,0
3569999,660.45,855,752,0
3570009,629.33,855,750,0
3570019,592.80,855,752,0
3570029,553.95,855,751,0
3570039,515.65,855,752,0
3570049,479.24,855,751,0
3570059,446.55,855,752,0
3570069,417.59,855,751,0
3570079,393.20,855,752,0
3570089,372.82,855,750,0
3570099,357.11,855,752,0
3570109,345.20,855,750,0
3570119,337.47,855,752,0
3570129,332.91,855,750,0
3570139,331.74,855,752,0
3570149,332.68,855,751,0
3570159,335.82,855,752,0
3570169,339.77,855,750,0
3570179,344.55,855,752,0
3570189,348.93,855,750,0
3570199,352.98,855,752,0
3570209,355.60,855,750,0
3570220,357.09,855,752,0
3570230,356.51,855,750,0
3570240,354.60,855,752,0
3570250,350.86,855,750,0
3570260,346.02,855,752,0
3570270,339.80,855,750,0
3570280,333.30,855,752,0
3570290,326.18,855,750,0
3570300,319.57,855,752,0
3570310,313.01,855,750,0
3570320,307.57,855,752,0
3570330,302.77,855,750,0
3570340,299.28,855,752,0
3570350,296.50,855,751,0
3570360,295.10,855,752,0
3570370,294.30,855,750,0
3570380,294.85,855,752,0
3570391,295.76,855,750,0
3570401,297.54,855,752,0
3570411,299.39,855,750,0
3570421,301.80,855,752,0
3570432,304.01,855,751,0
3570441,306.58,855,752,0
3570451,308.55,855,751,0
3570461,310.61,855,752,0
3570471,312.06,855,751,0
3570481,313.67,855,752,0
3570491,314.80,855,751,0
3570501,316.10,855,752,0
3570511,316.76,855,751,0
3570521,317.69,855,752,0
3570531,318.12,855,751,0
3570541,318.86,855,752,0
3570551,319.11,855,751,0
3570561,319.47,855,752,0
3570571,319.24,855,751,0
3570581,319.47,855,752,0
3570591,319.33,855,751,0
3570601,319.74,855,752,0
3570611,320.12,855,750,0
3570621,321.46,855,752,0
3570631,324.10,855,751,0
3570641,329.94,855,752,0
3570651,339.48,855,750,0
3570661,355.02,855,751,0
3570680,377.51,823,751,0
3570683,409.20,823,752,0
3570692,448.10,823,751,0
3570702,491.18,823,752,0
3570712,535.27,823,751,0
3570722,578.26,823,752,0
3570732,617.27,823,751,0
3570742,650.27,823,751,0
3570752,674.83,823,751,0
3570762,692.07,823,752,0
3570772,704.13,823,751,0
3570782,712.58,823,752,0
3570792,716.78,823,751,0
3570802,715.73,823,752,0
3570812,708.27,823,751,0
3570822,694.43,823,751,0
3570832,673.82,823,751,0
3570842,647.13,823,752,0
3570852,614.69,823,751,0
3570862,579.17,823,752,0
3570872,542.69,823,751,0
3570882,507.85,823,752,0
3570892,475.28,823,751,0
3570903,446.48,823,751,0
3570913,421.31,823,751,0
3570923,400.35,823,752,0
3570933,383.27,823,751,0
3570944,370.12,823,751,0
3570953,360.35,823,751,0
3570963,354.20,823,751,0
3570973,350.80,823,751,0
3570983,350.00,823,751,0
3570993,350.99,823,751,0
3571003,353.39,823,752,0
3571013,356.62,823,751,0
3571023,360.42,823,752,0
3571033,364.06,823,751,0
3571043,367.34,823,752,0
3571053,369.64,823,751,0
3571063,370.95,823,751,0
3571073,370.88,823,751,0
3571083,369.41,823,752,0
3571093,366.46,823,751,0
3571103,362.17,823,752,0
3571113,356.54,823,752,0
3571123,350.30,823,752,0
3571133,343.39,823,751,0
3571143,336.33,823,752,0
3571153,329.42,823,752,0
3571163,323.12,823,752,0
3571173,317.56,823,751,0
3571183,313.40,823,751,0
3571193,310.45,823,752,0
3571203,309.20,823,752,0
3571213,309.10,823,751,0
3571223,310.40,823,751,0
3571233,312.59,823,752,0
3571244,315.72,823,751,0
3571254,319.06,823,751,0
3571264,322.68,823,751,0
3571274,326.12,823,752,0
3571284,329.56,823,751,0
3571294,332.95,823,752,0
3571304,336.05,823,751,0
3571314,338.78,823,752,0
3571324,341.24,823,751,0
3571334,343.31,823,752,0
3571344,344.98,823,751,0
3571354,346.18,823,752,0
3571364,346.73,823,751,0
3571374,346.90,823,751,0
3571384,346.88,823,751,0
3571394,346.70,823,752,0
3571404,346.45,823,751,0
3571415,346.19,823,752,0
3571425,346.00,823,751,0
3571435,345.92,823,752,0
3571445,346.03,823,751,0
3571456,346.70,823,752,0
3571465,348.76,823,751,0
3571475,353.34,823,752,0
3571485,362.02,823,751,0
3571495,376.80,823,752,0
3571505,399.15,823,751,0
3571524,430.43,844,750,0
3571527,468.23,844,751,0
3571536,509.69,844,752,0
3571546,552.13,844,751,0
3571556,592.89,844,752,0
3571566,629.26,844,751,0
3571576,659.27,844,752,0
3571586,681.09,844,751,0
3571596,696.36,844,752,0
3571606,707.05,844,751,0
3571616,714.54,844,752,0
3571627,719.78,844,751,0
3571636,723.44,844,752,0
3571646,726.01,844,751,0
3571656,727.85,844,752,0
3571666,727.72,844,751,0
3571676,723.99,844,751,0
3571686,715.25,844,751,0
3571696,700.73,844,752,0
3571706,680.03,844,751,0
3571716,653.62,844,751,0
3571726,621.76,844,751,0
3571736,586.52,844,752,0
3571746,550.11,844,750,0
3571756,515.15,844,752,0
3571766,483.04,844,751,0
3571776,455.35,844,752,0
3571786,432.06,844,751,0
3571796,413.74,844,752,0
3571806,400.06,844,751,0
3571816,390.91,844,752,0
3571826,385.50,844,751,0
3571836,383.42,844,752,0
3571846,383.42,844,751,0
3571856,385.18,844,752,0
3571866,387.44,844,750,0
3571876,389.97,844,752,0
3571886,392.25,844,751,0
3571896,393.72,844,752,0
3571906,393.54,844,750,0
3571916,392.05,844,752,0
3571927,388.69,844,751,0
3571937,384.16,844,752,0
3571947,378.11,844,750,0
3571957,371.18,844,752,0
3571968,363.15,844,751,0
3571977,355.44,844,752,0
3571987,347.68,844,750,0
3571997,340.87,844,752,0
3572007,334.65,844,751,0
3572017,329.79,844,752,0
3572027,325.82,844,750,0
3572037,323.56,844,752,0
3572047,322.11,844,751,0
3572057,321.95,844,752,0
3572067,322.26,844,751,0
3572077,323.47,844,752,0
3572087,324.83,844,751,0
3572097,326.59,844,752,0
3572107,328.22,844,750,0
3572117,330.12,844,752,0
3572127,331.59,844,751,0
3572137,333.34,844,752,0
3572147,334.44,844,751,0
3572157,335.51,844,752,0
3572167,335.95,844,751,0
3572177,336.40,844,752,0
3572187,336.28,844,751,0
3572197,336.32,844,752,0
3572207,335.75,844,751,0
3572217,335.53,844,752,0
3572227,335.03,844,751,0
3572237,334.89,844,752,0
3572247,334.45,844,751,0
3572257,334.23,844,752,0
3572268,333.69,844,750,0
3572278,333.48,844,752,0
3572288,333.21,844,751,0
3572298,334.26,844,752,0
3572308,337.01,844,750,0
3572318,343.35,844,752,0
3572328,354.43,844,751,0
3572338,372.60,844,752,0
3572358,398.78,833,751,0
3572361,434.16,833,752,0
3572370,474.87,833,751,0
3572380,518.37,833,752,0
3572390,561.63,833,751,0
3572400,602.32,833,752,0
3572410,637.71,833,751,0
3572420,666.08,833,752,0
3572430,685.95,833,751,0
3572440,699.85,833,752,0
3572450,709.54,833,751,0
3572460,716.36,833,752,0
3572470,721.14,833,751,0
3572481,724.48,833,752,0
3572491,724.64,833,752,0
3572501,720.20,833,752,0
3572511,709.77,833,751,0
3572521,693.21,833,752,0
3572531,670.13,833,751,0
3572541,641.21,833,752,0
3572551,606.56,833,751,0
3572561,569.45,833,752,0
3572571,532.07,833,751,0
3572581,496.95,833,752,0
3572591,465.12,833,751,0
3572601,437.87,833,752,0
3572611,415.15,833,751,0
3572621,397.92,833,752,0
3572631,385.43,833,751,0
3572641,377.89,833,752,0
3572652,374.58,833,751,0
3572662,375.13,833,752,0
3572672,378.52,833,751,0
3572682,384.32,833,752,0
3572692,391.08,833,752,0
3572702,398.34,833,752,0
3572712,404.88,833,751,0
3572722,410.40,833,752,0
3572732,414.18,833,752,0
3572742,416.19,833,752,0
3572752,415.70,833,752,0
3572762,413.09,833,752,0
3572772,408.26,833,752,0
3572782,401.97,833,752,0
3572792,393.96,833,752,0
3572802,384.63,833,752,0
3572812,374.33,833,752,0
3572823,363.90,833,752,0
3572833,353.69,833,752,0
3572843,344.22,833,752,0
3572853,335.54,833,752,0
3572864,328.27,833,752,0
3572873,322.61,833,752,0
3572883,318.74,833,752,0
3572893,316.59,833,752,0
3572903,315.94,833,752,0
3572913,316.52,833,752,0
3572923,318.16,833,752,0
3572933,320.51,833,752,0
3572943,323.23,833,752,0
3572953,326.03,833,752,0
3572963,328.77,833,752,0
3572973,331.19,833,752,0
3572983,333.24,833,752,0
3572993,334.79,833,752,0
3573003,336.06,833,752,0
3573013,337.02,833,752,0
3573023,337.70,833,751,0
3573033,338.13,833,752,0
3573043,338.61,833,752,0
3573053,339.15,833,752,0
3573063,340.14,833,752,0
3573073,341.98,833,752,0
3573083,345.46,833,752,0
3573093,351.79,833,752,0
3573103,362.40,833,752,0
3573113,378.95,833,752,0
3573123,402.84,833,752,0
3573133,434.90,833,752,0
3573143,473.03,833,752,0
3573153,514.42,833,752,0
3573173,556.38,816,751,0
3573176,596.42,816,752,0
3573185,632.04,816,751,0
3573195,661.34,816,753,0
3573206,682.84,816,751,0
3573215,697.89,816,752,0
3573225,708.42,816,751,0
3573235,715.79,816,753,0
3573245,720.96,816,751,0
3573255,724.57,816,752,0
3573265,727.06,816,751,0
3573275,726.01,816,752,0
3573285,719.75,816,751,0
3573295,707.74,816,752,0
3573305,689.35,816,751,0
3573315,664.73,816,752,0
3573325,634.00,816,751,0
3573335,598.08,816,752,0
3573345,560.13,816,751,0
3573355,522.89,816,752,0
3573365,487.52,816,751,0
3573376,455.82,816,752,0
3573385,428.15,816,751,0
3573395,405.43,816,752,0
3573405,387.17,816,751,0
3573415,373.54,816,752,0
3573425,363.82,816,751,0
3573435,358.09,816,752,0
3573445,355.19,816,751,0
3573455,354.83,816,752,0
3573465,355.83,816,751,0
3573475,358.02,816,752,0
3573485,360.29,816,751,0
3573495,362.77,816,752,0
3573505,364.25,816,752,0
3573515,364.99,816,752,0
3573525,364.22,816,751,0
3573535,362.40,816,753,0
3573545,358.85,816,751,0
3573555,354.48,816,752,0
3573565,348.98,816,751,0
3573575,343.11,816,752,0
3573585,336.52,816,752,0
3573595,330.19,816,753,0
3573605,323.92,816,751,0
3573615,318.33,816,752,0
3573625,313.26,816,752,0
3573635,308.85,816,753,0
3573645,305.04,816,751,0
3573655,302.46,816,753,0
3573665,300.65,816,751,0
3573676,299.94,816,753,0
3573686,299.96,816,751,0
3573696,300.87,816,753,0
3573706,302.19,816,751,0
3573716,304.24,816,753,0
3573726,306.31,816,751,0
3573736,308.79,816,752,0
3573746,310.95,816,751,0
3573756,313.37,816,752,0
3573766,315.44,816,751,0
3573776,317.84,816,753,0
3573786,319.77,816,751,0
3573796,321.94,816,753,0
3573806,323.63,816,751,0
3573816,325.41,816,753,0
3573826,326.40,816,751,0
3573836,327.27,816,753,0
3573847,327.36,816,751,0
3573857,327.64,816,752,0
3573867,327.87,816,751,0
3573877,329.45,816,753,0
3573888,333.13,816,751,0
3573897,341.02,816,752,0
3573907,354.13,816,751,0
3573917,375.13,816,753,0
3573927,404.92,816,751,0
3573946,442.79,773,750,0
3573949,485.24,773,752,0
3573958,529.52,773,753,0
3573968,572.82,773,751,0
3573978,612.91,773,753,0
3573988,646.79,773,751,0
3573998,672.70,773,753,0
3574008,690.83,773,751,0
3574018,703.52,773,753,0
3574028,712.41,773,751,0
3574038,718.63,773,753,0
3574048,722.94,773,751,0
3574059,726.00,773,753,0
3574068,727.33,773,751,0
3574078,725.04,773,753,0
3574088,717.32,773,751,0
3574098,703.68,773,753,0
3574108,683.46,773,751,0
3574118,657.05,773,753,0
3574128,624.42,773,751,0
3574138,587.14,773,753,0
3574148,547.67,773,751,0
3574158,509.02,773,753,0
3574168,472.20,773,751,0
3574178,439.10,773,753,0
3574188,409.80,773,751,0
3574198,385.56,773,753,0
3574208,365.93,773,751,0
3574218,351.51,773,753,0
3574228,341.37,773,751,0
3574238,335.86,773,753,0
3574248,333.50,773,751,0
3574258,334.38,773,753,0
3574268,336.79,773,751,0
3574278,340.71,773,753,0
3574288,344.79,773,751,0
3574298,349.01,773,753,0
3574308,352.00,773,751,0
3574318,354.32,773,753,0
3574328,354.87,773,751,0
3574338,354.35,773,753,0
3574348,352.06,773,751,0
3574359,348.78,773,753,0
3574369,344.05,773,752,0
3574379,338.98,773,753,0
3574389,333.07,773,752,0
3574400,327.31,773,753,0
3574409,321.30,773,752,0
3574419,316.20,773,753,0
3574429,311.42,773,752,0
3574439,307.91,773,753,0
3574449,304.89,773,752,0
3574459,303.17,773,753,0
3574469,302.13,773,752,0
3574479,302.31,773,753,0
3574489,302.90,773,752,0
3574499,304.47,773,753,0
3574509,306.22,773,752,0
3574519,308.64,773,753,0
3574529,310.93,773,752,0
3574539,313.52,773,753,0
3574549,315.77,773,752,0
3574559,318.07,773,753,0
3574569,319.80,773,752,0
3574579,321.66,773,752,0
3574589,322.92,773,752,0
3574599,324.23,773,753,0
3574609,324.98,773,752,0
3574619,325.71,773,753,0
3574629,325.88,773,752,0
3574639,325.96,773,753,0
3574649,325.33,773,752,0
3574659,324.97,773,753,0
3574669,324.47,773,752,0
3574679,325.18,773,753,0
3574689,327.79,773,752,0
3574700,334.36,773,752,0
3574710,346.38,773,752,0
3574720,366.33,773,753,0
3574730,395.07,773,752,0
3574750,432.68,803,751,0
3574753,475.50,803,754,0
3574762,520.74,803,753,0
3574772,565.30,803,753,0
3574782,606.65,803,752,0
3574792,641.90,803,753,0
3574802,669.23,803,752,0
3574812,688.36,803,753,0
3574822,701.75,803,752,0
3574832,711.17,803,753,0
3574842,717.76,803,752,0
3574852,721.05,803,753,0
3574862,719.28,803,752,0
3574872,711.69,803,753,0
3574882,697.77,803,752,0
3574892,677.35,803,753,0
3574902,650.76,803,752,0
3574913,618.48,803,753,0
3574923,582.42,803,752,0
3574933,545.56,803,753,0
3574943,509.65,803,752,0
3574953,476.41,803,753,0
3574963,446.76,803,751,0
3574973,421.16,803,753,0
3574983,399.94,803,751,0
3574993,383.50,803,753,0
3575003,371.74,803,752,0
3575013,364.44,803,753,0
3575023,360.67,803,752,0
3575033,360.17,803,753,0
3575043,362.05,803,751,0
3575053,365.72,803,753,0
3575063,370.00,803,752,0
3575073,374.29,803,753,0
3575084,377.80,803,751,0
3575094,380.48,803,753,0
3575104,381.32,803,752,0
3575114,380.54,803,753,0
3575124,377.50,803,751,0
3575134,372.72,803,753,0
3575144,365.99,803,752,0
3575154,357.98,803,753,0
3575164,348.60,803,751,0
3575174,338.99,803,753,0
3575184,329.61,803,753,0
3575194,320.60,803,753,0
3575204,311.85,803,751,0
3575214,304.18,803,753,0
3575224,297.40,803,752,0
3575234,292.43,803,753,0
3575244,288.75,803,751,0
3575255,286.51,803,753,0
3575265,285.93,803,751,0
3575275,287.49,803,753,0
3575285,290.17,803,751,0
3575296,294.41,803,753,0
3575305,299.00,803,751,0
3575315,304.36,803,753,0
3575325,309.26,803,751,0
3575335,314.50,803,753,0
3575345,318.68,803,751,0
3575355,322.67,803,753,0
3575365,325.69,803,751,0
3575375,328.52,803,753,0
3575385,330.47,803,751,0
3575395,332.17,803,753,0
3575405,332.72,803,751,0
3575415,333.19,803,753,0
3575425,332.87,803,751,0
3575435,332.48,803,753,0
3575445,331.35,803,751,0
3575455,330.22,803,753,0
3575465,329.08,803,751,0
3575475,329.44,803,753,0
3575485,331.54,803,751,0
3575495,337.76,803,753,0
3575505,349.23,803,751,0
3575515,368.49,803,753,0
3575525,396.24,803,751,0
3575544,433.07,795,750,0
3575547,475.09,795,753,0
3575556,519.89,795,753,0
3575566,564.07,795,751,0
3575576,605.23,795,753,0
3575586,640.48,795,752,0
3575596,668.36,795,753,0
3575606,687.88,795,751,0
3575616,701.55,795,753,0
3575626,711.07,795,752,0
3575636,717.73,795,753,0
3575646,719.70,795,751,0
3575656,716.23,795,753,0
3575666,706.35,795,751,0
3575676,690.39,795,753,0
3575686,668.16,795,751,0
3575696,640.30,795,753,0
3575706,606.74,795,752,0
3575716,571.11,795,753,0
3575726,535.08,795,751,0
3575736,500.90,795,754,0
3575746,468.83,795,751,0
3575756,440.12,795,753,0
3575767,414.59,795,751,0
3575777,393.37,795,753,0
3575787,375.81,795,752,0
3575797,362.58,795,753,0
3575808,352.85,795,752,0
3575817,347.11,795,753,0
3575827,344.38,795,751,0
3575837,344.82,795,753,0
3575847,347.02,795,752,0
3575857,350.91,795,753,0
3575867,355.14,795,752,0
3575877,359.73,795,753,0
3575887,363.37,795,752,0
3575897,366.30,795,753,0
3575907,367.45,795,752,0
3575917,367.49,795,753,0
3575927,365.71,795,752,0
3575937,362.93,795,753,0
3575947,358.75,795,752,0
3575957,354.11,795,753,0
3575967,348.59,795,752,0
3575977,343.23,795,753,0
3575987,337.55,795,751,0
3575997,332.54,795,753,0
3576007,327.66,795,752,0
3576017,323.74,795,753,0
3576027,320.21,795,751,0
3576037,317.92,795,753,0
3576047,316.10,795,752,0
3576057,315.47,795,752,0
3576067,315.42,795,751,0
3576077,316.58,795,753,0
3576087,318.16,795,752,0
3576097,320.64,795,752,0
3576108,323.19,795,752,0
3576118,326.43,795,753,0
3576128,329.48,795,752,0
3576138,332.72,795,753,0
3576148,335.25,795,752,0
3576158,337.70,795,753,0
3576168,339.42,795,752,0
3576178,341.05,795,752,0
3576188,341.98,795,752,0
3576198,342.97,795,753,0
3576208,343.37,795,752,0
3576218,343.73,795,752,0
3576228,343.42,795,752,0
3576238,343.21,795,753,0
3576248,342.55,795,752,0
3576258,342.47,795,752,0
3576268,343.19,795,752,0
3576279,346.39,795,753,0
3576289,353.73,795,752,0
3576299,367.52,795,752,0
3576309,389.22,795,752,0
3576329,420.57,784,751,0
3576332,458.89,784,753,0
3576341,501.39,784,752,0
3576351,545.20,784,753,0
3576361,587.53,784,752,0
3576371,625.55,784,753,0
3576381,656.93,784,752,0
3576391,679.75,784,753,0
3576401,695.73,784,752,0
3576411,706.91,784,753,0
3576421,714.74,784,752,0
3576431,720.22,784,753,0
3576441,723.15,784,752,0
3576451,722.08,784,753,0
3576461,715.67,784,752,0
3576471,703.25,784,753,0
3576481,684.53,784,752,0
3576492,659.43,784,753,0
3576502,628.36,784,752,0
3576512,592.68,784,753,0
3576522,554.72,784,752,0
3576532,516.87,784,753,0
3576542,480.83,784,752,0
3576552,447.66,784,753,0
3576562,418.28,784,752,0
3576572,393.30,784,753,0
3576582,372.98,784,752,0
3576592,357.81,784,753,0
3576602,347.41,784,752,0
3576612,341.55,784,753,0
3576622,339.67,784,752,0
3576632,341.27,784,753,0
3576642,345.22,784,752,0
3576652,350.81,784,753,0
3576663,356.74,784,751,0
3576673,362.69,784,753,0
3576683,367.54,784,751,0
3576693,371.28,784,753,0
3576704,373.21,784,751,0
3576713,373.70,784,753,0
3576723,372.38,784,752,0
3576733,369.99,784,753,0
3576743,366.27,784,751,0
3576753,362.16,784,753,0
3576763,357.52,784,752,0
3576773,353.30,784,753,0
3576783,349.18,784,752,0
3576793,345.95,784,753,0
3576803,343.14,784,752,0
3576813,341.25,784,753,0
3576823,339.59,784,751,0
3576833,338.43,784,753,0
3576843,337.01,784,751,0
3576853,335.64,784,753,0
3576863,333.52,784,751,0
3576873,331.22,784,753,0
3576883,328.24,784,752,0
3576893,325.34,784,753,0
3576903,322.15,784,751,0
3576913,319.45,784,753,0
3576923,316.96,784,752,0
3576933,315.47,784,753,0
3576943,314.69,784,751,0
3576953,315.25,784,753,0
3576963,316.63,784,751,0
3576973,319.31,784,753,0
3576983,322.56,784,752,0
3576993,326.94,784,753,0
3577004,332.01,784,752,0
3577014,338.74,784,753,0
3577024,347.47,784,751,0
3577034,360.10,784,753,0
3577044,377.56,784,751,0
3577054,401.73,784,753,0
3577064,432.93,784,752,0
3577074,470.49,784,753,0
3577094,511.23,765,752,0
3577097,552.86,765,754,0
3577106,592.55,765,752,0
3577116,628.30,765,753,0
3577126,657.99,765,752,0
3577136,680.50,765,753,0
3577146,696.25,765,752,0
3577156,707.32,765,753,0
3577166,715.06,765,752,0
3577176,719.84,765,753,0
3577186,719.68,765,751,0
3577196,713.95,765,753,0
3577206,701.45,765,752,0
3577217,682.50,765,753,0
3577227,656.68,765,751,0
3577237,624.93,765,753,0
3577247,587.97,765,752,0
3577257,549.49,765,753,0
3577267,510.94,765,752,0
3577277,474.96,765,753,0
3577287,442.14,765,752,0
3577297,414.03,765,753,0
3577307,390.36,765,751,0
3577317,372.00,765,752,0
