Time,PPG,IBI,GSR,GSR_Event
4500503,347.25,913,743,0
4500513,346.36,913,747,0
4500524,344.24,913,744,0
4500534,341.89,913,747,0
4500544,339.40,913,744,0
4500554,337.44,913,747,0
4500564,335.89,913,744,0
4500574,337.38,913,747,0
4500584,341.25,913,743,0
4500594,346.36,913,746,0
4500604,351.61,913,744,0
4500614,356.91,913,746,0
4500624,361.27,913,743,0
4500634,364.79,913,747,0
4500644,366.74,913,744,0
4500654,367.72,913,746,0
4500664,367.54,913,743,0
4500674,366.70,913,747,0
4500684,364.86,913,744,0
4500695,362.71,913,747,0
4500705,360.01,913,744,0
4500715,357.70,913,747,0
4500725,355.60,913,744,0
4500736,354.86,913,746,0
4500745,355.68,913,743,0
4500755,360.19,913,746,0
4500765,369.47,913,743,0
4500775,386.35,913,744,0
4500794,411.40,884,743,0
4500797,445.65,884,744,0
4500806,485.40,884,743,0
4500816,528.26,884,744,0
4500826,570.96,884,742,0
4500836,611.26,884,744,0
4500846,645.94,884,743,0
4500856,673.51,884,744,0
4500866,692.77,884,743,0
4500876,706.26,884,744,0
4500886,715.69,884,743,0
4500896,722.34,884,744,0
4500907,726.95,884,742,0
4500916,730.18,884,744,0
4500926,732.44,884,743,0
4500936,732.65,884,744,0
4500946,727.83,884,743,0
4500956,716.95,884,745,0
4500966,698.62,884,744,0
4500976,672.89,884,746,0
4500986,639.58,884,745,0
4500996,599.89,884,748,0
4501006,555.61,884,746,0
4501016,511.16,884,748,0
4501026,468.72,884,746,0
4501036,431.01,884,749,0
4501046,398.90,884,746,0
4501056,373.90,884,748,0
4501066,355.38,884,746,0
4501076,343.95,884,748,0
4501086,338.52,884,745,0
4501096,338.71,884,747,0
4501106,343.25,884,745,0
4501116,351.49,884,747,0
4501126,361.37,884,745,0
4501136,372.36,884,747,0
4501146,382.62,884,745,0
4501156,391.91,884,747,0
4501166,398.84,884,745,0
4501176,403.60,884,747,0
4501186,405.31,884,745,0
4501196,404.96,884,747,0
4501207,401.80,884,745,0
4501217,397.14,884,747,0
4501227,390.54,884,746,0
4501237,383.18,884,747,0
4501248,374.77,884,746,0
4501257,366.70,884,748,0
4501267,358.52,884,746,0
4501277,351.68,884,747,0
4501287,345.69,884,746,0
4501297,341.50,884,747,0
4501307,338.60,884,746,0
4501317,337.57,884,747,0
4501327,337.70,884,746,0
4501337,339.54,884,747,0
4501347,342.12,884,745,0
4501357,345.82,884,747,0
4501367,349.81,884,746,0
4501377,354.50,884,747,0
4501387,359.02,884,745,0
4501397,363.56,884,747,0
4501407,367.25,884,746,0
4501417,370.69,884,746,0
4501427,373.01,884,745,0
4501437,374.81,884,747,0
4501447,375.42,884,746,0
4501457,375.60,884,747,0
4501467,374.86,884,745,0
4501477,374.00,884,747,0
4501487,372.50,884,746,0
4501497,371.07,884,747,0
4501507,369.20,884,745,0
4501517,367.68,884,747,0
4501527,365.89,884,746,0
4501537,364.55,884,747,0
4501548,363.19,884,746,0
4501558,362.19,884,747,0
4501568,361.15,884,746,0
4501578,360.67,884,747,0
4501588,360.17,884,746,0
4501598,360.89,884,746,0
4501608,362.85,884,746,0
4501618,368.04,884,746,0
4501628,377.80,884,745,0
4501638,394.36,884,745,0
4501648,418.98,884,744,0
4501658,452.46,884,744,0
4501678,491.19,883,742,0
4501681,532.96,883,743,0
4501690,574.67,883,743,0
4501700,613.90,883,743,0
4501710,648.00,883,743,0
4501720,674.96,883,743,0
4501730,693.79,883,743,0
4501740,707.01,883,743,0
4501750,716.26,883,744,0
4501761,722.74,883,743,0
4501771,727.28,883,744,0
4501781,730.45,883,743,0
4501791,732.63,883,744,0
4501801,730.85,883,743,0
4501811,723.61,883,744,0
4501821,709.71,883,744,0
4501831,688.71,883,746,0
4501841,660.39,883,744,0
4501851,625.30,883,747,0
4501861,584.24,883,745,0
4501871,541.18,883,748,0
4501881,498.66,883,745,0
4501891,458.90,883,748,0
4501901,423.40,883,746,0
4501911,393.41,883,748,0
4501921,369.33,883,746,0
4501932,351.23,883,748,0
4501942,339.12,883,746,0
4501952,332.61,883,748,0
4501962,331.06,883,745,0
4501972,333.78,883,748,0
4501982,339.68,883,745,0
4501992,347.70,883,747,0
4502002,356.66,883,744,0
4502012,365.64,883,747,0
4502022,373.76,883,745,0
4502032,380.47,883,747,0
4502042,385.05,883,744,0
4502052,387.43,883,748,0
4502062,387.47,883,745,0
4502072,385.57,883,747,0
4502082,381.80,883,745,0
4502092,376.80,883,748,0
4502103,370.69,883,745,0
4502113,364.36,883,748,0
4502123,358.16,883,745,0
4502133,352.50,883,748,0
4502144,347.55,883,746,0
4502153,343.91,883,748,0
4502163,341.24,883,745,0
4502173,339.97,883,748,0
4502183,339.55,883,745,0
4502193,340.07,883,748,0
4502203,341.38,883,745,0
4502213,343.54,883,748,0
4502223,345.90,883,745,0
4502233,348.63,883,748,0
4502243,351.23,883,745,0
4502253,353.99,883,748,0
4502263,356.39,883,745,0
4502273,358.67,883,748,0
4502283,360.44,883,745,0
4502293,361.98,883,747,0
4502303,363.02,883,745,0
4502313,364.04,883,748,0
4502323,364.50,883,745,0
4502333,364.91,883,748,0
4502343,364.76,883,745,0
4502353,364.45,883,748,0
4502363,363.67,883,745,0
4502373,362.78,883,748,0
4502383,361.39,883,745,0
4502393,360.16,883,748,0
4502403,358.65,883,745,0
4502413,357.43,883,748,0
4502423,356.10,883,745,0
4502433,355.08,883,748,0
4502444,354.03,883,745,0
4502454,353.42,883,748,0
4502464,352.78,883,745,0
4502474,352.93,883,748,0
4502484,354.07,883,745,0
4502494,357.78,883,747,0
4502504,365.21,883,745,0
4502514,378.91,883,746,0
4502524,400.28,883,744,0
4502534,431.05,883,745,0
4502553,468.62,876,743,0
4502556,510.39,876,744,0
4502565,553.30,876,743,0
4502575,595.00,876,744,0
4502585,632.41,876,743,0
4502595,663.27,876,744,0
4502605,685.65,876,743,0
4502615,701.31,876,743,0
4502625,712.23,876,743,0
4502635,719.92,876,744,0
4502645,725.26,876,743,0
4502656,729.00,876,744,0
4502665,731.61,876,743,0
4502675,732.88,876,744,0
4502685,730.09,876,743,0
4502695,721.71,876,744,0
4502705,706.58,876,744,0
4502715,684.42,876,746,0
4502725,654.98,876,745,0
4502735,618.99,876,746,0
4502745,577.38,876,745,0
4502755,534.19,876,748,0
4502765,491.41,876,746,0
4502775,451.56,876,748,0
4502785,415.60,876,746,0
4502795,385.04,876,749,0
4502805,359.78,876,746,0
4502815,340.60,876,748,0
4502825,326.79,876,746,0
4502835,318.89,876,748,0
4502845,315.71,876,746,0
4502855,317.21,876,747,0
4502865,321.99,876,746,0
4502875,329.58,876,747,0
4502885,338.36,876,745,0
4502895,348.02,876,746,0
4502905,357.06,876,745,0
4502915,365.31,876,747,0
4502925,371.61,876,745,0
4502935,376.05,876,746,0
4502945,377.92,876,745,0
4502956,377.95,876,747,0
4502966,375.56,876,746,0
4502976,371.71,876,747,0
4502986,366.18,876,746,0
4502996,360.13,876,747,0
4503006,353.45,876,746,0
4503016,347.23,876,747,0
4503026,341.16,876,746,0
4503036,336.14,876,747,0
4503046,332.24,876,746,0
4503056,329.94,876,747,0
4503066,328.72,876,746,0
4503076,329.14,876,747,0
4503086,330.47,876,746,0
4503096,333.24,876,747,0
4503106,336.47,876,746,0
4503116,340.36,876,747,0
4503127,344.19,876,746,0
4503137,348.25,876,746,0
4503147,351.82,876,746,0
4503157,355.26,876,747,0
4503168,357.84,876,746,0
4503177,360.37,876,746,0
4503187,361.85,876,746,0
4503197,363.01,876,747,0
4503207,363.22,876,746,0
4503217,363.15,876,747,0
4503227,362.25,876,746,0
4503237,361.19,876,747,0
4503247,359.42,876,746,0
4503257,357.79,876,747,0
4503267,355.88,876,746,0
4503277,354.46,876,747,0
4503287,352.95,876,747,0
4503297,352.07,876,747,0
4503307,351.06,876,746,0
4503317,350.66,876,747,0
4503327,350.25,876,746,0
4503337,350.39,876,747,0
4503347,350.36,876,746,0
4503357,350.72,876,747,0
4503367,351.23,876,746,0
4503377,353.43,876,746,0
4503387,357.50,876,746,0
4503397,365.62,876,746,0
4503407,379.11,876,745,0
4503417,400.63,876,744,0
4503427,430.74,876,743,0
4503446,468.06,893,742,0
4503449,509.19,893,745,0
4503458,551.95,893,743,0
4503468,593.32,893,743,0
4503478,630.85,893,743,0
4503488,661.71,893,743,0
4503498,684.60,893,743,0
4503508,700.58,893,743,0
4503518,711.76,893,743,0
4503528,719.59,893,743,0
4503538,725.07,893,743,0
4503548,728.91,893,743,0
4503558,731.59,893,744,0
4503568,731.37,893,743,0
4503578,726.50,893,744,0
4503588,715.29,893,744,0
4503598,697.59,893,745,0
4503608,672.73,893,745,0
4503618,641.18,893,745,0
4503628,603.07,893,746,0
4503639,561.18,893,746,0
4503649,518.14,893,747,0
4503659,476.78,893,746,0
4503669,438.19,893,748,0
4503680,404.28,893,746,0
4503689,375.39,893,748,0
4503699,352.48,893,747,0
4503709,335.58,893,748,0
4503719,324.73,893,746,0
4503729,319.15,893,747,0
4503739,318.47,893,746,0
4503749,321.63,893,747,0
4503759,327.87,893,745,0
4503769,335.92,893,747,0
4503779,344.99,893,746,0
4503789,353.95,893,746,0
4503799,362.41,893,745,0
4503809,369.44,893,747,0
4503819,374.58,893,746,0
4503829,377.54,893,747,0
4503839,378.40,893,746,0
4503849,377.04,893,748,0
4503859,374.07,893,746,0
4503869,369.59,893,747,0
4503879,364.19,893,746,0
4503889,358.26,893,748,0
4503899,352.27,893,746,0
4503909,346.66,893,747,0
4503919,341.75,893,746,0
4503929,337.58,893,748,0
4503939,334.49,893,746,0
4503949,332.59,893,747,0
4503959,331.90,893,746,0
4503969,332.48,893,748,0
4503980,334.10,893,746,0
4503990,336.64,893,748,0
4504000,339.88,893,745,0
4504010,343.56,893,748,0
4504020,347.33,893,745,0
4504030,351.09,893,747,0
4504040,354.66,893,745,0
4504050,357.68,893,748,0
4504060,360.17,893,745,0
4504070,361.97,893,747,0
4504080,363.05,893,745,0
4504090,363.63,893,748,0
4504100,363.61,893,745,0
4504110,363.04,893,748,0
4504120,362.13,893,746,0
4504130,360.93,893,748,0
4504140,359.67,893,745,0
4504151,358.48,893,748,0
4504161,357.31,893,745,0
4504171,356.57,893,748,0
4504181,355.80,893,745,0
4504192,355.39,893,748,0
4504201,355.06,893,745,0
4504211,355.00,893,748,0
4504221,354.91,893,745,0
4504231,355.02,893,748,0
4504241,354.97,893,745,0
4504251,355.20,893,748,0
4504261,355.57,893,745,0
4504271,356.17,893,748,0
4504281,356.85,893,745,0
4504291,358.48,893,748,0
4504301,361.89,893,745,0
4504311,368.57,893,747,0
4504321,379.80,893,744,0
4504331,397.69,893,746,0
4504341,424.14,893,743,0
4504360,458.72,914,742,0
4504364,498.24,914,744,0
4504372,539.95,914,744,0
4504382,581.24,914,743,0
4504392,619.82,914,744,0
4504402,652.88,914,743,0
4504412,678.24,914,744,0
4504422,696.04,914,743,0
4504432,708.54,914,744,0
4504442,717.29,914,743,0
4504452,723.42,914,744,0
4504462,727.75,914,743,0
4504472,730.83,914,744,0
4504482,732.94,914,743,0
4504492,731.75,914,744,0
4504502,725.23,914,743,0
4504512,712.47,914,745,0
4504522,692.70,914,744,0
4504532,666.05,914,747,0
4504542,632.73,914,745,0
4504552,593.39,914,747,0
4504562,550.97,914,745,0
4504572,508.72,914,748,0
4504582,468.22,914,746,0
4504592,431.68,914,749,0
4504602,399.42,914,746,0
4504612,372.51,914,749,0
4504622,351.10,914,746,0
4504632,335.73,914,748,0
4504642,325.82,914,745,0
4504652,321.46,914,748,0
4504663,321.28,914,746,0
4504673,325.27,914,748,0
4504683,331.83,914,745,0
4504693,340.37,914,747,0
4504704,349.43,914,745,0
4504713,358.60,914,747,0
4504723,366.69,914,745,0
4504733,373.60,914,747,0
4504743,378.26,914,745,0
4504753,381.10,914,747,0
4504763,381.45,914,745,0
4504773,380.12,914,748,0
4504783,376.74,914,746,0
4504793,372.32,914,748,0
4504803,366.69,914,745,0
4504813,361.09,914,748,0
4504823,355.32,914,746,0
4504833,350.42,914,748,0
4504843,346.14,914,745,0
4504853,343.18,914,748,0
4504863,341.03,914,746,0
4504873,340.38,914,748,0
4504883,340.48,914,745,0
4504893,341.83,914,748,0
4504903,343.77,914,746,0
4504913,346.54,914,747,0
4504923,349.46,914,745,0
4504933,352.84,914,748,0
4504943,355.84,914,745,0
4504953,359.15,914,748,0
4504963,361.76,914,745,0
4504973,364.32,914,748,0
4504983,365.98,914,745,0
4504993,367.44,914,747,0
4505004,368.12,914,745,0
4505014,368.86,914,748,0
4505024,368.64,914,746,0
4505034,368.41,914,747,0
4505044,367.34,914,746,0
4505054,366.47,914,748,0
4505064,365.00,914,746,0
4505074,363.76,914,747,0
4505084,361.94,914,746,0
4505094,360.59,914,748,0
4505104,359.08,914,746,0
4505114,358.03,914,747,0
4505124,356.78,914,746,0
4505134,356.16,914,748,0
4505144,355.43,914,746,0
4505154,355.34,914,747,0
4505164,355.11,914,746,0
4505175,355.29,914,747,0
4505185,355.33,914,746,0
4505195,355.92,914,747,0
4505205,356.59,914,746,0
4505216,358.60,914,747,0
4505225,362.27,914,746,0
4505235,369.86,914,746,0
4505245,382.76,914,745,0
4505255,403.79,914,745,0
4505274,433.30,914,743,0
4505277,470.02,914,743,0
4505286,510.69,914,743,0
4505296,553.08,914,743,0
4505306,594.16,914,743,0
4505316,631.52,914,743,0
4505326,662.10,914,743,0
4505336,684.78,914,743,0
4505346,700.58,914,743,0
4505356,711.67,914,743,0
4505366,719.40,914,743,0
4505376,724.85,914,743,0
4505387,728.67,914,743,0
4505396,731.38,914,743,0
4505406,731.44,914,743,0
4505416,726.98,914,744,0
4505426,716.23,914,744,0
4505436,699.02,914,745,0
4505446,674.58,914,745,0
4505456,643.55,914,746,0
4505466,605.97,914,746,0
4505476,564.71,914,746,0
4505486,522.41,914,747,0
4505496,482.00,914,747,0
4505506,444.50,914,748,0
4505516,411.87,914,748,0
4505526,384.22,914,747,0
4505536,362.60,914,747,0
4505546,346.60,914,747,0
4505556,336.52,914,747,0
4505566,331.52,914,747,0
4505576,331.41,914,746,0
4505586,334.97,914,747,0
4505596,341.67,914,746,0
4505606,350.12,914,746,0
4505616,359.69,914,746,0
4505626,368.99,914,746,0
4505636,377.65,914,746,0
4505646,384.57,914,746,0
4505656,389.67,914,746,0
4505666,392.21,914,747,0
4505676,392.58,914,746,0
4505687,390.39,914,747,0
4505697,386.42,914,746,0
4505707,380.72,914,747,0
4505717,374.08,914,746,0
4505728,366.77,914,748,0
4505737,359.68,914,746,0
4505747,352.88,914,747,0
4505757,347.08,914,746,0
4505767,342.26,914,748,0
4505777,338.88,914,746,0
4505787,336.90,914,747,0
4505797,336.59,914,746,0
4505807,337.66,914,747,0
4505817,340.07,914,746,0
4505827,343.44,914,747,0
4505837,347.76,914,746,0
4505847,352.42,914,747,0
4505857,357.39,914,746,0
4505867,361.95,914,747,0
4505877,366.12,914,746,0
4505887,369.51,914,747,0
4505897,372.06,914,745,0
4505907,373.58,914,747,0
4505917,374.44,914,746,0
4505927,374.35,914,747,0
4505937,373.86,914,746,0
4505947,372.83,914,747,0
4505957,371.47,914,746,0
4505967,369.96,914,747,0
4505977,368.34,914,746,0
4505987,366.61,914,747,0
4505997,365.10,914,746,0
4506007,363.44,914,747,0
4506017,361.98,914,746,0
4506028,360.79,914,748,0
4506038,359.82,914,746,0
4506048,359.19,914,748,0
4506058,358.88,914,745,0
4506068,358.70,914,748,0
4506078,358.70,914,746,0
4506088,358.66,914,748,0
4506098,358.72,914,745,0
4506108,359.23,914,748,0
4506118,360.79,914,746,0
4506128,364.45,914,747,0
4506138,372.08,914,745,0
4506148,385.64,914,746,0
4506158,406.79,914,744,0
4506168,436.98,914,744,0
4506187,473.97,913,743,0
4506190,514.91,913,745,0
4506199,557.19,913,743,0
4506209,597.94,913,744,0
4506219,634.51,913,743,0
4506229,664.74,913,744,0
4506240,686.72,913,743,0
4506249,702.10,913,744,0
4506259,712.87,913,743,0
4506269,720.41,913,744,0
4506279,725.69,913,743,0
4506289,729.38,913,744,0
4506299,731.92,913,743,0
4506309,731.30,913,744,0
4506319,725.47,913,743,0
4506329,713.54,913,745,0
4506339,694.69,913,744,0
4506349,668.77,913,747,0
4506359,636.10,913,745,0
4506369,597.37,913,748,0
4506379,555.51,913,745,0
4506389,513.62,913,749,0
4506399,473.53,913,746,0
4506409,437.37,913,749,0
4506419,406.15,913,746,0
4506429,380.65,913,748,0
4506439,360.95,913,746,0
4506449,347.29,913,748,0
4506459,339.28,913,745,0
4506469,336.54,913,748,0
4506479,338.09,913,745,0
4506489,343.33,913,748,0
4506499,350.99,913,745,0
4506509,360.21,913,747,0
4506519,369.79,913,745,0
4506529,379.02,913,747,0
4506540,386.95,913,745,0
4506550,393.22,913,747,0
4506560,397.10,913,745,0
4506570,398.74,913,748,0
4506580,397.75,913,745,0
4506590,394.69,913,747,0
4506600,389.60,913,746,0
4506610,383.29,913,748,0
4506620,375.83,913,746,0
4506630,368.21,913,748,0
4506640,360.43,913,746,0
4506650,353.57,913,748,0
4506660,347.36,913,746,0
4506670,342.75,913,748,0
4506680,339.35,913,746,0
4506690,337.75,913,748,0
4506700,337.40,913,746,0
4506711,338.65,913,748,0
4506721,340.73,913,746,0
4506731,344.11,913,748,0
4506741,347.80,913,745,0
4506752,352.15,913,747,0
4506761,356.18,913,745,0
4506771,360.28,913,748,0
4506781,363.80,913,745,0
4506791,367.11,913,747,0
4506801,369.52,913,746,0
4506811,371.59,913,748,0
4506821,372.66,913,745,0
4506831,373.53,913,747,0
4506841,373.54,913,746,0
4506851,373.25,913,748,0
4506861,372.19,913,745,0
4506871,371.02,913,747,0
4506881,369.30,913,745,0
4506891,367.80,913,748,0
4506901,365.89,913,746,0
4506911,364.33,913,748,0
4506921,362.69,913,746,0
4506931,361.63,913,748,0
4506941,360.50,913,746,0
4506951,359.83,913,748,0
4506961,359.03,913,746,0
4506971,358.63,913,748,0
4506981,358.10,913,745,0
4506991,358.20,913,748,0
4507001,358.91,913,746,0
4507011,361.72,913,748,0
4507021,367.59,913,745,0
4507031,379.07,913,746,0
4507041,397.61,913,744,0
4507052,425.75,913,745,0
4507062,461.36,913,743,0
4507081,501.79,894,742,0
4507084,544.20,894,744,0
4507094,586.18,894,744,0
4507103,624.66,894,743,0
4507113,657.29,894,744,0
4507123,681.33,894,743,0
4507133,698.20,894,744,0
4507143,710.01,894,743,0
4507153,718.32,894,744,0
4507163,724.14,894,743,0
4507173,728.21,894,744,0
4507183,731.11,894,743,0
4507193,733.17,894,744,0
4507203,732.22,894,743,0
4507213,726.76,894,744,0
4507223,715.39,894,744,0
4507233,697.66,894,745,0
4507243,672.94,894,745,0
4507253,641.80,894,746,0
4507264,604.32,894,746,0
4507273,563.94,894,747,0
4507283,522.60,894,747,0
4507293,482.95,894,748,0
4507303,446.15,894,747,0
4507313,414.09,894,748,0
4507323,386.85,894,747,0
4507333,365.51,894,748,0
4507343,349.46,894,747,0
4507353,339.29,894,748,0
4507363,333.97,894,746,0
4507373,333.55,894,747,0
4507383,336.69,894,746,0
4507393,342.95,894,747,0
4507403,350.81,894,745,0
4507413,359.95,894,747,0
4507423,368.75,894,746,0
4507433,377.14,894,746,0
4507443,383.74,894,745,0
4507453,388.75,894,747,0
4507463,391.27,894,746,0
4507473,391.87,894,747,0
4507483,390.02,894,746,0
4507493,386.72,894,747,0
4507503,381.53,894,747,0
4507513,375.76,894,747,0
4507523,369.19,894,746,0
4507533,363.05,894,748,0
4507543,357.12,894,747,0
4507553,352.41,894,747,0
4507564,348.60,894,746,0
4507574,346.54,894,747,0
4507584,345.47,894,747,0
4507594,345.93,894,747,0
4507604,347.28,894,747,0
4507614,349.81,894,747,0
4507624,352.57,894,747,0
4507634,355.91,894,746,0
4507644,359.07,894,746,0
4507654,362.39,894,747,0
4507664,365.14,894,747,0
4507674,367.72,894,747,0
4507684,369.47,894,746,0
4507694,371.00,894,747,0
4507704,371.64,894,747,0
4507714,371.97,894,747,0
4507724,371.63,894,746,0
4507735,371.44,894,747,0
4507745,370.58,894,747,0
4507755,369.76,894,746,0
4507765,368.38,894,747,0
4507776,367.06,894,746,0
4507785,365.50,894,747,0
4507795,364.11,894,746,0
4507805,362.32,894,747,0
4507815,360.98,894,746,0
4507825,359.57,894,747,0
4507835,358.71,894,746,0
4507845,357.99,894,747,0
4507855,357.65,894,746,0
4507865,357.32,894,747,0
4507875,357.31,894,747,0
4507885,357.18,894,747,0
4507895,357.34,894,746,0
4507905,357.96,894,747,0
4507915,360.33,894,746,0
4507925,365.46,894,746,0
4507935,375.52,894,745,0
4507945,392.34,894,745,0
4507955,417.99,894,744,0
4507974,452.07,893,742,0
4507977,491.69,893,744,0
4507986,533.91,893,744,0
4507996,576.28,893,743,0
4508006,615.80,893,744,0
4508016,649.93,893,743,0
4508026,676.31,893,744,0
4508036,694.82,893,743,0
4508046,707.73,893,744,0
4508056,716.77,893,743,0
4508066,723.09,893,744,0
4508076,727.57,893,743,0
4508086,730.70,893,744,0
4508096,732.89,893,743,0
4508106,734.42,893,744,0
4508116,733.31,893,743,0
4508126,727.86,893,745,0
4508136,716.84,893,744,0
4508146,699.32,893,746,0
4508156,675.01,893,744,0
4508166,644.06,893,747,0
4508176,606.76,893,745,0
4508186,565.82,893,748,0
4508196,523.79,893,746,0
4508206,482.92,893,748,0
4508216,445.19,893,747,0
4508226,411.87,893,749,0
4508236,383.97,893,746,0
4508247,362.08,893,749,0
4508257,346.37,893,746,0
4508267,336.87,893,749,0
4508277,332.93,893,745,0
4508288,333.89,893,748,0
4508297,338.72,893,745,0
4508307,346.31,893,748,0
4508317,355.43,893,745,0
4508327,365.37,893,747,0
4508337,374.65,893,745,0
4508347,382.68,893,748,0
4508357,388.69,893,745,0
4508367,392.77,893,748,0
4508377,394.60,893,745,0
4508387,394.37,893,748,0
4508397,391.95,893,745,0
4508407,388.11,893,748,0
4508417,383.36,893,745,0
4508427,378.19,893,748,0
4508437,372.74,893,746,0
4508447,367.50,893,748,0
4508457,362.55,893,745,0
4508467,358.53,893,748,0
4508477,355.37,893,745,0
4508487,353.20,893,748,0
4508497,352.03,893,745,0
4508507,351.89,893,748,0
4508517,352.57,893,745,0
4508527,354.50,893,748,0
4508537,356.79,893,745,0
4508547,359.64,893,748,0
4508557,362.53,893,745,0
4508567,365.37,893,748,0
4508577,367.88,893,745,0
4508588,370.01,893,748,0
4508598,371.21,893,745,0
4508608,371.96,893,748,0
4508618,371.84,893,745,0
4508628,371.25,893,748,0
4508638,370.14,893,746,0
4508648,368.77,893,748,0
4508658,366.91,893,745,0
4508668,365.10,893,748,0
4508678,363.18,893,746,0
4508688,361.50,893,748,0
4508698,359.72,893,745,0
4508708,358.18,893,748,0
4508718,356.67,893,746,0
4508728,355.69,893,748,0
4508738,354.76,893,745,0
4508748,354.19,893,748,0
4508759,353.62,893,746,0
4508769,353.43,893,748,0
4508779,353.22,893,745,0
4508789,353.54,893,748,0
4508800,354.28,893,746,0
4508809,356.94,893,748,0
4508819,362.18,893,745,0
4508829,372.37,893,747,0
4508839,388.85,893,744,0
4508849,413.58,893,745,0
4508868,446.92,894,743,0
4508871,486.16,894,746,0
4508880,528.07,894,743,0
4508890,570.39,894,744,0
4508900,610.09,894,743,0
4508910,644.95,894,744,0
4508920,672.73,894,743,0
4508930,692.27,894,744,0
4508940,705.90,894,743,0
4508950,715.45,894,744,0
4508960,722.13,894,743,0
4508971,726.85,894,744,0
4508980,730.11,894,743,0
4508990,730.25,894,744,0
4509000,725.24,894,743,0
4509010,714.58,894,745,0
4509020,697.48,894,744,0
4509030,673.98,894,746,0
4509040,643.81,894,745,0
4509050,607.78,894,747,0
4509060,568.25,894,746,0
4509070,528.36,894,748,0
4509080,489.08,894,746,0
4509090,452.37,894,748,0
4509100,418.92,894,747,0
4509110,390.06,894,749,0
4509120,365.61,894,747,0
4509130,346.31,894,748,0
4509140,331.69,894,746,0
4509150,322.44,894,748,0
4509160,317.55,894,746,0
4509170,317.26,894,748,0
4509180,320.27,894,746,0
4509190,326.27,894,747,0
4509200,333.86,894,746,0
4509210,342.82,894,747,0
4509220,351.66,894,746,0
4509230,360.16,894,747,0
4509240,366.71,894,746,0
4509250,371.68,894,748,0
4509260,374.22,894,746,0
4509271,374.97,894,747,0
4509281,373.26,894,746,0
4509291,370.01,894,748,0
4509301,365.08,894,747,0
4509312,359.57,894,748,0
4509321,353.40,894,747,0
4509331,347.67,894,748,0
4509341,342.02,894,747,0
4509351,337.60,894,748,0
4509361,333.91,894,747,0
4509371,331.71,894,748,0
4509381,330.47,894,747,0
4509391,330.54,894,747,0
4509401,331.24,894,747,0
4509411,333.01,894,747,0
4509421,334.93,894,746,0
4509431,337.61,894,747,0
4509441,340.17,894,746,0
4509451,343.08,894,748,0
4509461,345.58,894,746,0
4509471,348.11,894,747,0
4509481,350.00,894,747,0
4509491,351.80,894,747,0
4509501,352.85,894,746,0
4509511,353.71,894,747,0
4509521,353.84,894,747,0
4509531,353.84,894,748,0
4509541,353.12,894,747,0
4509551,352.40,894,747,0
4509561,351.16,894,747,0
4509571,350.09,894,748,0
4509581,348.65,894,747,0
4509591,347.51,894,747,0
4509601,346.16,894,747,0
4509612,345.34,894,747,0
4509622,344.42,894,747,0
4509632,344.21,894,747,0
4509642,343.72,894,747,0
4509652,343.67,894,747,0
4509662,343.39,894,747,0
4509672,343.44,894,747,0
4509682,343.44,894,747,0
4509692,344.12,894,747,0
4509702,345.46,894,747,0
4509712,349.43,894,746,0
4509722,356.93,894,746,0
4509732,370.37,894,745,0
4509742,390.53,894,745,0
4509761,419.34,893,742,0
4509764,455.88,893,744,0
4509773,497.23,893,743,0
4509783,540.23,893,744,0
4509793,582.42,893,743,0
4509803,620.82,893,744,0
4509813,653.79,893,743,0
4509824,679.05,893,743,0
4509833,696.69,893,743,0
4509843,709.04,893,744,0
4509853,717.69,893,744,0
4509863,723.70,893,744,0
4509873,727.86,893,743,0
4509883,729.23,893,744,0
4509893,726.42,893,744,0
4509903,718.11,893,744,0
4509913,703.93,893,744,0
4509923,683.34,893,745,0
4509933,656.58,893,745,0
4509943,623.75,893,746,0
4509953,586.97,893,746,0
4509963,548.19,893,747,0
4509973,509.65,893,747,0
4509983,472.47,893,748,0
4509993,437.96,893,747,0
4510003,406.64,893,748,0
4510013,379.36,893,748,0
4510023,356.15,893,748,0
4510033,337.68,893,747,0
4510043,323.89,893,748,0
4510053,314.79,893,747,0
4510063,309.97,893,748,0
4510073,309.25,893,747,0
4510083,311.70,893,747,0
4510093,316.98,893,747,0
4510103,324.10,893,747,0
4510113,332.26,893,746,0
4510124,340.58,893,747,0
4510134,348.59,893,746,0
4510144,355.48,893,748,0
4510154,361.00,893,746,0
4510164,364.60,893,748,0
4510174,366.30,893,746,0
4510184,366.13,893,748,0
4510194,364.25,893,746,0
4510204,360.96,893,748,0
4510214,356.73,893,747,0
4510224,351.92,893,749,0
4510234,347.02,893,746,0
4510244,342.17,893,749,0
4510254,337.88,893,747,0
4510264,334.27,893,749,0
4510274,331.53,893,746,0
4510284,329.70,893,748,0
4510295,328.81,893,746,0
4510305,328.73,893,749,0
4510315,329.41,893,746,0
4510325,330.66,893,749,0
4510336,332.35,893,746,0
4510345,334.34,893,748,0
4510355,336.38,893,746,0
4510365,338.50,893,748,0
4510375,340.23,893,746,0
4510385,341.75,893,748,0
4510395,342.98,893,746,0
4510405,343.97,893,748,0
4510415,344.50,893,746,0
4510425,344.73,893,748,0
4510435,344.43,893,746,0
4510445,344.17,893,748,0
4510455,343.69,893,746,0
4510465,343.10,893,748,0
4510475,342.43,893,746,0
4510485,341.87,893,748,0
4510495,341.27,893,746,0
4510505,340.93,893,749,0
4510515,340.61,893,746,0
4510525,340.38,893,748,0
4510535,340.14,893,746,0
4510545,340.01,893,749,0
4510555,339.97,893,746,0
4510565,340.19,893,748,0
4510575,340.48,893,746,0
4510585,340.89,893,749,0
4510595,341.61,893,746,0
4510605,342.63,893,748,0
4510615,343.77,893,746,0
4510625,345.29,893,749,0
4510636,347.43,893,746,0
4510646,351.12,893,748,0
4510656,357.38,893,745,0
4510666,368.03,893,747,0
4510686,384.77,924,744,0
4510689,410.13,924,746,0
4510698,444.12,924,743,0
4510708,483.73,924,744,0
4510718,526.11,924,743,0
4510728,568.85,924,744,0
4510738,609.14,924,743,0
4510748,644.67,924,744,0
4510758,672.50,924,743,0
4510768,691.98,924,744,0
4510778,705.57,924,743,0
4510788,715.13,924,744,0
4510798,721.86,924,743,0
4510808,726.57,924,744,0
4510818,729.83,924,743,0
4510828,731.77,924,744,0
4510838,729.99,924,743,0
4510849,723.44,924,744,0
4510859,710.79,924,744,0
4510869,692.04,924,746,0
4510879,666.61,924,745,0
4510889,635.06,924,746,0
4510899,597.88,924,746,0
4510909,558.45,924,748,0
4510919,518.20,924,746,0
4510929,479.57,924,748,0
4510939,443.14,924,747,0
4510949,410.61,924,748,0
4510959,382.01,924,747,0
4510969,358.31,924,748,0
4510979,339.27,924,747,0
4510989,325.43,924,749,0
4510999,316.05,924,747,0
4511009,311.36,924,748,0
4511020,310.40,924,747,0
4511030,313.02,924,748,0
4511040,317.73,924,747,0
4511050,324.28,924,747,0
4511060,331.57,924,747,0
4511070,339.33,924,747,0
4511080,346.26,924,746,0
4511090,352.31,924,747,0
4511100,356.54,924,747,0
4511110,359.42,924,748,0
4511120,360.37,924,747,0
4511130,359.91,924,747,0
4511140,357.84,924,747,0
4511150,355.06,924,748,0
4511160,351.31,924,747,0
4511170,347.58,924,748,0
4511180,343.59,924,747,0
4511191,340.20,924,748,0
4511201,337.05,924,747,0
4511211,334.77,924,747,0
4511221,332.95,924,747,0
4511232,332.19,924,747,0
4511241,331.92,924,747,0
4511251,332.72,924,747,0
4511261,333.83,924,748,0
4511271,335.77,924,747,0
4511281,337.89,924,747,0
4511291,340.41,924,747,0
4511301,342.77,924,747,0
4511311,345.20,924,747,0
4511321,347.02,924,747,0
4511331,348.73,924,747,0
4511341,349.76,924,747,0
4511351,350.51,924,747,0
4511361,350.62,924,747,0
4511371,350.65,924,747,0
4511381,350.24,924,748,0
4511391,349.82,924,747,0
4511401,349.11,924,747,0
4511411,348.65,924,747,0
4511421,348.02,924,747,0
4511431,347.67,924,747,0
4511441,347.09,924,747,0
4511451,346.63,924,747,0
4511461,345.97,924,747,0
4511471,345.51,924,747,0
4511481,344.97,924,747,0
4511491,344.89,924,747,0
4511501,344.84,924,747,0
4511511,345.19,924,747,0
4511521,345.69,924,747,0
4511532,346.60,924,747,0
4511542,347.53,924,747,0
4511552,348.53,924,747,0
4511562,349.31,924,748,0
4511572,350.42,924,746,0
4511582,352.01,924,747,0
4511592,355.35,924,746,0
4511602,361.63,924,747,0
4511612,372.80,924,745,0
4511631,390.26,946,743,0
4511634,416.45,946,743,0
4511643,450.95,946,745,0
4511653,490.82,946,743,0
4511663,533.09,946,743,0
4511673,575.23,946,743,0
4511683,614.55,946,744,0
4511693,648.97,946,743,0
4511703,675.55,946,744,0
4511713,694.20,946,743,0
4511723,707.25,946,744,0
4511733,716.43,946,743,0
4511744,722.82,946,744,0
4511753,727.29,946,743,0
4511763,730.42,946,744,0
4511773,732.65,946,743,0
4511783,732.97,946,744,0
4511793,729.63,946,743,0
4511803,721.00,946,745,0
4511813,706.30,946,744,0
4511823,684.87,946,746,0
4511833,656.84,946,745,0
4511843,622.30,946,747,0
4511853,582.91,946,746,0
4511863,541.15,946,748,0
4511873,499.58,946,746,0
4511883,459.85,946,749,0
4511893,423.51,946,747,0
4511903,391.30,946,749,0
4511913,364.08,946,747,0
4511923,342.28,946,749,0
4511933,326.17,946,747,0
4511943,315.49,946,749,0
4511953,309.90,946,746,0
4511963,308.82,946,749,0
4511973,311.49,946,746,0
4511983,317.00,946,748,0
4511993,324.37,946,746,0
4512003,332.57,946,748,0
4512013,340.89,946,745,0
4512023,348.55,946,748,0
4512033,354.90,946,745,0
4512044,359.64,946,748,0
4512054,362.45,946,746,0
4512064,363.39,946,748,0
4512074,362.46,946,746,0
4512084,360.01,946,749,0
4512094,356.32,946,746,0
4512104,351.94,946,749,0
4512114,347.16,946,746,0
4512124,342.57,946,749,0
4512134,338.41,946,746,0
4512144,335.16,946,749,0
4512154,332.58,946,746,0
4512164,331.16,946,749,0
4512174,330.69,946,746,0
4512184,331.25,946,749,0
4512194,332.46,946,746,0
4512204,334.51,946,749,0
4512215,336.93,946,746,0
4512225,339.86,946,748,0
4512235,342.65,946,746,0
4512245,345.54,946,749,0
4512256,348.03,946,746,0
4512265,350.47,946,748,0
4512275,352.30,946,746,0
4512285,353.79,946,748,0
4512295,354.54,946,746,0
4512305,355.07,946,748,0
4512315,354.92,946,746,0
4512325,354.73,946,749,0
4512335,354.00,946,746,0
4512345,353.23,946,748,0
4512355,352.09,946,746,0
4512365,351.20,946,749,0
4512375,350.16,946,746,0
4512385,349.42,946,748,0
4512395,348.53,946,746,0
4512405,348.15,946,749,0
4512415,347.64,946,746,0
4512425,347.62,946,748,0
4512435,347.65,946,746,0
4512445,348.09,946,749,0
4512455,348.50,946,746,0
4512465,349.25,946,748,0
4512475,349.77,946,746,0
4512485,350.61,946,749,0
4512495,351.16,946,746,0
4512505,351.84,946,748,0
4512515,352.44,946,746,0
4512525,353.77,946,749,0
4512535,356.24,946,746,0
4512545,361.74,946,748,0
4512556,371.29,946,744,0
4512566,387.49,946,746,0
4512585,411.60,954,744,0
4512588,444.76,954,745,0
4512598,483.66,954,743,0
4512607,525.76,954,744,0
4512617,567.96,954,743,0
4512627,608.17,954,744,0
4512637,643.35,954,743,0
4512647,671.57,954,744,0
4512657,691.33,954,743,0
4512667,705.20,954,744,0
4512677,714.87,954,743,0
4512687,721.68,954,744,0
4512697,726.41,954,743,0
4512707,729.71,954,744,0
4512717,730.74,954,743,0
4512727,727.90,954,745,0
4512737,719.23,954,744,0
4512747,704.16,954,745,0
4512757,681.83,954,744,0
4512768,652.78,954,746,0
4512777,617.10,954,745,0
4512787,576.83,954,747,0
4512797,534.15,954,746,0
4512807,492.32,954,748,0
4512817,452.84,954,747,0
4512827,417.79,954,749,0
4512837,387.34,954,747,0
4512847,362.68,954,748,0
4512857,343.32,954,747,0
4512867,330.02,954,748,0
4512877,321.96,954,746,0
4512887,319.06,954,748,0
4512897,320.03,954,746,0
4512907,324.65,954,748,0
4512917,331.31,954,746,0
4512927,339.83,954,747,0
4512937,348.62,954,746,0
4512947,357.35,954,748,0
4512957,364.70,954,746,0
4512967,370.75,954,747,0
4512977,374.47,954,746,0
4512987,376.26,954,748,0
4512997,375.54,954,746,0
4513007,372.93,954,748,0
4513017,368.15,954,747,0
4513027,362.45,954,748,0
4513037,355.67,954,746,0
4513047,349.00,954,748,0
4513057,342.23,954,747,0
4513068,336.33,954,748,0
4513078,331.35,954,747,0
4513088,328.11,954,748,0
4513098,325.89,954,747,0
4513108,325.37,954,748,0
4513118,325.82,954,747,0
4513128,327.67,954,748,0
4513138,330.30,954,747,0
4513148,333.77,954,747,0
4513158,337.31,954,747,0
4513168,341.29,954,748,0
4513178,344.84,954,747,0
4513188,348.36,954,747,0
4513198,351.25,954,746,0
4513208,353.83,954,748,0
4513218,355.60,954,747,0
4513228,357.09,954,747,0
4513239,357.66,954,747,0
4513249,357.89,954,747,0
4513259,357.41,954,747,0
4513269,356.73,954,747,0
4513280,355.53,954,747,0
4513289,354.38,954,747,0
4513299,352.81,954,747,0
4513309,351.45,954,747,0
4513319,350.03,954,748,0
4513329,348.95,954,747,0
4513339,347.81,954,747,0
4513349,347.09,954,747,0
4513359,346.42,954,748,0
4513369,346.21,954,747,0
4513379,346.06,954,747,0
4513389,346.30,954,747,0
4513399,346.47,954,747,0
4513409,346.97,954,747,0
4513419,347.41,954,747,0
4513429,348.66,954,747,0
4513439,351.20,954,747,0
4513449,356.76,954,746,0
4513459,366.30,954,746,0
4513469,382.28,954,745,0
4513479,406.07,954,745,0
4513499,439.22,913,742,0
4513502,478.28,913,746,0
4513511,520.58,913,743,0
4513521,563.18,913,744,0
4513531,603.88,913,743,0
4513541,639.79,913,744,0
4513551,668.87,913,743,0
4513561,689.31,913,744,0
4513571,703.61,913,743,0
4513581,713.63,913,744,0
4513591,720.68,913,743,0
4513601,725.62,913,744,0
4513611,729.08,913,743,0
4513622,728.93,913,745,0
4513631,723.68,913,743,0
4513641,711.99,913,745,0
4513651,693.18,913,744,0
4513661,667.15,913,747,0
4513671,634.49,913,745,0
4513681,595.60,913,748,0
4513691,553.68,913,745,0
4513701,511.22,913,749,0
4513711,470.82,913,746,0
4513721,434.06,913,749,0
4513731,401.99,913,746,0
4513741,375.08,913,749,0
4513751,353.75,913,747,0
4513761,338.01,913,749,0
4513771,327.77,913,746,0
4513781,322.48,913,748,0
4513792,321.69,913,746,0
4513801,324.66,913,748,0
4513811,330.63,913,746,0
4513821,338.67,913,748,0
4513831,347.98,913,746,0
4513841,357.67,913,748,0
4513851,366.81,913,745,0
4513861,374.67,913,748,0
4513871,380.77,913,746,0
4513881,384.57,913,748,0
4513891,386.11,913,746,0
4513901,385.18,913,748,0
4513911,381.87,913,746,0
4513921,376.68,913,748,0
4513931,370.17,913,746,0
4513941,362.97,913,749,0
4513951,355.52,913,746,0
4513961,348.29,913,749,0
4513971,341.82,913,746,0
4513981,336.60,913,749,0
4513991,332.86,913,746,0
4514001,330.68,913,749,0
4514011,329.96,913,746,0
4514021,330.74,913,749,0
4514031,332.62,913,746,0
4514041,335.61,913,748,0
4514051,339.41,913,746,0
4514061,343.53,913,748,0
4514071,347.74,913,746,0
4514081,351.81,913,748,0
4514092,355.55,913,746,0
4514102,358.86,913,749,0
4514112,361.38,913,746,0
4514122,363.24,913,748,0
4514132,364.45,913,746,0
4514142,365.05,913,749,0
4514152,364.99,913,746,0
4514162,364.44,913,749,0
4514172,363.49,913,746,0
4514182,362.44,913,749,0
4514192,361.07,913,746,0
4514202,359.68,913,749,0
4514212,358.14,913,746,0
4514222,356.82,913,749,0
4514232,355.46,913,746,0
4514242,354.29,913,749,0
4514252,353.05,913,746,0
4514263,352.18,913,749,0
4514273,351.35,913,746,0
4514283,351.03,913,749,0
4514293,350.98,913,746,0
4514304,352.49,913,748,0
4514313,356.03,913,746,0
4514323,363.65,913,747,0
4514333,376.74,913,744,0
4514343,397.69,913,746,0
4514353,427.18,913,744,0
4514363,464.16,913,745,0
4514382,505.12,884,743,0
4514385,547.86,884,745,0
4514394,589.39,884,743,0
4514404,627.24,884,744,0
4514414,658.63,884,743,0
4514424,682.18,884,744,0
4514434,698.67,884,743,0
4514444,710.25,884,744,0
4514454,718.36,884,743,0
4514464,724.08,884,744,0
4514475,728.04,884,743,0
4514484,730.86,884,744,0
4514494,730.90,884,743,0
4514504,726.65,884,744,0
4514514,716.08,884,744,0
4514524,699.26,884,746,0
4514534,675.31,884,744,0
4514544,644.79,884,747,0
4514554,607.69,884,746,0
4514564,566.99,884,748,0
4514574,524.73,884,746,0
4514584,484.14,884,748,0
4514594,446.00,884,747,0
4514604,412.49,884,749,0
4514614,383.75,884,746,0
4514624,361.03,884,749,0
4514634,343.79,884,747,0
4514644,332.80,884,748,0
4514654,326.90,884,746,0
4514664,326.07,884,748,0
4514674,328.88,884,746,0
4514684,335.17,884,748,0
4514694,343.14,884,746,0
4514704,352.44,884,747,0
4514714,361.48,884,745,0
4514724,370.29,884,747,0
4514734,377.58,884,745,0
4514744,383.36,884,747,0
4514754,386.59,884,746,0
4514764,387.92,884,748,0
4514775,386.83,884,746,0
4514785,384.01,884,748,0
4514795,379.25,884,747,0
4514805,373.56,884,748,0
4514816,367.01,884,747,0
4514825,360.62,884,748,0
4514835,354.35,884,747,0
4514845,348.89,884,748,0
4514855,344.16,884,747,0
4514865,340.94,884,748,0
4514875,338.69,884,747,0
4514885,337.97,884,748,0
4514895,338.15,884,747,0
4514905,339.60,884,748,0
4514915,341.74,884,746,0
4514925,344.77,884,748,0
4514935,347.88,884,747,0
4514945,351.56,884,748,0
4514955,354.86,884,746,0
4514965,358.25,884,748,0
4514975,361.05,884,746,0
4514985,363.65,884,748,0
4514995,365.47,884,746,0
4515005,367.00,884,748,0
4515015,367.64,884,746,0
4515025,368.09,884,747,0
4515035,367.68,884,746,0
4515045,367.09,884,748,0
4515055,365.86,884,746,0
4515065,364.58,884,748,0
4515075,362.77,884,746,0
4515085,361.21,884,748,0
4515095,359.35,884,746,0
4515105,358.04,884,748,0
4515116,356.53,884,747,0
4515126,355.64,884,748,0
4515136,354.81,884,747,0
4515146,354.61,884,747,0
4515156,354.25,884,747,0
4515166,354.56,884,748,0
4515176,355.17,884,747,0
4515186,357.69,884,747,0
4515196,362.88,884,746,0
4515206,372.95,884,746,0
4515216,389.38,884,745,0
4515226,414.85,884,745,0
4515236,448.75,884,744,0
4515255,488.43,873,742,0
4515258,530.73,873,744,0
4515267,573.19,873,744,0
4515277,612.99,873,743,0
4515287,647.75,873,744,0
4515297,674.66,873,743,0
4515307,693.53,873,744,0
4515317,706.70,873,743,0
4515328,715.96,873,744,0
4515337,722.40,873,744,0
4515347,726.95,873,744,0
4515357,730.10,873,743,0
4515367,732.34,873,744,0
4515377,733.87,873,744,0
4515387,733.95,873,744,0
4515397,729.85,873,744,0
4515407,720.47,873,744,0
4515417,704.68,873,745,0
4515427,682.28,873,745,0
4515437,652.92,873,746,0
4515447,617.12,873,746,0
4515457,576.24,873,747,0
4515467,534.04,873,747,0
4515477,492.16,873,747,0
4515487,452.81,873,748,0
4515497,417.17,873,748,0
4515507,386.65,873,748,0
4515517,361.47,873,748,0
4515527,342.30,873,748,0
4515537,328.79,873,748,0
4515547,321.18,873,747,0
4515557,318.47,873,747,0
4515567,320.30,873,747,0
4515577,325.40,873,747,0
4515587,333.21,873,747,0
4515597,342.36,873,746,0
4515607,352.02,873,747,0
4515617,361.06,873,747,0
4515628,369.10,873,746,0
4515638,375.28,873,747,0
4515648,379.53,873,746,0
4515658,381.47,873,748,0
4515668,381.24,873,746,0
4515678,379.07,873,747,0
4515688,375.49,873,747,0
4515698,370.76,873,748,0
4515708,365.52,873,746,0
4515718,360.00,873,748,0
4515728,354.82,873,747,0
4515738,350.33,873,748,0
4515748,346.80,873,746,0
4515758,344.29,873,748,0
4515768,343.05,873,747,0
4515778,342.82,873,748,0
4515788,343.73,873,746,0
4515799,345.48,873,748,0
4515809,347.87,873,746,0
4515819,350.65,873,748,0
4515829,353.54,873,746,0
4515840,356.25,873,748,0
4515849,358.79,873,746,0
4515859,361.04,873,748,0
4515869,362.83,873,746,0
4515879,364.12,873,748,0
4515889,364.94,873,746,0
4515899,365.47,873,748,0
4515909,365.67,873,746,0
4515919,365.64,873,748,0
4515929,365.24,873,746,0
4515939,364.61,873,748,0
4515949,363.78,873,746,0
4515959,362.73,873,748,0
4515969,361.49,873,746,0
4515979,360.23,873,749,0
4515989,358.83,873,746,0
4515999,357.51,873,749,0
4516009,356.28,873,746,0
4516019,355.21,873,749,0
4516029,354.38,873,746,0
4516039,353.92,873,748,0
4516049,353.65,873,746,0
4516059,353.58,873,748,0
4516069,353.53,873,746,0
4516079,353.80,873,748,0
4516089,354.08,873,746,0
4516099,354.74,873,748,0
4516109,356.40,873,746,0
4516119,360.65,873,748,0
4516129,369.20,873,745,0
4516140,384.35,873,747,0
4516150,407.95,873,744,0
4516169,440.88,914,742,0
4516172,479.96,914,744,0
4516182,522.44,914,745,0
4516191,565.51,914,743,0
4516201,606.50,914,744,0
4516211,642.52,914,743,0
4516221,670.95,914,745,0
4516231,690.85,914,743,0
4516241,704.78,914,744,0
4516251,714.53,914,743,0
4516261,721.40,914,744,0
4516271,726.21,914,743,0
4516281,729.62,914,745,0
4516291,732.05,914,743,0
4516301,733.75,914,745,0
4516311,734.89,914,743,0
4516321,733.08,914,745,0
4516331,725.99,914,743,0
4516341,712.71,914,746,0
4516352,692.31,914,744,0
4516361,665.17,914,747,0
4516371,631.39,914,745,0
4516381,591.37,914,748,0
4516391,548.15,914,746,0
4516401,505.20,914,749,0
4516411,464.09,914,746,0
4516421,426.95,914,749,0
4516431,394.30,914,747,0
4516441,367.21,914,749,0
4516451,345.94,914,746,0
4516461,330.95,914,749,0
4516471,321.71,914,746,0
4516481,318.11,914,749,0
4516491,318.89,914,745,0
4516501,323.55,914,749,0
4516511,330.67,914,745,0
4516521,339.69,914,748,0
4516531,349.17,914,745,0
4516541,358.42,914,748,0
4516551,366.39,914,745,0
4516561,373.09,914,748,0
4516571,377.52,914,745,0
4516581,379.93,914,748,0
4516591,379.91,914,746,0
4516601,378.10,914,748,0
4516611,374.47,914,746,0
4516621,369.78,914,749,0
4516631,364.06,914,746,0
4516641,358.22,914,749,0
4516652,352.41,914,746,0
4516662,347.44,914,749,0
4516672,343.24,914,746,0
4516682,340.42,914,748,0
4516692,338.88,914,746,0
4516702,338.96,914,749,0
4516712,339.96,914,746,0
4516722,342.33,914,748,0
4516732,345.02,914,746,0
4516742,348.40,914,748,0
4516752,351.53,914,746,0
4516762,354.67,914,748,0
4516772,357.21,914,746,0
4516782,359.76,914,749,0
4516792,361.46,914,746,0
4516802,363.08,914,748,0
4516812,363.91,914,746,0
4516823,364.63,914,748,0
4516833,364.57,914,746,0
4516843,364.35,914,748,0
4516853,363.52,914,746,0
4516864,362.63,914,748,0
4516873,361.42,914,746,0
4516883,360.26,914,748,0
4516893,358.81,914,746,0
4516903,357.75,914,748,0
4516913,356.59,914,746,0
4516923,355.85,914,748,0
4516933,355.04,914,746,0
4516943,354.73,914,748,0
4516953,354.34,914,746,0
4516963,354.37,914,748,0
4516973,354.17,914,746,0
4516983,354.50,914,748,0
4516993,354.65,914,746,0
4517003,355.36,914,748,0
4517013,355.72,914,746,0
4517023,356.62,914,748,0
4517033,357.29,914,747,0
4517043,358.40,914,748,0
4517053,359.18,914,746,0
4517063,360.80,914,748,0
4517073,363.60,914,746,0
4517083,369.38,914,747,0
4517093,379.38,914,745,0
4517112,396.79,943,743,0
4517115,423.51,943,744,0
4517124,458.33,943,744,0
4517134,498.05,943,743,0
4517144,540.20,943,744,0
4517154,582.19,943,744,0
4517164,621.56,943,744,0
4517174,654.95,943,743,0
4517184,679.73,943,743,0
4517194,697.04,943,744,0
4517204,709.20,943,744,0
4517214,717.67,943,743,0
4517224,723.64,943,743,0
4517234,727.78,943,743,0
4517244,730.72,943,744,0
4517254,732.73,943,743,0
4517264,734.18,943,743,0
4517274,732.88,943,744,0
4517284,727.13,943,744,0
4517294,715.26,943,744,0
4517304,696.84,943,745,0
4517314,671.18,943,745,0
4517324,638.81,943,747,0
4517335,599.87,943,747,0
4517345,557.52,943,747,0
4517355,514.29,943,748,0
4517365,472.81,943,747,0
4517376,434.59,943,748,0
4517385,401.54,943,747,0
4517395,373.95,943,748,0
4517405,352.84,943,748,0
4517415,337.89,943,748,0
4517425,329.09,943,747,0
4517435,325.76,943,747,0
4517445,327.42,943,747,0
4517455,332.65,943,747,0
4517465,340.77,943,746,0
4517475,350.10,943,747,0
4517485,359.88,943,746,0
4517495,369.00,943,747,0
4517505,377.06,943,746,0
4517515,382.96,943,747,0
4517525,386.87,943,747,0
4517535,388.19,943,747,0
4517545,387.28,943,746,0
4517555,384.20,943,747,0
4517565,379.68,943,747,0
4517575,373.73,943,748,0
4517585,367.17,943,747,0
4517595,360.05,943,747,0
4517605,353.30,943,747,0
4517615,347.17,943,748,0
4517625,342.32,943,747,0
4517635,338.54,943,747,0
4517645,336.36,943,747,0
4517655,335.70,943,748,0
4517665,336.64,943,747,0
4517676,338.77,943,747,0
4517686,342.09,943,747,0
4517696,346.01,943,747,0
4517706,350.51,943,746,0
4517716,355.07,943,748,0
4517726,359.50,943,747,0
4517736,363.42,943,747,0
4517746,366.77,943,746,0
4517756,369.32,943,748,0
4517766,371.20,943,747,0
4517776,372.21,943,747,0
4517786,372.58,943,746,0
4517796,372.19,943,748,0
4517806,371.45,943,747,0
4517816,370.24,943,748,0
4517826,368.84,943,747,0
4517836,367.13,943,748,0
4517847,365.42,943,746,0
4517857,363.62,943,749,0
4517867,361.98,943,746,0
4517877,360.36,943,749,0
4517888,359.01,943,746,0
4517897,357.85,943,748,0
4517907,357.08,943,746,0
4517917,356.54,943,749,0
4517927,356.25,943,746,0
4517937,356.26,943,749,0
4517947,356.44,943,746,0
4517957,356.86,943,749,0
4517967,357.33,943,746,0
4517977,357.96,943,748,0
4517987,358.87,943,746,0
4517997,360.75,943,748,0
4518007,364.43,943,745,0
4518017,371.46,943,747,0
4518027,383.83,943,744,0
4518037,403.90,943,746,0
4518056,433.46,944,744,0
4518060,469.96,944,746,0
4518068,510.60,944,743,0
4518078,552.85,944,745,0
4518088,594.25,944,743,0
4518098,631.93,944,744,0
4518108,663.15,944,743,0
4518118,685.52,944,744,0
4518128,701.22,944,743,0
4518138,712.17,944,745,0
4518148,719.83,944,743,0
4518158,725.15,944,744,0
4518168,728.88,944,743,0
4518178,731.49,944,745,0
4518188,733.31,944,743,0
4518198,731.55,944,744,0
4518208,724.18,944,743,0
4518218,710.16,944,746,0
4518228,688.72,944,744,0
4518238,660.35,944,747,0
4518248,625.10,944,745,0
4518258,583.59,944,748,0
4518268,539.65,944,746,0
4518278,496.51,944,749,0
4518288,456.25,944,746,0
4518298,420.81,944,749,0
4518308,390.61,944,747,0
4518318,366.56,944,749,0
4518328,348.78,944,746,0
4518338,337.31,944,749,0
4518348,331.52,944,746,0
4518359,331.02,944,748,0
4518369,334.53,944,746,0
4518379,341.36,944,748,0
4518389,350.21,944,745,0
4518400,360.34,944,747,0
4518409,370.31,944,745,0
4518419,379.86,944,748,0
4518429,387.53,944,745,0
4518439,393.72,944,747,0
4518449,397.31,944,746,0
4518459,398.59,944,748,0
4518469,397.13,944,746,0
4518479,393.70,944,748,0
4518489,388.09,944,746,0
4518499,381.51,944,749,0
4518509,373.60,944,746,0
4518519,365.70,944,749,0
4518529,358.04,944,746,0
4518539,351.60,944,749,0
4518549,346.02,944,746,0
4518559,341.94,944,748,0
4518569,339.00,944,746,0
4518579,337.84,944,749,0
4518589,337.93,944,746,0
4518599,339.58,944,748,0
4518609,341.94,944,746,0
4518619,345.56,944,749,0
4518629,349.59,944,746,0
4518639,354.30,944,748,0
4518649,358.79,944,746,0
4518659,363.36,944,748,0
4518669,367.19,944,746,0
4518679,370.73,944,748,0
4518689,373.34,944,746,0
4518700,375.43,944,748,0
4518710,376.50,944,746,0
4518720,377.03,944,748,0
4518730,376.64,944,746,0
4518740,375.89,944,748,0
4518750,374.47,944,746,0
4518760,372.95,944,748,0
4518770,370.87,944,746,0
4518780,368.98,944,748,0
4518790,366.93,944,746,0
4518800,365.36,944,748,0
4518810,363.71,944,746,0
4518820,362.56,944,748,0
4518830,361.32,944,746,0
4518840,360.88,944,749,0
4518850,360.44,944,746,0
4518860,360.65,944,749,0
4518871,361.27,944,746,0
4518881,364.06,944,748,0
4518891,369.79,944,746,0
4518901,380.99,944,747,0
4518912,399.04,944,744,0
4518921,426.16,944,745,0
4518931,460.95,944,743,0
4518950,500.91,894,742,0
4518953,542.89,894,744,0
4518962,584.63,894,744,0
4518972,622.97,894,743,0
4518982,655.59,894,744,0
4518992,680.18,894,744,0
4519002,697.44,894,744,0
4519012,709.48,894,743,0
4519022,717.95,894,744,0
4519032,723.84,894,744,0
4519042,728.00,894,744,0
4519052,730.91,894,743,0
4519062,732.95,894,744,0
4519072,731.77,894,744,0
4519083,725.88,894,744,0
4519092,713.79,894,744,0
4519102,695.12,894,746,0
4519112,669.20,894,746,0
4519122,636.74,894,747,0
4519132,597.90,894,746,0
4519142,556.23,894,748,0
4519152,513.91,894,747,0
4519162,473.65,894,748,0
4519172,436.68,894,747,0
4519182,404.93,894,748,0
4519192,378.34,894,748,0
4519202,357.88,894,748,0
4519212,343.05,894,747,0
4519222,334.29,894,748,0
4519232,330.65,894,747,0
4519242,331.95,894,747,0
4519252,336.72,894,746,0
4519262,344.56,894,747,0
4519272,353.78,894,746,0
4519282,364.09,894,747,0
4519292,373.79,894,746,0
4519302,382.77,894,747,0
4519312,389.65,894,746,0
4519322,394.60,894,747,0
4519332,396.82,894,746,0
4519342,396.96,894,747,0
4519352,394.40,894,747,0
4519362,390.08,894,747,0
4519372,383.88,894,747,0
4519383,376.89,894,748,0
4519393,369.21,894,748,0
4519403,362.03,894,747,0
4519413,355.17,894,747,0
4519424,349.59,894,747,0
4519433,345.30,894,748,0
4519443,342.72,894,747,0
4519453,341.43,894,747,0
4519463,341.73,894,747,0
4519473,342.88,894,747,0
4519483,345.28,894,747,0
4519493,348.19,894,747,0
4519503,351.69,894,747,0
4519513,355.13,894,747,0
4519523,358.77,894,747,0
4519533,362.06,894,747,0
4519543,365.21,894,747,0
4519553,367.68,894,747,0
4519563,369.83,894,747,0
4519573,371.12,894,747,0
4519583,371.94,894,747,0
4519593,371.92,894,748,0
4519603,371.47,894,747,0
4519613,370.34,894,748,0
4519623,369.00,894,747,0
4519633,367.33,894,748,0
4519643,365.94,894,747,0
4519653,364.37,894,748,0
4519663,363.11,894,747,0
4519673,361.83,894,748,0
4519683,360.90,894,747,0
4519693,360.03,894,747,0
4519703,359.38,894,747,0
4519713,358.62,894,748,0
4519724,358.39,894,747,0
4519734,359.09,894,748,0
4519744,362.36,894,746,0
4519754,369.71,894,747,0
4519764,383.47,894,745,0
4519774,405.10,894,745,0
4519784,436.40,894,744,0
4519803,474.38,853,742,0
4519806,516.31,853,744,0
4519815,559.24,853,744,0
4519825,600.53,853,743,0
4519835,637.18,853,744,0
4519845,667.13,853,743,0
4519855,688.22,853,744,0
4519865,702.98,853,743,0
4519875,713.36,853,744,0
4519885,720.67,853,743,0
4519895,725.78,853,745,0
4519905,729.40,853,743,0
4519915,731.94,853,745,0
4519925,733.76,853,743,0
4519936,732.37,853,745,0
4519945,726.30,853,743,0
4519955,714.17,853,746,0
4519965,695.39,853,744,0
4519975,669.86,853,747,0
4519985,638.10,853,745,0
4519995,600.40,853,748,0
4520005,559.82,853,746,0
4520015,518.69,853,749,0
4520025,479.27,853,746,0
4520035,443.06,853,749,0
4520045,410.98,853,747,0
4520055,383.47,853,749,0
4520065,361.00,853,746,0
4520075,343.95,853,749,0
4520085,332.26,853,747,0
4520095,325.71,853,749,0
4520105,323.74,853,746,0
4520115,325.75,853,749,0
4520125,330.88,853,746,0
4520135,338.33,853,748,0
4520145,347.06,853,745,0
4520155,356.17,853,748,0
4520165,364.65,853,745,0
4520175,371.91,853,748,0
4520185,377.34,853,745,0
4520195,380.71,853,748,0
4520205,381.87,853,746,0
4520215,381.01,853,748,0
4520225,378.30,853,745,0
4520236,374.23,853,749,0
4520246,369.06,853,746,0
4520256,363.60,853,749,0
4520266,357.93,853,746,0
4520276,352.72,853,749,0
4520286,348.05,853,746,0
4520296,344.35,853,749,0
4520306,341.63,853,746,0
4520316,340.33,853,749,0
4520326,340.06,853,746,0
4520336,341.03,853,749,0
4520346,342.65,853,746,0
4520356,345.11,853,749,0
4520366,347.91,853,746,0
4520376,351.11,853,749,0
4520386,353.99,853,746,0
4520396,356.78,853,749,0
4520407,359.03,853,746,0
4520417,361.16,853,749,0
4520427,362.53,853,745,0
4520437,363.48,853,749,0
4520448,363.68,853,746,0
4520457,363.61,853,749,0
4520467,362.95,853,746,0
4520477,362.28,853,749,0
4520487,361.00,853,746,0
4520497,359.88,853,749,0
4520507,358.68,853,746,0
4520517,358.13,853,749,0
4520527,357.36,853,746,0
4520537,357.00,853,749,0
4520547,356.65,853,746,0
4520557,356.50,853,749,0
4520567,356.31,853,746,0
4520577,356.13,853,749,0
4520587,355.41,853,746,0
4520597,355.28,853,749,0
4520607,355.07,853,746,0
4520617,355.13,853,749,0
4520627,356.42,853,746,0
4520637,360.41,853,748,0
4520647,368.56,853,745,0
4520657,383.86,853,747,0
4520667,406.96,853,744,0
4520686,439.46,883,742,0
4520689,478.28,883,744,0
4520698,520.71,883,745,0
4520708,563.74,883,743,0
4520718,605.00,883,745,0
4520728,640.92,883,743,0
4520738,669.91,883,744,0
4520748,690.25,883,743,0
4520758,704.53,883,745,0
4520768,714.53,883,743,0
4520778,721.57,883,745,0
4520788,726.50,883,743,0
4520798,729.95,883,744,0
4520808,732.37,883,743,0
4520818,734.01,883,745,0
4520828,731.87,883,743,0
4520838,725.01,883,745,0
4520848,711.98,883,744,0
4520858,692.74,883,746,0
4520868,666.76,883,745,0
4520878,634.69,883,747,0
4520888,596.55,883,746,0
4520898,556.36,883,748,0
4520908,515.41,883,747,0
4520919,476.33,883,749,0
4520929,439.76,883,747,0
4520939,407.56,883,749,0
4520949,379.66,883,748,0
4520960,357.26,883,748,0
4520969,339.96,883,747,0
4520979,328.44,883,749,0
4520989,321.88,883,747,0
4520999,320.42,883,748,0
4521009,322.52,883,746,0
4521019,328.02,883,748,0
4521029,335.34,883,746,0
4521039,344.20,883,747,0
4521049,353.10,883,746,0
4521059,361.81,883,748,0
4521069,368.90,883,746,0
4521079,374.71,883,747,0
4521089,378.23,883,746,0
4521099,379.96,883,748,0
4521109,379.33,883,747,0
4521119,377.13,883,747,0
4521129,373.02,883,747,0
4521139,368.26,883,748,0
4521149,362.44,883,747,0
4521159,356.69,883,748,0
4521169,350.83,883,747,0
4521179,345.95,883,749,0
4521189,341.72,883,747,0
4521199,338.89,883,748,0
4521209,336.65,883,747,0
4521219,335.77,883,748,0
4521229,335.63,883,747,0
4521239,336.68,883,747,0
4521249,338.15,883,747,0
4521260,340.37,883,748,0
4521270,342.75,883,747,0
4521280,345.65,883,747,0
4521290,348.50,883,747,0
4521300,351.48,883,748,0
4521310,353.95,883,747,0
4521320,356.32,883,747,0
4521330,357.90,883,747,0
4521340,359.17,883,747,0
4521350,359.72,883,747,0
4521360,359.93,883,747,0
4521370,359.44,883,747,0
4521380,358.75,883,747,0
4521390,357.20,883,747,0
4521400,355.59,883,748,0
4521410,353.53,883,747,0
4521420,351.70,883,748,0
4521431,349.86,883,747,0
4521441,348.45,883,747,0
4521451,347.11,883,748,0
4521461,346.52,883,747,0
4521472,346.28,883,748,0
4521481,346.54,883,747,0
4521491,346.81,883,748,0
4521501,347.21,883,747,0
4521511,347.62,883,748,0
4521521,348.80,883,747,0
4521531,351.18,883,747,0
4521541,356.44,883,747,0
4521551,366.16,883,746,0
4521561,382.44,883,745,0
4521571,406.78,883,745,0
4521590,440.40,904,743,0
4521593,479.84,904,745,0
4521602,522.57,904,743,0
4521612,565.52,904,744,0
4521622,606.16,904,743,0
4521632,641.90,904,744,0
4521643,670.56,904,743,0
4521652,690.66,904,744,0
4521662,704.78,904,743,0
4521672,714.66,904,744,0
4521682,721.62,904,743,0
4521692,726.45,904,744,0
4521702,729.83,904,744,0
4521712,730.99,904,744,0
4521722,727.95,904,743,0
4521732,719.44,904,745,0
4521742,704.78,904,745,0
4521752,683.50,904,746,0
4521762,655.75,904,745,0
4521772,621.88,904,747,0
4521782,583.73,904,747,0
4521792,543.83,904,748,0
4521802,504.45,904,747,0
4521812,466.94,904,749,0
4521822,432.67,904,748,0
4521832,402.30,904,748,0
4521842,376.37,904,747,0
4521852,355.17,904,749,0
4521862,339.09,904,748,0
4521872,327.92,904,748,0
4521882,321.64,904,747,0
4521892,319.78,904,748,0
4521902,321.82,904,747,0
4521912,326.80,904,748,0
4521922,333.89,904,746,0
4521932,342.24,904,747,0
4521943,350.99,904,746,0
4521953,359.31,904,748,0
4521963,366.46,904,745,0
4521973,371.85,904,748,0
4521984,375.24,904,746,0
4521993,376.62,904,748,0
4522003,376.09,904,746,0
4522013,373.84,904,748,0
4522023,370.03,904,746,0
4522033,365.31,904,749,0
4522043,360.16,904,747,0
4522053,355.10,904,749,0
4522063,350.18,904,747,0
4522073,345.67,904,749,0
4522083,341.78,904,746,0
4522093,338.93,904,748,0
4522103,337.03,904,746,0
4522113,336.16,904,749,0
4522123,336.24,904,746,0
4522133,337.54,904,748,0
4522143,339.44,904,746,0
4522153,342.09,904,749,0
4522163,345.15,904,746,0
4522173,348.19,904,748,0
4522183,350.92,904,746,0
4522193,353.30,904,749,0
4522203,355.05,904,746,0
4522213,356.54,904,748,0
4522223,357.49,904,746,0
4522233,357.90,904,749,0
4522243,357.97,904,746,0
4522253,357.94,904,748,0
4522263,357.57,904,746,0
4522273,356.97,904,749,0
4522284,356.12,904,746,0
4522294,355.01,904,748,0
4522304,353.77,904,746,0
4522314,352.68,904,749,0
4522324,351.49,904,746,0
4522334,350.57,904,749,0
4522344,349.71,904,746,0
4522354,349.20,904,749,0
4522364,348.93,904,746,0
4522374,348.99,904,749,0
4522384,349.08,904,746,0
4522394,349.48,904,749,0
4522404,349.77,904,746,0
4522414,350.14,904,749,0
4522424,350.44,904,746,0
4522434,351.25,904,749,0
4522444,353.19,904,746,0
4522455,357.68,904,748,0
4522465,366.00,904,745,0
4522475,380.70,904,747,0
4522485,403.33,904,744,0
4522505,435.50,914,741,0
4522508,474.01,914,743,0
4522517,516.14,914,744,0
4522527,559.08,914,743,0
4522537,600.41,914,744,0
4522547,637.15,914,743,0
4522557,667.06,914,744,0
4522567,688.21,914,743,0
4522577,703.02,914,744,0
4522587,713.34,914,743,0
4522597,720.61,914,745,0
4522607,725.70,914,743,0
4522617,728.36,914,744,0
4522627,726.54,914,743,0
4522637,719.13,914,745,0
4522647,704.99,914,744,0
4522657,684.12,914,746,0
4522668,656.27,914,746,0
4522678,622.33,914,747,0
4522688,583.41,914,747,0
4522698,543.04,914,747,0
4522708,502.91,914,748,0
4522718,465.61,914,748,0
4522728,431.79,914,748,0
4522738,402.75,914,748,0
4522748,378.14,914,748,0
4522758,358.81,914,748,0
4522768,344.17,914,747,0
4522778,334.69,914,748,0
4522788,329.38,914,747,0
4522798,328.28,914,748,0
4522808,330.30,914,747,0
4522818,335.39,914,748,0
4522828,342.09,914,747,0
4522839,350.21,914,747,0
4522849,358.37,914,747,0
4522859,366.40,914,747,0
4522869,373.14,914,747,0
4522880,378.58,914,747,0
4522889,381.92,914,747,0
4522899,383.49,914,747,0
4522909,382.66,914,747,0
4522919,380.19,914,747,0
4522929,375.85,914,747,0
4522939,370.58,914,748,0
4522949,364.36,914,748,0
4522959,358.00,914,748,0
4522969,351.53,914,748,0
4522979,345.88,914,748,0
4522989,341.07,914,748,0
4522999,337.71,914,748,0
4523009,335.40,914,748,0
4523019,334.72,914,748,0
4523029,335.15,914,747,0
4523039,337.03,914,748,0
4523049,339.64,914,748,0
4523059,343.00,914,748,0
4523069,346.52,914,747,0
4523079,350.48,914,747,0
4523089,354.06,914,748,0
4523099,357.64,914,747,0
4523109,360.54,914,747,0
4523119,363.12,914,748,0
4523129,364.84,914,748,0
4523139,366.26,914,748,0
4523149,366.78,914,747,0
4523159,366.93,914,748,0
4523169,366.31,914,748,0
4523180,365.49,914,747,0
4523190,364.06,914,748,0
4523200,362.54,914,747,0
4523210,360.66,914,748,0
4523220,358.96,914,747,0
4523230,357.17,914,748,0
4523240,355.62,914,747,0
4523250,354.11,914,748,0
4523260,353.00,914,747,0
4523270,352.23,914,748,0
4523280,351.90,914,747,0
4523290,351.68,914,748,0
4523300,351.82,914,747,0
4523310,352.04,914,747,0
4523320,352.50,914,747,0
4523330,353.21,914,748,0
4523340,354.82,914,747,0
4523351,358.00,914,747,0
4523361,364.47,914,746,0
4523371,375.82,914,747,0
4523381,394.26,914,744,0
4523392,421.18,914,745,0
4523410,456.18,906,743,0
4523413,496.07,906,746,0
4523422,538.31,906,743,0
4523432,580.13,906,744,0
4523442,618.96,906,743,0
4523452,652.14,906,745,0
4523462,677.73,906,743,0
4523472,695.64,906,744,0
4523482,708.22,906,743,0
4523492,717.07,906,745,0
4523502,723.30,906,743,0
4523512,727.63,906,744,0
4523522,729.58,906,743,0
4523532,727.05,906,745,0
4523542,718.85,906,744,0
4523552,704.19,906,746,0
4523563,682.75,906,745,0
4523572,654.75,906,748,0
4523582,620.71,906,745,0
4523592,582.06,906,748,0
4523602,541.84,906,746,0
4523612,502.46,906,749,0
4523622,465.46,906,747,0
4523632,432.28,906,749,0
4523642,403.53,906,747,0
4523652,379.71,906,749,0
4523662,361.07,906,747,0
4523672,347.81,906,749,0
4523682,339.46,906,746,0
4523692,335.94,906,749,0
4523702,336.47,906,746,0
4523712,340.49,906,749,0
4523722,346.94,906,745,0
4523732,355.19,906,748,0
4523742,364.05,906,746,0
4523752,372.90,906,748,0
4523762,380.73,906,745,0
4523772,387.03,906,748,0
4523782,391.18,906,746,0
4523792,393.14,906,748,0
4523802,392.62,906,746,0
4523812,390.17,906,749,0
4523822,385.92,906,746,0
4523832,380.50,906,749,0
4523842,374.05,906,746,0
4523852,367.43,906,749,0
4523863,360.96,906,746,0
4523873,355.27,906,749,0
4523883,350.26,906,747,0
4523893,346.41,906,749,0
4523904,343.50,906,746,0
4523913,342.15,906,749,0
4523923,341.85,906,746,0
4523933,342.79,906,749,0
4523943,344.44,906,746,0
4523953,347.10,906,749,0
4523963,350.11,906,746,0
4523973,353.72,906,749,0
4523983,357.19,906,746,0
4523993,360.65,906,749,0
4524003,363.54,906,746,0
4524013,366.21,906,749,0
4524023,368.12,906,746,0
4524033,369.58,906,749,0
4524043,370.26,906,746,0
4524053,370.57,906,749,0
4524063,370.23,906,746,0
4524073,369.65,906,749,0
4524083,368.55,906,746,0
4524093,367.44,906,749,0
4524103,366.02,906,746,0
4524113,364.77,906,749,0
4524123,363.38,906,746,0
4524133,362.28,906,749,0
4524143,361.08,906,746,0
4524153,360.24,906,749,0
4524163,359.36,906,746,0
4524173,358.82,906,749,0
4524183,358.27,906,746,0
4524193,358.24,906,749,0
4524204,358.85,906,746,0
4524214,361.51,906,749,0
4524224,367.23,906,745,0
4524234,378.22,906,747,0
4524244,395.98,906,744,0
4524254,422.13,906,746,0
4524264,456.42,906,744,0
4524283,496.02,873,742,0
4524286,537.93,873,744,0
4524295,579.65,873,745,0
4524305,618.28,873,743,0
4524315,651.50,873,744,0
4524325,677.32,873,743,0
4524335,695.44,873,745,0
4524345,708.12,873,743,0
4524355,717.04,873,745,0
4524365,723.24,873,743,0
4524375,727.58,873,745,0
4524385,730.58,873,743,0
4524395,730.92,873,745,0
4524405,726.40,873,743,0
4524416,716.42,873,745,0
4524425,700.31,873,744,0
4524435,678.19,873,747,0
4524445,649.55,873,745,0
4524455,615.18,873,748,0
4524465,577.16,873,746,0
4524475,538.50,873,748,0
4524485,500.33,873,747,0
4524495,464.45,873,749,0
4524505,431.44,873,747,0
4524515,402.81,873,749,0
4524525,378.31,873,747,0
4524535,358.76,873,749,0
4524545,343.92,873,747,0
4524555,334.38,873,749,0
4524565,329.34,873,746,0
4524575,328.72,873,749,0
4524585,331.21,873,747,0
4524595,336.67,873,748,0
4524605,343.63,873,746,0
4524615,351.93,873,748,0
4524625,360.09,873,746,0
4524635,367.95,873,748,0
4524645,374.26,873,746,0
4524655,379.37,873,748,0
4524665,382.30,873,747,0
4524675,383.50,873,748,0
4524685,382.36,873,746,0
4524695,379.68,873,749,0
4524705,375.19,873,747,0
4524716,370.03,873,748,0
4524726,364.02,873,747,0
4524736,358.36,873,749,0
4524746,352.81,873,748,0
4524756,348.28,873,748,0
4524766,344.47,873,747,0
4524776,342.10,873,748,0
4524786,340.61,873,747,0
4524796,340.56,873,748,0
4524806,341.12,873,747,0
4524816,342.71,873,748,0
4524826,344.51,873,747,0
4524836,347.06,873,748,0
4524846,349.61,873,747,0
4524856,352.60,873,748,0
4524866,355.16,873,747,0
4524876,357.86,873,748,0
4524887,360.17,873,747,0
4524897,362.48,873,748,0
4524907,364.05,873,748,0
4524917,365.36,873,748,0
4524928,365.77,873,748,0
4524937,366.01,873,748,0
4524947,365.49,873,748,0
4524957,364.87,873,748,0
4524967,363.71,873,748,0
4524977,362.60,873,748,0
4524987,361.13,873,748,0
4524997,359.89,873,748,0
4525007,358.38,873,748,0
4525017,357.24,873,748,0
4525027,355.92,873,748,0
4525037,355.05,873,748,0
4525047,354.18,873,748,0
4525057,353.65,873,748,0
4525067,353.20,873,748,0
4525077,353.40,873,748,0
4525087,354.05,873,747,0
4525097,356.43,873,747,0
4525107,361.28,873,747,0
4525117,370.62,873,747,0
4525127,386.16,873,746,0
4525137,410.20,873,745,0
4525156,442.97,873,743,0
4525159,481.85,873,744,0
4525168,523.77,873,744,0
4525178,566.39,873,743,0
4525188,606.82,873,744,0
4525198,642.57,873,744,0
4525208,670.94,873,744,0
4525218,691.06,873,743,0
4525228,705.14,873,744,0
4525238,715.00,873,744,0
4525248,721.90,873,744,0
4525258,726.73,873,743,0
4525268,730.11,873,744,0
4525278,732.48,873,744,0
4525288,732.51,873,744,0
4525298,728.58,873,744,0
4525308,719.28,873,745,0
4525318,704.20,873,745,0
4525328,682.84,873,746,0
4525338,654.94,873,746,0
4525348,620.72,873,747,0
4525358,582.49,873,747,0
4525368,542.27,873,748,0
4525378,502.50,873,747,0
4525388,464.30,873,749,0
4525399,429.11,873,748,0
4525409,398.05,873,749,0
4525419,371.93,873,747,0
4525429,350.70,873,750,0
4525440,334.93,873,747,0
4525449,324.32,873,749,0
4525459,318.78,873,747,0
4525469,317.61,873,749,0
4525479,320.17,873,747,0
4525489,325.39,873,748,0
4525499,332.60,873,746,0
4525509,340.69,873,748,0
4525519,348.97,873,746,0
4525529,356.48,873,748,0
4525539,362.94,873,746,0
4525549,368.14,873,749,0
4525559,371.44,873,746,0
4525569,372.81,873,748,0
4525579,372.61,873,746,0
4525589,370.80,873,749,0
4525599,368.03,873,747,0
4525609,364.25,873,749,0
4525619,359.80,873,747,0
4525629,355.41,873,749,0
4525639,351.34,873,747,0
4525649,347.72,873,749,0
4525659,344.85,873,747,0
4525669,342.67,873,749,0
4525679,341.44,873,747,0
4525689,341.09,873,749,0
4525699,341.58,873,747,0
4525709,342.91,873,749,0
4525719,344.91,873,746,0
4525729,347.38,873,749,0
4525740,350.05,873,746,0
4525750,352.65,873,749,0
4525760,354.77,873,746,0
4525770,356.60,873,749,0
4525780,357.79,873,746,0
4525790,358.45,873,749,0
4525800,358.70,873,746,0
4525810,358.66,873,749,0
4525820,358.25,873,746,0
4525830,357.79,873,749,0
4525840,357.17,873,746,0
4525850,356.56,873,749,0
4525860,355.83,873,746,0
4525870,355.07,873,749,0
4525880,354.06,873,746,0
4525890,353.23,873,749,0
4525900,352.35,873,746,0
4525911,351.51,873,749,0
4525921,350.72,873,746,0
4525931,350.24,873,749,0
4525941,349.87,873,746,0
4525952,350.00,873,749,0
4525961,350.17,873,746,0
4525971,350.68,873,749,0
4525981,351.16,873,746,0
4525991,352.01,873,749,0
4526001,353.21,873,746,0
4526011,355.93,873,749,0
4526021,361.14,873,746,0
4526031,371.08,873,748,0
4526041,387.04,873,745,0
4526060,411.29,904,742,0
4526063,444.42,904,744,0
4526072,483.51,904,745,0
4526082,525.52,904,743,0
4526092,568.01,904,745,0
4526102,608.04,904,743,0
4526112,643.43,904,744,0
4526123,671.71,904,743,0
4526132,691.56,904,745,0
4526142,705.45,904,743,0
4526152,715.17,904,745,0
4526162,721.93,904,743,0
4526172,726.67,904,745,0
4526182,729.98,904,743,0
4526192,730.80,904,745,0
4526202,727.05,904,744,0
4526212,718.12,904,746,0
4526222,703.04,904,744,0
4526232,681.86,904,747,0
4526242,654.13,904,745,0
4526252,620.58,904,748,0
4526262,582.77,904,746,0
4526272,543.67,904,748,0
4526282,504.38,904,747,0
4526292,466.90,904,749,0
4526302,432.00,904,747,0
4526312,401.10,904,749,0
4526322,374.03,904,747,0
4526332,351.90,904,750,0
4526342,334.62,904,747,0
4526352,322.86,904,749,0
4526362,315.79,904,747,0
4526372,313.41,904,749,0
4526382,314.70,904,746,0
4526392,319.50,904,749,0
4526402,326.34,904,746,0
4526412,334.94,904,749,0
4526423,343.70,904,746,0
4526433,352.49,904,748,0
4526443,359.89,904,746,0
4526453,365.83,904,748,0
4526464,369.48,904,747,0
4526473,371.35,904,748,0
4526483,370.82,904,747,0
4526493,368.82,904,749,0
4526503,365.10,904,747,0
4526513,360.74,904,749,0
4526523,355.80,904,747,0
4526533,351.15,904,749,0
4526543,346.56,904,747,0
4526553,342.79,904,749,0
4526563,339.43,904,747,0
4526573,337.33,904,749,0
4526583,335.86,904,747,0
4526593,335.51,904,749,0
4526603,335.79,904,747,0
4526613,337.05,904,749,0
4526623,338.75,904,747,0
4526633,341.27,904,748,0
4526643,343.72,904,747,0
4526653,346.63,904,749,0
4526663,349.23,904,747,0
4526673,351.77,904,748,0
4526683,353.56,904,747,0
4526693,355.06,904,749,0
4526703,355.73,904,747,0
4526713,356.24,904,748,0
4526723,356.17,904,747,0
4526733,355.99,904,749,0
4526743,355.39,904,747,0
4526753,355.02,904,748,0
4526764,354.28,904,747,0
4526774,353.64,904,748,0
4526784,352.68,904,747,0
4526794,351.79,904,748,0
4526804,350.57,904,748,0
4526814,349.62,904,748,0
4526824,348.45,904,747,0
4526834,347.72,904,748,0
4526844,346.99,904,748,0
4526854,346.73,904,748,0
4526864,346.39,904,747,0
4526874,346.48,904,748,0
4526884,346.47,904,747,0
4526894,347.10,904,748,0
4526904,348.61,904,747,0
4526914,352.84,904,748,0
4526924,360.86,904,746,0
4526935,375.26,904,746,0
4526945,397.47,904,745,0
4526964,429.30,904,743,0
4526967,467.82,904,746,0
4526977,510.39,904,744,0
4526987,553.90,904,744,0
4526997,595.93,904,744,0
4527007,633.41,904,744,0
4527017,664.19,904,744,0
4527027,686.20,904,744,0
4527037,701.66,904,744,0
4527047,712.43,904,744,0
4527057,719.97,904,744,0
4527067,725.21,904,744,0
4527077,728.92,904,744,0
4527087,728.81,904,744,0
4527097,723.43,904,744,0
4527107,711.73,904,745,0
4527117,693.34,904,745,0
4527127,667.82,904,747,0
4527137,635.69,904,746,0
4527148,597.17,904,748,0
4527158,555.55,904,747,0
4527168,513.38,904,749,0
4527178,472.64,904,747,0
4527188,434.86,904,750,0
4527198,401.43,904,747,0
4527208,372.85,904,749,0
4527218,349.79,904,747,0
4527228,332.45,904,750,0
4527238,320.75,904,747,0
4527248,314.48,904,749,0
4527258,313.14,904,747,0
4527268,316.01,904,749,0
4527278,322.14,904,746,0
4527288,330.58,904,748,0
4527298,340.43,904,746,0
4527308,350.68,904,749,0
4527319,360.37,904,745,0
4527329,368.79,904,748,0
4527339,375.28,904,746,0
4527349,379.83,904,749,0
4527360,381.89,904,746,0
4527369,381.58,904,749,0
4527379,379.09,904,746,0
4527389,374.82,904,749,0
4527399,369.18,904,747,0
4527409,362.91,904,749,0
4527419,356.12,904,747,0
4527429,349.79,904,749,0
4527439,343.98,904,747,0
4527449,339.18,904,749,0
4527459,335.44,904,747,0
4527469,333.08,904,749,0
4527479,331.81,904,747,0
4527489,331.83,904,749,0
4527499,332.74,904,746,0
4527509,334.53,904,749,0
4527519,336.90,904,746,0
4527529,340.02,904,749,0
4527539,343.27,904,746,0
4527549,346.74,904,749,0
4527559,350.16,904,746,0
4527569,353.37,904,749,0
4527579,356.35,904,746,0
4527589,359.11,904,749,0
4527599,361.52,904,746,0
4527609,363.42,904,749,0
4527619,364.71,904,746,0
4527629,365.61,904,749,0
4527639,365.73,904,746,0
4527649,365.30,904,749,0
4527660,364.14,904,747,0
4527670,362.42,904,749,0
4527680,360.28,904,747,0
4527690,358.01,904,749,0
4527700,355.48,904,747,0
4527710,353.71,904,749,0
4527720,352.98,904,746,0
4527730,355.00,904,749,0
4527740,360.87,904,746,0
4527750,372.78,904,748,0
4527760,392.22,904,744,0
4527770,421.17,904,746,0
4527790,457.80,825,744,0
4527793,499.35,825,745,0
4527802,542.57,825,744,0
4527812,584.91,825,745,0
4527822,623.60,825,744,0
4527832,656.33,825,745,0
4527842,680.70,825,743,0
4527852,697.76,825,745,0
4527862,709.62,825,743,0
4527873,717.92,825,745,0
4527883,723.73,825,744,0
4527893,727.80,825,744,0
4527903,728.50,825,744,0
4527913,724.49,825,745,0
4527923,714.40,825,745,0
4527933,697.82,825,746,0
4527943,674.01,825,746,0
4527953,643.53,825,747,0
4527963,606.60,825,747,0
4527973,566.09,825,748,0
4527983,524.15,825,748,0
4527993,483.35,825,749,0
4528003,444.97,825,748,0
4528013,411.04,825,749,0
4528023,381.58,825,748,0
4528033,357.79,825,749,0
4528044,339.21,825,748,0
4528054,326.51,825,748,0
4528064,319.03,825,748,0
4528074,316.79,825,748,0
4528084,318.52,825,748,0
4528094,324.15,825,748,0
4528104,331.82,825,747,0
4528114,341.35,825,747,0
4528124,351.27,825,747,0
4528134,361.13,825,747,0
4528144,369.54,825,747,0
4528154,376.49,825,747,0
4528164,380.93,825,747,0
4528174,383.39,825,748,0
4528184,383.27,825,748,0
4528194,381.14,825,748,0
4528204,376.89,825,748,0
4528215,371.40,825,748,0
4528225,364.76,825,748,0
4528235,357.98,825,748,0
4528245,351.04,825,749,0
4528256,344.86,825,748,0
4528265,339.33,825,748,0
4528275,335.07,825,748,0
4528285,332.01,825,749,0
4528295,330.46,825,747,0
4528305,330.28,825,748,0
4528315,331.61,825,748,0
4528325,333.91,825,748,0
4528335,337.33,825,747,0
4528345,341.30,825,748,0
4528355,345.84,825,748,0
4528365,350.22,825,748,0
4528375,354.35,825,747,0
4528385,357.85,825,748,0
4528395,360.98,825,747,0
4528405,363.34,825,748,0
4528415,365.21,825,747,0
4528425,366.13,825,748,0
4528435,366.61,825,747,0
4528445,366.38,825,748,0
4528455,365.84,825,747,0
4528465,364.77,825,748,0
4528475,363.56,825,748,0
4528485,361.89,825,748,0
4528495,360.51,825,748,0
4528505,359.84,825,748,0
4528515,361.52,825,748,0
4528525,366.68,825,747,0
4528535,377.62,825,746,0
4528545,396.12,825,746,0
4528556,424.32,825,745,0
4528575,460.36,786,743,0
4528578,501.39,786,743,0
4528587,544.22,786,745,0
4528598,586.45,786,743,0
4528607,625.06,786,745,0
4528617,657.57,786,744,0
4528627,681.61,786,745,0
4528637,698.49,786,743,0
4528647,710.25,786,745,0
4528657,718.54,786,743,0
4528667,724.33,786,745,0
4528677,728.39,786,743,0
4528687,731.23,786,745,0
4528697,732.23,786,744,0
4528707,729.12,786,745,0
4528717,720.38,786,744,0
4528727,705.48,786,747,0
4528737,683.91,786,745,0
4528747,655.44,786,748,0
4528757,620.33,786,746,0
4528768,580.12,786,749,0
4528777,538.13,786,747,0
4528787,496.56,786,749,0
4528797,456.96,786,747,0
4528807,420.80,786,750,0
4528817,389.19,786,748,0
4528827,362.86,786,750,0
4528837,342.16,786,747,0
4528847,327.20,786,750,0
4528857,317.92,786,747,0
4528867,313.92,786,749,0
4528877,314.63,786,746,0
4528887,319.28,786,749,0
4528897,326.70,786,746,0
4528907,335.92,786,749,0
4528917,345.63,786,746,0
4528927,355.13,786,749,0
4528937,363.49,786,746,0
4528947,370.28,786,749,0
4528957,374.91,786,746,0
4528967,377.42,786,749,0
4528977,377.64,786,746,0
4528987,375.91,786,749,0
4528997,372.33,786,746,0
4529007,367.56,786,750,0
4529017,361.74,786,746,0
4529027,355.73,786,749,0
4529037,349.85,786,747,0
4529047,344.71,786,750,0
4529057,340.34,786,747,0
4529068,337.20,786,750,0
4529078,335.21,786,747,0
4529088,334.63,786,749,0
4529098,335.00,786,747,0
4529108,336.54,786,749,0
4529118,338.65,786,747,0
4529128,341.41,786,749,0
4529138,344.33,786,746,0
4529148,347.49,786,749,0
4529158,350.43,786,746,0
4529168,353.30,786,749,0
4529178,355.52,786,747,0
4529188,357.47,786,749,0
4529198,358.87,786,746,0
4529208,359.85,786,749,0
4529218,360.02,786,747,0
4529228,359.85,786,749,0
4529239,359.12,786,746,0
4529249,358.27,786,749,0
4529259,356.95,786,747,0
4529269,355.72,786,749,0
4529280,354.30,786,747,0
4529289,353.40,786,749,0
4529299,352.16,786,747,0
4529309,351.22,786,749,0
4529319,349.95,786,747,0
4529329,349.37,786,749,0
4529339,349.38,786,747,0
4529349,351.67,786,749,0
4529359,357.13,786,746,0
4529369,368.44,786,748,0
4529379,387.21,786,745,0
4529389,415.82,786,746,0
4529409,452.30,833,744,0
4529412,493.91,833,746,0
4529421,537.61,833,744,0
4529431,580.80,833,745,0
4529441,620.46,833,743,0
4529452,654.05,833,745,0
4529462,679.15,833,744,0
4529472,696.76,833,744,0
4529482,709.09,833,744,0
4529492,717.72,833,744,0
4529502,723.76,833,744,0
4529512,728.03,833,745,0
4529522,731.02,833,744,0
4529532,733.12,833,744,0
4529542,734.58,833,744,0
4529552,734.66,833,745,0
4529562,730.65,833,744,0
4529572,721.24,833,745,0
4529582,705.31,833,745,0
4529592,682.46,833,747,0
4529602,652.07,833,746,0
4529612,614.72,833,748,0
4529623,571.64,833,748,0
4529633,526.75,833,748,0
4529643,482.25,833,748,0
4529653,440.56,833,749,0
4529664,402.85,833,749,0
4529673,371.10,833,749,0
4529683,345.35,833,749,0
4529693,326.30,833,748,0
4529703,313.36,833,749,0
4529713,306.31,833,748,0
4529723,304.24,833,748,0
4529733,306.74,833,748,0
4529743,312.30,833,748,0
4529753,320.36,833,748,0
4529763,329.42,833,747,0
4529773,338.98,833,747,0
4529783,347.94,833,748,0
4529793,355.72,833,748,0
4529803,361.46,833,747,0
4529813,365.35,833,747,0
4529823,366.70,833,748,0
4529833,366.15,833,747,0
4529843,363.45,833,748,0
4529853,359.28,833,748,0
4529863,354.01,833,748,0
4529873,348.57,833,748,0
4529883,342.78,833,748,0
4529893,337.79,833,748,0
4529903,333.44,833,748,0
4529913,330.35,833,748,0
4529923,328.27,833,748,0
4529933,327.42,833,748,0
4529943,327.34,833,748,0
4529953,328.35,833,748,0
4529964,329.87,833,748,0
4529974,331.97,833,748,0
4529984,334.16,833,749,0
4529994,336.56,833,747,0
4530004,338.83,833,749,0
4530014,341.11,833,748,0
4530024,342.96,833,748,0
4530034,344.52,833,747,0
4530044,345.61,833,749,0
4530054,346.54,833,748,0
4530064,346.98,833,749,0
4530074,347.03,833,747,0
4530084,346.50,833,749,0
4530094,345.84,833,748,0
4530104,344.99,833,749,0
4530114,344.13,833,748,0
4530124,343.15,833,749,0
4530135,342.38,833,747,0
4530145,341.75,833,749,0
4530155,341.31,833,747,0
4530165,340.87,833,749,0
4530176,340.57,833,747,0
4530185,340.36,833,749,0
4530195,340.21,833,747,0
4530205,340.79,833,749,0
4530215,342.87,833,747,0
4530225,348.01,833,749,0
4530235,358.08,833,746,0
4530245,374.98,833,747,0
4530255,400.62,833,744,0
4530274,435.53,866,743,0
4530277,476.26,866,744,0
4530286,520.11,866,745,0
4530296,564.22,866,743,0
4530306,605.77,866,745,0
4530316,642.05,866,743,0
4530326,670.71,866,745,0
4530336,690.85,866,743,0
4530347,705.00,866,745,0
4530356,714.90,866,743,0
4530366,721.79,866,745,0
4530376,726.61,866,743,0
4530386,729.98,866,746,0
4530396,732.34,866,743,0
4530406,732.20,866,746,0
4530416,727.55,866,744,0
4530426,717.14,866,747,0
4530436,700.26,866,745,0
4530446,676.70,866,748,0
4530456,646.14,866,746,0
4530466,608.99,866,749,0
4530476,567.50,866,747,0
4530486,524.28,866,750,0
4530496,481.51,866,747,0
4530506,440.86,866,750,0
4530516,403.44,866,748,0
4530526,370.65,866,750,0
4530536,343.11,866,747,0
4530546,321.22,866,750,0
4530556,305.17,866,747,0
4530566,294.96,866,750,0
4530576,290.13,866,746,0
4530586,290.26,866,750,0
4530596,294.30,866,747,0
4530606,301.37,866,749,0
4530616,310.26,866,746,0
4530626,320.38,866,749,0
4530636,330.55,866,746,0
4530647,340.24,866,749,0
4530657,348.36,866,746,0
4530667,354.93,866,749,0
4530677,359.15,866,746,0
4530688,361.47,866,749,0
4530697,361.54,866,746,0
4530707,359.92,866,750,0
4530717,356.69,866,747,0
4530727,352.58,866,750,0
4530737,347.56,866,747,0
4530747,342.64,866,750,0
4530757,337.77,866,747,0
4530767,333.64,866,750,0
4530777,330.24,866,746,0
4530787,327.98,866,750,0
4530797,326.53,866,747,0
4530807,326.28,866,750,0
4530817,326.76,866,747,0
4530827,328.29,866,750,0
4530837,330.17,866,747,0
4530847,332.52,866,749,0
4530857,334.68,866,746,0
4530867,337.22,866,750,0
4530877,339.47,866,747,0
4530887,341.64,866,749,0
4530897,343.03,866,747,0
4530907,344.27,866,750,0
4530917,344.87,866,747,0
4530927,345.34,866,749,0
4530937,345.11,866,747,0
4530947,344.73,866,750,0
4530957,344.04,866,747,0
4530967,343.43,866,750,0
4530977,342.44,866,747,0
4530988,341.58,866,750,0
4530998,340.51,866,747,0
4531008,339.80,866,749,0
4531018,339.00,866,747,0
4531028,338.53,866,749,0
4531038,337.98,866,747,0
4531048,337.82,866,749,0
4531058,337.44,866,747,0
4531068,337.40,866,749,0
4531078,337.11,866,747,0
4531088,337.29,866,749,0
4531098,337.97,866,747,0
4531108,340.81,866,749,0
4531118,346.52,866,746,0
4531128,357.51,866,748,0
4531138,375.27,866,745,0
4531148,401.80,866,746,0
4531168,437.18,894,744,0
4531171,478.40,894,745,0
4531180,522.12,894,744,0
4531190,566.10,894,744,0
4531201,607.30,894,744,0
4531211,643.21,894,745,0
4531221,671.52,894,744,0
4531231,691.38,894,745,0
4531241,705.28,894,744,0
4531251,715.05,894,744,0
4531261,721.85,894,744,0
4531271,726.61,894,744,0
4531281,729.94,894,744,0
4531291,732.32,894,744,0
4531301,731.36,894,744,0
4531311,725.55,894,745,0
4531321,713.52,894,746,0
4531331,695.10,894,746,0
4531341,669.57,894,746,0
4531351,637.22,894,747,0
4531361,598.02,894,748,0
4531372,555.46,894,748,0
4531382,511.78,894,749,0
4531392,469.54,894,748,0
4531402,429.87,894,749,0
4531412,394.76,894,748,0
4531422,364.79,894,749,0
4531432,341.11,894,748,0
4531442,323.42,894,749,0
4531452,311.85,894,748,0
4531462,305.72,894,749,0
4531472,304.78,894,748,0
4531482,307.85,894,748,0
4531492,314.23,894,747,0
4531502,322.56,894,748,0
4531512,332.34,894,747,0
4531522,342.52,894,748,0
4531532,352.44,894,747,0
4531543,361.22,894,748,0
4531553,368.31,894,747,0
4531563,373.28,894,749,0
4531573,376.11,894,747,0
4531584,376.72,894,749,0
4531593,375.30,894,747,0
4531603,372.08,894,749,0
4531613,367.39,894,747,0
4531623,361.74,894,749,0
4531633,355.82,894,747,0
4531643,349.87,894,749,0
4531653,344.60,894,747,0
4531663,340.09,894,749,0
4531673,336.63,894,747,0
4531683,334.43,894,749,0
4531693,333.53,894,747,0
4531703,333.71,894,749,0
4531713,334.96,894,747,0
4531723,336.68,894,749,0
4531733,339.01,894,747,0
4531743,341.75,894,749,0
4531753,344.48,894,746,0
4531763,347.17,894,749,0
4531773,349.60,894,747,0
4531783,351.99,894,749,0
4531793,354.05,894,746,0
4531803,355.66,894,749,0
4531813,356.84,894,747,0
4531823,357.70,894,749,0
4531833,358.05,894,746,0
4531843,358.03,894,749,0
4531853,357.55,894,747,0
4531863,356.79,894,749,0
4531873,355.86,894,747,0
4531884,354.88,894,749,0
4531894,353.84,894,747,0
4531904,352.86,894,749,0
4531914,351.83,894,746,0
4531924,350.90,894,750,0
4531934,350.03,894,747,0
4531944,349.33,894,750,0
4531954,348.72,894,746,0
4531964,348.42,894,750,0
4531974,348.46,894,747,0
4531984,349.10,894,749,0
4531994,350.35,894,746,0
4532004,353.38,894,749,0
4532014,359.05,894,746,0
4532024,369.02,894,748,0
4532034,385.00,894,745,0
4532044,408.91,894,747,0
4532064,441.81,896,745,0
4532067,480.70,896,745,0
4532076,522.53,896,743,0
4532086,564.97,896,745,0
4532097,605.39,896,743,0
4532107,641.23,896,745,0
4532117,670.05,896,743,0
4532127,690.26,896,745,0
4532137,704.41,896,744,0
4532147,714.36,896,745,0
4532157,721.28,896,743,0
4532167,726.13,896,745,0
4532177,729.47,896,744,0
4532187,731.86,896,745,0
4532197,733.53,896,743,0
4532207,732.13,896,746,0
4532217,725.49,896,744,0
4532227,712.91,896,747,0
4532237,693.27,896,745,0
4532247,666.62,896,748,0
4532257,632.83,896,746,0
4532268,592.60,896,749,0
4532278,548.83,896,747,0
4532288,504.91,896,749,0
4532298,462.51,896,748,0
4532308,424.17,896,749,0
4532318,390.65,896,748,0
4532328,363.37,896,749,0
4532338,342.34,896,748,0
4532348,328.23,896,749,0
4532358,320.10,896,747,0
4532368,317.80,896,749,0
4532378,319.83,896,747,0
4532388,325.84,896,748,0
4532398,334.03,896,747,0
4532408,343.88,896,748,0
4532418,353.77,896,747,0
4532428,363.48,896,748,0
4532439,371.57,896,747,0
4532449,378.04,896,748,0
4532459,381.88,896,747,0
4532469,383.59,896,748,0
4532480,382.64,896,747,0
4532489,380.01,896,748,0
4532499,375.55,896,748,0
4532509,370.45,896,748,0
4532519,364.66,896,748,0
4532529,359.28,896,749,0
4532539,354.22,896,748,0
4532549,350.38,896,748,0
4532559,347.31,896,748,0
4532569,345.50,896,749,0
4532579,344.45,896,748,0
4532589,344.70,896,748,0
4532599,345.56,896,748,0
4532609,347.37,896,748,0
4532619,349.40,896,748,0
4532629,352.02,896,748,0
4532639,354.59,896,748,0
4532649,357.37,896,748,0
4532659,359.70,896,748,0
4532669,361.98,896,748,0
4532679,363.91,896,748,0
4532689,365.57,896,748,0
4532699,366.47,896,748,0
4532709,367.18,896,748,0
4532719,367.30,896,748,0
4532729,367.34,896,748,0
4532739,366.94,896,748,0
4532749,366.40,896,748,0
4532759,365.77,896,748,0
4532769,365.49,896,748,0
4532780,364.92,896,748,0
4532790,364.43,896,748,0
4532800,363.61,896,748,0
4532810,363.09,896,748,0
4532820,362.29,896,749,0
4532830,361.43,896,748,0
4532840,360.19,896,748,0
4532850,359.23,896,748,0
4532860,358.90,896,748,0
4532870,359.88,896,748,0
4532880,362.78,896,748,0
4532890,369.71,896,747,0
4532900,382.48,896,747,0
4532910,402.91,896,746,0
4532920,431.95,896,745,0
4532939,468.14,875,743,0
4532942,508.68,875,746,0
4532951,550.95,875,744,0
4532961,592.02,875,744,0
4532971,629.21,875,744,0
4532981,660.22,875,745,0
4532992,683.51,875,744,0
4533001,699.77,875,744,0
4533011,711.16,875,743,0
4533021,719.12,875,745,0
4533031,724.70,875,744,0
4533041,728.60,875,744,0
4533051,731.38,875,743,0
4533061,731.95,875,745,0
4533071,728.19,875,744,0
4533081,718.58,875,746,0
4533091,702.21,875,745,0
4533101,678.57,875,747,0
4533111,647.71,875,746,0
4533121,610.04,875,748,0
4533131,567.52,875,747,0
4533141,523.09,875,749,0
4533151,479.48,875,748,0
4533161,438.53,875,750,0
4533171,401.99,875,748,0
4533181,370.79,875,750,0
4533191,345.78,875,748,0
4533201,327.03,875,750,0
4533211,314.77,875,748,0
4533221,308.45,875,749,0
4533231,307.54,875,747,0
4533241,311.07,875,749,0
4533251,318.03,875,747,0
4533261,327.07,875,749,0
4533271,337.42,875,747,0
4533281,348.09,875,749,0
4533292,357.96,875,746,0
4533302,366.55,875,749,0
4533312,373.07,875,746,0
4533322,377.38,875,749,0
4533332,379.36,875,746,0
4533342,379.30,875,749,0
4533352,377.19,875,747,0
4533362,373.49,875,749,0
4533372,368.42,875,746,0
4533382,362.81,875,750,0
4533392,357.04,875,747,0
4533402,351.58,875,750,0
4533412,346.44,875,746,0
4533422,342.15,875,749,0
4533432,339.10,875,747,0
4533442,337.40,875,749,0
4533452,336.90,875,747,0
4533463,337.40,875,750,0
4533473,338.61,875,747,0
4533483,340.74,875,749,0
4533493,343.05,875,746,0
4533504,345.52,875,750,0
4533513,347.89,875,747,0
4533523,350.20,875,749,0
4533533,352.24,875,746,0
4533543,354.18,875,749,0
4533553,355.50,875,747,0
4533563,356.76,875,750,0
4533573,357.52,875,746,0
4533583,358.01,875,749,0
4533593,358.09,875,747,0
4533603,358.15,875,750,0
4533613,358.06,875,747,0
4533623,358.30,875,750,0
4533633,358.64,875,746,0
4533643,359.56,875,749,0
4533653,360.98,875,746,0
4533663,363.09,875,749,0
4533673,365.59,875,747,0
4533683,368.63,875,749,0
4533693,371.65,875,746,0
4533703,374.93,875,749,0
4533713,377.95,875,746,0
4533723,380.92,875,749,0
4533733,383.90,875,746,0
4533743,388.05,875,749,0
4533753,394.38,875,746,0
4533763,404.89,875,748,0
4533782,421.00,843,746,0
4533785,445.30,843,747,0
4533794,476.96,843,744,0
4533804,513.49,843,745,0
4533814,552.21,843,743,0
4533824,590.89,843,745,0
4533834,626.92,843,743,0
4533844,658.23,843,745,0
4533854,682.08,843,743,0
4533864,698.81,843,745,0
4533874,710.53,843,743,0
4533884,718.72,843,745,0
4533894,724.46,843,743,0
4533904,728.53,843,745,0
4533914,731.37,843,744,0
4533924,731.13,843,746,0
4533934,726.08,843,744,0
4533944,715.21,843,746,0
4533954,697.66,843,745,0
4533964,673.55,843,748,0
4533975,642.53,843,746,0
4533985,605.43,843,748,0
4533995,564.46,843,747,0
4534005,522.53,843,749,0
4534016,481.23,843,748,0
4534025,442.85,843,750,0
4534035,407.88,843,748,0
4534045,377.70,843,750,0
4534055,352.12,843,748,0
4534065,332.20,843,749,0
4534075,317.74,843,748,0
4534085,308.90,843,750,0
4534095,304.69,843,747,0
4534105,304.83,843,749,0
4534115,308.31,843,747,0
4534125,314.81,843,749,0
4534135,322.88,843,747,0
4534145,331.79,843,749,0
4534155,340.42,843,747,0
4534165,348.57,843,749,0
4534175,355.13,843,747,0
4534185,360.15,843,748,0
4534195,362.76,843,747,0
4534205,363.47,843,749,0
4534215,361.96,843,747,0
4534225,359.02,843,749,0
4534235,354.38,843,747,0
4534245,349.34,843,749,0
4534255,343.71,843,747,0
4534265,338.44,843,749,0
4534275,333.64,843,747,0
4534285,330.06,843,749,0
4534295,327.47,843,747,0
4534305,326.26,843,749,0
4534316,325.84,843,747,0
4534326,326.74,843,749,0
4534336,328.23,843,747,0
4534346,330.52,843,748,0
4534356,332.76,843,748,0
4534366,335.24,843,749,0
4534376,337.44,843,747,0
4534386,340.05,843,748,0
4534396,341.96,843,748,0
4534406,343.77,843,749,0
4534416,344.70,843,747,0
4534426,345.47,843,748,0
4534436,345.59,843,748,0
4534446,345.63,843,749,0
4534456,344.67,843,747,0
4534466,343.82,843,749,0
4534476,342.63,843,748,0
4534487,341.89,843,749,0
4534497,341.11,843,748,0
4534507,340.65,843,748,0
4534517,340.07,843,748,0
4534528,339.96,843,748,0
4534537,339.84,843,748,0
4534547,340.11,843,748,0
4534557,340.37,843,748,0
4534567,340.86,843,748,0
4534577,341.76,843,748,0
4534587,344.10,843,748,0
4534597,348.44,843,748,0
4534607,357.05,843,747,0
4534617,371.01,843,746,0
4534627,392.73,843,746,0
4534646,423.54,864,744,0
4534649,461.57,864,744,0
4534658,503.57,864,744,0
4534668,547.24,864,744,0
4534678,589.25,864,744,0
4534688,627.66,864,744,0
4534699,659.48,864,744,0
4534708,682.95,864,744,0
4534718,699.34,864,744,0
4534728,710.85,864,744,0
4534738,718.91,864,745,0
4534748,724.59,864,744,0
4534758,728.57,864,744,0
4534768,731.36,864,745,0
4534778,730.35,864,745,0
4534788,724.37,864,745,0
4534798,711.88,864,745,0
4534808,692.63,864,746,0
4534818,665.95,864,747,0
4534828,632.67,864,747,0
4534838,592.52,864,748,0
4534848,549.17,864,748,0
4534858,504.59,864,749,0
4534868,461.47,864,748,0
4534878,420.96,864,749,0
4534888,384.84,864,749,0
4534898,353.30,864,750,0
4534908,327.46,864,749,0
4534918,307.48,864,749,0
4534928,293.58,864,749,0
4534938,285.43,864,749,0
4534948,282.60,864,748,0
4534958,284.14,864,748,0
4534968,289.37,864,748,0
4534978,297.19,864,748,0
4534988,306.86,864,748,0
4534999,317.19,864,748,0
4535009,327.29,864,748,0
4535019,336.29,864,748,0
4535029,343.87,864,747,0
4535040,349.48,864,749,0
4535049,353.07,864,748,0
4535059,354.12,864,749,0
4535069,353.35,864,747,0
4535079,350.72,864,749,0
4535089,347.07,864,748,0
4535099,342.64,864,749,0
4535109,337.82,864,748,0
4535119,333.20,864,749,0
4535129,329.58,864,748,0
4535139,326.71,864,749,0
4535149,324.87,864,748,0
4535159,323.96,864,749,0
4535169,324.10,864,748,0
4535179,325.40,864,749,0
4535189,327.47,864,747,0
4535199,330.03,864,749,0
4535209,332.98,864,747,0
4535219,336.24,864,749,0
4535229,339.68,864,747,0
4535239,342.91,864,749,0
4535249,345.81,864,747,0
4535259,348.35,864,749,0
4535269,350.60,864,747,0
4535279,352.35,864,749,0
4535289,353.70,864,747,0
4535299,354.35,864,749,0
4535309,354.72,864,748,0
4535319,354.80,864,749,0
4535329,354.56,864,747,0
4535340,354.05,864,749,0
4535350,353.39,864,747,0
4535360,352.59,864,749,0
4535370,351.85,864,747,0
4535380,351.26,864,750,0
4535390,350.58,864,747,0
4535400,350.58,864,749,0
4535410,351.18,864,747,0
4535420,353.87,864,749,0
4535430,359.91,864,746,0
4535440,371.21,864,748,0
4535450,389.62,864,745,0
4535460,417.03,864,747,0
4535479,452.42,833,744,0
4535482,493.05,833,746,0
4535491,535.89,833,743,0
4535501,578.40,833,746,0
4535511,617.84,833,743,0
4535521,651.57,833,746,0
4535531,677.37,833,744,0
4535541,695.43,833,746,0
4535552,708.12,833,743,0
4535561,717.00,833,746,0
4535571,723.25,833,743,0
4535581,727.63,833,746,0
4535591,728.60,833,744,0
4535601,724.99,833,746,0
4535611,715.22,833,744,0
4535621,698.83,833,748,0
4535631,675.31,833,745,0
4535641,645.17,833,749,0
4535651,608.52,833,746,0
4535661,567.86,833,750,0
4535671,525.26,833,747,0
4535681,483.57,833,750,0
4535691,444.31,833,747,0
4535701,408.86,833,750,0
4535711,377.45,833,748,0
4535721,351.21,833,750,0
4535731,330.53,833,747,0
4535741,315.89,833,750,0
4535751,306.58,833,747,0
4535761,302.42,833,749,0
4535771,302.85,833,746,0
4535781,307.61,833,749,0
4535791,315.10,833,746,0
4535801,324.75,833,749,0
4535811,334.99,833,746,0
4535821,345.36,833,749,0
4535831,354.72,833,746,0
4535841,362.74,833,749,0
4535852,368.43,833,746,0
4535862,372.11,833,749,0
4535872,373.02,833,747,0
4535882,372.03,833,749,0
4535892,368.98,833,746,0
4535902,364.70,833,749,0
4535912,359.35,833,747,0
4535922,353.89,833,750,0
4535932,348.22,833,746,0
4535942,343.57,833,750,0
4535952,339.63,833,747,0
4535962,337.12,833,750,0
4535972,335.59,833,747,0
4535982,335.37,833,750,0
4535992,335.81,833,747,0
4536002,337.54,833,749,0
4536012,339.61,833,746,0
4536023,342.60,833,749,0
4536033,345.33,833,747,0
4536043,348.40,833,749,0
4536053,350.98,833,746,0
4536064,353.52,833,749,0
4536073,355.29,833,747,0
4536083,357.09,833,749,0
4536093,357.92,833,746,0
4536103,358.93,833,749,0
4536113,359.38,833,747,0
4536123,359.91,833,749,0
4536133,360.32,833,746,0
4536143,360.87,833,749,0
4536153,360.86,833,747,0
4536163,361.25,833,749,0
4536173,361.05,833,747,0
4536183,360.90,833,749,0
4536193,360.63,833,747,0
4536203,360.44,833,749,0
4536213,359.80,833,747,0
4536223,359.56,833,749,0
4536233,358.96,833,747,0
4536243,359.74,833,749,0
4536253,362.01,833,746,0
4536263,367.96,833,748,0
4536273,378.82,833,746,0
4536283,397.56,833,747,0
4536302,424.90,823,744,0
4536305,460.42,823,746,0
4536314,500.54,823,744,0
4536324,543.06,823,745,0
4536334,584.70,823,744,0
4536344,623.23,823,745,0
4536354,655.69,823,744,0
4536364,680.30,823,745,0
4536374,697.48,823,744,0
4536384,709.51,823,745,0
4536394,717.93,823,744,0
4536404,723.86,823,745,0
4536414,727.98,823,744,0
4536424,730.81,823,745,0
4536434,731.21,823,744,0
4536444,727.59,823,745,0
4536454,718.41,823,744,0
4536464,703.16,823,747,0
4536474,680.87,823,746,0
4536484,651.81,823,747,0
4536494,615.99,823,747,0
4536504,575.58,823,749,0
4536514,532.85,823,748,0
4536524,490.60,823,749,0
4536535,450.39,823,748,0
4536545,414.44,823,749,0
4536555,383.24,823,749,0
4536565,358.14,823,749,0
4536576,339.20,823,749,0
4536585,326.92,823,749,0
4536595,320.60,823,748,0
4536605,319.74,823,748,0
4536615,323.07,823,748,0
4536625,330.04,823,748,0
4536635,338.98,823,747,0
4536645,349.32,823,748,0
4536655,359.46,823,747,0
4536665,368.97,823,747,0
4536675,376.56,823,747,0
4536685,382.22,823,748,0
4536695,385.33,823,747,0
4536705,386.60,823,748,0
4536715,385.43,823,748,0
4536725,382.82,823,748,0
4536735,378.63,823,748,0
4536745,373.98,823,748,0
4536755,368.80,823,748,0
4536765,364.11,823,748,0
4536775,359.57,823,748,0
4536785,355.97,823,748,0
4536795,353.11,823,748,0
4536805,351.32,823,748,0
4536815,350.62,823,748,0
4536825,351.04,823,748,0
4536835,351.97,823,748,0
4536845,353.69,823,748,0
4536855,355.58,823,748,0
4536865,357.81,823,747,0
4536876,359.97,823,748,0
4536886,362.16,823,748,0
4536896,364.00,823,748,0
4536906,365.93,823,747,0
4536916,367.11,823,748,0
4536926,368.23,823,748,0
4536936,368.81,823,748,0
4536946,369.16,823,747,0
4536956,368.51,823,748,0
4536966,367.67,823,748,0
4536976,366.27,823,748,0
4536986,364.95,823,747,0
4536996,363.59,823,749,0
4537006,362.56,823,748,0
4537016,361.45,823,748,0
4537026,360.97,823,747,0
4537036,360.81,823,749,0
4537047,360.95,823,748,0
4537057,361.05,823,748,0
4537067,361.04,823,747,0
4537077,361.28,823,749,0
4537088,362.78,823,747,0
4537097,366.79,823,748,0
4537107,374.70,823,746,0
4537117,388.80,823,747,0
4537127,411.36,823,745,0
4537146,443.14,844,743,0
4537149,481.11,844,744,0
4537158,522.61,844,746,0
4537168,564.77,844,744,0
4537178,605.25,844,745,0
4537188,641.09,844,743,0
4537198,669.73,844,745,0
4537208,690.04,844,744,0
4537218,704.30,844,745,0
4537228,714.28,844,744,0
4537238,721.27,844,746,0
4537248,726.16,844,744,0
4537259,729.63,844,745,0
4537268,730.90,844,744,0
4537278,727.84,844,746,0
4537288,719.15,844,744,0
4537298,704.06,844,747,0
4537308,682.27,844,745,0
4537318,653.69,844,749,0
4537328,618.47,844,746,0
4537338,578.17,844,749,0
4537348,535.82,844,747,0
4537358,493.66,844,750,0
4537368,453.48,844,748,0
4537378,416.48,844,750,0
4537388,383.89,844,748,0
4537398,356.54,844,750,0
4537408,335.03,844,748,0
4537418,319.64,844,750,0
4537428,310.23,844,747,0
4537438,306.39,844,750,0
4537448,307.56,844,747,0
4537458,312.88,844,749,0
4537468,321.27,844,746,0
4537478,331.56,844,749,0
4537488,342.45,844,747,0
4537498,353.12,844,749,0
4537508,362.59,844,746,0
4537518,370.39,844,749,0
4537528,375.84,844,747,0
4537538,378.89,844,749,0
4537548,379.57,844,747,0
4537559,378.24,844,750,0
4537569,375.12,844,747,0
4537579,370.93,844,750,0
4537589,365.89,844,747,0
4537600,360.78,844,750,0
4537609,355.92,844,747,0
4537619,351.79,844,750,0
4537629,348.46,844,747,0
4537639,346.27,844,750,0
4537649,345.03,844,747,0
4537659,345.02,844,750,0
4537669,345.61,844,747,0
4537679,347.10,844,750,0
4537689,349.00,844,747,0
4537699,351.44,844,750,0
4537709,353.92,844,747,0
4537719,356.52,844,749,0
4537729,358.76,844,747,0
4537739,361.02,844,749,0
4537749,362.77,844,747,0
4537759,364.21,844,749,0
4537769,365.00,844,747,0
4537779,365.47,844,749,0
4537789,365.42,844,747,0
4537799,365.12,844,749,0
4537809,364.36,844,747,0
4537819,363.56,844,749,0
4537829,362.49,844,747,0
4537839,361.57,844,749,0
4537849,360.50,844,747,0
4537859,359.62,844,750,0
4537869,358.71,844,747,0
4537879,358.11,844,749,0
4537889,357.31,844,747,0
4537900,356.66,844,749,0
4537910,355.73,844,747,0
4537920,355.25,844,749,0
4537930,355.61,844,747,0
4537940,358.51,844,749,0
4537950,364.96,844,746,0
4537960,377.44,844,747,0
4537970,397.79,844,745,0
4537990,427.94,843,743,0
4537993,465.29,843,745,0
4538002,507.03,843,745,0
4538012,550.01,843,744,0
4538022,592.00,843,745,0
4538032,629.93,843,744,0
4538042,661.32,843,745,0
4538052,684.11,843,744,0
4538062,700.11,843,745,0
4538072,711.30,843,744,0
4538082,719.14,843,745,0
4538092,724.58,843,744,0
4538102,727.07,843,745,0
4538113,724.73,843,745,0
4538123,716.03,843,746,0
4538133,699.86,843,746,0
4538143,676.33,843,747,0
4538153,645.38,843,747,0
4538163,607.81,843,748,0
4538173,565.26,843,748,0
4538183,521.00,843,749,0
4538193,477.50,843,749,0
4538203,437.28,843,749,0
4538213,401.07,843,749,0
4538223,370.40,843,749,0
4538233,345.25,843,749,0
4538243,326.41,843,749,0
4538253,313.51,843,748,0
4538263,306.84,843,749,0
4538273,305.13,843,748,0
4538284,308.52,843,748,0
4538294,315.27,843,748,0
4538304,324.79,843,748,0
4538314,335.52,843,748,0
4538324,347.07,843,747,0
4538334,357.76,843,748,0
4538344,367.47,843,748,0
4538354,374.79,843,748,0
4538364,379.91,843,747,0
4538374,382.29,843,748,0
4538384,382.59,843,748,0
4538394,380.27,843,748,0
4538404,376.25,843,748,0
4538414,370.73,843,748,0
4538424,364.73,843,748,0
4538434,358.38,843,748,0
4538444,352.82,843,748,0
4538455,347.69,843,749,0
4538465,343.84,843,748,0
4538475,341.15,843,749,0
4538485,339.90,843,748,0
4538496,339.85,843,749,0
4538505,341.13,843,748,0
4538515,342.94,843,748,0
4538525,345.78,843,748,0
4538535,349.11,843,749,0
4538545,352.76,843,748,0
4538555,356.26,843,748,0
4538565,359.70,843,747,0
4538575,362.70,843,749,0
4538585,365.45,843,748,0
4538595,367.63,843,748,0
4538605,369.24,843,748,0
4538615,370.37,843,749,0
4538625,371.03,843,748,0
4538635,370.93,843,748,0
4538645,370.48,843,748,0
4538655,369.44,843,749,0
4538665,368.02,843,748,0
4538675,366.13,843,749,0
4538685,363.90,843,748,0
4538695,361.45,843,749,0
4538705,359.26,843,748,0
4538715,357.38,843,749,0
4538725,357.01,843,748,0
4538735,359.15,843,748,0
4538745,365.79,843,747,0
4538755,378.45,843,747,0
4538765,399.36,843,745,0
4538775,429.47,843,746,0
4538795,466.95,805,744,0
4538798,508.54,805,747,0
4538807,551.49,805,744,0
4538817,592.92,805,745,0
4538827,630.48,805,744,0
4538838,661.54,805,746,0
4538847,684.39,805,744,0
4538857,700.39,805,745,0
4538867,711.63,805,744,0
4538877,719.50,805,746,0
4538887,725.05,805,744,0
4538897,726.11,805,746,0
4538907,721.40,805,744,0
4538917,709.84,805,747,0
4538927,691.24,805,745,0
4538937,665.46,805,748,0
4538947,632.92,805,746,0
4538957,594.12,805,749,0
4538967,552.68,805,747,0
4538977,510.91,805,750,0
4538987,470.69,805,747,0
4538997,433.33,805,750,0
4539008,399.93,805,748,0
4539017,371.15,805,750,0
4539027,347.49,805,748,0
4539037,329.26,805,750,0
4539047,316.54,805,747,0
4539057,309.52,805,749,0
4539067,307.78,805,747,0
4539077,310.84,805,750,0
4539087,317.66,805,746,0
4539097,327.24,805,749,0
4539107,338.22,805,747,0
4539117,349.77,805,749,0
4539127,360.77,805,746,0
4539137,370.39,805,749,0
4539147,378.03,805,747,0
4539157,383.29,805,749,0
4539167,385.86,805,746,0
4539177,385.95,805,749,0
4539187,383.69,805,747,0
4539197,379.58,805,750,0
4539207,373.97,805,747,0
4539217,367.38,805,750,0
4539227,360.41,805,747,0
4539237,353.81,805,750,0
4539247,347.70,805,747,0
4539257,342.60,805,750,0
4539267,338.69,805,747,0
4539277,336.26,805,750,0
4539287,335.11,805,747,0
4539297,335.38,805,750,0
4539308,336.63,805,747,0
4539318,338.97,805,750,0
4539328,341.90,805,747,0
4539338,345.44,805,749,0
4539348,349.08,805,747,0
4539358,352.83,805,749,0
4539368,356.18,805,747,0
4539378,359.30,805,749,0
4539388,361.82,805,747,0
4539398,364.02,805,750,0
4539408,365.47,805,747,0
4539418,366.57,805,749,0
4539428,367.04,805,747,0
4539438,367.33,805,750,0
4539448,367.10,805,747,0
4539458,366.73,805,749,0
4539468,365.78,805,747,0
4539479,364.69,805,750,0
4539489,363.45,805,747,0
4539499,363.23,805,749,0
4539509,364.71,805,747,0
4539520,370.07,805,748,0
4539529,380.55,805,746,0
4539539,398.90,805,747,0
4539549,426.40,805,744,0
4539569,461.94,774,743,0
4539572,502.16,774,746,0
4539581,544.54,774,745,0
4539591,585.99,774,744,0
4539601,624.39,774,745,0
4539611,656.68,774,744,0
4539621,680.94,774,745,0
4539631,697.89,774,744,0
4539641,709.79,774,745,0
4539651,718.17,774,744,0
4539661,724.08,774,745,0
4539671,728.21,774,744,0
4539681,730.89,774,745,0
4539692,729.38,774,745,0
4539702,722.62,774,746,0
4539712,709.36,774,745,0
4539722,689.46,774,747,0
4539732,662.53,774,747,0
4539742,629.33,774,748,0
4539752,590.02,774,748,0
4539762,548.44,774,749,0
4539772,506.35,774,749,0
4539782,466.17,774,749,0
4539792,428.62,774,749,0
4539802,395.35,774,749,0
4539812,366.40,774,749,0
4539822,343.01,774,749,0
4539832,325.09,774,749,0
4539842,313.15,774,749,0
4539852,306.51,774,748,0
4539863,305.37,774,748,0
4539873,308.34,774,748,0
4539883,315.10,774,748,0
4539893,324.11,774,748,0
4539904,334.53,774,747,0
4539913,345.05,774,748,0
4539923,355.10,774,748,0
4539933,363.56,774,748,0
4539943,370.33,774,747,0
4539953,374.56,774,748,0
4539963,376.58,774,748,0
4539973,376.32,774,748,0
4539983,374.25,774,748,0
4539993,370.45,774,748,0
4540003,365.47,774,748,0
4540013,359.59,774,749,0
4540023,353.84,774,748,0
4540033,348.19,774,748,0
4540043,343.42,774,748,0
4540053,339.52,774,749,0
4540063,337.14,774,748,0
4540073,335.98,774,748,0
4540083,336.42,774,748,0
4540093,337.70,774,749,0
4540103,339.98,774,748,0
4540113,342.73,774,748,0
4540123,345.90,774,748,0
4540133,348.97,774,748,0
4540143,352.02,774,748,0
4540153,354.46,774,748,0
4540163,356.81,774,748,0
4540173,358.58,774,748,0
4540183,360.12,774,748,0
4540193,361.03,774,748,0
4540204,361.45,774,748,0
4540214,361.40,774,749,0
4540224,361.41,774,748,0
4540234,360.99,774,749,0
4540244,360.65,774,747,0
4540254,359.90,774,749,0
4540264,359.33,774,748,0
4540274,358.67,774,749,0
4540284,358.21,774,747,0
4540294,357.51,774,749,0
4540304,356.80,774,748,0
4540314,356.17,774,749,0
4540324,356.21,774,747,0
4540334,357.90,774,749,0
4540344,362.60,774,747,0
4540354,372.15,774,747,0
4540364,389.12,774,745,0
4540375,415.44,774,747,0
4540394,450.24,826,744,0
4540397,490.49,826,746,0
4540406,533.33,826,744,0
4540417,576.26,826,746,0
4540427,616.43,826,744,0
4540437,650.80,826,745,0
4540447,676.92,826,744,0
4540457,695.20,826,746,0
4540467,708.04,826,744,0
4540477,716.98,826,745,0
4540487,723.20,826,744,0
4540497,727.56,826,746,0
4540507,730.60,826,744,0
4540517,732.69,826,745,0
4540527,731.41,826,744,0
4540537,725.25,826,747,0
4540547,713.52,826,745,0
4540557,695.32,826,747,0
4540567,670.37,826,746,0
4540577,638.67,826,749,0
4540588,600.37,826,747,0
4540598,558.77,826,749,0
4540608,516.20,826,748,0
4540618,474.40,826,750,0
4540628,435.23,826,748,0
4540638,399.94,826,750,0
4540648,369.48,826,748,0
4540658,344.91,826,750,0
4540668,325.95,826,748,0
4540678,312.89,826,750,0
4540688,305.25,826,747,0
4540698,302.99,826,750,0
4540708,305.01,826,747,0
4540718,310.75,826,749,0
4540728,318.62,826,747,0
4540738,328.55,826,749,0
4540748,338.97,826,747,0
4540759,349.22,826,749,0
4540769,357.81,826,747,0
4540779,365.03,826,749,0
4540789,369.60,826,747,0
4540800,372.34,826,748,0
4540809,372.28,826,747,0
4540819,370.31,826,749,0
4540829,366.53,826,748,0
4540839,361.91,826,749,0
4540849,356.50,826,748,0
4540859,351.38,826,749,0
4540869,346.08,826,748,0
4540879,341.85,826,749,0
4540889,338.51,826,748,0
4540899,336.52,826,749,0
4540909,335.29,826,748,0
4540919,335.07,826,749,0
4540929,335.39,826,747,0
4540939,336.86,826,750,0
4540949,338.62,826,747,0
4540959,340.92,826,749,0
4540969,343.09,826,748,0
4540979,345.63,826,749,0
4540989,347.84,826,747,0
4540999,350.16,826,749,0
4541009,351.91,826,748,0
4541019,353.57,826,749,0
4541029,354.55,826,747,0
4541039,355.50,826,749,0
4541049,355.82,826,748,0
4541059,356.13,826,749,0
4541069,355.88,826,748,0
4541079,355.44,826,749,0
4541089,354.41,826,748,0
4541100,353.47,826,749,0
4541110,352.13,826,748,0
4541120,351.15,826,749,0
4541130,349.99,826,748,0
4541140,349.22,826,749,0
4541150,348.43,826,748,0
4541160,348.17,826,749,0
4541170,347.78,826,748,0
4541180,348.10,826,749,0
4541190,348.63,826,748,0
4541200,350.67,826,748,0
4541210,355.35,826,747,0
4541220,365.15,826,748,0
4541230,381.39,826,746,0
4541240,406.77,826,746,0
4541259,440.83,865,744,0
4541262,480.95,865,745,0
4541271,524.16,865,744,0
4541281,567.79,865,745,0
4541291,608.65,865,744,0
4541301,644.50,865,745,0
4541312,672.46,865,745,0
4541321,692.08,865,745,0
4541331,705.77,865,744,0
4541341,715.35,865,745,0
4541351,722.06,865,745,0
4541361,726.80,865,745,0
4541371,730.07,865,744,0
4541381,732.37,865,745,0
4541391,731.66,865,745,0
4541401,726.62,865,746,0
4541411,715.42,865,745,0
4541421,697.55,865,747,0
4541431,672.44,865,747,0
4541441,640.81,865,748,0
4541451,602.55,865,747,0
4541461,560.69,865,749,0
4541471,517.19,865,749,0
4541481,474.96,865,749,0
4541491,435.42,865,749,0
4541501,400.24,865,749,0
4541511,369.48,865,749,0
4541521,344.31,865,749,0
4541531,324.76,865,749,0
4541541,311.33,865,749,0
4541551,303.47,865,749,0
4541561,300.93,865,748,0
4541571,302.75,865,748,0
4541581,308.61,865,748,0
4541591,317.04,865,748,0
4541601,327.27,865,748,0
4541612,337.86,865,748,0
4541622,348.28,865,748,0
4541632,357.32,865,748,0
4541642,364.60,865,748,0
4541652,369.26,865,748,0
4541662,371.71,865,748,0
4541672,371.63,865,749,0
4541682,369.51,865,748,0
4541692,365.33,865,749,0
4541702,359.92,865,748,0
4541712,353.77,865,749,0
4541722,347.71,865,748,0
4541732,341.71,865,749,0
4541742,336.53,865,748,0
4541752,332.38,865,749,0
4541762,329.87,865,748,0
4541772,328.62,865,749,0
4541783,328.69,865,748,0
4541793,329.73,865,750,0
4541803,331.87,865,747,0
4541813,334.65,865,749,0
4541824,337.84,865,747,0
4541833,340.93,865,749,0
4541843,344.08,865,747,0
4541853,346.93,865,749,0
4541863,349.44,865,747,0
4541873,351.40,865,749,0
4541883,352.87,865,747,0
4541893,353.89,865,749,0
4541903,354.48,865,747,0
4541913,354.60,865,750,0
4541923,354.42,865,748,0
4541933,353.95,865,750,0
4541943,353.19,865,747,0
4541953,352.28,865,749,0
4541963,351.34,865,748,0
4541973,350.34,865,750,0
4541983,349.38,865,748,0
4541993,348.45,865,750,0
4542003,347.63,865,748,0
4542013,347.01,865,750,0
4542023,346.58,865,748,0
4542033,346.23,865,750,0
4542043,346.16,865,747,0
4542053,346.20,865,750,0
4542063,346.35,865,747,0
4542073,346.55,865,750,0
4542083,346.81,865,748,0
4542093,347.13,865,750,0
4542103,347.69,865,747,0
4542113,349.32,865,750,0
4542124,353.60,865,747,0
4542134,362.42,865,749,0
4542144,377.98,865,745,0
4542154,402.59,865,747,0
4542174,436.44,914,745,0
4542177,476.51,914,746,0
4542186,519.94,914,744,0
4542196,563.97,914,746,0
4542206,605.64,914,744,0
4542216,642.13,914,746,0
4542226,670.64,914,743,0
4542236,690.63,914,746,0
4542246,704.67,914,744,0
4542256,714.54,914,746,0
4542266,721.41,914,743,0
4542276,726.26,914,746,0
4542286,729.69,914,744,0
4542296,732.19,914,746,0
4542306,732.26,914,744,0
4542316,727.60,914,747,0
4542326,716.49,914,745,0
4542337,698.38,914,748,0
4542347,672.81,914,746,0
4542357,640.17,914,749,0
4542367,600.56,914,747,0
4542377,556.59,914,750,0
4542387,511.59,914,747,0
4542397,468.42,914,750,0
4542407,428.70,914,748,0
4542417,394.20,914,750,0
4542427,365.34,914,748,0
4542437,342.91,914,750,0
4542447,326.61,914,748,0
4542457,316.87,914,750,0
4542467,312.71,914,747,0
4542477,313.91,914,749,0
4542487,318.91,914,747,0
4542497,327.29,914,749,0
4542508,337.32,914,747,0
4542518,348.37,914,749,0
4542528,358.59,914,747,0
4542538,368.01,914,748,0
4542548,375.25,914,747,0
4542558,380.57,914,749,0
4542568,382.80,914,748,0
4542578,382.90,914,749,0
4542588,380.62,914,748,0
4542598,376.62,914,749,0
4542608,370.78,914,748,0
4542618,363.94,914,749,0
4542628,356.33,914,748,0
4542638,349.12,914,750,0
4542648,342.01,914,748,0
4542658,336.01,914,749,0
4542668,331.03,914,748,0
4542679,327.72,914,749,0
4542689,325.71,914,749,0
4542699,325.28,914,749,0
4542709,325.88,914,748,0
4542720,328.02,914,749,0
4542729,330.80,914,748,0
4542739,334.54,914,749,0
4542749,338.37,914,748,0
4542759,342.54,914,749,0
4542769,346.19,914,748,0
4542779,349.78,914,749,0
4542789,352.59,914,748,0
4542799,355.07,914,749,0
4542809,356.68,914,748,0
4542819,357.85,914,749,0
4542829,358.41,914,748,0
4542839,358.76,914,749,0
4542849,358.49,914,748,0
4542859,358.13,914,749,0
4542869,357.10,914,748,0
4542879,355.96,914,749,0
4542889,354.43,914,749,0
4542899,353.14,914,749,0
4542909,351.51,914,748,0
4542919,350.25,914,749,0
4542929,348.80,914,749,0
4542939,347.83,914,749,0
4542949,346.98,914,748,0
4542959,346.34,914,749,0
4542969,345.47,914,749,0
4542979,345.03,914,749,0
4542989,344.68,914,748,0
4542999,345.16,914,749,0
4543009,346.95,914,748,0
4543020,351.64,914,748,0
4543030,361.09,914,747,0
4543040,377.56,914,747,0
4543050,402.81,914,746,0
4543060,437.19,914,745,0
4543079,477.55,906,744,0
4543082,521.10,906,745,0
4543091,565.04,906,745,0
4543101,606.60,906,744,0
4543111,642.81,906,745,0
4543121,671.32,906,744,0
4543131,691.28,906,745,0
4543141,705.25,906,744,0
4543151,715.08,906,745,0
4543161,721.95,906,745,0
4543171,726.77,906,745,0
4543181,730.14,906,744,0
4543191,732.45,906,745,0
4543201,731.29,906,745,0
4543211,724.56,906,746,0
4543221,711.15,906,746,0
4543232,689.98,906,748,0
4543241,661.44,906,747,0
4543251,625.57,906,749,0
4543261,583.18,906,748,0
4543271,537.96,906,750,0
4543281,493.01,906,749,0
4543291,450.84,906,750,0
4543301,413.51,906,748,0
4543311,381.69,906,750,0
4543321,356.37,906,748,0
4543331,337.66,906,750,0
4543341,325.46,906,748,0
4543351,319.41,906,750,0
4543361,318.73,906,748,0
4543371,322.62,906,749,0
4543381,330.11,906,747,0
4543391,339.93,906,749,0
4543401,351.05,906,746,0
4543411,362.18,906,748,0
4543421,372.63,906,747,0
4543431,381.31,906,749,0
4543441,387.90,906,746,0
4543451,392.09,906,749,0
4543461,393.86,906,747,0
4543471,393.17,906,749,0
4543481,390.08,906,747,0
4543491,384.87,906,749,0
4543501,378.27,906,748,0
4543511,370.51,906,749,0
4543521,362.39,906,747,0
4543532,354.22,906,750,0
4543542,346.56,906,748,0
4543552,340.01,906,750,0
4543562,334.65,906,747,0
4543572,330.77,906,750,0
4543582,328.52,906,747,0
4543592,327.68,906,750,0
4543602,328.33,906,747,0
4543612,330.29,906,750,0
4543622,333.42,906,747,0
4543632,337.58,906,749,0
4543642,342.20,906,746,0
4543652,347.24,906,750,0
4543662,352.14,906,747,0
4543672,356.77,906,749,0
4543682,360.65,906,747,0
4543692,364.06,906,750,0
4543703,366.44,906,747,0
4543713,368.07,906,750,0
4543723,368.56,906,746,0
4543733,368.48,906,750,0
4543744,367.69,906,747,0
4543753,366.67,906,750,0
4543763,365.01,906,747,0
4543773,363.38,906,750,0
4543783,361.64,906,747,0
4543793,360.16,906,750,0
4543803,358.66,906,747,0
4543813,357.30,906,750,0
4543823,356.01,906,747,0
4543833,355.06,906,750,0
4543843,354.66,906,747,0
4543853,356.05,906,750,0
4543863,360.58,906,747,0
4543873,370.05,906,749,0
4543883,386.45,906,745,0
4543893,412.03,906,747,0
4543903,446.39,906,744,0
4543913,486.52,906,746,0
4543932,529.39,853,745,0
4543935,572.34,853,746,0
4543944,612.70,853,744,0
4543954,647.76,853,746,0
4543964,674.75,853,744,0
4543974,693.64,853,746,0
4543984,706.90,853,744,0
4543994,716.23,853,746,0
4544004,722.68,853,744,0
4544014,727.19,853,746,0
4544024,730.35,853,744,0
4544034,732.60,853,746,0
4544044,731.18,853,744,0
4544054,724.27,853,747,0
4544064,710.47,853,745,0
4544074,689.54,853,748,0
4544084,661.22,853,746,0
4544094,626.19,853,749,0
4544104,584.56,853,747,0
4544114,540.38,853,750,0
4544124,496.34,853,748,0
4544134,455.31,853,750,0
4544144,418.70,853,748,0
4544154,387.76,853,750,0
4544164,362.55,853,748,0
4544174,344.04,853,750,0
4544184,331.60,853,748,0
4544194,325.38,853,750,0
4544204,324.36,853,747,0
4544215,327.81,853,749,0
4544225,334.60,853,747,0
4544235,343.97,853,749,0
4544245,354.53,853,747,0
4544256,365.64,853,749,0
4544265,375.82,853,747,0
4544275,384.66,853,749,0
4544285,391.28,853,747,0
4544295,395.44,853,749,0
4544305,396.89,853,747,0
4544315,395.81,853,749,0
4544325,392.10,853,747,0
4544335,386.88,853,750,0
4544345,379.93,853,748,0
4544355,372.45,853,750,0
4544365,364.52,853,748,0
4544375,357.12,853,749,0
4544385,350.18,853,748,0
4544395,344.64,853,750,0
4544405,340.12,853,748,0
4544415,337.30,853,749,0
4544425,335.67,853,748,0
4544435,335.72,853,750,0
4544445,336.62,853,747,0
4544455,338.88,853,749,0
4544465,341.79,853,748,0
4544475,345.32,853,749,0
4544485,348.82,853,747,0
4544495,352.39,853,749,0
4544505,355.49,853,747,0
4544515,358.51,853,749,0
4544525,360.89,853,747,0
4544535,362.94,853,749,0
4544545,364.24,853,748,0
4544556,365.54,853,749,0
4544566,366.02,853,748,0
4544576,366.44,853,749,0
4544586,366.14,853,748,0
4544596,365.80,853,749,0
4544606,364.83,853,748,0
4544616,363.85,853,749,0
4544626,362.27,853,748,0
4544636,360.90,853,749,0
4544646,359.52,853,748,0
4544656,359.02,853,749,0
4544666,359.87,853,748,0
4544676,364.20,853,748,0
4544686,373.35,853,747,0
4544696,389.92,853,747,0
4544706,415.27,853,745,0
4544726,449.35,793,743,0
4544729,489.06,793,745,0
4544738,531.73,793,744,0
4544748,574.32,793,745,0
4544758,614.34,793,745,0
4544769,648.74,793,745,0
4544779,675.52,793,744,0
4544789,694.26,793,745,0
4544799,707.38,793,745,0
4544809,716.57,793,745,0
4544819,723.00,793,744,0
4544829,727.50,793,745,0
4544839,730.65,793,745,0
4544849,732.38,793,746,0
4544859,730.94,793,745,0
4544869,724.14,793,746,0
4544879,711.11,793,746,0
4544889,691.19,793,747,0
4544899,664.65,793,747,0
4544909,631.54,793,748,0
4544919,592.94,793,748,0
4544929,551.30,793,749,0
4544940,509.98,793,748,0
4544950,470.56,793,750,0
4544960,434.60,793,748,0
4544970,402.84,793,750,0
4544980,376.19,793,748,0
4544990,354.92,793,750,0
4545000,339.34,793,748,0
4545010,329.12,793,750,0
4545020,324.12,793,747,0
4545030,323.74,793,749,0
4545040,327.20,793,747,0
4545050,333.66,793,749,0
4545060,341.99,793,746,0
4545070,351.16,793,749,0
4545080,360.37,793,747,0
4545090,368.75,793,749,0
4545100,375.81,793,747,0
4545111,381.01,793,749,0
4545121,383.83,793,747,0
4545131,384.53,793,750,0
4545141,383.08,793,747,0
4545152,379.72,793,750,0
4545161,374.87,793,747,0
4545171,369.00,793,750,0
4545181,362.57,793,747,0
4545191,356.23,793,750,0
4545201,350.20,793,748,0
4545211,345.04,793,750,0
4545221,340.79,793,747,0
4545231,337.81,793,750,0
4545241,335.81,793,747,0
4545251,334.92,793,750,0
4545261,335.03,793,747,0
4545271,336.22,793,750,0
4545281,338.04,793,747,0
4545291,340.64,793,750,0
4545301,343.54,793,747,0
4545311,346.80,793,750,0
4545321,350.03,793,747,0
4545331,353.11,793,750,0
4545341,355.65,793,747,0
4545351,357.85,793,750,0
4545361,359.31,793,747,0
4545371,360.20,793,750,0
4545381,360.40,793,747,0
4545391,360.24,793,750,0
4545401,359.65,793,747,0
4545411,358.94,793,750,0
4545421,357.93,793,747,0
4545431,356.92,793,750,0
4545441,355.70,793,747,0
4545452,354.59,793,750,0
4545462,353.26,793,747,0
4545472,352.02,793,750,0
4545482,350.69,793,747,0
4545492,350.27,793,750,0
4545502,351.22,793,747,0
4545512,355.48,793,750,0
4545522,364.55,793,746,0
4545532,380.93,793,748,0
4545542,405.64,793,745,0
4545561,439.73,836,743,0
4545564,479.63,836,746,0
4545573,522.85,836,746,0
4545583,566.27,836,744,0
4545593,607.24,836,746,0
4545603,642.83,836,744,0
4545613,671.29,836,746,0
4545623,691.26,836,744,0
4545633,705.28,836,745,0
4545643,715.10,836,744,0
4545653,721.97,836,746,0
4545664,726.78,836,744,0
4545673,730.14,836,746,0
4545683,731.52,836,744,0
4545693,729.13,836,746,0
4545703,721.38,836,745,0
4545713,707.85,836,747,0
4545723,687.84,836,746,0
4545733,661.53,836,748,0
4545743,628.89,836,747,0
4545753,591.72,836,749,0
4545763,552.03,836,747,0
4545773,512.42,836,750,0
4545783,473.85,836,748,0
4545793,438.24,836,750,0
4545803,406.07,836,748,0
4545813,378.40,836,750,0
4545823,354.93,836,748,0
4545833,336.61,836,750,0
4545843,323.44,836,748,0
4545853,315.55,836,750,0
4545863,312.04,836,747,0
4545873,312.97,836,749,0
4545883,317.14,836,747,0
4545893,324.17,836,749,0
4545903,332.86,836,747,0
4545913,342.42,836,749,0
4545923,351.72,836,747,0
4545933,360.42,836,749,0
4545943,367.19,836,747,0
4545953,372.24,836,749,0
4545964,374.99,836,747,0
4545974,375.68,836,749,0
4545984,374.02,836,748,0
4545994,370.80,836,749,0
4546004,366.06,836,748,0
4546014,360.81,836,750,0
4546024,354.95,836,748,0
4546034,349.40,836,749,0
4546044,344.22,836,748,0
4546054,340.17,836,750,0
4546064,336.95,836,748,0
4546074,335.08,836,749,0
4546084,334.03,836,748,0
4546094,334.70,836,749,0
4546104,335.95,836,748,0
4546114,337.98,836,749,0
4546124,340.13,836,748,0
4546135,342.88,836,749,0
4546145,345.36,836,748,0
4546155,347.95,836,749,0
4546165,349.55,836,748,0
4546176,351.10,836,749,0
4546185,352.06,836,748,0
4546195,352.94,836,749,0
4546205,353.04,836,748,0
4546215,353.07,836,749,0
4546225,352.58,836,748,0
4546235,352.23,836,749,0
4546245,351.56,836,748,0
4546255,351.09,836,749,0
4546265,350.29,836,748,0
4546275,349.78,836,749,0
4546285,349.07,836,748,0
4546295,348.67,836,749,0
4546305,348.12,836,748,0
4546315,348.09,836,749,0
4546325,347.93,836,748,0
4546335,348.55,836,749,0
4546345,349.89,836,748,0
4546355,353.56,836,749,0
4546365,360.55,836,748,0
4546375,373.20,836,748,0
4546385,392.55,836,746,0
4546404,420.55,843,744,0
4546407,456.25,843,747,0
4546416,497.02,843,745,0
4546426,539.66,843,745,0
4546436,581.80,843,745,0
4546446,620.30,843,744,0
4546456,653.17,843,745,0
4546466,678.49,843,745,0
4546476,696.26,843,745,0
4546486,708.69,843,744,0
4546496,717.44,843,745,0
4546506,723.57,843,745,0
4546516,727.90,843,745,0
4546526,730.24,843,745,0
4546536,728.97,843,746,0
4546546,722.16,843,746,0
4546556,709.34,843,746,0
4546566,689.83,843,746,0
4546576,663.74,843,747,0
4546586,631.03,843,748,0
4546596,593.09,843,748,0
4546606,552.31,843,748,0
4546616,511.54,843,749,0
4546626,472.08,843,749,0
4546636,435.67,843,749,0
4546647,402.90,843,749,0
4546657,375.03,843,749,0
4546667,352.13,843,750,0
4546677,334.52,843,749,0
4546688,322.24,843,749,0
4546697,315.14,843,749,0
4546707,312.65,843,749,0
4546717,314.30,843,748,0
4546727,319.01,843,748,0
4546737,325.95,843,748,0
4546747,334.28,843,749,0
4546757,343.28,843,748,0
4546767,351.94,843,748,0
4546777,359.80,843,748,0
4546787,366.16,843,749,0
4546797,370.61,843,748,0
4546807,372.96,843,749,0
4546817,373.44,843,748,0
4546827,371.98,843,749,0
4546837,369.11,843,748,0
4546847,365.01,843,749,0
4546857,360.16,843,748,0
4546867,355.06,843,749,0
4546877,350.15,843,748,0
4546887,345.48,843,749,0
4546897,341.48,843,748,0
4546907,338.42,843,749,0
4546917,336.32,843,748,0
4546927,335.41,843,749,0
4546937,335.80,843,748,0
4546947,337.06,843,749,0
4546957,339.36,843,748,0
4546967,342.04,843,749,0
4546977,344.90,843,748,0
4546988,347.71,843,750,0
4546998,350.46,843,747,0
4547008,352.55,843,749,0
4547018,354.36,843,748,0
4547028,355.49,843,750,0
4547038,356.29,843,747,0
4547048,356.54,843,750,0
4547058,356.42,843,748,0
4547068,355.95,843,750,0
4547078,355.24,843,748,0
4547088,354.35,843,750,0
4547098,353.39,843,748,0
4547108,352.54,843,750,0
4547118,351.78,843,747,0
4547128,351.08,843,750,0
4547138,350.11,843,748,0
4547148,349.22,843,750,0
4547159,348.30,843,747,0
4547169,347.56,843,750,0
4547179,346.80,843,747,0
4547189,346.26,843,750,0
4547200,345.88,843,747,0
4547209,346.17,843,750,0
4547219,347.24,843,747,0
4547229,349.69,843,750,0
4547239,354.50,843,747,0
4547249,363.09,843,749,0
4547259,377.21,843,746,0
4547269,398.87,843,748,0
4547289,429.17,884,745,0
4547292,466.40,884,747,0
4547301,507.68,884,744,0
4547311,550.29,884,746,0
4547321,591.69,884,744,0
4547331,629.28,884,746,0
4547341,660.53,884,744,0
4547351,683.68,884,746,0
4547361,699.89,884,744,0
4547372,711.24,884,746,0
4547382,719.18,884,744,0
4547392,724.74,884,746,0
4547402,728.63,884,744,0
4547412,729.30,884,746,0
4547422,725.18,884,745,0
4547432,715.36,884,747,0
4547442,698.41,884,746,0
4547452,674.58,884,748,0
4547462,643.81,884,747,0
4547472,607.01,884,749,0
4547482,566.29,884,748,0
4547492,524.50,884,750,0
4547502,483.17,884,748,0
4547512,444.85,884,750,0
4547522,410.26,884,748,0
4547532,380.66,884,750,0
4547543,355.99,884,749,0
4547553,337.39,884,750,0
4547563,324.16,884,748,0
4547573,316.74,884,749,0
4547584,314.25,884,748,0
4547593,316.23,884,749,0
4547603,321.60,884,748,0
4547613,329.48,884,749,0
4547623,338.46,884,748,0
4547633,348.05,884,749,0
4547643,356.87,884,748,0
4547653,364.79,884,749,0
4547663,370.73,884,748,0
4547673,374.79,884,749,0
4547683,376.36,884,748,0
4547693,375.91,884,749,0
4547703,373.28,884,748,0
4547713,369.64,884,750,0
4547723,364.60,884,748,0
4547733,359.24,884,750,0
4547743,353.42,884,748,0
4547753,348.11,884,749,0
4547763,343.19,884,748,0
4547773,339.45,884,749,0
4547783,336.31,884,748,0
4547793,334.42,884,749,0
4547803,333.61,884,748,0
4547813,334.11,884,749,0
4547823,335.28,884,748,0
4547833,337.47,884,749,0
4547843,339.90,884,748,0
4547853,343.06,884,749,0
4547863,346.13,884,748,0
4547873,349.13,884,749,0
4547884,351.58,884,748,0
4547894,354.10,884,749,0
4547904,355.96,884,748,0
4547914,357.73,884,749,0
4547924,358.58,884,749,0
4547934,359.26,884,749,0
4547944,359.23,884,748,0
4547954,359.07,884,749,0
4547964,358.28,884,749,0
4547974,357.47,884,749,0
4547984,356.34,884,748,0
4547994,355.42,884,749,0
4548004,354.57,884,749,0
4548014,354.06,884,749,0
4548024,353.52,884,748,0
4548034,353.20,884,749,0
4548044,352.71,884,749,0
4548055,352.28,884,749,0
4548065,351.73,884,749,0
4548075,351.68,884,749,0
4548085,352.93,884,749,0
4548096,356.81,884,748,0
4548105,364.71,884,747,0
4548115,378.64,884,747,0
4548125,400.13,884,747,0
4548135,430.95,884,745,0
4548154,468.59,866,744,0
4548157,510.16,866,745,0
4548166,552.75,866,746,0
4548176,594.01,866,744,0
4548186,631.17,866,745,0
4548196,662.10,866,745,0
4548206,684.74,866,746,0
4548216,700.63,866,744,0
4548226,711.72,866,745,0
4548236,719.52,866,745,0
4548246,724.97,866,746,0
4548256,727.85,866,745,0
4548267,726.05,866,746,0
4548276,718.67,866,746,0
4548286,704.75,866,747,0
4548296,683.87,866,746,0
4548306,655.79,866,749,0
4548316,621.14,866,748,0
4548326,581.24,866,750,0
4548336,539.30,866,748,0
4548346,497.29,866,750,0
4548356,457.39,866,749,0
4548366,420.89,866,750,0
4548376,389.04,866,749,0
4548386,362.20,866,750,0
4548396,341.22,866,749,0
4548406,325.94,866,750,0
4548416,316.15,866,748,0
4548426,311.39,866,750,0
4548436,311.40,866,748,0
4548446,315.35,866,749,0
4548456,322.27,866,748,0
4548466,330.93,866,749,0
4548476,340.47,866,747,0
4548486,350.27,866,749,0
4548496,359.45,866,747,0
4548506,366.98,866,749,0
4548516,372.69,866,747,0
4548526,376.21,866,749,0
4548536,377.65,866,748,0
4548546,376.98,866,750,0
4548556,374.33,866,747,0
4548567,370.07,866,750,0
4548577,365.04,866,748,0
4548587,359.41,866,750,0
4548597,353.72,866,748,0
4548608,348.14,866,751,0
4548617,343.34,866,748,0
4548627,339.38,866,750,0
4548637,336.31,866,747,0
4548647,334.25,866,750,0
4548657,333.14,866,748,0
4548667,333.10,866,750,0
4548677,333.80,866,747,0
4548687,335.32,866,750,0
4548697,337.41,866,748,0
