Time,PPG,IBI,GSR,GSR_Event
3957099,277.25,622,748,0
3957109,265.99,622,750,0
3957120,260.38,622,749,0
3957129,260.39,622,750,0
3957139,265.55,622,749,0
3957149,274.98,622,749,0
3957159,287.37,622,749,0
3957169,303.20,622,750,0
3957179,321.96,622,749,0
3957189,340.18,622,750,0
3957199,355.99,622,749,0
3957209,368.46,622,750,0
3957219,376.72,622,749,0
3957229,380.96,622,749,0
3957239,381.23,622,749,0
3957249,378.20,622,750,0
3957259,372.49,622,749,0
3957269,365.05,622,750,0
3957279,356.25,622,749,0
3957289,347.18,622,750,0
3957299,338.21,622,749,0
3957309,330.30,622,750,0
3957319,323.48,622,749,0
3957329,318.24,622,750,0
3957339,314.35,622,749,0
3957349,312.02,622,750,0
3957359,310.94,622,749,0
3957369,311.22,622,750,0
3957379,312.52,622,749,0
3957389,314.77,622,750,0
3957399,317.79,622,749,0
3957409,322.31,622,750,0
3957420,328.90,622,749,0
3957430,339.18,622,750,0
3957440,354.77,622,749,0
3957450,377.68,622,750,0
3957460,409.83,622,749,0
3957470,449.01,622,749,0
3957480,492.25,622,749,0
3957490,537.09,622,750,0
3957500,580.69,622,749,0
3957519,620.34,653,749,0
3957522,653.37,653,752,0
3957531,677.60,653,751,0
3957541,694.65,653,751,0
3957551,706.63,653,751,0
3957561,715.05,653,751,0
3957571,721.04,653,751,0
3957581,725.31,653,751,0
3957591,728.35,653,751,0
3957601,730.43,653,751,0
3957611,731.89,653,752,0
3957621,732.91,653,751,0
3957632,733.62,653,751,0
3957641,733.31,653,751,0
3957651,728.76,653,751,0
3957661,717.43,653,751,0
3957671,698.14,653,751,0
3957681,670.63,653,751,0
3957691,634.87,653,752,0
3957701,591.02,653,751,0
3957711,541.13,653,752,0
3957721,489.36,653,751,0
3957731,440.10,653,752,0
3957741,395.32,653,751,0
3957751,357.04,653,752,0
3957761,326.04,653,751,0
3957771,303.53,653,752,0
3957781,288.84,653,751,0
3957791,281.86,653,751,0
3957801,280.87,653,751,0
3957811,285.28,653,752,0
3957821,293.04,653,751,0
3957831,303.44,653,751,0
3957841,314.54,653,751,0
3957851,325.73,653,752,0
3957861,335.59,653,751,0
3957871,344.02,653,751,0
3957881,350.23,653,751,0
3957891,354.53,653,752,0
3957901,356.43,653,751,0
3957911,356.82,653,751,0
3957921,355.24,653,751,0
3957932,352.90,653,751,0
3957942,349.29,653,751,0
3957952,345.60,653,751,0
3957962,341.61,653,751,0
3957972,338.08,653,751,0
3957982,334.63,653,751,0
3957992,332.21,653,751,0
3958002,330.13,653,751,0
3958012,329.49,653,751,0
3958022,329.22,653,751,0
3958032,330.09,653,751,0
3958042,331.35,653,751,0
3958052,333.43,653,751,0
3958062,335.45,653,751,0
3958072,337.80,653,751,0
3958082,339.44,653,751,0
3958092,341.37,653,751,0
3958103,342.67,653,751,0
3958113,344.66,653,751,0
3958123,347.54,653,751,0
3958133,353.51,653,751,0
3958144,364.03,653,751,0
3958153,381.72,653,751,0
3958163,407.99,653,751,0
3958173,443.09,653,751,0
3958193,483.52,673,750,0
3958196,526.87,673,751,0
3958205,570.02,673,751,0
3958215,610.43,673,751,0
3958225,645.23,673,751,0
3958235,672.20,673,751,0
3958245,691.08,673,751,0
3958255,704.30,673,751,0
3958265,713.55,673,751,0
3958275,720.03,673,751,0
3958285,724.56,673,751,0
3958295,727.78,673,751,0
3958305,730.03,673,751,0
3958316,731.65,673,751,0
3958326,732.78,673,751,0
3958336,733.62,673,751,0
3958346,734.21,673,751,0
3958356,734.66,673,751,0
3958366,732.75,673,751,0
3958376,725.32,673,751,0
3958386,710.14,673,752,0
3958396,686.14,673,751,0
3958406,653.40,673,751,0
3958416,612.31,673,751,0
3958426,563.57,673,752,0
3958436,510.60,673,751,0
3958446,458.05,673,752,0
3958456,409.43,673,751,0
3958466,367.09,673,752,0
3958476,332.22,673,751,0
3958487,305.50,673,751,0
3958497,287.09,673,751,0
3958507,276.43,673,752,0
3958517,272.23,673,751,0
3958528,273.53,673,751,0
3958537,278.95,673,751,0
3958547,286.93,673,752,0
3958557,296.38,673,751,0
3958567,305.74,673,751,0
3958577,314.17,673,751,0
3958587,321.06,673,752,0
3958597,325.72,673,751,0
3958607,328.29,673,751,0
3958617,328.84,673,751,0
3958627,327.43,673,752,0
3958637,324.52,673,751,0
3958647,320.51,673,751,0
3958657,315.85,673,751,0
3958667,311.18,673,752,0
3958677,306.33,673,751,0
3958687,301.77,673,751,0
3958697,297.56,673,751,0
3958707,294.13,673,751,0
3958717,291.43,673,751,0
3958727,289.59,673,751,0
3958737,288.43,673,751,0
3958747,288.26,673,752,0
3958757,288.74,673,751,0
3958767,289.89,673,752,0
3958777,291.51,673,751,0
3958787,293.24,673,752,0
3958797,294.93,673,751,0
3958807,296.75,673,752,0
3958817,298.15,673,751,0
3958828,299.44,673,752,0
3958838,300.20,673,751,0
3958848,300.83,673,752,0
3958858,301.74,673,751,0
3958868,304.22,673,751,0
3958878,308.87,673,751,0
3958888,318.08,673,752,0
3958898,332.88,673,750,0
3958908,355.80,673,751,0
3958918,387.06,673,750,0
3958928,427.03,673,751,0
3958947,471.76,755,750,0
3958950,518.51,755,751,0
3958959,563.95,755,750,0
3958969,605.84,755,751,0
3958979,641.37,755,751,0
3958989,669.42,755,751,0
3958999,689.09,755,750,0
3959009,702.87,755,751,0
3959019,712.51,755,751,0
3959029,719.25,755,751,0
3959040,720.85,755,751,0
3959049,716.61,755,751,0
3959059,705.37,755,751,0
3959069,686.87,755,751,0
3959079,660.77,755,751,0
3959089,628.01,755,751,0
3959099,588.45,755,751,0
3959109,546.10,755,752,0
3959119,502.36,755,751,0
3959129,460.03,755,752,0
3959139,420.21,755,751,0
3959149,384.49,755,752,0
3959159,352.71,755,751,0
3959169,325.97,755,752,0
3959179,304.17,755,751,0
3959189,287.87,755,752,0
3959199,276.34,755,751,0
3959209,269.64,755,752,0
3959219,266.75,755,751,0
3959229,267.55,755,752,0
3959239,270.90,755,751,0
3959249,276.37,755,751,0
3959259,282.90,755,750,0
3959269,290.35,755,751,0
3959279,297.36,755,751,0
3959289,304.06,755,751,0
3959299,309.23,755,750,0
3959309,313.23,755,752,0
3959319,315.26,755,751,0
3959329,315.96,755,751,0
3959340,314.68,755,751,0
3959350,312.29,755,752,0
3959360,308.35,755,751,0
3959370,303.96,755,751,0
3959380,298.91,755,751,0
3959390,294.05,755,751,0
3959400,288.85,755,751,0
3959410,284.10,755,751,0
3959420,279.57,755,751,0
3959430,275.97,755,752,0
3959440,272.94,755,751,0
3959450,270.77,755,751,0
3959460,269.00,755,751,0
3959470,268.10,755,751,0
3959480,267.30,755,751,0
3959490,267.29,755,751,0
3959500,267.29,755,751,0
3959511,267.72,755,751,0
3959521,268.06,755,751,0
3959531,268.98,755,751,0
3959541,269.76,755,751,0
3959552,271.08,755,751,0
3959561,272.00,755,751,0
3959571,273.45,755,751,0
3959581,274.39,755,751,0
3959591,275.30,755,751,0
3959601,275.34,755,751,0
3959611,275.58,755,751,0
3959621,275.83,755,751,0
3959631,277.04,755,751,0
3959641,279.26,755,751,0
3959651,284.24,755,751,0
3959661,292.78,755,751,0
3959671,306.82,755,751,0
3959681,326.24,755,751,0
3959691,352.06,755,751,0
3959701,383.37,755,751,0
3959720,419.64,773,750,0
3959724,458.84,773,751,0
3959732,499.26,773,751,0
3959742,537.41,773,751,0
3959752,571.53,773,751,0
3959762,598.67,773,751,0
3959772,618.18,773,751,0
3959782,628.41,773,751,0
3959792,629.75,773,751,0
3959802,621.85,773,751,0
3959812,606.90,773,751,0
3959822,585.67,773,751,0
3959832,560.23,773,751,0
3959842,531.70,773,751,0
3959852,502.13,773,751,0
3959862,472.39,773,751,0
3959872,443.90,773,751,0
3959882,416.63,773,751,0
3959892,391.80,773,751,0
3959902,369.49,773,751,0
3959912,350.18,773,751,0
3959922,333.54,773,751,0
3959932,319.84,773,751,0
3959942,308.92,773,751,0
3959952,301.18,773,751,0
3959962,295.94,773,751,0
3959972,293.43,773,751,0
3959982,292.83,773,751,0
3959992,294.34,773,751,0
3960002,297.28,773,751,0
3960012,301.40,773,751,0
3960023,305.82,773,751,0
3960033,310.63,773,751,0
3960043,315.16,773,752,0
3960053,319.14,773,751,0
3960064,322.27,773,751,0
3960073,324.24,773,751,0
3960083,324.94,773,752,0
3960093,324.49,773,751,0
3960103,323.06,773,752,0
3960113,320.38,773,751,0
3960123,316.88,773,752,0
3960133,312.76,773,751,0
3960143,308.42,773,751,0
3960153,304.09,773,750,0
3960163,299.65,773,751,0
3960173,295.51,773,750,0
3960183,292.06,773,751,0
3960193,289.77,773,750,0
3960203,288.34,773,751,0
3960213,287.64,773,750,0
3960223,287.87,773,751,0
3960233,289.24,773,750,0
3960243,291.40,773,752,0
3960253,293.81,773,751,0
3960263,295.84,773,751,0
3960273,297.43,773,751,0
3960283,298.71,773,752,0
3960293,299.44,773,751,0
3960303,299.82,773,751,0
3960313,299.41,773,751,0
3960323,298.90,773,752,0
3960333,298.29,773,751,0
3960343,297.81,773,751,0
3960353,297.48,773,750,0
3960364,297.38,773,752,0
3960374,297.70,773,751,0
3960384,298.73,773,752,0
3960394,300.91,773,750,0
3960404,305.09,773,752,0
3960414,311.79,773,751,0
3960424,322.06,773,751,0
3960434,336.65,773,750,0
3960444,356.13,773,751,0
3960454,380.56,773,750,0
3960473,409.54,753,749,0
3960476,442.20,753,751,0
3960485,477.84,753,751,0
3960495,513.85,753,750,0
3960505,548.26,753,751,0
3960515,578.40,753,750,0
3960525,603.05,753,751,0
3960535,620.82,753,750,0
3960545,631.08,753,751,0
3960555,632.98,753,750,0
3960565,627.80,753,751,0
3960576,616.16,753,751,0
3960585,599.96,753,751,0
3960595,580.17,753,750,0
3960605,558.13,753,751,0
3960615,534.65,753,751,0
3960625,511.27,753,751,0
3960635,488.22,753,750,0
3960645,466.51,753,752,0
3960655,446.26,753,751,0
3960665,427.88,753,751,0
3960675,411.33,753,750,0
3960685,397.30,753,752,0
3960695,385.21,753,751,0
3960705,375.72,753,751,0
3960715,368.30,753,751,0
3960725,363.28,753,752,0
3960735,360.16,753,751,0
3960745,359.17,753,751,0
3960755,359.50,753,751,0
3960765,361.37,753,752,0
3960775,363.91,753,751,0
3960785,367.15,753,751,0
3960795,370.28,753,751,0
3960805,373.37,753,752,0
3960815,375.70,753,750,0
3960825,377.46,753,751,0
3960835,378.14,753,750,0
3960845,378.05,753,751,0
3960855,376.88,753,751,0
3960865,375.16,753,751,0
3960876,372.41,753,751,0
3960886,369.29,753,751,0
3960896,365.47,753,751,0
3960906,361.65,753,751,0
3960916,357.38,753,751,0
3960926,353.37,753,752,0
3960936,349.14,753,751,0
3960946,345.59,753,751,0
3960956,342.20,753,751,0
3960966,339.69,753,752,0
3960976,337.34,753,751,0
3960986,335.78,753,751,0
3960996,334.35,753,751,0
3961006,333.56,753,752,0
3961016,332.79,753,751,0
3961026,332.55,753,751,0
3961036,332.13,753,751,0
3961047,332.18,753,752,0
3961057,332.08,753,751,0
3961067,332.49,753,751,0
3961077,332.94,753,751,0
3961088,334.20,753,751,0
3961097,336.03,753,751,0
3961107,339.62,753,751,0
3961117,345.39,753,751,0
3961127,355.09,753,751,0
3961137,369.29,753,751,0
3961147,389.77,753,751,0
3961157,416.84,753,750,0
3961167,451.65,753,751,0
3961177,491.01,753,750,0
3961196,532.36,723,749,0
3961199,572.93,723,752,0
3961208,610.83,723,751,0
3961218,643.80,723,751,0
3961228,670.60,723,751,0
3961238,689.66,723,751,0
3961248,703.01,723,751,0
3961259,712.35,723,751,0
3961268,718.93,723,751,0
3961278,723.54,723,751,0
3961288,726.76,723,751,0
3961298,728.98,723,751,0
3961308,730.57,723,751,0
3961318,731.68,723,751,0
3961328,732.46,723,750,0
3961338,733.01,723,751,0
3961348,733.44,723,751,0
3961358,731.46,723,751,0
3961368,725.75,723,751,0
3961378,714.98,723,751,0
3961388,699.39,723,751,0
3961398,678.57,723,751,0
3961408,652.90,723,751,0
3961418,622.67,723,751,0
3961428,591.23,723,751,0
3961438,560.43,723,751,0
3961448,532.49,723,751,0
3961458,507.61,723,751,0
3961468,486.99,723,751,0
3961478,470.36,723,751,0
3961488,457.91,723,751,0
3961498,448.55,723,751,0
3961508,442.09,723,751,0
3961518,437.43,723,751,0
3961528,434.30,723,751,0
3961538,431.64,723,751,0
3961548,429.39,723,751,0
3961559,426.83,723,751,0
3961569,424.10,723,751,0
3961579,420.72,723,751,0
3961589,416.99,723,751,0
3961600,412.67,723,751,0
3961609,408.18,723,751,0
3961619,403.28,723,751,0
3961629,398.91,723,751,0
3961639,394.27,723,751,0
3961649,389.82,723,750,0
3961659,385.33,723,751,0
3961669,381.20,723,751,0
3961679,377.37,723,751,0
3961689,374.09,723,751,0
3961699,370.68,723,751,0
3961709,368.07,723,751,0
3961719,365.91,723,751,0
3961729,364.48,723,751,0
3961739,363.43,723,751,0
3961749,362.92,723,751,0
3961759,362.73,723,751,0
3961769,363.20,723,750,0
3961779,364.47,723,751,0
3961789,367.58,723,751,0
3961799,373.54,723,751,0
3961809,384.22,723,750,0
3961819,400.87,723,751,0
3961829,425.64,723,750,0
3961839,458.49,723,751,0
3961849,496.53,723,750,0
3961859,537.00,723,751,0
3961869,577.50,723,750,0
3961888,615.36,692,749,0
3961891,648.51,692,750,0
3961900,674.46,692,751,0
3961910,692.62,692,750,0
3961920,705.33,692,751,0
3961930,714.23,692,750,0
3961940,720.46,692,751,0
3961950,724.82,692,751,0
3961960,727.88,692,751,0
3961970,730.01,692,750,0
3961980,731.51,692,751,0
3961990,732.56,692,750,0
3962000,733.29,692,751,0
3962010,733.80,692,750,0
3962020,734.16,692,751,0
3962030,734.41,692,750,0
3962040,734.59,692,751,0
3962050,732.23,692,750,0
3962060,724.79,692,751,0
3962071,710.84,692,751,0
3962081,689.89,692,751,0
3962091,662.02,692,751,0
3962101,627.94,692,752,0
3962112,588.40,692,751,0
3962121,546.97,692,752,0
3962131,507.12,692,751,0
3962141,471.30,692,752,0
3962151,440.74,692,751,0
3962161,416.13,692,751,0
3962171,397.36,692,751,0
3962181,384.10,692,751,0
3962191,375.37,692,751,0
3962201,370.46,692,751,0
3962211,368.22,692,751,0
3962221,367.90,692,751,0
3962231,368.49,692,750,0
3962241,369.28,692,751,0
3962251,369.63,692,750,0
3962261,369.35,692,751,0
3962271,368.09,692,751,0
3962281,366.09,692,751,0
3962291,363.28,692,750,0
3962301,359.98,692,751,0
3962311,356.21,692,751,0
3962321,352.42,692,752,0
3962331,348.65,692,750,0
3962341,345.29,692,751,0
3962351,342.16,692,751,0
3962361,339.80,692,751,0
3962371,337.80,692,750,0
3962381,336.36,692,751,0
3962391,335.35,692,751,0
3962401,334.86,692,751,0
3962412,334.60,692,751,0
3962422,334.85,692,751,0
3962432,335.20,692,751,0
3962442,336.72,692,751,0
3962452,340.06,692,750,0
3962462,346.56,692,751,0
3962472,357.71,692,750,0
3962482,375.66,692,751,0
3962492,401.82,692,750,0
3962502,436.93,692,751,0
3962512,477.50,692,750,0
3962531,520.89,643,749,0
3962534,564.29,643,751,0
3962543,605.18,643,751,0
3962553,640.78,643,750,0
3962563,669.09,643,751,0
3962573,688.99,643,750,0
3962583,702.92,643,751,0
3962593,712.63,643,751,0
3962603,719.47,643,751,0
3962613,724.30,643,751,0
3962624,727.68,643,751,0
3962633,730.05,643,751,0
3962643,730.55,643,751,0
3962653,726.27,643,751,0
3962663,715.56,643,751,0
3962673,697.22,643,751,0
3962683,670.88,643,752,0
3962693,636.42,643,751,0
3962703,594.46,643,752,0
3962713,546.84,643,751,0
3962723,497.82,643,752,0
3962733,450.00,643,751,0
3962743,406.11,643,752,0
3962753,367.55,643,751,0
3962763,335.89,643,752,0
3962773,311.15,643,751,0
3962783,294.00,643,751,0
3962793,283.46,643,751,0
3962803,279.46,643,751,0
3962813,280.44,643,751,0
3962823,285.96,643,751,0
3962833,294.12,643,751,0
3962843,304.33,643,752,0
3962853,314.64,643,751,0
3962863,324.56,643,751,0
3962873,332.92,643,751,0
3962883,339.59,643,751,0
3962893,343.87,643,751,0
3962903,345.97,643,751,0
3962913,345.38,643,751,0
3962924,342.95,643,751,0
3962934,339.02,643,751,0
3962944,333.91,643,751,0
3962954,327.77,643,751,0
3962964,321.32,643,751,0
3962974,315.06,643,751,0
3962984,309.77,643,751,0
3962994,304.78,643,751,0
3963004,300.65,643,751,0
3963014,297.41,643,751,0
3963024,295.57,643,751,0
3963034,294.41,643,751,0
3963044,294.33,643,751,0
3963054,294.62,643,751,0
3963064,295.98,643,751,0
3963074,297.70,643,751,0
3963084,300.15,643,751,0
3963095,302.67,643,751,0
3963105,305.60,643,751,0
3963115,308.29,643,751,0
3963125,311.80,643,751,0
3963136,316.45,643,751,0
3963145,323.77,643,751,0
3963155,334.73,643,751,0
3963165,351.56,643,751,0
3963175,375.61,643,751,0
3963185,408.13,643,751,0
3963195,447.73,643,750,0
3963214,491.44,683,749,0
3963217,536.27,683,751,0
3963226,579.69,683,750,0
3963236,618.87,683,750,0
3963246,651.73,683,751,0
3963256,676.76,683,751,0
3963266,694.27,683,750,0
3963276,706.53,683,750,0
3963286,714.47,683,751,0
3963296,716.39,683,751,0
3963307,711.30,683,751,0
3963316,698.52,683,750,0
3963326,677.58,683,751,0
3963336,648.44,683,751,0
3963346,611.49,683,751,0
3963356,567.93,683,751,0
3963366,521.45,683,751,0
3963376,474.47,683,751,0
3963386,429.29,683,751,0
3963396,387.63,683,751,0
3963406,351.01,683,751,0
3963416,319.94,683,751,0
3963426,295.01,683,751,0
3963436,275.94,683,751,0
3963446,262.97,683,751,0
3963456,255.48,683,751,0
3963466,253.11,683,751,0
3963476,254.70,683,751,0
3963486,259.81,683,751,0
3963496,267.19,683,751,0
3963506,276.39,683,751,0
3963516,286.22,683,751,0
3963526,296.14,683,751,0
3963536,305.05,683,751,0
3963546,312.71,683,751,0
3963556,318.58,683,751,0
3963566,322.44,683,751,0
3963576,323.98,683,751,0
3963586,323.38,683,751,0
3963596,320.61,683,751,0
3963607,316.44,683,751,0
3963617,310.87,683,751,0
3963627,304.35,683,751,0
3963637,297.30,683,751,0
3963648,290.23,683,751,0
3963657,283.56,683,751,0
3963667,277.65,683,751,0
3963677,272.57,683,751,0
3963687,268.97,683,751,0
3963697,266.28,683,751,0
3963707,264.91,683,751,0
3963717,264.68,683,751,0
3963727,265.42,683,751,0
3963737,266.88,683,751,0
3963747,268.97,683,751,0
3963757,271.38,683,751,0
3963767,274.18,683,751,0
3963777,277.00,683,751,0
3963787,279.96,683,751,0
3963797,282.88,683,751,0
3963807,286.00,683,751,0
3963817,289.69,683,751,0
3963827,294.54,683,751,0
3963837,301.96,683,751,0
3963847,313.29,683,751,0
3963857,329.83,683,751,0
3963867,352.60,683,750,0
3963877,382.25,683,751,0
3963887,418.51,683,750,0
3963897,460.15,683,751,0
3963916,504.42,702,749,0
3963919,548.31,702,752,0
3963928,589.23,702,750,0
3963938,625.37,702,751,0
3963948,654.10,702,750,0
3963958,673.10,702,751,0
3963968,681.39,702,750,0
3963978,679.51,702,751,0
3963988,668.17,702,750,0
3963998,648.49,702,751,0
3964008,621.17,702,751,0
3964018,588.42,702,752,0
3964028,552.51,702,751,0
3964038,515.63,702,751,0
3964048,478.97,702,751,0
3964058,444.09,702,752,0
3964068,411.54,702,751,0
3964078,382.06,702,752,0
3964088,355.81,702,751,0
3964098,333.28,702,752,0
3964108,314.26,702,751,0
3964119,299.18,702,751,0
3964129,287.77,702,751,0
3964139,280.08,702,752,0
3964149,275.69,702,751,0
3964160,274.45,702,751,0
3964169,275.73,702,750,0
3964179,279.28,702,752,0
3964189,284.30,702,751,0
3964199,290.68,702,751,0
3964209,297.25,702,750,0
3964219,303.86,702,751,0
3964229,309.77,702,751,0
3964239,314.98,702,751,0
3964249,318.97,702,750,0
3964259,321.77,702,751,0
3964269,322.87,702,751,0
3964279,322.95,702,751,0
3964289,321.81,702,750,0
3964299,319.77,702,751,0
3964309,316.62,702,751,0
3964319,312.92,702,751,0
3964329,308.79,702,750,0
3964339,304.87,702,752,0
3964349,301.01,702,751,0
3964359,297.62,702,751,0
3964369,294.69,702,750,0
3964379,292.64,702,752,0
3964389,291.12,702,751,0
3964399,290.57,702,751,0
3964409,290.36,702,750,0
3964419,290.89,702,752,0
3964429,291.74,702,751,0
3964439,293.23,702,751,0
3964449,294.92,702,750,0
3964460,297.04,702,752,0
3964470,299.04,702,751,0
3964480,301.47,702,751,0
3964490,303.65,702,750,0
3964500,306.02,702,751,0
3964510,308.03,702,751,0
3964520,310.21,702,751,0
3964530,312.42,702,750,0
3964540,315.59,702,751,0
3964550,320.00,702,751,0
3964560,327.41,702,751,0
3964570,338.73,702,750,0
3964580,355.91,702,751,0
3964590,379.34,702,750,0
3964600,410.01,702,751,0
3964619,447.12,703,749,0
3964622,488.83,703,751,0
3964631,531.82,703,750,0
3964641,573.62,703,751,0
3964651,611.58,703,750,0
3964661,644.36,703,751,0
3964672,670.48,703,750,0
3964681,689.71,703,751,0
3964691,700.90,703,750,0
3964701,705.00,703,751,0
3964711,701.57,703,751,0
3964721,691.37,703,751,0
3964731,674.16,703,751,0
3964741,650.50,703,751,0
3964751,620.73,703,751,0
3964761,587.90,703,751,0
3964771,553.13,703,751,0
3964781,518.63,703,752,0
3964791,484.93,703,751,0
3964801,453.66,703,751,0
3964811,425.05,703,751,0
3964821,399.84,703,752,0
3964831,377.77,703,751,0
3964841,359.63,703,751,0
3964851,344.95,703,751,0
3964861,334.38,703,752,0
3964871,326.98,703,751,0
3964881,323.09,703,751,0
3964891,321.86,703,751,0
3964901,323.40,703,751,0
3964911,326.58,703,751,0
3964921,331.51,703,751,0
3964931,337.06,703,751,0
3964941,343.21,703,751,0
3964951,348.98,703,751,0
3964961,354.30,703,751,0
3964972,358.28,703,751,0
3964982,361.07,703,751,0
3964992,362.25,703,751,0
3965002,361.96,703,751,0
3965012,360.13,703,751,0
3965022,357.30,703,751,0
3965032,353.40,703,751,0
3965042,349.16,703,751,0
3965052,344.44,703,751,0
3965062,340.07,703,751,0
3965072,335.72,703,751,0
3965082,331.95,703,751,0
3965092,328.49,703,751,0
3965102,326.16,703,751,0
3965112,324.14,703,751,0
3965122,323.33,703,751,0
3965132,322.93,703,751,0
3965143,323.51,703,751,0
3965153,324.68,703,751,0
3965163,326.54,703,751,0
3965173,328.43,703,751,0
3965184,330.92,703,751,0
3965193,333.04,703,751,0
3965203,335.21,703,751,0
3965213,337.04,703,751,0
3965223,338.65,703,750,0
3965233,340.00,703,751,0
3965243,341.33,703,751,0
3965253,342.82,703,751,0
3965263,345.19,703,750,0
3965273,348.82,703,751,0
3965283,355.43,703,751,0
3965293,366.14,703,751,0
3965303,383.03,703,750,0
3965313,406.72,703,751,0
3965323,438.43,703,750,0
3965333,476.15,703,750,0
3965352,517.24,733,749,0
3965356,558.74,733,751,0
3965364,598.42,733,750,0
3965374,633.57,733,751,0
3965384,662.75,733,750,0
3965394,684.26,733,751,0
3965404,699.39,733,750,0
3965414,710.03,733,751,0
3965424,717.48,733,750,0
3965434,722.69,733,751,0
3965444,726.34,733,750,0
3965454,728.94,733,751,0
3965464,730.67,733,750,0
3965474,729.06,733,751,0
3965484,722.61,733,751,0
3965494,710.08,733,751,0
3965504,690.86,733,750,0
3965514,664.80,733,751,0
3965524,632.33,733,751,0
3965534,594.09,733,751,0
3965544,553.48,733,751,0
3965554,512.83,733,751,0
3965564,474.57,733,751,0
3965574,440.20,733,751,0
3965584,411.00,733,751,0
3965594,387.43,733,752,0
3965604,369.64,733,750,0
3965614,357.45,733,751,0
3965624,350.71,733,750,0
3965634,348.57,733,751,0
3965644,350.37,733,750,0
3965655,354.93,733,751,0
3965665,361.17,733,750,0
3965675,368.19,733,751,0
3965685,375.16,733,750,0
3965696,381.33,733,751,0
3965705,386.24,733,750,0
3965715,389.38,733,751,0
3965725,390.51,733,750,0
3965735,389.76,733,751,0
3965745,387.30,733,750,0
3965755,383.48,733,751,0
3965765,378.58,733,750,0
3965775,373.09,733,751,0
3965785,367.32,733,749,0
3965795,361.74,733,751,0
3965805,356.72,733,750,0
3965815,352.47,733,750,0
3965825,349.16,733,749,0
3965835,346.97,733,751,0
3965845,345.74,733,750,0
3965855,345.64,733,750,0
3965865,346.48,733,749,0
3965875,348.09,733,750,0
3965885,350.25,733,750,0
3965895,352.79,733,750,0
3965905,355.38,733,749,0
3965915,358.01,733,750,0
3965925,360.45,733,749,0
3965935,362.67,733,750,0
3965945,364.61,733,749,0
3965955,366.23,733,750,0
3965965,368.05,733,749,0
3965975,370.99,733,750,0
3965985,376.05,733,749,0
3965996,384.91,733,750,0
3966006,399.33,733,748,0
3966016,421.43,733,749,0
3966026,452.25,733,748,0
3966036,488.86,733,748,0
3966055,528.54,703,747,0
3966058,568.97,703,750,0
3966067,607.55,703,747,0
3966077,641.97,703,748,0
3966087,669.62,703,747,0
3966097,689.23,703,748,0
3966107,702.96,703,747,0
3966117,712.58,703,748,0
3966127,719.30,703,748,0
3966137,724.01,703,749,0
3966147,727.31,703,747,0
3966157,729.62,703,748,0
3966167,731.23,703,748,0
3966177,732.36,703,748,0
3966187,730.32,703,747,0
3966197,723.07,703,748,0
3966208,708.95,703,748,0
3966217,687.66,703,749,0
3966227,658.97,703,748,0
3966237,623.32,703,749,0
3966247,581.05,703,749,0
3966257,536.25,703,750,0
3966267,491.86,703,749,0
3966277,451.02,703,749,0
3966287,414.97,703,749,0
3966297,385.28,703,749,0
3966307,362.18,703,748,0
3966317,346.27,703,749,0
3966327,336.59,703,748,0
3966337,332.90,703,749,0
3966347,333.74,703,748,0
3966357,338.32,703,748,0
3966367,345.04,703,747,0
3966377,353.21,703,749,0
3966387,361.38,703,747,0
3966397,369.15,703,748,0
3966407,375.40,703,747,0
3966417,380.13,703,748,0
3966427,382.79,703,747,0
3966437,383.62,703,748,0
3966447,382.36,703,747,0
3966457,379.73,703,749,0
3966467,375.61,703,747,0
3966477,370.88,703,748,0
3966487,365.39,703,748,0
3966497,360.04,703,749,0
3966508,354.63,703,747,0
3966518,349.94,703,748,0
3966528,345.63,703,747,0
3966538,342.36,703,748,0
3966548,339.68,703,747,0
3966558,338.19,703,748,0
3966568,337.19,703,747,0
3966578,337.30,703,748,0
3966588,337.86,703,747,0
3966598,339.31,703,748,0
3966608,340.93,703,747,0
3966618,342.97,703,748,0
3966628,344.99,703,747,0
3966638,347.48,703,748,0
3966648,350.38,703,747,0
3966658,355.07,703,748,0
3966668,362.59,703,746,0
3966679,375.05,703,747,0
3966689,394.20,703,746,0
3966699,421.99,703,746,0
3966709,457.35,703,745,0
3966729,497.58,673,744,0
3966732,539.79,673,746,0
3966741,581.47,673,745,0
3966751,619.90,673,745,0
3966761,652.67,673,745,0
3966771,677.46,673,745,0
3966781,694.85,673,745,0
3966791,707.06,673,745,0
3966801,715.57,673,745,0
3966811,721.49,673,745,0
3966821,725.67,673,746,0
3966831,728.60,673,746,0
3966841,730.65,673,745,0
3966851,730.67,673,746,0
3966861,726.40,673,746,0
3966871,715.78,673,747,0
3966881,697.84,673,747,0
3966892,671.88,673,748,0
3966902,638.27,673,748,0
3966912,597.30,673,748,0
3966922,551.14,673,748,0
3966932,503.14,673,749,0
3966942,456.73,673,748,0
3966952,413.95,673,749,0
3966962,376.81,673,748,0
3966972,346.01,673,749,0
3966982,322.26,673,748,0
3966992,305.56,673,748,0
3967002,295.53,673,747,0
3967012,291.39,673,748,0
3967022,292.34,673,747,0
3967032,297.00,673,748,0
3967042,304.37,673,747,0
3967052,313.17,673,747,0
3967063,322.51,673,747,0
3967073,331.31,673,748,0
3967083,338.98,673,746,0
3967093,344.94,673,748,0
3967104,348.99,673,747,0
3967113,350.92,673,748,0
3967123,350.99,673,746,0
3967133,349.15,673,748,0
3967143,345.89,673,747,0
3967153,341.59,673,748,0
3967163,336.62,673,746,0
3967173,331.55,673,748,0
3967183,326.62,673,747,0
3967193,322.19,673,748,0
3967203,318.49,673,746,0
3967213,315.82,673,747,0
3967223,314.03,673,746,0
3967233,313.33,673,748,0
3967243,313.58,673,746,0
3967253,314.73,673,747,0
3967263,316.40,673,746,0
3967273,318.64,673,748,0
3967283,321.27,673,746,0
3967293,324.23,673,747,0
3967303,327.34,673,746,0
3967313,330.58,673,747,0
3967323,334.30,673,746,0
3967333,339.48,673,747,0
3967343,347.31,673,746,0
3967353,359.60,673,747,0
3967363,378.11,673,745,0
3967373,404.73,673,745,0
3967383,439.87,673,745,0
3967403,480.41,674,743,0
3967406,523.61,674,745,0
3967415,566.84,674,745,0
3967425,607.31,674,744,0
3967435,642.66,674,746,0
3967446,670.45,674,745,0
3967455,689.90,674,745,0
3967465,703.51,674,745,0
3967475,713.09,674,746,0
3967485,719.83,674,745,0
3967495,724.51,674,746,0
3967505,727.79,674,745,0
3967515,730.12,674,746,0
3967525,728.67,674,745,0
3967535,721.96,674,746,0
3967545,708.25,674,746,0
3967555,686.88,674,748,0
3967565,657.51,674,747,0
3967575,620.67,674,748,0
3967585,576.63,674,748,0
3967595,529.43,674,749,0
3967605,481.30,674,748,0
3967616,435.27,674,749,0
3967625,392.97,674,748,0
3967635,356.12,674,749,0
3967645,324.93,674,747,0
3967655,300.35,674,749,0
3967665,282.07,674,747,0
3967675,270.52,674,749,0
3967685,264.67,674,747,0
3967695,264.17,674,748,0
3967705,267.72,674,747,0
3967715,274.70,674,748,0
3967725,283.62,674,747,0
3967735,293.85,674,748,0
3967745,303.92,674,747,0
3967755,313.50,674,748,0
3967765,321.58,674,747,0
3967775,327.96,674,748,0
3967785,331.96,674,747,0
3967795,333.94,674,748,0
3967805,333.62,674,747,0
3967815,331.63,674,748,0
3967825,327.93,674,747,0
3967835,323.36,674,748,0
3967845,317.98,674,747,0
3967855,312.63,674,748,0
3967865,307.26,674,747,0
3967875,302.68,674,748,0
3967885,298.75,674,747,0
3967895,296.17,674,748,0
3967905,294.32,674,747,0
3967916,293.84,674,748,0
3967926,294.23,674,747,0
3967936,295.79,674,748,0
3967946,297.82,674,747,0
3967956,300.62,674,748,0
3967966,303.48,674,747,0
3967976,306.80,674,748,0
3967986,309.82,674,747,0
3967996,313.00,674,748,0
3968006,315.79,674,746,0
3968016,318.64,674,748,0
3968026,320.76,674,747,0
3968036,322.76,674,748,0
3968046,324.42,674,746,0
3968056,326.99,674,748,0
3968066,331.15,674,746,0
3968076,338.99,674,747,0
3968087,351.98,674,746,0
3968097,373.29,674,747,0
3968107,403.63,674,745,0
3968117,442.14,674,746,0
3968137,485.38,734,744,0
3968140,530.70,734,746,0
3968149,575.02,734,745,0
3968159,615.77,734,745,0
3968169,649.70,734,745,0
3968179,675.33,734,745,0
3968189,693.27,734,745,0
3968199,705.88,734,746,0
3968209,714.70,734,746,0
3968219,720.92,734,746,0
3968229,725.27,734,745,0
3968239,726.78,734,746,0
3968249,723.07,734,746,0
3968259,712.89,734,747,0
3968269,694.88,734,747,0
3968279,668.99,734,747,0
3968289,635.09,734,748,0
3968300,593.88,734,748,0
3968310,547.20,734,748,0
3968320,498.75,734,748,0
3968330,451.09,734,748,0
3968340,406.79,734,748,0
3968350,367.21,734,748,0
3968360,333.72,734,748,0
3968370,306.89,734,748,0
3968380,286.91,734,748,0
3968390,273.52,734,748,0
3968400,266.59,734,748,0
3968410,265.34,734,748,0
3968420,269.01,734,747,0
3968430,276.29,734,747,0
3968440,286.11,734,747,0
3968450,297.65,734,748,0
3968460,310.05,734,747,0
3968471,321.82,734,747,0
3968481,332.33,734,747,0
3968491,340.80,734,748,0
3968501,346.95,734,747,0
3968512,350.39,734,748,0
3968521,351.39,734,747,0
3968531,349.90,734,748,0
3968541,346.54,734,747,0
3968551,341.71,734,748,0
3968561,335.84,734,747,0
3968571,329.55,734,748,0
3968581,323.17,734,747,0
3968591,317.16,734,748,0
3968601,311.84,734,747,0
3968611,307.43,734,748,0
3968621,304.13,734,747,0
3968631,302.08,734,748,0
3968641,301.33,734,747,0
3968651,302.04,734,748,0
3968661,303.74,734,747,0
3968671,306.35,734,747,0
3968681,309.72,734,747,0
3968691,313.53,734,748,0
3968701,317.61,734,747,0
3968711,321.59,734,747,0
3968721,325.18,734,747,0
3968731,328.47,734,748,0
3968741,331.33,734,747,0
3968751,333.76,734,748,0
3968761,336.15,734,747,0
3968771,339.27,734,748,0
3968781,344.59,734,746,0
3968791,353.84,734,747,0
3968801,369.10,734,746,0
3968812,392.43,734,746,0
3968822,425.04,734,745,0
3968832,464.33,734,745,0
3968851,507.39,715,745,0
3968855,551.41,715,746,0
3968863,593.63,715,745,0
3968873,631.29,715,746,0
3968883,661.89,715,745,0
3968893,683.86,715,746,0
3968903,699.25,715,745,0
3968913,710.02,715,746,0
3968923,717.51,715,745,0
3968933,722.76,715,746,0
3968943,726.43,715,745,0
3968953,727.37,715,746,0
3968963,723.28,715,746,0
3968973,712.86,715,747,0
3968983,695.38,715,746,0
3968993,670.41,715,748,0
3969003,637.80,715,747,0
3969013,598.26,715,749,0
3969024,553.61,715,747,0
3969033,507.61,715,749,0
3969043,462.47,715,748,0
3969053,420.29,715,749,0
3969063,382.44,715,748,0
3969073,350.25,715,749,0
3969083,323.95,715,748,0
3969093,304.34,715,749,0
3969103,290.86,715,747,0
3969113,283.53,715,749,0
3969123,281.36,715,747,0
3969133,283.87,715,748,0
3969143,289.86,715,747,0
3969153,298.52,715,748,0
3969163,308.52,715,747,0
3969173,319.34,715,748,0
3969183,329.65,715,747,0
3969193,339.18,715,748,0
3969203,346.97,715,747,0
3969213,353.15,715,748,0
3969223,356.96,715,747,0
3969233,358.86,715,748,0
3969243,358.52,715,746,0
3969253,356.69,715,748,0
3969263,353.31,715,747,0
3969273,349.15,715,748,0
3969283,344.17,715,747,0
3969293,339.15,715,748,0
3969303,333.96,715,747,0
3969313,329.47,715,748,0
3969324,325.52,715,747,0
3969334,322.53,715,748,0
3969344,320.27,715,747,0
3969354,319.12,715,748,0
3969364,318.87,715,747,0
3969374,319.85,715,748,0
3969384,321.31,715,747,0
3969394,323.57,715,748,0
3969404,326.14,715,747,0
3969414,329.40,715,748,0
3969424,332.58,715,747,0
3969434,336.05,715,748,0
3969444,339.08,715,747,0
3969454,342.14,715,748,0
3969464,344.58,715,747,0
3969474,346.77,715,748,0
3969484,348.25,715,746,0
3969495,350.02,715,748,0
3969505,352.37,715,747,0
3969515,357.23,715,748,0
3969525,365.90,715,746,0
3969536,381.19,715,747,0
3969545,404.36,715,746,0
3969555,437.04,715,746,0
3969565,475.77,715,745,0
3969585,518.05,733,744,0
3969588,561.02,733,746,0
3969597,602.07,733,746,0
3969607,638.09,733,745,0
3969617,667.21,733,746,0
3969627,687.59,733,746,0
3969637,701.86,733,746,0
3969647,711.84,733,745,0
3969657,718.79,733,746,0
3969667,723.65,733,746,0
3969677,727.06,733,746,0
3969687,729.44,733,745,0
3969697,731.11,733,746,0
3969708,732.28,733,746,0
3969718,731.85,733,746,0
3969728,726.88,733,746,0
3969738,715.60,733,747,0
3969748,696.69,733,747,0
3969758,670.21,733,747,0
3969768,635.86,733,748,0
3969778,594.25,733,748,0
3969788,547.20,733,749,0
3969798,498.97,733,748,0
3969808,452.22,733,748,0
3969818,409.73,733,748,0
3969828,372.48,733,749,0
3969838,341.99,733,748,0
3969848,318.47,733,748,0
3969858,302.38,733,748,0
3969868,292.93,733,748,0
3969879,289.78,733,747,0
3969889,291.69,733,748,0
3969899,297.61,733,747,0
3969909,306.21,733,748,0
3969920,316.48,733,747,0
3969929,326.92,733,747,0
3969939,336.89,733,747,0
3969949,345.45,733,748,0
3969959,352.13,733,747,0
3969969,356.55,733,747,0
3969979,358.74,733,747,0
3969989,358.60,733,748,0
3969999,356.62,733,747,0
3970009,352.96,733,748,0
3970019,348.26,733,747,0
3970029,342.83,733,748,0
3970039,337.26,733,747,0
3970049,331.74,733,748,0
3970059,326.98,733,748,0
3970069,322.95,733,748,0
3970079,320.01,733,747,0
3970089,318.04,733,748,0
3970099,317.21,733,748,0
3970109,317.32,733,748,0
3970119,318.47,733,747,0
3970129,320.21,733,748,0
3970139,322.51,733,747,0
3970149,325.01,733,748,0
3970159,327.84,733,747,0
3970169,330.76,733,748,0
3970179,333.92,733,747,0
3970189,336.94,733,748,0
3970199,339.96,733,747,0
3970209,342.84,733,748,0
3970220,345.55,733,747,0
3970230,347.91,733,748,0
3970240,349.87,733,747,0
3970250,351.36,733,748,0
3970260,353.05,733,747,0
3970270,355.70,733,748,0
3970280,360.80,733,746,0
3970290,370.55,733,747,0
3970300,387.05,733,746,0
3970310,412.15,733,747,0
3970320,445.96,733,745,0
3970339,485.40,755,744,0
3970342,527.80,755,746,0
3970351,570.46,755,746,0
3970361,610.48,755,745,0
3970371,645.05,755,746,0
3970381,672.03,755,745,0
3970391,690.92,755,746,0
3970401,704.15,755,745,0
3970411,713.40,755,746,0
3970421,719.88,755,745,0
3970432,724.42,755,747,0
3970441,727.59,755,745,0
3970451,729.81,755,747,0
3970461,731.37,755,746,0
3970471,731.99,755,747,0
3970481,729.08,755,746,0
3970491,720.48,755,747,0
3970501,704.65,755,746,0
3970511,681.06,755,748,0
3970521,649.67,755,747,0
3970531,610.98,755,749,0
3970541,565.77,755,748,0
3970551,517.71,755,749,0
3970561,470.14,755,748,0
3970571,425.91,755,749,0
3970581,386.73,755,747,0
3970591,353.85,755,749,0
3970601,327.75,755,748,0
3970611,309.06,755,749,0
3970621,297.25,755,747,0
3970631,291.86,755,749,0
3970641,291.78,755,747,0
3970651,295.96,755,748,0
3970661,303.04,755,746,0
3970671,312.07,755,748,0
3970681,321.69,755,747,0
3970691,331.34,755,748,0
3970701,339.90,755,746,0
3970711,347.00,755,748,0
3970721,352.01,755,747,0
3970732,355.14,755,748,0
3970742,356.04,755,746,0
3970752,355.43,755,748,0
3970762,353.03,755,747,0
3970772,349.72,755,748,0
3970782,345.52,755,746,0
3970792,341.42,755,748,0
3970802,337.09,755,747,0
3970812,333.51,755,748,0
3970822,329.97,755,748,0
3970832,327.19,755,751,0
3970842,324.86,755,750,0
3970852,323.66,755,751,0
3970862,323.03,755,750,0
3970872,323.62,755,751,0
3970882,324.72,755,750,0
3970892,327.03,755,751,0
3970903,329.90,755,750,0
3970913,333.61,755,751,0
3970923,337.24,755,750,0
3970933,341.16,755,751,0
3970944,344.75,755,750,0
3970953,348.77,755,751,0
3970963,353.42,755,750,0
3970973,360.80,755,751,0
3970983,371.66,755,749,0
3970993,388.65,755,751,0
3971003,412.84,755,749,0
3971013,445.89,755,750,0
3971033,484.36,693,747,0
3971036,525.91,693,748,0
3971045,567.47,693,746,0
3971055,606.97,693,746,0
3971065,641.61,693,745,0
3971075,669.58,693,746,0
3971085,689.16,693,746,0
3971095,702.96,693,746,0
3971105,712.61,693,745,0
3971116,719.42,693,746,0
3971126,724.18,693,746,0
3971136,727.51,693,746,0
3971146,729.20,693,746,0
3971156,727.13,693,746,0
3971166,719.42,693,746,0
3971176,705.23,693,747,0
3971186,683.48,693,747,0
3971196,654.19,693,749,0
3971206,617.41,693,750,0
3971216,574.47,693,751,0
3971226,528.21,693,751,0
3971236,481.82,693,751,0
3971246,437.18,693,751,0
3971256,396.67,693,751,0
3971266,361.15,693,751,0
3971276,332.13,693,750,0
3971287,309.68,693,749,0
3971297,294.39,693,748,0
3971307,285.40,693,748,0
3971317,282.45,693,748,0
3971328,284.37,693,748,0
3971337,290.52,693,748,0
3971347,299.19,693,748,0
3971357,309.68,693,747,0
3971367,320.45,693,748,0
3971377,331.24,693,747,0
3971387,340.64,693,747,0
3971397,348.42,693,747,0
3971407,354.04,693,748,0
3971417,357.50,693,747,0
3971427,358.50,693,748,0
3971437,357.41,693,747,0
3971447,354.20,693,748,0
3971457,349.77,693,748,0
3971467,344.10,693,748,0
3971477,338.02,693,748,0
3971487,331.72,693,748,0
3971497,325.80,693,747,0
3971507,320.50,693,748,0
3971517,316.28,693,748,0
3971527,313.03,693,748,0
3971537,311.30,693,747,0
3971547,310.53,693,748,0
3971557,311.18,693,748,0
3971567,312.63,693,748,0
3971577,314.93,693,747,0
3971587,317.35,693,748,0
3971597,320.24,693,747,0
3971607,323.13,693,748,0
3971617,326.30,693,747,0
3971628,329.38,693,748,0
3971638,332.83,693,747,0
3971648,337.29,693,748,0
3971658,344.28,693,747,0
3971668,355.04,693,747,0
3971678,371.27,693,746,0
3971688,394.80,693,747,0
3971698,427.13,693,746,0
3971708,466.01,693,746,0
3971727,508.43,695,744,0
3971730,551.67,695,747,0
3971739,593.17,695,745,0
3971749,630.54,695,746,0
3971759,661.27,695,745,0
3971769,683.52,695,746,0
3971779,699.09,695,745,0
3971789,710.04,695,746,0
3971799,717.70,695,745,0
3971809,723.02,695,747,0
3971819,726.78,695,746,0
3971829,728.61,695,747,0
3971840,726.20,695,746,0
3971849,718.34,695,747,0
3971859,703.92,695,747,0
3971869,682.47,695,748,0
3971879,653.79,695,747,0
3971889,618.41,695,749,0
3971899,577.44,695,748,0
3971909,534.02,695,749,0
3971919,490.17,695,748,0
3971929,448.29,695,749,0
3971939,409.63,695,748,0
3971949,375.29,695,749,0
3971959,345.54,695,747,0
3971969,321.12,695,749,0
3971979,302.44,695,748,0
3971989,289.50,695,749,0
3971999,281.85,695,747,0
3972009,279.32,695,749,0
3972019,281.37,695,747,0
3972029,287.56,695,748,0
3972039,296.82,695,746,0
3972049,308.19,695,748,0
3972059,320.82,695,747,0
3972069,333.86,695,748,0
3972079,346.50,695,746,0
3972089,358.26,695,748,0
3972099,368.34,695,747,0
3972109,376.51,695,748,0
3972119,382.36,695,746,0
3972129,385.76,695,748,0
3972140,386.56,695,747,0
3972150,384.85,695,748,0
3972160,380.52,695,747,0
3972170,374.15,695,748,0
3972180,366.05,695,747,0
3972190,356.95,695,748,0
3972200,347.36,695,747,0
3972210,337.87,695,749,0
3972220,328.87,695,747,0
3972230,320.81,695,748,0
3972240,313.45,695,747,0
3972250,307.06,695,749,0
3972260,301.17,695,747,0
3972270,295.93,695,749,0
3972280,291.07,695,747,0
3972290,286.80,695,749,0
3972300,283.01,695,747,0
3972311,280.43,695,749,0
3972321,279.02,695,747,0
3972331,280.17,695,748,0
3972341,284.70,695,747,0
3972352,294.86,695,748,0
3972361,311.71,695,746,0
3972371,337.85,695,747,0
3972381,374.02,695,745,0
3972391,418.46,695,746,0
3972401,467.22,695,745,0
3972411,517.43,695,746,0
3972421,565.60,695,745,0
3972441,609.43,713,744,0
3972444,645.69,713,746,0
3972453,672.57,713,746,0
3972463,691.34,713,745,0
3972473,704.52,713,746,0
3972483,713.75,713,745,0
3972493,720.26,713,747,0
3972503,724.81,713,746,0
3972513,728.04,713,747,0
3972524,730.25,713,746,0
3972534,729.06,713,747,0
3972544,721.89,713,747,0
3972554,707.78,713,747,0
3972564,685.47,713,747,0
3972574,655.67,713,749,0
3972584,618.14,713,748,0
3972594,573.74,713,749,0
3972604,525.52,713,748,0
3972614,477.66,713,749,0
3972624,431.74,713,749,0
3972634,390.46,713,749,0
3972644,353.98,713,749,0
3972654,323.98,713,749,0
3972664,300.07,713,748,0
3972674,283.21,713,749,0
3972684,271.96,713,748,0
3972695,266.87,713,748,0
3972705,266.23,713,748,0
3972715,269.84,713,748,0
3972725,275.80,713,748,0
3972736,284.05,713,748,0
3972745,292.73,713,747,0
3972755,302.11,713,748,0
3972765,310.74,713,748,0
3972775,319.17,713,748,0
3972785,326.36,713,747,0
3972795,333.20,713,748,0
3972805,338.97,713,747,0
3972815,344.59,713,747,0
3972825,349.34,713,747,0
3972835,353.95,713,747,0
3972845,357.65,713,747,0
3972855,361.10,713,748,0
3972865,363.30,713,747,0
3972875,364.97,713,748,0
3972885,365.06,713,747,0
3972895,364.36,713,748,0
3972905,362.19,713,748,0
3972915,359.48,713,748,0
3972925,355.73,713,748,0
3972935,351.96,713,748,0
3972945,347.64,713,748,0
3972955,344.19,713,748,0
3972965,341.61,713,747,0
3972975,341.68,713,747,0
3972985,345.16,713,747,0
3972995,354.07,713,747,0
3973005,369.18,713,746,0
3973015,392.48,713,746,0
3973025,423.71,713,746,0
3973036,462.28,713,746,0
3973046,504.45,713,745,0
3973056,547.48,713,745,0
3973066,588.52,713,746,0
3973086,625.65,645,745,0
3973089,656.48,645,746,0
3973098,680.17,645,745,0
3973108,696.19,645,746,0
3973118,704.62,645,745,0
3973128,705.42,645,747,0
3973138,698.44,645,746,0
3973148,683.26,645,748,0
3973158,660.21,645,747,0
3973168,629.85,645,748,0
3973178,593.34,645,747,0
3973188,553.21,645,749,0
3973198,511.87,645,748,0
3973208,471.20,645,749,0
3973218,433.42,645,748,0
3973228,399.61,645,749,0
3973238,370.76,645,748,0
3973249,347.04,645,749,0
3973259,329.33,645,747,0
3973269,317.32,645,749,0
3973279,311.14,645,747,0
3973289,309.94,645,748,0
3973299,313.13,645,746,0
3973309,319.65,645,748,0
3973319,328.92,645,747,0
3973329,339.79,645,748,0
3973339,351.55,645,746,0
3973349,363.13,645,748,0
3973359,373.89,645,747,0
3973369,383.14,645,748,0
3973379,390.47,645,746,0
3973389,395.21,645,748,0
3973399,397.16,645,747,0
3973409,396.30,645,748,0
3973420,392.82,645,747,0
3973430,387.05,645,748,0
3973440,379.32,645,747,0
3973450,370.10,645,748,0
3973460,359.95,645,746,0
3973470,349.25,645,748,0
3973480,338.25,645,749,0
3973490,327.03,645,751,0
3973500,315.66,645,751,0
3973510,304.88,645,752,0
3973520,294.67,645,752,0
3973530,285.81,645,752,0
3973540,277.94,645,751,0
3973550,271.49,645,752,0
3973560,266.41,645,752,0
3973570,263.20,645,751,0
3973580,261.04,645,750,0
3973591,260.47,645,751,0
3973601,261.36,645,750,0
3973611,265.97,645,751,0
3973621,275.23,645,749,0
3973632,291.66,645,751,0
3973641,315.94,645,749,0
3973651,349.94,645,750,0
3973661,393.29,645,749,0
3973671,442.70,645,750,0
3973681,494.05,645,749,0
3973691,544.43,645,750,0
3973701,590.37,645,749,0
3973711,630.03,645,750,0
3973721,661.22,645,749,0
3973731,683.31,645,750,0
3973741,698.78,645,749,0
3973751,709.60,645,750,0
3973761,717.18,645,749,0
3973771,721.32,645,750,0
3973790,720.37,705,749,0
3973793,712.89,705,750,0
3973803,698.91,705,750,0
3973812,678.49,705,751,0
3973822,651.13,705,750,0
3973832,617.58,705,751,0
3973842,579.05,705,751,0
3973852,539.05,705,751,0
3973862,499.78,705,750,0
3973872,462.51,705,751,0
3973882,427.86,705,750,0
3973892,397.52,705,751,0
3973902,371.26,705,749,0
3973912,350.18,705,750,0
3973922,333.41,705,750,0
3973932,321.46,705,750,0
3973942,313.52,705,750,0
3973952,309.81,705,751,0
3973962,309.39,705,750,0
3973972,312.06,705,750,0
3973982,316.41,705,750,0
3973992,322.38,705,751,0
3974002,328.65,705,750,0
3974012,335.27,705,750,0
3974022,341.02,705,750,0
3974032,345.90,705,751,0
3974042,349.19,705,750,0
3974052,351.53,705,750,0
3974062,352.31,705,749,0
3974072,352.35,705,750,0
3974082,351.13,705,750,0
3974092,349.63,705,750,0
3974103,347.51,705,750,0
3974113,345.60,705,751,0
3974123,343.32,705,750,0
3974133,341.34,705,750,0
3974144,339.10,705,750,0
3974153,337.22,705,751,0
3974163,335.14,705,750,0
3974173,333.47,705,750,0
3974183,331.66,705,750,0
3974193,330.52,705,751,0
3974203,329.68,705,750,0
3974213,330.33,705,750,0
3974223,332.72,705,750,0
3974233,338.50,705,750,0
3974243,348.47,705,750,0
3974253,364.95,705,750,0
3974263,388.67,705,750,0
3974273,420.82,705,750,0
3974283,459.66,705,749,0
3974302,502.32,512,748,0
3974305,545.72,512,751,0
3974315,587.59,512,750,0
3974324,625.04,512,750,0
3974334,656.32,512,750,0
3974344,679.92,512,750,0
3974354,696.45,512,750,0
3974364,708.01,512,750,0
3974374,716.11,512,750,0
3974384,721.78,512,750,0
3974394,724.11,512,750,0
3974404,722.28,512,750,0
3974414,716.07,512,750,0
3974424,704.73,512,750,0
3974434,688.31,512,750,0
3974444,666.58,512,750,0
3974454,639.92,512,750,0
3974464,609.69,512,750,0
3974474,577.89,512,750,0
3974484,544.75,512,751,0
3974494,512.26,512,751,0
3974504,480.34,512,751,0
3974514,450.06,512,750,0
3974524,421.46,512,751,0
3974534,395.69,512,751,0
3974544,372.47,512,751,0
3974554,352.96,512,750,0
3974564,336.51,512,751,0
3974574,324.02,512,751,0
3974584,314.88,512,751,0
3974594,309.39,512,750,0
3974604,306.66,512,751,0
3974615,306.80,512,750,0
3974625,308.83,512,751,0
3974635,312.53,512,750,0
3974645,317.00,512,751,0
3974656,322.23,512,750,0
3974665,327.30,512,751,0
3974675,332.31,512,750,0
3974685,336.55,512,751,0
3974695,340.20,512,750,0
3974705,342.97,512,751,0
3974715,345.12,512,750,0
3974725,346.33,512,751,0
3974735,347.00,512,750,0
3974745,346.91,512,751,0
3974755,346.34,512,750,0
3974765,345.17,512,751,0
3974775,343.66,512,750,0
3974785,341.62,512,751,0
3974795,339.38,512,750,0
3974805,336.73,512,751,0
3974815,333.99,512,750,0
3974825,331.12,512,751,0
3974835,328.51,512,750,0
3974845,325.92,512,751,0
3974855,324.05,512,750,0
3974865,323.14,512,751,0
3974875,324.17,512,751,0
3974885,328.15,512,751,0
3974895,336.93,512,750,0
3974905,351.91,512,750,0
3974915,374.82,512,750,0
3974925,406.20,512,750,0
3974935,445.36,512,750,0
3974955,488.88,652,748,0
3974958,533.96,652,750,0
3974967,577.47,652,751,0
3974977,616.93,652,750,0
3974987,650.16,652,750,0
3974998,675.66,652,750,0
3975007,693.50,652,751,0
3975017,706.00,652,750,0
3975027,714.70,652,751,0
3975037,720.79,652,750,0
3975047,725.05,652,751,0
3975057,725.38,652,750,0
3975067,720.25,652,751,0
3975077,708.56,652,750,0
3975087,689.88,652,751,0
3975097,663.90,652,750,0
3975107,630.84,652,751,0
3975117,591.16,652,750,0
3975127,548.13,652,751,0
3975137,504.50,652,751,0
3975147,462.18,652,751,0
3975157,422.66,652,750,0
3975168,387.27,652,752,0
3975177,356.85,652,750,0
3975187,331.82,652,751,0
3975197,312.29,652,750,0
3975207,298.19,652,751,0
3975217,289.39,652,750,0
3975227,285.63,652,751,0
3975237,286.04,652,750,0
3975247,289.89,652,751,0
3975257,296.22,652,750,0
3975267,304.25,652,751,0
3975277,313.09,652,750,0
3975287,322.02,652,751,0
3975297,330.20,652,750,0
3975307,337.34,652,751,0
3975317,343.07,652,750,0
3975327,347.08,652,751,0
3975337,349.45,652,750,0
3975347,350.26,652,751,0
3975357,349.54,652,750,0
3975367,347.53,652,751,0
3975377,344.55,652,750,0
3975387,341.00,652,751,0
3975397,337.18,652,750,0
3975407,333.31,652,751,0
3975417,329.49,652,750,0
3975427,326.39,652,751,0
3975437,323.87,652,750,0
3975447,321.90,652,750,0
3975457,320.30,652,750,0
3975468,319.31,652,751,0
3975478,318.79,652,750,0
3975488,318.77,652,751,0
3975498,318.92,652,750,0
3975508,319.85,652,751,0
3975518,321.99,652,750,0
3975528,326.24,652,750,0
3975538,333.79,652,750,0
3975548,346.20,652,750,0
3975558,364.78,652,749,0
3975568,390.78,652,750,0
3975578,424.53,652,749,0
3975588,464.61,652,750,0
3975607,507.84,653,749,0
3975610,551.35,653,751,0
3975619,592.47,653,750,0
3975629,629.06,653,750,0
3975639,659.30,653,749,0
3975649,682.01,653,750,0
3975659,697.91,653,750,0
3975669,709.03,653,750,0
3975680,716.22,653,749,0
3975689,718.69,653,750,0
3975699,715.18,653,750,0
3975709,705.14,653,751,0
3975719,687.91,653,750,0
3975729,663.85,653,751,0
3975739,633.00,653,750,0
3975749,596.44,653,751,0
3975759,556.28,653,750,0
3975769,515.40,653,751,0
3975779,475.33,653,750,0
3975789,437.95,653,751,0
3975799,403.85,653,750,0
3975809,374.11,653,751,0
3975819,348.62,653,750,0
3975829,328.29,653,751,0
3975839,312.65,653,750,0
3975849,302.08,653,751,0
3975859,295.89,653,750,0
3975869,293.91,653,751,0
3975879,295.26,653,750,0
3975889,300.03,653,751,0
3975899,306.75,653,750,0
3975909,315.09,653,751,0
3975919,323.85,653,750,0
3975929,332.81,653,751,0
3975939,341.10,653,750,0
3975949,348.40,653,751,0
3975959,354.11,653,750,0
3975969,358.27,653,751,0
3975980,360.55,653,750,0
3975990,361.33,653,751,0
3976000,360.46,653,750,0
3976010,358.48,653,751,0
3976020,355.46,653,750,0
3976030,351.94,653,751,0
3976040,348.01,653,750,0
3976050,344.28,653,751,0
3976060,340.60,653,750,0
3976070,337.55,653,751,0
3976080,334.68,653,750,0
3976090,332.55,653,751,0
3976100,330.67,653,750,0
3976110,329.70,653,751,0
3976120,328.85,653,750,0
3976130,328.46,653,751,0
3976140,328.20,653,750,0
3976151,328.61,653,751,0
3976161,329.67,653,750,0
3976171,332.77,653,750,0
3976181,338.49,653,750,0
3976192,349.19,653,750,0
3976201,365.85,653,750,0
3976211,390.06,653,750,0
3976221,422.06,653,749,0
3976231,461.08,653,750,0
3976241,503.66,653,749,0
3976260,547.09,653,748,0
3976263,588.46,653,749,0
3976272,625.70,653,750,0
3976282,656.60,653,749,0
3976292,680.25,653,750,0
3976302,696.80,653,749,0
3976312,708.39,653,750,0
3976322,715.64,653,749,0
3976332,717.72,653,750,0
3976342,713.35,653,749,0
3976352,702.36,653,750,0
3976363,684.08,653,750,0
3976372,659.24,653,750,0
3976382,627.71,653,750,0
3976392,591.07,653,751,0
3976402,551.32,653,751,0
3976412,511.58,653,751,0
3976422,472.96,653,750,0
3976432,437.23,653,751,0
3976442,404.46,653,750,0
3976452,375.87,653,751,0
3976462,351.31,653,750,0
3976472,331.63,653,751,0
3976482,316.18,653,750,0
3976492,305.41,653,750,0
3976502,298.69,653,750,0
3976512,296.04,653,751,0
3976522,296.50,653,750,0
3976532,299.99,653,750,0
3976542,305.22,653,750,0
3976552,312.23,653,750,0
3976562,319.70,653,750,0
3976572,327.59,653,750,0
3976582,334.66,653,750,0
3976592,341.02,653,750,0
3976602,345.77,653,750,0
3976612,349.31,653,750,0
3976622,351.02,653,750,0
3976632,351.48,653,750,0
3976642,350.48,653,750,0
3976652,348.88,653,750,0
3976663,346.26,653,750,0
3976673,343.57,653,750,0
3976683,340.48,653,750,0
3976693,337.47,653,750,0
3976704,334.41,653,750,0
3976713,331.67,653,750,0
3976723,328.94,653,750,0
3976733,327.07,653,750,0
3976743,325.25,653,750,0
3976753,324.19,653,751,0
3976763,323.28,653,750,0
3976773,322.94,653,750,0
3976783,322.83,653,750,0
3976793,323.69,653,750,0
3976803,324.99,653,750,0
3976813,327.90,653,750,0
3976823,333.25,653,750,0
3976833,342.52,653,750,0
3976843,356.85,653,750,0
3976853,377.94,653,749,0
3976863,406.03,653,749,0
3976873,441.89,653,749,0
3976892,482.85,632,748,0
3976895,525.71,632,750,0
3976904,568.01,632,749,0
3976914,607.27,632,749,0
3976924,641.30,632,749,0
3976934,668.77,632,749,0
3976944,688.64,632,749,0
3976954,702.55,632,749,0
3976964,712.28,632,749,0
3976974,717.55,632,749,0
3976984,717.35,632,750,0
3976994,711.20,632,750,0
3977004,698.75,632,750,0
3977014,679.93,632,750,0
3977024,654.66,632,750,0
3977034,623.56,632,750,0
3977044,588.60,632,751,0
3977054,552.59,632,750,0
3977064,517.14,632,750,0
3977074,483.71,632,750,0
3977084,453.24,632,751,0
3977094,426.55,632,750,0
3977104,403.46,632,750,0
3977114,384.25,632,750,0
3977124,368.28,632,750,0
3977134,355.64,632,750,0
3977144,345.72,632,750,0
3977154,338.47,632,750,0
3977164,333.36,632,750,0
3977175,330.55,632,750,0
3977185,329.36,632,750,0
3977195,329.85,632,749,0
3977205,331.35,632,750,0
3977216,333.90,632,750,0
3977225,336.93,632,750,0
3977235,340.51,632,749,0
3977245,343.87,632,750,0
3977255,347.17,632,750,0
3977265,349.73,632,750,0
3977275,351.61,632,750,0
3977285,352.54,632,750,0
3977295,352.59,632,750,0
3977305,351.56,632,750,0
3977315,349.89,632,749,0
3977325,347.31,632,751,0
3977335,344.35,632,750,0
3977345,340.81,632,750,0
3977355,337.23,632,749,0
3977365,333.30,632,750,0
3977375,329.44,632,750,0
3977385,325.32,632,750,0
3977395,321.37,632,749,0
3977405,317.36,632,750,0
3977415,313.69,632,750,0
3977425,310.10,632,751,0
3977435,307.03,632,750,0
3977445,304.36,632,750,0
3977455,303.18,632,750,0
3977465,304.16,632,750,0
3977475,308.57,632,749,0
3977485,317.52,632,750,0
3977495,332.32,632,749,0
3977505,353.87,632,750,0
3977516,382.92,632,749,0
3977535,418.86,643,747,0
3977538,460.43,643,749,0
3977547,504.57,643,750,0
3977558,548.37,643,748,0
3977567,589.36,643,750,0
3977577,625.68,643,749,0
3977587,655.86,643,750,0
3977597,679.26,643,749,0
3977607,694.91,643,750,0
3977617,702.44,643,749,0
3977627,701.75,643,750,0
3977637,692.74,643,749,0
3977647,675.72,643,750,0
3977657,650.99,643,750,0
3977667,619.36,643,751,0
3977677,582.65,643,750,0
3977687,544.01,643,751,0
3977697,505.65,643,750,0
3977707,469.59,643,751,0
3977717,436.75,643,750,0
3977728,408.07,643,751,0
3977737,383.53,643,750,0
3977747,363.36,643,751,0
3977757,347.05,643,750,0
3977767,334.78,643,751,0
3977777,325.93,643,750,0
3977787,320.42,643,751,0
3977797,317.68,643,749,0
3977807,317.48,643,751,0
3977817,319.05,643,750,0
3977827,322.08,643,750,0
3977837,325.91,643,749,0
3977847,330.35,643,751,0
3977857,335.05,643,749,0
3977867,339.79,643,750,0
3977877,344.22,643,749,0
3977887,348.49,643,751,0
3977897,352.11,643,749,0
3977907,355.25,643,750,0
3977917,357.70,643,749,0
3977927,359.55,643,750,0
3977937,360.58,643,749,0
3977947,361.18,643,750,0
3977957,361.04,643,749,0
3977967,360.77,643,751,0
3977977,359.81,643,749,0
3977987,358.50,643,750,0
3977997,356.29,643,749,0
3978007,353.76,643,751,0
3978017,350.62,643,750,0
3978028,347.30,643,750,0
3978038,343.66,643,749,0
3978048,340.16,643,751,0
3978058,336.68,643,750,0
3978068,334.04,643,750,0
3978078,331.84,643,749,0
3978088,330.43,643,751,0
3978098,329.66,643,749,0
3978108,329.68,643,750,0
3978118,330.63,643,749,0
3978128,333.57,643,750,0
3978138,339.14,643,749,0
3978148,349.08,643,750,0
3978158,364.14,643,749,0
3978168,386.00,643,750,0
3978178,415.14,643,748,0
3978198,452.04,662,747,0
3978201,493.26,662,749,0
3978210,536.00,662,750,0
3978220,577.40,662,748,0
3978230,615.59,662,749,0
3978241,648.24,662,748,0
3978251,674.18,662,749,0
3978261,692.43,662,749,0
3978271,705.20,662,749,0
3978281,714.14,662,749,0
3978291,719.37,662,749,0
3978301,719.26,662,749,0
3978311,713.22,662,749,0
3978321,700.47,662,749,0
3978331,681.26,662,750,0
3978341,655.08,662,750,0
3978351,622.36,662,750,0
3978361,584.28,662,750,0
3978371,544.17,662,750,0
3978381,503.57,662,750,0
3978391,464.62,662,750,0
3978401,427.92,662,750,0
3978412,395.11,662,750,0
3978422,366.62,662,750,0
3978432,343.04,662,750,0
3978442,324.17,662,750,0
3978452,310.27,662,749,0
3978462,300.81,662,750,0
3978472,295.85,662,750,0
3978482,294.40,662,750,0
3978492,296.03,662,749,0
3978502,299.88,662,749,0
3978512,305.53,662,749,0
3978522,312.01,662,749,0
3978532,319.04,662,749,0
3978542,325.46,662,749,0
3978552,331.45,662,749,0
3978562,336.24,662,749,0
3978572,340.03,662,749,0
3978583,342.38,662,749,0
3978593,343.63,662,749,0
3978603,343.70,662,749,0
3978613,343.06,662,749,0
3978624,341.63,662,750,0
3978633,340.07,662,749,0
3978643,338.21,662,749,0
3978653,336.43,662,748,0
3978663,334.63,662,749,0
3978673,333.03,662,749,0
3978683,331.30,662,749,0
3978693,329.67,662,748,0
3978703,327.54,662,749,0
3978713,325.15,662,749,0
3978723,322.15,662,749,0
3978733,319.06,662,748,0
3978743,315.96,662,749,0
3978753,314.26,662,749,0
3978763,314.69,662,749,0
3978773,319.50,662,748,0
3978783,329.94,662,748,0
3978793,347.78,662,747,0
3978803,373.35,662,748,0
3978813,407.32,662,747,0
3978823,448.41,662,747,0
3978843,493.28,645,746,0
3978846,538.41,645,749,0
3978855,581.32,645,746,0
3978865,619.54,645,748,0
3978875,651.78,645,746,0
3978885,676.70,645,747,0
3978895,694.19,645,746,0
3978905,705.40,645,748,0
3978915,710.00,645,747,0
3978925,707.94,645,748,0
3978935,698.66,645,747,0
3978945,682.05,645,749,0
3978955,657.99,645,748,0
3978966,626.88,645,749,0
3978975,590.27,645,748,0
3978985,550.46,645,749,0
3978995,509.09,645,749,0
3979005,468.22,645,750,0
3979015,429.37,645,749,0
3979025,393.90,645,750,0
3979035,362.47,645,749,0
3979045,335.55,645,749,0
3979055,313.74,645,748,0
3979065,297.23,645,750,0
3979075,285.98,645,748,0
3979085,279.68,645,749,0
3979095,277.68,645,748,0
3979105,279.36,645,749,0
3979115,284.01,645,748,0
3979125,290.56,645,749,0
3979136,298.28,645,748,0
3979145,306.42,645,749,0
3979155,314.27,645,748,0
3979165,321.26,645,749,0
3979175,327.05,645,748,0
3979185,331.28,645,749,0
3979195,333.94,645,748,0
3979205,335.20,645,749,0
3979215,335.14,645,748,0
3979225,333.81,645,749,0
3979235,331.73,645,748,0
3979245,329.19,645,749,0
3979255,326.52,645,748,0
3979265,324.05,645,749,0
3979275,321.89,645,748,0
3979285,320.21,645,749,0
3979295,319.08,645,748,0
3979305,318.45,645,749,0
3979315,318.19,645,748,0
3979325,318.26,645,749,0
3979335,318.57,645,748,0
3979345,319.17,645,749,0
3979355,320.32,645,748,0
3979365,322.92,645,749,0
3979375,328.09,645,747,0
3979385,337.32,645,748,0
3979395,351.88,645,747,0
3979405,373.30,645,748,0
3979415,402.48,645,746,0
3979425,439.54,645,747,0
3979436,481.55,645,746,0
3979455,525.40,613,744,0
3979458,568.26,613,745,0
3979467,607.96,613,747,0
3979478,642.26,613,746,0
3979487,669.61,613,747,0
3979497,689.23,613,746,0
3979507,702.96,613,747,0
3979517,712.57,613,746,0
3979527,717.80,613,748,0
3979537,717.35,613,746,0
3979547,710.43,613,748,0
3979557,696.33,613,747,0
3979567,675.27,613,749,0
3979577,647.08,613,748,0
3979587,612.25,613,749,0
3979597,572.58,613,748,0
3979607,531.05,613,749,0
3979617,489.50,613,748,0
3979627,449.71,613,749,0
3979637,412.43,613,749,0
3979648,378.96,613,750,0
3979657,349.91,613,748,0
3979667,325.85,613,749,0
3979677,306.57,613,748,0
3979687,292.55,613,749,0
3979697,283.65,613,748,0
3979707,279.55,613,749,0
3979717,279.51,613,748,0
3979727,282.96,613,749,0
3979737,288.93,613,748,0
3979747,297.14,613,749,0
3979757,306.14,613,748,0
3979767,315.44,613,749,0
3979777,324.18,613,748,0
3979787,332.05,613,749,0
3979797,338.17,613,748,0
3979807,342.62,613,749,0
3979817,344.92,613,748,0
3979827,345.33,613,749,0
3979837,343.69,613,748,0
3979847,340.69,613,749,0
3979857,336.46,613,748,0
3979867,331.78,613,749,0
3979877,326.53,613,748,0
3979887,321.36,613,749,0
3979897,316.45,613,748,0
3979907,312.50,613,749,0
3979917,309.09,613,748,0
3979927,306.67,613,749,0
3979937,304.75,613,748,0
3979948,304.01,613,749,0
3979958,303.92,613,748,0
3979968,305.19,613,749,0
3979978,307.66,613,748,0
3979988,312.95,613,749,0
3979998,321.45,613,748,0
3980008,335.20,613,748,0
3980018,355.33,613,747,0
3980028,383.56,613,748,0
3980038,419.69,613,746,0
3980048,461.91,613,747,0
3980058,506.64,613,746,0
3980078,551.58,622,745,0
3980081,593.79,622,746,0
3980090,631.01,622,747,0
3980100,661.09,622,746,0
3980110,683.26,622,747,0
3980120,698.79,622,747,0
3980130,709.65,622,747,0
3980140,717.25,622,747,0
3980150,722.58,622,747,0
3980161,723.35,622,747,0
3980171,718.27,622,748,0
3980181,706.06,622,748,0
3980191,686.11,622,748,0
3980201,658.31,622,749,0
3980211,623.12,622,749,0
3980221,580.70,622,749,0
3980231,534.80,622,749,0
3980241,487.85,622,749,0
3980251,442.72,622,749,0
3980261,400.98,622,749,0
3980271,364.21,622,749,0
3980281,332.86,622,749,0
3980291,307.79,622,749,0
3980301,288.87,622,749,0
3980311,276.48,622,749,0
3980321,269.61,622,749,0
3980332,268.22,622,749,0
3980342,271.03,622,749,0
3980352,277.49,622,748,0
3980362,286.43,622,749,0
3980372,297.23,622,748,0
3980382,308.47,622,748,0
3980392,319.73,622,748,0
3980402,329.80,622,748,0
3980412,338.47,622,748,0
3980422,345.23,622,748,0
3980432,350.09,622,748,0
3980442,352.51,622,749,0
3980452,353.08,622,748,0
3980462,351.77,622,748,0
3980472,349.35,622,748,0
3980482,345.82,622,748,0
3980492,341.72,622,748,0
3980503,337.22,622,749,0
3980513,333.12,622,748,0
3980523,329.23,622,749,0
3980533,326.07,622,748,0
3980544,323.35,622,749,0
3980553,321.45,622,748,0
3980563,320.07,622,749,0
3980573,319.45,622,748,0
3980583,319.31,622,749,0
3980593,319.86,622,748,0
3980603,321.02,622,749,0
3980613,323.50,622,748,0
3980623,328.32,622,749,0
3980633,336.71,622,748,0
3980643,350.17,622,748,0
3980653,370.78,622,747,0
3980663,399.73,622,747,0
3980673,437.10,622,746,0
3980683,479.54,622,746,0
3980693,523.99,622,746,0
3980712,567.92,635,745,0
3980716,608.75,635,747,0
3980724,643.75,635,747,0
3980734,671.13,635,746,0
3980744,690.29,635,747,0
3980754,703.70,635,746,0
3980764,713.09,635,747,0
3980774,719.66,635,747,0
3980784,724.26,635,748,0
3980794,727.49,635,747,0
3980804,727.08,635,747,0
3980814,721.31,635,747,0
3980824,708.96,635,749,0
3980834,689.22,635,748,0
3980844,662.07,635,749,0
3980854,627.63,635,749,0
3980864,586.34,635,750,0
3980874,541.15,635,749,0
3980884,494.99,635,749,0
3980894,450.08,635,749,0
3980904,408.31,635,750,0
3980914,370.81,635,749,0
3980924,338.51,635,749,0
3980934,312.08,635,749,0
3980944,291.96,635,750,0
3980954,278.09,635,748,0
3980964,270.17,635,749,0
3980974,267.64,635,748,0
3980984,269.72,635,749,0
3980994,275.42,635,748,0
3981004,283.65,635,749,0
3981015,293.48,635,748,0
3981025,303.88,635,749,0
3981035,313.99,635,748,0
3981045,323.25,635,749,0
3981056,331.02,635,748,0
3981065,337.27,635,749,0
3981075,341.60,635,748,0
3981085,344.34,635,749,0
3981095,345.35,635,748,0
3981105,345.16,635,749,0
3981115,343.83,635,748,0
3981125,341.86,635,749,0
3981135,339.38,635,748,0
3981145,336.82,635,749,0
3981155,334.17,635,748,0
3981165,331.94,635,749,0
3981175,329.90,635,748,0
3981185,328.43,635,749,0
3981195,327.44,635,748,0
3981205,326.92,635,749,0
3981215,326.82,635,748,0
3981225,327.26,635,749,0
3981235,328.12,635,748,0
3981245,329.80,635,749,0
3981255,332.60,635,748,0
3981265,337.78,635,749,0
3981275,346.37,635,747,0
3981285,360.23,635,748,0
3981295,380.99,635,747,0
3981305,410.18,635,748,0
3981315,447.20,635,746,0
3981325,488.97,635,747,0
3981335,532.43,635,746,0
3981355,575.25,642,745,0
3981358,614.73,642,747,0
3981367,648.45,642,747,0
3981377,674.42,642,746,0
3981387,692.64,642,748,0
3981398,705.39,642,747,0
3981407,714.31,642,748,0
3981417,720.56,642,747,0
3981427,724.94,642,748,0
3981437,728.00,642,747,0
3981447,727.70,642,748,0
3981457,721.96,642,747,0
3981467,709.67,642,749,0
3981477,689.84,642,748,0
3981487,662.72,642,749,0
3981497,628.17,642,749,0
3981507,586.98,642,750,0
3981517,541.86,642,749,0
3981527,496.26,642,750,0
3981537,452.21,642,749,0
3981547,411.95,642,750,0
3981557,375.96,642,749,0
3981568,345.80,642,750,0
3981577,321.22,642,748,0
3981587,302.98,642,750,0
3981597,290.34,642,748,0
3981607,283.43,642,749,0
3981617,281.24,642,748,0
3981627,283.57,642,749,0
3981637,288.93,642,748,0
3981647,297.01,642,749,0
3981657,306.52,642,747,0
3981667,316.99,642,749,0
3981677,326.98,642,748,0
3981687,336.41,642,749,0
3981697,344.35,642,747,0
3981707,350.93,642,749,0
3981717,355.58,642,748,0
3981727,358.53,642,749,0
3981737,359.62,642,747,0
3981747,359.69,642,749,0
3981757,358.32,642,748,0
3981767,356.34,642,749,0
3981777,353.58,642,747,0
3981787,350.66,642,749,0
3981797,347.55,642,748,0
3981807,344.81,642,749,0
3981817,342.08,642,747,0
3981827,339.96,642,749,0
3981837,338.13,642,748,0
3981847,337.10,642,749,0
3981857,336.43,642,747,0
3981868,336.60,642,749,0
3981878,337.15,642,748,0
3981888,338.56,642,749,0
3981898,340.88,642,748,0
3981908,345.42,642,749,0
3981918,352.62,642,748,0
3981928,364.60,642,748,0
3981938,382.17,642,747,0
3981948,407.44,642,748,0
3981958,440.31,642,747,0
3981968,479.18,642,747,0
3981978,520.69,642,746,0
3981998,562.61,643,746,0
3982001,602.07,643,748,0
3982010,637.19,643,747,0
3982020,665.46,643,747,0
3982030,686.37,643,747,0
3982040,701.00,643,747,0
3982050,711.24,643,747,0
3982060,718.41,643,747,0
3982070,722.40,643,748,0
3982081,721.21,643,748,0
3982091,714.03,643,748,0
3982101,699.71,643,748,0
3982111,678.07,643,748,0
3982121,649.03,643,749,0
3982131,613.19,643,749,0
3982141,571.74,643,749,0
3982151,528.02,643,749,0
3982161,484.00,643,750,0
3982171,442.17,643,749,0
3982181,403.68,643,749,0
3982191,369.83,643,749,0
3982201,340.95,643,749,0
3982211,317.95,643,749,0
3982221,300.65,643,749,0
3982231,289.36,643,749,0
3982241,283.16,643,749,0
3982252,281.91,643,749,0
3982262,284.38,643,749,0
3982272,289.97,643,749,0
3982282,297.48,643,749,0
3982292,306.33,643,748,0
3982302,315.15,643,749,0
3982312,323.68,643,748,0
3982322,330.97,643,749,0
3982332,337.07,643,748,0
3982342,341.42,643,749,0
3982352,344.16,643,749,0
3982362,345.14,643,749,0
3982372,344.84,643,748,0
3982382,343.35,643,749,0
3982392,341.14,643,749,0
3982402,338.36,643,749,0
3982412,335.34,643,749,0
3982423,332.19,643,749,0
3982433,329.26,643,749,0
3982443,326.61,643,749,0
3982453,324.29,643,748,0
3982464,322.44,643,749,0
3982473,320.98,643,749,0
3982483,320.00,643,749,0
3982493,319.53,643,748,0
3982503,319.50,643,749,0
3982513,319.78,643,749,0
3982523,320.36,643,749,0
3982533,321.07,643,748,0
3982543,321.86,643,749,0
3982553,322.89,643,749,0
3982563,324.38,643,749,0
3982573,326.97,643,748,0
3982583,331.90,643,749,0
3982593,340.33,643,748,0
3982603,353.95,643,749,0
3982613,374.36,643,748,0
3982623,402.63,643,748,0
3982633,438.87,643,747,0
3982652,480.31,655,746,0
3982655,523.80,655,748,0
3982664,566.89,655,748,0
3982674,606.82,655,747,0
3982684,641.46,655,748,0
3982694,669.05,655,747,0
3982704,688.84,655,748,0
3982714,702.69,655,747,0
3982724,712.38,655,748,0
3982734,717.84,655,747,0
3982744,717.80,655,749,0
3982754,711.43,655,748,0
3982764,698.49,655,749,0
3982774,678.54,655,748,0
3982784,651.85,655,750,0
3982794,618.47,655,749,0
3982804,580.31,655,750,0
3982814,540.10,655,749,0
3982824,499.74,655,750,0
3982834,460.39,655,749,0
3982844,423.80,655,750,0
3982854,390.78,655,749,0
3982864,362.52,655,750,0
3982874,339.05,655,749,0
3982884,320.78,655,750,0
3982894,307.69,655,749,0
3982904,299.85,655,750,0
3982914,296.64,655,748,0
3982924,297.56,655,750,0
3982935,301.59,655,749,0
3982945,308.19,655,750,0
3982955,316.19,655,748,0
3982965,325.05,655,750,0
3982976,333.95,655,748,0
3982985,342.41,655,749,0
3982995,349.66,655,748,0
3983005,355.46,655,750,0
3983015,359.39,655,749,0
3983025,361.72,655,750,0
3983035,362.06,655,748,0
3983045,360.84,655,750,0
3983055,357.93,655,749,0
3983065,354.18,655,750,0
3983075,349.54,655,748,0
3983085,344.84,655,750,0
3983095,339.96,655,749,0
3983105,335.77,655,750,0
3983115,332.20,655,748,0
3983125,329.61,655,750,0
3983135,327.54,655,749,0
3983145,326.48,655,750,0
3983155,326.03,655,748,0
3983165,326.50,655,750,0
3983175,327.38,655,749,0
3983185,328.81,655,750,0
3983195,330.54,655,748,0
3983205,332.60,655,750,0
3983215,334.44,655,749,0
3983225,336.28,655,750,0
3983235,337.78,655,748,0
3983245,339.60,655,750,0
3983255,341.86,655,749,0
3983265,345.89,655,749,0
3983276,352.74,655,748,0
3983286,364.47,655,749,0
3983296,382.25,655,748,0
3983306,407.76,655,749,0
3983316,440.87,655,747,0
3983335,479.91,683,746,0
3983338,521.64,683,749,0
3983347,563.58,683,748,0
3983357,602.92,683,747,0
3983367,637.66,683,749,0
3983377,665.75,683,748,0
3983387,686.48,683,749,0
3983397,700.95,683,748,0
3983407,711.08,683,749,0
3983417,717.70,683,748,0
3983427,719.63,683,749,0
3983437,715.58,683,748,0
3983447,705.42,683,750,0
3983457,688.37,683,749,0
3983467,664.73,683,750,0
3983477,634.21,683,749,0
3983488,597.98,683,750,0
3983497,558.55,683,749,0
3983507,518.70,683,750,0
3983517,479.15,683,749,0
3983527,442.12,683,750,0
3983537,408.23,683,749,0
3983547,378.97,683,750,0
3983557,354.25,683,749,0
3983567,334.68,683,750,0
3983577,319.90,683,749,0
3983587,310.59,683,750,0
3983597,305.87,683,749,0
3983607,305.44,683,750,0
3983617,308.13,683,749,0
3983627,313.71,683,750,0
3983637,320.95,683,749,0
3983647,329.32,683,750,0
3983657,337.58,683,749,0
3983667,345.47,683,750,0
3983677,352.01,683,749,0
3983687,357.24,683,750,0
3983697,360.42,683,749,0
3983707,362.05,683,750,0
3983717,361.78,683,749,0
3983727,360.22,683,750,0
3983737,357.11,683,749,0
3983747,353.26,683,750,0
3983757,348.73,683,749,0
3983767,344.22,683,750,0
3983777,339.44,683,749,0
3983788,335.24,683,750,0
3983798,331.48,683,749,0
3983808,328.68,683,750,0
3983818,326.63,683,749,0
3983828,325.63,683,750,0
3983838,325.31,683,749,0
3983848,326.08,683,749,0
3983858,327.25,683,749,0
3983868,329.11,683,750,0
3983878,331.26,683,749,0
3983888,333.75,683,749,0
3983898,335.93,683,749,0
3983908,338.09,683,750,0
3983918,339.69,683,749,0
3983928,341.24,683,749,0
3983938,342.67,683,749,0
3983948,345.17,683,749,0
3983959,349.62,683,749,0
3983969,358.09,683,749,0
3983979,371.78,683,749,0
3983989,392.84,683,749,0
3984000,421.91,683,748,0
3984018,458.62,683,746,0
3984021,499.53,683,750,0
3984030,542.06,683,748,0
3984040,583.31,683,748,0
3984050,621.10,683,748,0
3984060,652.96,683,749,0
3984070,677.57,683,748,0
3984080,694.80,683,749,0
3984090,706.86,683,748,0
3984100,715.30,683,749,0
3984110,721.21,683,748,0
3984120,724.41,683,749,0
3984130,723.51,683,749,0
3984140,716.89,683,749,0
3984150,703.81,683,749,0
3984160,683.59,683,750,0
3984171,656.33,683,749,0
3984180,622.42,683,750,0
3984190,583.29,683,750,0
3984200,541.12,683,750,0
3984210,498.87,683,750,0
3984220,458.19,683,750,0
3984230,421.06,683,750,0
3984240,388.34,683,750,0
3984250,360.90,683,749,0
3984260,339.03,683,750,0
3984270,323.51,683,750,0
3984280,313.75,683,750,0
3984290,309.59,683,750,0
3984300,310.10,683,750,0
3984310,314.57,683,749,0
3984320,321.55,683,750,0
3984330,330.39,683,749,0
3984340,339.61,683,750,0
3984350,348.73,683,749,0
3984360,356.83,683,750,0
3984370,363.56,683,749,0
3984380,368.41,683,750,0
3984390,371.63,683,749,0
3984400,372.77,683,750,0
3984410,372.32,683,749,0
3984420,370.04,683,750,0
3984430,366.51,683,750,0
3984440,361.65,683,750,0
3984450,356.14,683,750,0
3984460,350.01,683,750,0
3984471,343.96,683,750,0
3984481,338.02,683,750,0
3984491,332.83,683,749,0
3984501,328.38,683,750,0
3984512,325.01,683,750,0
3984521,322.61,683,750,0
3984531,321.35,683,749,0
3984541,321.03,683,750,0
3984551,321.58,683,749,0
3984561,322.69,683,750,0
3984571,324.33,683,749,0
3984581,326.24,683,750,0
3984591,328.36,683,749,0
3984601,330.35,683,750,0
3984611,332.30,683,749,0
3984621,334.10,683,750,0
3984631,336.42,683,749,0
3984641,339.55,683,750,0
3984651,344.70,683,749,0
3984661,353.15,683,750,0
3984671,366.56,683,749,0
3984681,386.54,683,749,0
3984691,414.19,683,748,0
3984701,449.62,683,749,0
3984711,489.98,683,748,0
3984731,532.37,712,747,0
3984734,574.17,712,749,0
3984743,612.95,712,749,0
3984753,646.31,712,748,0
3984763,672.83,712,749,0
3984773,691.48,712,748,0
3984783,704.54,712,749,0
3984793,713.68,712,748,0
3984803,720.07,712,749,0
3984813,724.55,712,748,0
3984823,726.70,712,749,0
3984833,724.73,712,749,0
3984843,717.18,712,750,0
3984854,703.07,712,749,0
3984863,682.14,712,750,0
3984873,654.37,712,749,0
3984883,619.76,712,751,0
3984893,579.63,712,749,0
3984903,536.88,712,750,0
3984913,493.89,712,750,0
3984923,452.78,712,751,0
3984933,414.57,712,750,0
3984943,380.42,712,750,0
3984953,351.19,712,750,0
3984963,327.61,712,751,0
3984973,309.64,712,749,0
3984983,297.40,712,750,0
3984993,290.43,712,750,0
3985003,288.28,712,750,0
3985013,290.08,712,749,0
3985024,294.99,712,750,0
3985033,301.89,712,749,0
3985043,310.07,712,750,0
3985053,318.45,712,749,0
3985063,326.37,712,750,0
3985073,333.42,712,749,0
3985083,339.25,712,750,0
3985093,343.63,712,749,0
3985103,346.44,712,750,0
3985113,347.64,712,749,0
3985123,347.53,712,750,0
3985133,346.22,712,749,0
3985143,344.14,712,750,0
3985153,341.31,712,749,0
3985163,338.22,712,750,0
3985173,335.15,712,749,0
3985183,332.36,712,750,0
3985193,329.77,712,749,0
3985203,327.87,712,750,0
3985213,326.28,712,749,0
3985223,325.25,712,750,0
3985233,324.75,712,749,0
3985243,324.74,712,750,0
3985253,325.29,712,749,0
3985263,326.44,712,750,0
3985273,327.77,712,749,0
3985283,329.47,712,750,0
3985293,331.30,712,749,0
3985303,333.22,712,750,0
3985313,335.21,712,749,0
3985324,337.33,712,750,0
3985334,339.33,712,749,0
3985344,341.42,712,750,0
3985354,343.35,712,749,0
3985364,345.65,712,750,0
3985374,348.07,712,749,0
3985384,351.26,712,750,0
3985394,355.51,712,749,0
3985404,362.64,712,750,0
3985414,373.51,712,749,0
3985424,390.24,712,750,0
3985443,414.04,713,748,0
3985446,446.51,713,750,0
3985455,484.46,713,748,0
3985465,525.38,713,749,0
3985475,566.41,713,748,0
3985485,605.59,713,749,0
3985495,640.30,713,748,0
3985505,668.54,713,749,0
3985515,688.47,713,748,0
3985525,702.43,713,749,0
3985536,712.20,713,748,0
3985545,719.04,713,750,0
3985555,723.83,713,748,0
3985565,727.18,713,750,0
3985575,729.53,713,748,0
3985585,729.33,713,750,0
3985595,724.26,713,749,0
3985605,712.99,713,750,0
3985615,694.44,713,749,0
3985625,668.64,713,750,0
3985635,635.44,713,750,0
3985645,595.37,713,751,0
3985655,550.69,713,750,0
3985665,504.92,713,751,0
3985675,460.55,713,750,0
3985685,419.50,713,751,0
3985695,382.75,713,750,0
3985705,351.62,713,751,0
3985715,326.45,713,749,0
3985725,307.89,713,751,0
3985735,295.41,713,750,0
3985745,288.86,713,750,0
3985755,287.48,713,749,0
3985765,290.77,713,750,0
3985775,297.27,713,749,0
3985785,306.31,713,750,0
3985795,316.33,713,749,0
3985805,326.82,713,750,0
3985815,336.39,713,749,0
3985825,344.84,713,750,0
3985836,351.28,713,749,0
3985846,355.95,713,750,0
3985856,358.24,713,749,0
3985866,358.81,713,750,0
3985876,357.41,713,749,0
3985886,354.76,713,750,0
3985896,350.89,713,749,0
3985906,346.51,713,750,0
3985916,341.60,713,749,0
3985926,337.00,713,750,0
3985936,332.42,713,750,0
3985946,328.48,713,750,0
3985956,324.86,713,749,0
3985966,322.20,713,750,0
3985976,319.96,713,749,0
3985986,318.47,713,750,0
3985996,317.26,713,749,0
3986007,316.84,713,750,0
3986017,316.67,713,750,0
3986027,317.33,713,750,0
3986037,317.96,713,749,0
3986048,319.34,713,750,0
3986057,320.83,713,749,0
3986067,322.81,713,750,0
3986077,324.66,713,749,0
3986087,327.16,713,750,0
3986097,330.03,713,750,0
3986107,334.95,713,750,0
3986117,342.55,713,749,0
3986127,354.99,713,750,0
3986137,373.16,713,749,0
3986147,399.13,713,749,0
3986157,432.95,713,748,0
3986177,472.91,733,747,0
3986180,515.62,733,749,0
3986189,558.55,733,749,0
3986199,598.84,733,749,0
3986209,634.67,733,749,0
3986220,663.74,733,749,0
3986230,685.08,733,749,0
3986240,699.97,733,749,0
3986250,710.39,733,749,0
3986260,717.69,733,749,0
3986270,722.84,733,749,0
3986280,724.34,733,749,0
3986290,720.86,733,749,0
3986300,711.17,733,750,0
3986310,694.96,733,749,0
3986320,671.70,733,750,0
3986330,641.66,733,750,0
3986340,604.95,733,750,0
3986350,564.46,733,750,0
3986360,522.28,733,750,0
3986370,480.80,733,750,0
3986380,441.26,733,751,0
3986391,405.27,733,750,0
3986401,373.47,733,750,0
3986411,346.80,733,750,0
3986421,325.30,733,751,0
3986432,309.48,733,749,0
3986441,299.01,733,750,0
3986451,293.82,733,749,0
3986461,293.32,733,750,0
3986471,296.82,733,749,0
3986481,303.48,733,750,0
3986491,312.20,733,749,0
3986501,322.09,733,750,0
3986511,332.26,733,749,0
3986521,341.78,733,750,0
3986531,349.78,733,749,0
3986541,355.76,733,750,0
3986551,359.39,733,749,0
3986561,360.86,733,750,0
3986571,360.30,733,750,0
3986581,357.94,733,750,0
3986591,354.31,733,750,0
3986601,349.59,733,750,0
3986611,344.44,733,750,0
3986621,339.08,733,751,0
3986631,333.70,733,749,0
3986641,328.69,733,750,0
3986651,324.41,733,750,0
3986661,320.90,733,750,0
3986671,318.70,733,749,0
3986681,317.76,733,750,0
3986691,317.96,733,750,0
3986701,319.30,733,750,0
3986711,321.53,733,749,0
3986721,324.33,733,750,0
3986732,327.53,733,749,0
3986742,330.76,733,750,0
3986752,333.70,733,749,0
3986762,336.58,733,750,0
3986772,339.32,733,750,0
3986782,342.31,733,750,0
3986792,346.29,733,749,0
3986802,352.42,733,750,0
3986812,362.36,733,749,0
3986822,377.64,733,750,0
3986832,399.95,733,749,0
3986842,430.39,733,750,0
3986852,467.56,733,748,0
3986871,508.53,695,747,0
3986874,550.55,695,749,0
3986883,591.01,695,749,0
3986893,627.69,695,748,0
3986903,658.30,695,750,0
3986913,681.31,695,748,0
3986923,697.42,695,750,0
3986933,708.69,695,748,0
3986944,716.58,695,750,0
3986953,722.11,695,749,0
3986963,725.98,695,750,0
3986973,726.93,695,748,0
3986983,723.35,695,750,0
3986993,714.03,695,749,0
3987003,698.08,695,750,0
3987013,674.95,695,749,0
3987023,644.80,695,751,0
3987033,608.00,695,750,0
3987043,566.73,695,751,0
3987053,523.40,695,749,0
3987063,480.55,695,751,0
3987073,440.14,695,750,0
3987083,403.97,695,751,0
3987093,372.65,695,749,0
3987103,347.00,695,751,0
3987113,327.33,695,750,0
3987123,314.11,695,751,0
3987133,306.71,695,749,0
3987143,304.70,695,751,0
3987153,306.97,695,750,0
3987163,313.02,695,750,0
3987173,321.55,695,749,0
3987183,331.75,695,750,0
3987193,342.33,695,749,0
3987203,352.64,695,750,0
3987213,361.79,695,749,0
3987223,369.36,695,750,0
3987233,374.73,695,749,0
3987244,377.94,695,750,0
3987254,378.73,695,749,0
3987264,377.61,695,751,0
3987274,374.77,695,749,0
3987284,370.64,695,750,0
3987294,365.61,695,749,0
3987304,360.32,695,751,0
3987314,354.91,695,749,0
3987324,350.18,695,750,0
3987334,345.88,695,749,0
3987344,342.62,695,751,0
3987354,340.03,695,749,0
3987364,338.52,695,750,0
3987374,337.77,695,749,0
3987384,338.09,695,750,0
3987394,338.88,695,749,0
3987404,340.59,695,750,0
3987415,342.43,695,749,0
3987425,345.04,695,750,0
3987435,347.81,695,749,0
3987445,351.13,695,750,0
3987456,354.35,695,749,0
3987465,357.80,695,750,0
3987475,360.90,695,749,0
3987485,363.97,695,750,0
3987495,366.34,695,749,0
3987505,368.42,695,750,0
3987515,369.75,695,749,0
3987525,371.37,695,750,0
3987535,373.53,695,749,0
3987545,377.87,695,750,0
3987555,385.58,695,749,0
3987565,399.38,695,750,0
3987575,420.56,695,749,0
3987585,450.65,695,749,0
3987595,486.67,695,748,0
3987614,526.24,743,747,0
3987617,566.63,743,750,0
3987627,605.57,743,749,0
3987636,640.07,743,749,0
3987646,668.20,743,749,0
3987656,688.29,743,749,0
3987666,702.34,743,749,0
3987676,712.18,743,749,0
3987686,719.07,743,749,0
3987696,723.89,743,749,0
3987706,727.27,743,750,0
3987716,729.59,743,749,0
3987726,731.21,743,750,0
3987736,732.35,743,749,0
3987746,733.14,743,750,0
3987756,732.03,743,749,0
3987766,726.36,743,750,0
3987776,713.95,743,750,0
3987786,694.00,743,750,0
3987796,665.84,743,750,0
3987806,630.19,743,751,0
3987816,587.15,743,750,0
3987826,539.57,743,751,0
3987836,490.89,743,751,0
3987846,444.94,743,751,0
3987856,403.30,743,750,0
3987866,368.02,743,750,0
3987876,339.22,743,750,0
3987886,317.94,743,751,0
3987896,303.64,743,750,0
3987906,296.25,743,750,0
3987916,294.29,743,750,0
3987927,297.29,743,750,0
3987937,303.76,743,750,0
3987947,312.87,743,750,0
3987957,323.07,743,750,0
3987968,333.38,743,750,0
3987977,342.74,743,750,0
3987987,350.91,743,750,0
3987997,356.98,743,750,0
3988007,361.19,743,750,0
3988017,363.02,743,750,0
3988027,363.18,743,749,0
3988037,361.63,743,750,0
3988047,359.13,743,750,0
3988057,355.49,743,750,0
3988067,351.70,743,749,0
3988077,347.55,743,750,0
3988087,343.87,743,750,0
3988097,340.35,743,750,0
3988107,337.50,743,750,0
3988117,334.91,743,750,0
3988127,333.14,743,750,0
3988137,331.68,743,750,0
3988147,330.96,743,750,0
3988157,330.55,743,750,0
3988167,330.85,743,750,0
3988177,331.54,743,750,0
3988187,332.84,743,750,0
3988197,334.17,743,750,0
3988207,336.09,743,750,0
3988217,337.73,743,750,0
3988227,339.49,743,750,0
3988237,340.63,743,750,0
3988247,341.64,743,750,0
3988257,342.56,743,750,0
3988268,344.45,743,749,0
3988278,347.91,743,750,0
3988288,355.05,743,749,0
3988298,367.08,743,749,0
3988308,386.17,743,749,0
3988318,412.91,743,749,0
3988328,448.08,743,749,0
3988347,488.34,733,747,0
3988350,530.88,733,749,0
3988359,572.83,733,749,0
3988369,611.84,733,749,0
3988379,645.40,733,749,0
3988389,672.24,733,748,0
3988399,691.07,733,749,0
3988409,704.25,733,749,0
3988419,713.47,733,749,0
3988429,719.93,733,748,0
3988439,724.45,733,750,0
3988449,727.62,733,749,0
3988459,729.83,733,750,0
3988469,728.55,733,749,0
3988480,722.09,733,750,0
3988489,709.59,733,749,0
3988499,690.13,733,750,0
3988509,663.35,733,750,0
3988519,629.26,733,751,0
3988529,588.47,733,750,0
3988539,543.93,733,751,0
3988549,498.18,733,750,0
3988559,453.04,733,751,0
3988569,410.68,733,750,0
3988579,372.38,733,751,0
3988589,339.31,733,750,0
3988599,311.79,733,751,0
3988609,290.59,733,750,0
3988619,275.63,733,750,0
3988629,266.78,733,750,0
3988639,263.29,733,751,0
3988649,264.66,733,749,0
3988659,269.78,733,750,0
3988669,277.82,733,750,0
3988679,287.60,733,750,0
3988689,298.48,733,749,0
3988699,309.22,733,750,0
3988709,319.23,733,749,0
3988719,327.69,733,750,0
3988729,334.42,733,749,0
3988739,339.18,733,750,0
3988749,342.13,733,749,0
3988759,343.29,733,750,0
3988769,343.12,733,750,0
3988780,341.88,733,750,0
3988790,339.99,733,749,0
3988800,337.63,733,750,0
3988810,335.17,733,749,0
3988820,332.85,733,750,0
3988830,330.84,733,749,0
3988840,329.13,733,750,0
3988850,327.89,733,749,0
3988860,327.24,733,750,0
3988870,327.12,733,749,0
3988880,327.34,733,750,0
3988890,328.05,733,749,0
3988900,329.07,733,750,0
3988910,330.55,733,749,0
3988920,332.35,733,750,0
3988930,334.13,733,749,0
3988940,336.02,733,750,0
3988951,337.94,733,749,0
3988961,339.89,733,750,0
3988971,341.72,733,749,0
3988981,343.48,733,751,0
3988992,344.92,733,749,0
3989001,346.36,733,750,0
3989011,347.54,733,749,0
3989021,348.58,733,750,0
3989031,349.05,733,749,0
3989041,349.25,733,750,0
3989051,349.09,733,749,0
3989061,349.10,733,750,0
3989071,349.97,733,749,0
3989081,352.72,733,750,0
3989091,358.81,733,749,0
3989101,370.09,733,750,0
3989121,388.15,773,748,0
3989124,414.98,773,750,0
3989133,450.08,773,748,0
3989143,490.22,773,749,0
3989153,532.67,773,748,0
3989164,574.72,773,749,0
3989174,613.81,773,748,0
3989184,647.68,773,749,0
3989194,673.88,773,749,0
3989204,692.21,773,749,0
3989214,705.05,773,749,0
3989224,714.03,773,750,0
3989234,720.32,773,749,0
3989244,724.73,773,749,0
3989254,726.65,773,749,0
3989264,724.44,773,750,0
3989274,716.59,773,749,0
3989284,702.36,773,749,0
3989294,681.25,773,750,0
3989304,653.32,773,750,0
3989314,618.47,773,750,0
3989324,578.55,773,750,0
3989335,535.83,773,750,0
3989345,493.07,773,751,0
3989355,451.60,773,750,0
3989365,413.28,773,750,0
3989376,378.70,773,750,0
3989385,349.30,773,751,0
3989395,324.95,773,750,0
3989405,306.67,773,750,0
3989415,293.78,773,750,0
3989425,286.69,773,750,0
3989435,284.21,773,750,0
3989445,286.25,773,750,0
3989455,291.45,773,750,0
3989465,299.37,773,750,0
3989475,308.47,773,749,0
3989485,318.36,773,750,0
3989495,327.72,773,750,0
3989505,336.55,773,750,0
3989515,343.76,773,750,0
3989525,349.40,773,750,0
3989535,352.92,773,750,0
3989545,354.83,773,750,0
3989555,354.80,773,750,0
3989565,353.53,773,750,0
3989575,350.80,773,750,0
3989585,347.52,773,750,0
3989595,343.38,773,750,0
3989605,339.23,773,750,0
3989615,334.88,773,750,0
3989625,331.06,773,750,0
3989635,327.57,773,750,0
3989645,324.91,773,750,0
3989655,322.75,773,750,0
3989665,321.63,773,750,0
3989676,321.10,773,750,0
3989686,321.50,773,750,0
3989696,322.46,773,750,0
3989706,324.12,773,750,0
3989716,326.10,773,750,0
3989726,328.43,773,750,0
3989736,330.66,773,750,0
3989746,333.12,773,750,0
3989756,335.27,773,750,0
3989766,337.50,773,750,0
3989776,339.54,773,750,0
3989786,342.29,773,750,0
3989796,346.36,773,750,0
3989806,353.41,773,750,0
3989816,364.00,773,750,0
3989826,380.07,773,749,0
3989836,402.25,773,749,0
3989847,431.79,773,749,0
3989866,467.90,746,748,0
3989869,507.87,746,749,0
3989878,548.62,746,749,0
3989889,588.16,746,748,0
3989899,624.03,746,750,0
3989909,654.66,746,749,0
3989919,678.59,746,750,0
3989929,695.52,746,749,0
3989939,707.36,746,750,0
3989949,713.94,746,749,0
3989959,714.69,746,750,0
3989969,709.29,746,749,0
3989979,697.68,746,750,0
3989989,679.77,746,750,0
3989999,655.58,746,750,0
3990009,625.41,746,750,0
3990019,591.52,746,751,0
3990029,555.92,746,750,0
3990039,520.07,746,751,0
3990049,484.78,746,750,0
3990060,451.07,746,751,0
3990070,419.77,746,750,0
3990080,391.42,746,751,0
3990090,366.35,746,750,0
3990100,345.03,746,751,0
3990110,327.71,746,750,0
3990120,314.68,746,751,0
3990130,305.82,746,750,0
3990140,301.03,746,751,0
3990150,299.99,746,750,0
3990160,301.92,746,750,0
3990170,306.19,746,749,0
3990180,311.96,746,750,0
3990190,318.62,746,750,0
3990200,325.50,746,750,0
3990210,331.95,746,749,0
3990220,337.49,746,750,0
3990231,341.72,746,749,0
3990241,344.59,746,750,0
3990251,345.87,746,749,0
3990261,345.78,746,751,0
3990272,344.26,746,749,0
3990281,341.74,746,750,0
3990291,338.26,746,749,0
3990301,334.50,746,750,0
3990311,330.32,746,749,0
3990321,326.41,746,750,0
3990331,322.69,746,749,0
3990341,319.69,746,750,0
3990351,317.26,746,750,0
3990361,315.68,746,750,0
3990371,314.75,746,749,0
3990381,314.65,746,750,0
3990391,315.18,746,749,0
3990401,316.46,746,751,0
3990411,318.12,746,749,0
3990421,320.48,746,750,0
3990431,322.91,746,749,0
3990441,325.64,746,750,0
3990451,328.23,746,749,0
3990461,330.86,746,750,0
3990471,333.22,746,749,0
3990481,335.47,746,750,0
3990491,337.08,746,749,0
3990501,338.60,746,750,0
3990511,340.01,746,750,0
3990521,342.23,746,750,0
3990531,345.89,746,749,0
3990541,352.52,746,750,0
3990551,363.51,746,749,0
3990561,380.76,746,750,0
3990572,405.43,746,748,0
3990582,438.17,746,749,0
3990601,476.82,735,748,0
3990604,518.53,735,751,0
3990614,560.54,735,748,0
3990623,600.37,735,749,0
3990633,635.57,735,748,0
3990643,664.37,735,750,0
3990653,685.56,735,749,0
3990663,700.39,735,749,0
3990673,710.77,735,749,0
3990683,718.04,735,750,0
3990693,723.09,735,749,0
3990703,724.77,735,749,0
3990713,721.54,735,749,0
3990723,712.85,735,750,0
3990733,697.51,735,749,0
3990743,675.80,735,750,0
3990753,647.45,735,750,0
3990763,612.81,735,751,0
3990773,573.87,735,750,0
3990784,533.28,735,750,0
3990793,492.35,735,750,0
3990803,453.42,735,751,0
3990813,416.82,735,750,0
3990823,383.92,735,750,0
3990833,355.01,735,750,0
3990843,330.97,735,751,0
3990853,311.78,735,750,0
3990863,297.66,735,750,0
3990873,287.99,735,750,0
3990883,282.94,735,750,0
3990893,281.58,735,749,0
3990903,283.81,735,750,0
3990913,288.32,735,750,0
3990923,294.78,735,750,0
3990933,302.01,735,749,0
3990943,309.80,735,750,0
3990953,317.02,735,750,0
3990963,323.53,735,750,0
3990973,328.47,735,749,0
3990983,332.23,735,750,0
3990993,334.22,735,750,0
3991003,335.14,735,750,0
3991013,334.63,735,749,0
3991023,333.28,735,750,0
3991033,330.84,735,750,0
3991043,328.19,735,750,0
3991053,325.13,735,749,0
3991063,322.31,735,750,0
3991073,319.39,735,750,0
3991084,317.08,735,750,0
3991094,315.09,735,750,0
3991104,314.25,735,750,0
3991114,313.83,735,750,0
3991124,314.27,735,750,0
3991134,314.96,735,749,0
3991144,316.34,735,750,0
3991154,317.83,735,750,0
3991164,319.93,735,750,0
3991174,321.97,735,750,0
3991184,324.38,735,750,0
3991194,326.75,735,750,0
3991204,329.23,735,750,0
3991214,331.34,735,749,0
3991224,333.47,735,750,0
3991234,335.21,735,749,0
3991244,336.99,735,750,0
3991255,338.71,735,750,0
3991265,341.28,735,750,0
3991275,345.61,735,749,0
3991285,353.27,735,749,0
3991296,365.49,735,749,0
3991305,383.94,735,749,0
3991324,409.46,723,747,0
3991327,443.39,723,749,0
3991336,482.66,723,749,0
3991346,524.55,723,749,0
3991356,566.30,723,748,0
3991366,605.51,723,749,0
3991376,639.94,723,749,0
3991386,668.07,723,749,0
3991396,688.15,723,749,0
3991406,702.21,723,749,0
3991416,712.04,723,749,0
3991426,718.97,723,749,0
3991436,722.32,723,749,0
3991446,721.07,723,749,0
3991456,714.11,723,750,0
3991467,701.00,723,749,0
3991476,681.59,723,749,0
3991486,655.70,723,750,0
3991496,623.39,723,750,0
3991506,586.80,723,750,0
3991516,548.03,723,750,0
3991526,509.28,723,750,0
3991536,471.70,723,750,0
3991546,436.39,723,750,0
3991556,404.21,723,750,0
3991566,376.16,723,750,0
3991576,352.20,723,750,0
3991586,332.94,723,750,0
3991596,317.92,723,750,0
3991606,307.53,723,750,0
3991616,301.45,723,750,0
3991626,299.48,723,750,0
3991636,300.75,723,750,0
3991646,304.77,723,750,0
3991656,310.28,723,750,0
3991666,317.22,723,750,0
3991676,324.49,723,750,0
3991686,331.58,723,750,0
3991696,337.71,723,750,0
3991706,342.68,723,750,0
3991716,346.25,723,750,0
3991726,348.66,723,750,0
3991736,349.53,723,750,0
3991746,349.33,723,750,0
3991756,347.95,723,750,0
3991767,346.08,723,750,0
3991777,343.57,723,750,0
3991787,341.00,723,750,0
3991797,338.17,723,750,0
3991808,335.55,723,750,0
3991817,332.98,723,750,0
3991827,330.89,723,749,0
3991837,329.08,723,750,0
3991847,327.77,723,750,0
3991857,326.64,723,750,0
3991867,326.06,723,750,0
3991877,325.87,723,750,0
3991887,326.17,723,750,0
3991897,326.80,723,750,0
3991907,327.85,723,749,0
3991917,329.18,723,750,0
3991927,330.84,723,750,0
3991937,332.69,723,750,0
3991947,334.75,723,750,0
3991957,336.80,723,750,0
3991967,338.87,723,750,0
3991977,340.54,723,750,0
3991987,342.01,723,750,0
3991997,343.03,723,750,0
3992007,343.79,723,750,0
3992017,344.50,723,750,0
3992027,345.85,723,750,0
3992037,348.59,723,750,0
3992047,354.37,723,750,0
3992057,364.76,723,750,0
3992067,381.33,723,749,0
3992077,405.36,723,749,0
3992096,437.61,772,748,0
3992099,476.00,772,750,0
3992108,517.57,772,748,0
3992118,559.57,772,749,0
3992128,599.30,772,748,0
3992138,634.70,772,749,0
3992148,663.76,772,748,0
3992158,685.13,772,749,0
3992168,700.09,772,748,0
3992178,710.56,772,750,0
3992188,717.89,772,749,0
3992198,723.03,772,750,0
3992208,725.68,772,748,0
3992218,724.06,772,750,0
3992228,717.14,772,749,0
3992238,704.24,772,750,0
3992248,684.88,772,749,0
3992258,658.99,772,750,0
3992268,626.76,772,749,0
3992279,589.51,772,751,0
3992289,549.84,772,750,0
3992299,509.86,772,751,0
3992309,471.07,772,750,0
3992320,435.05,772,751,0
3992329,402.68,772,750,0
3992339,374.83,772,751,0
3992349,351.87,772,750,0
3992359,334.29,772,751,0
3992369,321.91,772,749,0
3992379,314.73,772,751,0
3992389,312.03,772,749,0
3992399,313.39,772,750,0
3992409,317.77,772,749,0
3992419,324.48,772,750,0
3992429,332.52,772,749,0
3992439,341.24,772,750,0
3992449,349.70,772,749,0
3992459,357.46,772,750,0
3992469,363.96,772,749,0
3992479,368.86,772,750,0
3992489,371.77,772,749,0
3992499,372.96,772,750,0
3992509,372.37,772,749,0
3992519,370.37,772,750,0
3992529,367.13,772,749,0
3992539,363.02,772,750,0
3992549,358.47,772,749,0
3992559,354.09,772,750,0
3992569,349.78,772,749,0
3992579,345.77,772,751,0
3992589,342.03,772,750,0
3992599,338.80,772,750,0
3992609,336.03,772,749,0
3992620,333.97,772,751,0
3992630,332.39,772,750,0
3992640,331.50,772,750,0
3992650,331.31,772,749,0
3992660,331.86,772,750,0
3992670,332.97,772,749,0
3992680,334.70,772,750,0
3992690,336.59,772,749,0
3992700,338.90,772,750,0
3992710,341.20,772,749,0
3992720,343.54,772,750,0
3992730,345.52,772,749,0
3992740,347.38,772,750,0
3992750,348.76,772,749,0
3992760,349.99,772,750,0
3992770,350.72,772,749,0
3992780,351.75,772,750,0
3992791,353.50,772,749,0
3992801,357.63,772,750,0
3992811,365.11,772,749,0
3992821,378.11,772,750,0
3992832,397.66,772,749,0
3992841,424.76,772,749,0
3992851,459.33,772,748,0
3992870,498.75,774,747,0
3992873,539.92,774,750,0
3992882,580.45,774,749,0
3992892,617.56,774,748,0
3992902,649.45,774,749,0
3992912,674.81,774,749,0
3992922,692.87,774,750,0
3992932,705.51,774,749,0
3992942,714.36,774,750,0
3992952,719.13,774,749,0
3992962,719.14,774,750,0
3992972,713.35,774,749,0
3992982,701.68,774,750,0
3992992,683.52,774,749,0
3993003,659.28,774,750,0
3993012,629.11,774,750,0
3993022,594.96,774,751,0
3993032,558.54,774,750,0
3993042,522.12,774,751,0
3993052,486.60,774,750,0
3993062,453.63,774,751,0
3993072,423.40,774,750,0
3993082,396.80,774,751,0
3993092,373.80,774,750,0
3993102,355.05,774,750,0
3993112,340.20,774,750,0
3993122,329.56,774,750,0
3993132,322.70,774,749,0
3993142,319.54,774,750,0
3993152,319.16,774,749,0
3993162,321.68,774,750,0
3993172,325.89,774,750,0
3993182,331.50,774,750,0
3993192,337.52,774,749,0
3993202,343.66,774,750,0
3993212,349.16,774,749,0
3993222,354.04,774,750,0
3993232,357.29,774,749,0
3993242,359.43,774,750,0
3993252,359.99,774,749,0
3993262,359.39,774,750,0
3993272,357.30,774,750,0
3993282,354.47,774,750,0
3993292,350.77,774,749,0
3993303,346.85,774,750,0
3993313,342.53,774,750,0
3993323,338.64,774,750,0
3993333,334.85,774,749,0
3993344,331.81,774,750,0
3993353,329.08,774,750,0
3993363,327.08,774,750,0
3993373,325.47,774,750,0
3993383,324.65,774,750,0
3993393,324.02,774,750,0
3993403,324.19,774,750,0
3993413,324.39,774,750,0
3993423,325.30,774,750,0
3993433,326.32,774,750,0
3993443,327.94,774,750,0
3993453,329.59,774,750,0
3993463,331.68,774,750,0
3993473,333.45,774,750,0
3993483,335.37,774,750,0
3993493,336.72,774,749,0
3993503,338.00,774,749,0
3993513,338.86,774,750,0
3993523,339.72,774,750,0
3993533,340.14,774,749,0
3993543,340.74,774,749,0
3993553,341.38,774,750,0
3993563,342.21,774,750,0
3993573,342.83,774,749,0
3993583,343.70,774,750,0
3993593,344.34,774,750,0
3993603,345.53,774,750,0
3993613,347.60,774,749,0
3993623,351.79,774,749,0
3993633,359.27,774,750,0
3993644,372.00,774,749,0
3993663,390.86,793,748,0
3993666,418.03,793,748,0
3993675,453.12,793,749,0
3993686,493.11,793,748,0
3993695,534.95,793,749,0
3993705,576.32,793,748,0
3993715,614.58,793,749,0
3993725,647.88,793,749,0
3993735,673.89,793,749,0
3993745,692.09,793,749,0
3993755,704.84,793,749,0
3993765,713.80,793,749,0
3993775,720.12,793,749,0
3993785,724.50,793,749,0
3993795,726.62,793,750,0
3993805,724.93,793,749,0
3993815,718.48,793,750,0
3993825,706.42,793,750,0
3993835,688.08,793,750,0
3993845,663.54,793,750,0
3993856,632.69,793,750,0
3993865,597.17,793,750,0
3993875,559.06,793,750,0
3993885,520.47,793,750,0
3993895,482.70,793,751,0
3993905,447.61,793,750,0
3993915,415.54,793,751,0
3993925,387.61,793,750,0
3993935,363.94,793,750,0
3993945,345.01,793,750,0
3993955,330.74,793,750,0
3993965,321.17,793,750,0
3993975,315.68,793,750,0
3993985,314.28,793,750,0
3993995,316.04,793,750,0
3994005,320.40,793,750,0
3994015,326.36,793,750,0
3994025,333.20,793,749,0
3994035,340.12,793,750,0
3994045,346.64,793,750,0
3994055,352.02,793,750,0
3994065,356.39,793,750,0
3994075,358.93,793,750,0
3994085,360.24,793,750,0
3994095,360.04,793,750,0
3994105,358.74,793,750,0
3994115,356.37,793,750,0
3994125,353.43,793,750,0
3994135,350.09,793,750,0
3994145,346.89,793,750,0
3994156,343.71,793,750,0
3994166,341.05,793,750,0
3994176,339.02,793,750,0
3994186,337.86,793,749,0
3994196,337.52,793,750,0
3994206,337.79,793,750,0
3994216,338.62,793,750,0
3994226,339.98,793,749,0
3994236,341.61,793,750,0
3994246,343.49,793,750,0
3994256,345.23,793,750,0
3994266,346.92,793,750,0
3994276,348.36,793,750,0
3994286,349.71,793,749,0
3994296,350.91,793,750,0
3994306,351.96,793,749,0
3994316,352.62,793,750,0
3994327,353.12,793,749,0
3994337,353.25,793,750,0
3994347,353.22,793,749,0
3994357,352.94,793,750,0
3994368,352.40,793,749,0
3994377,351.68,793,750,0
3994387,350.79,793,749,0
3994397,349.83,793,750,0
3994407,348.81,793,749,0
3994417,347.84,793,750,0
3994427,347.03,793,749,0
3994437,346.76,793,750,0
3994447,347.65,793,749,0
3994457,350.80,793,750,0
3994467,357.41,793,749,0
3994477,368.90,793,749,0
3994487,386.59,793,748,0
3994506,411.31,843,747,0
3994509,444.00,843,748,0
3994518,482.36,843,749,0
3994528,523.48,843,748,0
3994539,564.61,843,749,0
3994548,603.38,843,748,0
3994558,637.60,843,749,0
3994568,665.83,843,749,0
3994578,686.50,843,749,0
3994588,701.00,843,748,0
3994598,711.12,843,749,0
3994608,718.20,843,748,0
3994618,722.68,843,750,0
3994628,723.29,843,749,0
3994638,718.96,843,750,0
3994648,708.86,843,749,0
3994658,692.61,843,750,0
3994668,670.19,843,749,0
3994678,641.67,843,750,0
3994688,607.91,843,750,0
3994698,571.30,843,751,0
3994708,533.75,843,749,0
3994718,497.18,843,751,0
3994728,462.63,843,750,0
3994738,431.15,843,751,0
3994748,403.29,843,749,0
3994758,379.51,843,751,0
3994768,359.98,843,750,0
3994778,344.94,843,751,0
3994788,334.12,843,749,0
3994798,327.74,843,751,0
3994808,324.95,843,749,0
3994818,325.48,843,750,0
3994828,328.51,843,749,0
3994839,333.71,843,750,0
3994849,339.88,843,749,0
3994859,346.73,843,750,0
3994869,353.03,843,749,0
3994880,358.89,843,750,0
3994889,363.42,843,750,0
3994899,366.81,843,750,0
3994909,368.24,843,749,0
3994919,368.47,843,750,0
3994929,366.87,843,749,0
3994939,364.04,843,750,0
3994949,359.95,843,749,0
3994959,355.30,843,750,0
3994969,350.02,843,750,0
3994979,344.92,843,750,0
3994989,339.76,843,749,0
3994999,335.37,843,750,0
3995009,331.79,843,749,0
3995019,329.19,843,750,0
3995029,327.38,843,749,0
3995039,326.67,843,750,0
3995049,326.72,843,750,0
3995059,327.92,843,750,0
3995069,329.66,843,749,0
3995079,332.16,843,750,0
3995089,334.86,843,749,0
3995099,338.03,843,750,0
3995109,340.93,843,749,0
3995119,343.82,843,750,0
3995129,346.19,843,749,0
3995139,348.36,843,750,0
3995149,350.05,843,749,0
3995159,351.49,843,750,0
3995169,352.55,843,749,0
3995180,354.01,843,750,0
3995190,356.15,843,749,0
3995200,360.39,843,750,0
3995210,367.65,843,749,0
3995220,379.71,843,750,0
3995230,397.58,843,748,0
3995240,422.69,843,749,0
3995250,455.01,843,748,0
3995270,492.81,763,747,0
3995273,532.85,763,749,0
3995282,572.84,763,749,0
3995292,610.04,763,748,0
3995302,642.90,763,749,0
3995312,669.50,763,748,0
3995322,689.11,763,749,0
3995332,702.79,763,748,0
3995342,712.41,763,749,0
3995352,718.42,763,749,0
3995362,720.01,763,749,0
3995372,716.02,763,749,0
3995382,706.24,763,750,0
3995393,690.01,763,750,0
3995403,667.64,763,750,0
3995413,638.90,763,750,0
3995423,605.29,763,750,0
3995433,568.56,763,750,0
3995443,531.58,763,750,0
3995453,494.93,763,750,0
3995463,460.24,763,750,0
3995473,427.98,763,750,0
3995483,399.44,763,750,0
3995493,374.45,763,749,0
3995503,353.96,763,750,0
3995513,337.52,763,750,0
3995523,325.83,763,750,0
3995533,318.51,763,750,0
3995543,315.66,763,750,0
3995553,316.27,763,750,0
3995564,320.09,763,749,0
3995574,325.89,763,749,0
3995584,333.17,763,749,0
3995594,340.92,763,750,0
3995604,348.79,763,749,0
3995614,355.66,763,749,0
3995624,361.55,763,750,0
3995634,365.76,763,750,0
3995644,368.49,763,750,0
3995654,369.33,763,749,0
3995664,368.67,763,750,0
3995674,366.50,763,750,0
3995684,363.43,763,749,0
3995694,359.40,763,750,0
3995704,355.17,763,750,0
3995714,350.75,763,750,0
3995724,346.84,763,750,0
3995735,343.50,763,750,0
3995745,340.99,763,749,0
3995755,339.28,763,750,0
3995765,338.47,763,749,0
3995776,338.28,763,749,0
3995785,338.97,763,749,0
3995795,340.18,763,750,0
3995805,341.88,763,749,0
3995815,344.06,763,750,0
3995825,346.40,763,749,0
3995835,348.77,763,750,0
3995845,351.28,763,749,0
3995855,353.81,763,750,0
3995865,356.82,763,749,0
3995875,360.91,763,750,0
3995885,367.32,763,749,0
3995895,377.64,763,749,0
3995905,393.39,763,749,0
3995915,415.90,763,749,0
3995925,446.10,763,748,0
3995944,482.37,675,746,0
3995948,522.03,675,749,0
3995956,562.26,675,749,0
3995966,600.67,675,748,0
3995976,635.10,675,749,0
3995986,663.65,675,748,0
3995996,684.97,675,749,0
3996006,699.94,675,748,0
3996016,710.41,675,749,0
3996026,717.75,675,748,0
3996036,722.88,675,749,0
3996046,725.36,675,749,0
3996056,723.41,675,749,0
3996066,716.04,675,749,0
3996076,702.70,675,750,0
3996086,683.12,675,749,0
3996096,656.94,675,750,0
3996106,624.52,675,750,0
3996116,587.42,675,750,0
3996126,548.51,675,750,0
3996136,509.53,675,750,0
3996146,472.00,675,750,0
3996156,437.11,675,751,0
3996166,406.22,675,750,0
3996176,380.10,675,751,0
3996186,358.90,675,750,0
3996196,342.94,675,750,0
3996206,332.16,675,749,0
3996216,326.28,675,750,0
3996226,324.96,675,749,0
3996236,327.54,675,750,0
3996247,333.04,675,749,0
3996257,340.78,675,750,0
3996267,349.50,675,749,0
3996277,358.65,675,750,0
3996288,367.33,675,749,0
3996297,374.94,675,750,0
3996307,380.79,675,749,0
3996317,384.54,675,750,0
3996327,386.18,675,749,0
3996337,385.82,675,750,0
3996347,383.61,675,749,0
3996357,380.17,675,750,0
3996367,375.57,675,749,0
3996377,370.69,675,750,0
3996387,365.64,675,749,0
3996397,360.90,675,750,0
3996407,356.56,675,749,0
3996417,353.18,675,750,0
3996427,350.47,675,749,0
3996437,348.57,675,750,0
3996447,347.11,675,749,0
3996457,346.44,675,750,0
3996467,346.22,675,749,0
3996477,346.71,675,750,0
3996487,347.57,675,749,0
3996497,348.73,675,750,0
3996507,350.14,675,749,0
3996517,352.41,675,750,0
3996527,356.06,675,749,0
3996537,362.34,675,750,0
3996547,372.10,675,748,0
3996557,387.15,675,750,0
3996567,409.14,675,748,0
3996577,439.44,675,749,0
3996588,476.04,675,747,0
3996607,516.14,663,746,0
3996610,556.98,663,749,0
3996619,596.55,663,749,0
3996630,632.12,663,747,0
3996639,661.74,663,749,0
3996649,683.68,663,748,0
3996659,699.07,663,749,0
3996669,709.85,663,748,0
3996679,717.40,663,749,0
3996689,722.68,663,748,0
3996699,726.37,663,749,0
3996709,728.96,663,748,0
3996719,730.82,663,749,0
3996729,730.49,663,748,0
3996739,726.01,663,750,0
3996749,715.81,663,749,0
3996759,699.37,663,750,0
3996769,676.07,663,749,0
3996779,645.92,663,750,0
3996789,608.92,663,749,0
3996800,567.28,663,751,0
3996809,523.83,663,750,0
3996819,481.02,663,751,0
3996829,440.13,663,750,0
3996839,403.15,663,751,0
3996849,370.96,663,750,0
3996859,345.00,663,750,0
3996869,325.20,663,749,0
3996879,311.94,663,750,0
3996889,304.46,663,749,0
3996899,302.74,663,750,0
3996909,305.47,663,749,0
3996919,312.10,663,750,0
3996929,320.99,663,749,0
3996939,331.40,663,750,0
3996949,342.00,663,749,0
3996959,352.37,663,750,0
3996969,361.56,663,749,0
3996979,369.15,663,750,0
3996989,374.33,663,749,0
3996999,377.49,663,750,0
3997009,378.33,663,749,0
3997019,377.54,663,750,0
3997029,375.07,663,749,0
3997039,371.58,663,750,0
3997049,367.25,663,749,0
3997059,363.19,663,750,0
3997069,358.89,663,749,0
3997079,355.19,663,750,0
3997089,351.66,663,749,0
3997100,349.19,663,750,0
3997110,347.38,663,749,0
3997120,346.62,663,750,0
3997130,346.35,663,749,0
3997140,346.97,663,750,0
3997150,348.22,663,749,0
3997160,350.13,663,750,0
3997170,352.02,663,749,0
3997180,354.20,663,750,0
3997190,356.50,663,749,0
3997200,359.52,663,750,0
3997210,363.22,663,749,0
3997220,369.28,663,750,0
3997230,378.54,663,749,0
3997240,393.42,663,749,0
3997250,415.28,663,748,0
3997260,445.75,663,749,0
3997271,482.00,663,748,0
3997290,521.94,683,747,0
3997293,562.46,683,749,0
3997302,601.75,683,748,0
3997313,636.93,683,749,0
3997323,665.88,683,748,0
3997333,686.61,683,749,0
3997343,701.13,683,749,0
3997353,711.29,683,749,0
3997363,718.40,683,749,0
3997373,723.38,683,749,0
3997383,726.87,683,749,0
3997393,729.31,683,749,0
3997403,731.02,683,749,0
3997413,732.21,683,749,0
3997423,730.30,683,749,0
3997433,723.14,683,750,0
3997443,709.86,683,749,0
3997453,689.11,683,750,0
3997463,660.67,683,750,0
3997473,624.42,683,750,0
3997484,580.88,683,750,0
3997494,533.35,683,751,0
3997504,485.11,683,750,0
3997514,438.15,683,751,0
3997524,394.95,683,750,0
3997534,357.25,683,750,0
3997544,326.10,683,750,0
3997554,301.82,683,750,0
3997564,284.81,683,749,0
3997574,274.58,683,750,0
3997584,270.64,683,749,0
3997594,272.07,683,750,0
3997604,277.71,683,749,0
3997614,286.37,683,750,0
3997624,297.36,683,749,0
3997634,309.38,683,750,0
3997644,321.52,683,749,0
3997655,332.68,683,750,0
3997665,342.55,683,749,0
3997675,350.40,683,750,0
3997685,356.36,683,749,0
3997696,359.73,683,750,0
3997705,360.88,683,749,0
3997715,360.19,683,750,0
3997725,358.03,683,749,0
3997735,354.72,683,750,0
3997745,350.61,683,749,0
3997755,345.84,683,750,0
3997765,341.13,683,749,0
3997775,336.63,683,750,0
3997785,332.54,683,749,0
3997795,329.12,683,750,0
3997805,326.34,683,749,0
3997815,324.44,683,750,0
3997825,323.45,683,749,0
3997835,323.32,683,750,0
3997845,323.86,683,749,0
3997855,325.02,683,750,0
3997865,326.77,683,749,0
3997875,329.03,683,750,0
3997885,331.59,683,748,0
3997895,334.28,683,750,0
3997905,336.98,683,749,0
3997915,339.65,683,750,0
3997925,341.98,683,749,0
3997935,343.96,683,750,0
3997945,345.77,683,749,0
3997955,347.98,683,750,0
3997965,351.76,683,749,0
3997975,358.39,683,750,0
3997985,369.54,683,749,0
3997996,387.17,683,749,0
3998006,412.57,683,748,0
3998016,446.34,683,749,0
3998035,485.63,745,747,0
3998039,527.48,745,748,0
3998047,569.34,745,747,0
3998057,608.58,745,749,0
3998067,642.82,745,748,0
3998077,670.26,745,749,0
3998087,689.72,745,748,0
3998097,703.35,745,749,0
3998107,712.84,745,748,0
3998117,719.49,745,749,0
3998127,724.14,745,748,0
3998137,727.40,745,749,0
3998147,728.27,745,748,0
3998157,724.97,745,749,0
3998167,716.45,745,749,0
3998177,701.74,745,750,0
3998187,679.75,745,749,0
3998197,650.72,745,750,0
3998208,614.38,745,749,0
3998217,572.99,745,751,0
3998227,528.81,745,750,0
3998237,483.70,745,751,0
3998247,439.47,745,750,0
3998257,398.40,745,751,0
3998267,361.04,745,750,0
3998277,328.80,745,750,0
3998287,301.86,745,750,0
3998297,280.82,745,751,0
3998307,265.91,745,750,0
3998317,257.20,745,750,0
3998327,253.92,745,749,0
3998337,255.40,745,750,0
3998347,260.55,745,749,0
3998357,268.62,745,750,0
3998367,278.50,745,749,0
3998377,289.49,745,750,0
3998387,300.15,745,749,0
3998397,310.13,745,750,0
3998407,318.79,745,749,0
3998417,326.10,745,751,0
3998427,331.55,745,749,0
3998437,335.37,745,750,0
3998447,337.36,745,749,0
3998457,338.02,745,750,0
3998467,337.25,745,749,0
3998477,335.93,745,750,0
3998487,333.94,745,749,0
3998497,331.68,745,750,0
3998508,329.34,745,749,0
3998518,327.14,745,750,0
3998528,325.29,745,749,0
3998538,324.13,745,750,0
3998548,323.32,745,749,0
3998558,323.18,745,750,0
3998568,323.39,745,749,0
3998578,324.34,745,750,0
3998588,325.52,745,749,0
3998598,327.30,745,750,0
3998608,329.14,745,749,0
3998618,331.37,745,750,0
3998628,333.49,745,749,0
3998638,335.78,745,750,0
3998648,337.65,745,749,0
3998658,339.60,745,750,0
3998668,341.17,745,749,0
3998679,342.58,745,750,0
3998689,343.31,745,749,0
3998699,343.90,745,750,0
3998709,344.10,745,749,0
3998720,344.20,745,750,0
3998729,344.18,745,749,0
3998739,344.86,745,750,0
3998749,347.26,745,749,0
3998759,353.01,745,750,0
3998769,362.99,745,749,0
3998788,379.28,753,747,0
3998791,403.37,753,748,0
3998800,436.17,753,748,0
3998810,475.03,753,748,0
3998820,516.98,753,748,0
3998830,559.16,753,748,0
3998840,599.48,753,748,0
3998850,635.29,753,748,0
3998860,664.48,753,748,0
3998870,685.63,753,748,0
3998880,700.44,753,749,0
3998891,710.81,753,748,0
3998900,718.07,753,748,0
3998910,723.15,753,748,0
3998920,725.12,753,749,0
3998930,722.73,753,749,0
3998940,715.52,753,749,0
3998950,702.51,753,749,0
3998960,683.54,753,750,0
3998970,658.26,753,749,0
3998980,627.07,753,750,0
3998990,591.52,753,750,0
3999000,553.82,753,750,0
3999010,514.79,753,750,0
3999020,476.45,753,750,0
3999030,439.42,753,750,0
3999040,405.35,753,750,0
3999050,374.39,753,750,0
3999060,347.79,753,750,0
3999070,325.52,753,750,0
3999080,308.61,753,750,0
3999090,296.60,753,750,0
3999100,289.99,753,750,0
3999110,287.59,753,750,0
3999120,289.39,753,750,0
3999130,294.07,753,749,0
3999140,301.38,753,750,0
3999150,309.84,753,749,0
3999160,319.06,753,750,0
3999170,327.70,753,749,0
3999180,335.76,753,749,0
3999191,342.39,753,750,0
3999201,347.63,753,749,0
3999211,350.91,753,750,0
3999221,352.74,753,749,0
3999232,352.77,753,750,0
3999241,351.73,753,750,0
3999251,349.37,753,750,0
3999261,346.43,753,749,0
3999271,342.74,753,750,0
3999281,339.18,753,749,0
3999291,335.48,753,750,0
3999301,332.47,753,749,0
3999311,329.84,753,750,0
3999321,328.17,753,749,0
3999331,327.14,753,749,0
3999341,327.01,753,749,0
3999351,327.48,753,750,0
3999361,328.66,753,750,0
3999371,329.92,753,749,0
3999381,331.57,753,749,0
3999391,333.29,753,750,0
3999401,335.04,753,749,0
3999411,336.79,753,750,0
3999421,338.44,753,749,0
3999431,339.85,753,750,0
3999441,341.57,753,750,0
3999451,342.94,753,750,0
3999461,344.20,753,749,0
3999471,345.17,753,749,0
3999481,346.02,753,749,0
3999491,346.44,753,750,0
3999501,346.87,753,749,0
3999511,346.82,753,749,0
3999521,347.00,753,750,0
3999532,347.39,753,750,0
3999542,348.77,753,749,0
3999552,351.75,753,750,0
3999562,358.09,753,749,0
3999572,368.99,753,749,0
3999582,386.01,753,749,0
3999601,410.09,813,747,0
3999604,442.21,813,749,0
3999613,480.24,813,749,0
3999623,521.40,813,748,0
3999633,562.72,813,748,0
3999643,601.76,813,748,0
3999653,636.42,813,749,0
3999663,665.01,813,748,0
3999673,686.01,813,748,0
3999683,700.70,813,748,0
3999693,710.99,813,749,0
3999703,718.19,813,748,0
3999713,723.24,813,748,0
3999723,725.14,813,749,0
3999733,722.35,813,749,0
3999744,714.23,813,749,0
3999753,700.06,813,749,0
3999763,679.64,813,749,0
3999773,652.67,813,750,0
3999783,619.47,813,749,0
3999793,582.13,813,750,0
3999803,542.83,813,750,0
3999813,503.11,813,751,0
3999823,464.55,813,750,0
3999833,428.26,813,750,0
3999843,395.56,813,750,0
3999853,366.98,813,750,0
3999863,342.99,813,750,0
3999873,324.26,813,750,0
3999883,310.81,813,749,0
3999893,302.34,813,750,0
3999903,298.72,813,749,0
3999913,298.89,813,750,0
3999923,302.40,813,749,0
3999933,308.06,813,750,0
3999943,315.20,813,749,0
3999953,322.81,813,750,0
3999963,330.41,813,749,0
3999973,337.32,813,750,0
3999983,343.05,813,749,0
3999993,347.02,813,750,0
4000003,349.50,813,749,0
4000013,350.21,813,750,0
4000023,349.59,813,749,0
4000033,347.65,813,750,0
4000044,344.59,813,749,0
4000054,341.07,813,750,0
4000064,337.40,813,749,0
4000074,333.90,813,750,0
4000084,330.71,813,749,0
4000094,328.10,813,750,0
4000104,326.10,813,749,0
4000114,324.70,813,750,0
4000124,323.97,813,749,0
4000134,324.02,813,750,0
4000144,324.66,813,749,0
4000154,325.83,813,750,0
4000164,327.25,813,749,0
4000174,329.02,813,750,0
4000184,330.86,813,749,0
4000194,332.66,813,750,0
4000204,334.26,813,749,0
4000215,335.64,813,750,0
4000225,336.73,813,749,0
4000235,337.71,813,750,0
4000245,338.49,813,749,0
4000256,339.33,813,750,0
4000265,340.13,813,749,0
4000275,341.29,813,750,0
4000285,342.23,813,749,0
4000295,343.53,813,750,0
4000305,344.40,813,749,0
4000315,345.01,813,750,0
4000325,345.31,813,749,0
4000335,345.56,813,750,0
4000345,345.86,813,749,0
4000355,346.89,813,750,0
4000365,348.89,813,749,0
4000375,353.81,813,750,0
4000385,362.48,813,748,0
4000395,376.61,813,749,0
4000414,397.38,813,748,0
4000417,425.98,813,750,0
4000427,461.95,813,747,0
4000436,502.12,813,748,0
4000446,543.57,813,748,0
4000456,584.20,813,749,0
4000466,621.42,813,748,0
4000476,653.31,813,749,0
4000486,677.82,813,748,0
4000496,694.97,813,749,0
4000506,706.98,813,748,0
4000516,715.39,813,749,0
4000526,721.27,813,748,0
4000536,724.49,813,749,0
4000546,723.66,813,748,0
4000556,718.40,813,750,0
4000566,707.70,813,748,0
4000576,691.07,813,750,0
4000586,668.34,813,749,0
4000596,639.44,813,750,0
4000606,605.62,813,749,0
4000616,569.01,813,750,0
4000626,530.73,813,749,0
4000636,492.63,813,750,0
4000646,455.88,813,749,0
4000656,421.55,813,751,0
4000666,390.22,813,749,0
4000676,362.86,813,750,0
4000686,339.63,813,749,0
4000696,321.31,813,750,0
4000706,307.59,813,749,0
4000716,298.67,813,750,0
4000727,294.14,813,749,0
4000737,293.76,813,750,0
4000747,296.23,813,749,0
4000757,301.60,813,750,0
4000768,308.15,813,749,0
4000777,315.73,813,750,0
4000787,323.10,813,749,0
4000797,329.80,813,750,0
4000807,335.39,813,748,0
4000817,339.77,813,750,0
4000827,342.37,813,749,0
4000837,343.54,813,750,0
4000847,343.25,813,749,0
4000857,342.06,813,750,0
4000867,339.73,813,749,0
4000877,336.90,813,750,0
4000887,333.50,813,749,0
4000897,330.18,813,750,0
4000907,326.95,813,749,0
4000917,324.22,813,750,0
4000927,321.80,813,749,0
4000937,320.45,813,750,0
4000947,319.58,813,749,0
4000957,319.75,813,750,0
4000967,320.30,813,749,0
4000977,321.67,813,750,0
4000987,323.22,813,749,0
4000997,325.26,813,750,0
4001007,327.19,813,749,0
4001017,329.36,813,750,0
4001027,331.40,813,749,0
4001037,333.55,813,750,0
4001047,335.18,813,749,0
4001057,336.84,813,750,0
4001068,338.09,813,749,0
4001078,339.43,813,750,0
4001088,340.38,813,749,0
4001098,341.25,813,750,0
4001108,341.73,813,749,0
4001118,342.45,813,750,0
4001128,342.83,813,749,0
4001138,343.40,813,750,0
4001148,343.54,813,749,0
4001158,344.02,813,750,0
4001168,344.10,813,749,0
4001178,344.37,813,750,0
4001188,344.77,813,749,0
4001198,346.43,813,750,0
4001208,350.11,813,749,0
4001218,357.49,813,750,0
4001228,369.56,813,749,0
4001248,388.55,834,747,0
4001251,415.64,834,749,0
4001260,450.98,834,748,0
4001270,491.18,834,748,0
4001281,533.43,834,748,0
4001291,575.09,834,748,0
4001301,613.85,834,748,0
4001311,647.32,834,749,0
4001321,673.58,834,748,0
4001331,692.01,834,749,0
4001341,704.91,834,748,0
4001351,713.93,834,749,0
4001361,720.25,834,748,0
4001371,723.73,834,749,0
4001381,723.26,834,749,0
4001391,717.61,834,750,0
4001401,706.24,834,749,0
4001411,688.98,834,750,0
4001421,665.59,834,749,0
4001431,635.97,834,750,0
4001441,601.52,834,750,0
4001452,564.08,834,750,0
4001462,525.70,834,750,0
4001472,487.77,834,750,0
4001482,451.37,834,749,0
4001492,417.57,834,750,0
4001502,387.57,834,750,0
4001512,361.52,834,750,0
4001522,339.98,834,749,0
4001532,323.23,834,750,0
4001542,311.33,834,749,0
4001552,304.03,834,750,0
4001562,300.98,834,749,0
4001572,301.54,834,750,0
4001582,305.02,834,749,0
4001592,310.76,834,750,0
4001602,317.86,834,749,0
4001612,325.70,834,750,0
4001623,333.25,834,749,0
4001633,339.90,834,750,0
4001643,344.99,834,749,0
4001653,348.59,834,750,0
4001664,350.51,834,749,0
4001673,350.96,834,750,0
4001683,349.73,834,749,0
4001693,347.50,834,750,0
4001703,344.65,834,749,0
4001713,341.50,834,750,0
4001723,338.35,834,749,0
4001733,335.33,834,750,0
4001743,332.70,834,749,0
4001753,330.56,834,750,0
4001763,328.94,834,749,0
4001773,327.84,834,750,0
4001783,327.37,834,749,0
4001793,327.65,834,750,0
4001803,328.48,834,749,0
4001813,329.71,834,750,0
4001823,331.38,834,749,0
4001833,333.67,834,750,0
4001843,336.04,834,749,0
4001853,338.43,834,750,0
4001863,340.57,834,749,0
4001873,342.54,834,750,0
4001883,344.22,834,749,0
4001893,345.66,834,750,0
4001903,346.53,834,749,0
4001913,347.27,834,750,0
4001923,347.92,834,749,0
4001933,348.37,834,750,0
4001943,348.69,834,748,0
4001953,349.12,834,750,0
4001964,349.39,834,749,0
4001974,349.74,834,750,0
4001984,349.86,834,748,0
4001994,350.08,834,750,0
4002004,349.97,834,749,0
4002014,349.85,834,750,0
4002024,349.42,834,748,0
4002034,349.51,834,750,0
4002044,350.34,834,749,0
4002054,353.20,834,750,0
4002064,358.92,834,748,0
4002074,369.70,834,749,0
4002084,386.89,834,748,0
4002103,411.70,855,746,0
4002106,444.79,855,748,0
4002115,483.59,855,749,0
4002125,525.16,855,748,0
4002135,566.85,855,749,0
4002145,605.94,855,747,0
4002155,640.24,855,749,0
4002165,668.16,855,748,0
4002176,688.17,855,749,0
4002185,702.17,855,748,0
4002195,711.98,855,749,0
4002205,718.84,855,748,0
4002215,723.69,855,749,0
4002225,727.04,855,748,0
4002235,729.39,855,749,0
4002245,729.48,855,748,0
4002255,725.95,855,750,0
4002265,717.27,855,749,0
4002275,702.87,855,750,0
4002285,681.91,855,749,0
4002295,654.59,855,750,0
4002305,621.03,855,749,0
4002315,583.05,855,751,0
4002325,542.79,855,750,0
4002335,502.65,855,751,0
4002345,463.97,855,750,0
4002355,428.79,855,751,0
4002365,397.66,855,749,0
4002375,371.62,855,750,0
4002385,351.03,855,749,0
4002395,336.19,855,750,0
4002405,326.62,855,749,0
4002415,322.28,855,750,0
4002425,322.07,855,749,0
4002435,325.60,855,750,0
4002445,331.47,855,749,0
4002455,339.21,855,750,0
4002465,347.33,855,749,0
4002476,355.59,855,750,0
4002486,362.78,855,749,0
4002496,368.85,855,750,0
4002506,373.09,855,749,0
4002516,375.81,855,750,0
4002526,376.34,855,749,0
4002536,375.59,855,750,0
4002546,373.32,855,749,0
4002556,370.22,855,750,0
4002566,366.34,855,749,0
4002576,362.21,855,750,0
4002586,357.69,855,749,0
4002596,353.54,855,750,0
4002606,349.65,855,749,0
4002616,346.33,855,750,0
4002626,343.44,855,749,0
4002636,341.51,855,750,0
4002647,340.16,855,749,0
4002657,339.85,855,750,0
4002667,340.24,855,749,0
4002677,341.62,855,750,0
4002688,343.41,855,749,0
4002697,345.90,855,750,0
4002707,348.20,855,749,0
4002717,350.97,855,750,0
4002727,353.29,855,749,0
4002737,355.65,855,750,0
4002747,357.34,855,749,0
4002757,358.87,855,750,0
4002767,359.72,855,750,0
4002777,360.58,855,750,0
4002787,360.92,855,749,0
4002797,361.37,855,749,0
4002807,361.43,855,750,0
4002817,361.34,855,750,0
4002827,360.98,855,749,0
4002837,360.95,855,749,0
4002847,360.49,855,750,0
4002857,360.17,855,750,0
4002867,359.52,855,749,0
4002877,359.36,855,749,0
4002887,359.98,855,749,0
4002897,362.95,855,749,0
4002907,368.70,855,749,0
4002917,379.72,855,749,0
4002927,396.91,855,749,0
4002947,422.35,843,747,0
4002950,455.84,843,750,0
4002959,494.63,843,748,0
4002969,535.54,843,748,0
4002979,576.48,843,748,0
4002989,614.52,843,748,0
4002999,647.71,843,748,0
4003009,673.90,843,749,0
4003019,692.27,843,748,0
4003030,705.13,843,749,0
4003039,714.14,843,748,0
4003049,720.39,843,749,0
4003059,724.78,843,748,0
4003069,727.84,843,749,0
4003079,729.95,843,748,0
4003089,728.81,843,749,0
4003099,723.12,843,749,0
4003109,711.47,843,749,0
4003119,693.84,843,749,0
4003129,669.46,843,750,0
4003139,638.72,843,750,0
4003149,601.86,843,750,0
4003159,562.35,843,750,0
4003169,521.87,843,750,0
4003179,482.95,843,750,0
4003189,446.45,843,750,0
4003200,414.22,843,749,0
4003209,386.55,843,750,0
4003219,363.97,843,750,0
4003229,346.24,843,750,0
4003239,333.95,843,750,0
4003249,326.59,843,750,0
4003259,323.89,843,750,0
4003269,324.61,843,750,0
4003279,328.41,843,749,0
4003289,334.29,843,750,0
4003299,341.62,843,749,0
4003309,349.02,843,750,0
4003319,356.21,843,749,0
4003329,362.02,843,750,0
4003339,366.73,843,749,0
4003349,369.60,843,747,0
4003359,371.09,843,746,0
4003369,370.59,843,746,0
4003379,368.74,843,746,0
4003389,365.09,843,746,0
4003399,360.56,843,745,0
4003409,355.29,843,746,0
4003419,349.85,843,746,0
4003429,344.11,843,746,0
4003439,339.02,843,745,0
4003449,334.60,843,746,0
4003459,331.33,843,746,0
4003469,328.92,843,746,0
4003479,327.44,843,745,0
4003489,326.75,843,746,0
4003500,327.08,843,745,0
4003510,327.92,843,746,0
4003520,329.40,843,745,0
4003530,331.08,843,746,0
4003540,333.16,843,745,0
4003550,335.21,843,746,0
4003560,337.37,843,745,0
4003570,339.15,843,746,0
4003580,340.73,843,745,0
4003590,341.84,843,746,0
4003600,342.87,843,745,0
4003610,343.73,843,746,0
4003620,344.45,843,745,0
4003630,344.96,843,746,0
4003640,345.44,843,745,0
4003650,345.91,843,746,0
4003660,346.28,843,745,0
4003671,346.50,843,746,0
4003681,346.60,843,745,0
4003691,347.15,843,746,0
4003701,348.69,843,745,0
4003712,352.73,843,746,0
4003721,360.09,843,744,0
4003731,372.62,843,745,0
4003741,391.94,843,744,0
4003751,419.17,843,744,0
4003770,454.26,824,742,0
4003773,494.25,824,744,0
4003782,535.92,824,743,0
4003792,577.13,824,744,0
4003802,615.32,824,743,0
4003812,648.18,824,743,0
4003822,674.10,824,743,0
4003832,692.37,824,744,0
4003842,705.16,824,743,0
4003852,714.11,824,743,0
4003862,720.38,824,743,0
4003872,724.76,824,744,0
4003883,727.83,824,743,0
4003892,727.80,824,744,0
4003902,723.06,824,744,0
4003912,712.97,824,745,0
4003922,696.61,824,744,0
4003932,674.23,824,746,0
4003942,645.53,824,745,0
4003952,610.96,824,747,0
4003962,572.78,824,746,0
4003972,533.72,824,747,0
4003982,495.10,824,746,0
4003992,458.73,824,748,0
4004002,425.21,824,746,0
4004012,395.70,824,747,0
4004022,370.55,824,746,0
4004032,350.33,824,747,0
4004042,334.93,824,746,0
4004052,324.41,824,747,0
4004062,318.07,824,745,0
4004072,315.74,824,747,0
4004082,316.37,824,745,0
4004092,319.65,824,746,0
4004102,324.47,824,745,0
4004112,330.24,824,747,0
4004122,336.04,824,745,0
4004132,341.77,824,746,0
4004142,346.30,824,745,0
4004152,349.85,824,746,0
4004162,351.91,824,745,0
4004172,352.79,824,746,0
4004183,352.30,824,745,0
4004193,350.88,824,746,0
4004203,348.34,824,745,0
4004213,345.50,824,746,0
4004224,342.13,824,745,0
4004233,338.75,824,747,0
4004243,335.53,824,745,0
4004253,332.58,824,746,0
4004263,329.75,824,745,0
4004273,327.55,824,746,0
4004283,325.54,824,745,0
4004293,324.40,824,746,0
4004303,323.59,824,745,0
4004313,323.41,824,746,0
4004323,323.72,824,745,0
4004333,324.83,824,746,0
4004343,326.34,824,745,0
4004353,328.72,824,746,0
4004363,331.21,824,745,0
4004373,334.10,824,746,0
4004383,336.73,824,745,0
4004393,339.38,824,746,0
4004403,341.54,824,745,0
4004413,343.43,824,746,0
4004423,344.59,824,745,0
4004433,345.27,824,746,0
4004443,345.40,824,745,0
4004453,345.33,824,746,0
4004463,344.84,824,745,0
4004473,345.15,824,746,0
4004483,346.69,824,745,0
4004493,351.32,824,746,0
4004503,360.23,824,744,0
4004513,375.29,824,745,0
4004524,397.74,824,744,0
4004543,428.85,773,742,0
4004546,466.65,773,744,0
4004555,508.37,773,744,0
4004566,550.77,773,743,0
4004575,591.64,773,744,0
4004585,628.22,773,743,0
4004595,658.75,773,744,0
4004605,681.63,773,743,0
4004615,697.64,773,744,0
4004625,708.85,773,743,0
4004635,716.69,773,744,0
4004645,722.19,773,743,0
4004655,726.03,773,744,0
4004665,726.79,773,743,0
4004675,723.25,773,744,0
4004685,714.09,773,744,0
4004695,699.24,773,745,0
4004705,678.04,773,744,0
4004715,650.68,773,746,0
4004725,617.26,773,746,0
4004736,580.24,773,746,0
4004745,541.47,773,745,0
4004755,503.40,773,747,0
4004765,466.68,773,746,0
4004775,433.09,773,747,0
4004785,402.89,773,745,0
4004795,377.21,773,747,0
4004805,356.10,773,746,0
4004815,340.22,773,746,0
4004825,328.79,773,745,0
4004835,322.21,773,747,0
4004845,319.45,773,745,0
4004855,320.60,773,746,0
4004865,324.15,773,745,0
4004875,329.80,773,746,0
4004885,336.16,773,745,0
4004895,343.23,773,746,0
4004905,349.63,773,745,0
4004915,355.48,773,746,0
4004925,359.54,773,745,0
4004935,362.63,773,746,0
4004945,363.73,773,745,0
4004955,363.68,773,746,0
4004965,361.93,773,745,0
4004975,359.68,773,746,0
4004985,356.22,773,745,0
4004995,353.03,773,746,0
4005005,349.20,773,745,0
4005015,345.80,773,746,0
4005025,342.43,773,745,0
4005036,339.73,773,746,0
4005046,337.07,773,745,0
4005056,335.46,773,746,0
4005066,334.25,773,745,0
4005076,334.01,773,746,0
4005086,334.26,773,745,0
4005096,335.34,773,746,0
4005106,336.95,773,745,0
4005116,339.20,773,745,0
4005126,341.54,773,745,0
4005136,344.03,773,745,0
4005146,346.12,773,745,0
4005156,348.44,773,745,0
4005166,350.32,773,745,0
4005176,352.84,773,746,0
4005186,355.93,773,745,0
4005196,361.35,773,745,0
4005207,369.99,773,745,0
4005217,384.26,773,744,0
4005227,404.80,773,744,0
4005237,433.19,773,744,0
4005257,468.32,713,742,0
4005260,507.91,713,743,0
4005269,548.69,713,743,0
4005279,588.56,713,743,0
4005289,624.69,713,744,0
4005299,655.47,713,743,0
