Time,PPG,IBI,GSR,GSR_Event
234023,443.62,743,740,0
234033,413.26,743,745,0
234043,381.51,743,744,0
234053,351.53,743,746,0
234063,323.30,743,743,0
234073,299.12,743,745,0
234083,278.09,743,744,0
234093,271.12,743,745,0
234103,272.97,743,743,0
234113,282.83,743,745,0
234123,297.16,743,744,0
234133,315.54,743,745,0
234143,334.62,743,743,0
234153,354.66,743,745,0
234163,372.85,743,744,0
234173,389.74,743,745,0
234183,403.19,743,743,0
234193,414.27,743,745,0
234203,421.35,743,743,0
234213,426.47,743,745,0
234223,427.92,743,743,0
234233,427.64,743,745,0
234243,424.71,743,744,0
234253,420.77,743,745,0
234263,414.75,743,743,0
234273,408.57,743,745,0
234284,400.73,743,743,0
234294,394.34,743,745,0
234304,387.46,743,743,0
234314,381.93,743,745,0
234324,376.59,743,743,0
234334,373.07,743,745,0
234344,369.92,743,743,0
234354,368.70,743,745,0
234364,366.99,743,743,0
234374,366.82,743,745,0
234384,366.66,743,743,0
234394,367.41,743,745,0
234404,368.01,743,743,0
234414,369.25,743,745,0
234424,370.25,743,743,0
234434,371.89,743,745,0
234444,373.21,743,743,0
234455,374.86,743,745,0
234465,376.40,743,743,0
234475,378.94,743,745,0
234485,382.26,743,743,0
234496,387.28,743,745,0
234505,393.84,743,743,0
234515,403.32,743,745,0
234525,415.48,743,743,0
234535,431.49,743,745,0
234545,450.03,743,743,0
234555,471.66,743,745,0
234565,494.39,743,743,0
234575,517.93,743,745,0
234585,539.72,743,743,0
234595,559.52,743,745,0
234614,575.39,763,746,0
234617,589.59,763,748,0
234626,601.50,763,746,0
234636,611.12,763,747,0
234646,617.00,763,745,0
234656,619.31,763,747,0
234667,617.29,763,745,0
234676,611.42,763,747,0
234686,599.34,763,745,0
234696,581.02,763,747,0
234706,557.96,763,746,0
234716,532.34,763,747,0
234726,505.58,763,745,0
234736,479.48,763,747,0
234746,454.99,763,746,0
234756,433.52,763,747,0
234766,415.49,763,745,0
234776,401.33,763,747,0
234786,390.82,763,745,0
234796,384.23,763,747,0
234806,380.90,763,745,0
234816,380.68,763,747,0
234826,382.87,763,745,0
234836,387.15,763,747,0
234846,392.55,763,745,0
234856,398.73,763,747,0
234866,404.81,763,745,0
234876,410.57,763,747,0
234886,415.45,763,745,0
234896,419.35,763,747,0
234906,421.94,763,745,0
234916,423.33,763,747,0
234926,423.36,763,745,0
234936,422.35,763,747,0
234946,420.28,763,745,0
234956,417.45,763,746,0
234967,413.93,763,745,0
234977,409.79,763,747,0
234987,405.31,763,746,0
234997,400.59,763,746,0
235008,395.83,763,746,0
235017,391.29,763,747,0
235027,387.09,763,746,0
235037,383.16,763,746,0
235047,379.73,763,746,0
235057,376.60,763,747,0
235067,374.02,763,746,0
235077,371.74,763,746,0
235087,370.06,763,746,0
235097,368.71,763,747,0
235107,367.90,763,745,0
235117,367.59,763,746,0
235127,368.10,763,746,0
235137,368.88,763,747,0
235147,370.20,763,745,0
235157,371.99,763,746,0
235167,374.78,763,745,0
235177,378.96,763,747,0
235187,385.01,763,745,0
235197,393.24,763,746,0
235207,404.87,763,745,0
235217,420.21,763,747,0
235227,439.30,763,746,0
235237,461.63,763,747,0
235247,486.55,763,746,0
235257,512.79,763,747,0
235267,539.12,763,745,0
235277,563.56,763,747,0
235296,584.73,682,745,0
235299,599.68,682,747,0
235308,609.68,682,746,0
235318,613.55,682,746,0
235328,611.71,682,746,0
235338,603.83,682,746,0
235348,591.15,682,746,0
235358,574.05,682,746,0
235368,555.69,682,746,0
235378,534.74,682,746,0
235388,513.05,682,746,0
235398,491.09,682,746,0
235408,470.41,682,746,0
235418,451.00,682,746,0
235428,434.16,682,746,0
235438,419.49,682,746,0
235448,407.99,682,746,0
235458,398.91,682,746,0
235468,393.06,682,746,0
235479,389.74,682,746,0
235489,389.61,682,746,0
235499,391.65,682,746,0
235509,396.77,682,746,0
235520,403.14,682,746,0
235529,411.71,682,746,0
235539,420.76,682,746,0
235549,431.33,682,746,0
235559,441.43,682,746,0
235569,451.80,682,746,0
235579,460.52,682,746,0
235589,468.29,682,746,0
235599,473.60,682,746,0
235609,477.19,682,746,0
235619,477.31,682,746,0
235629,475.72,682,746,0
235639,471.13,682,746,0
235649,465.00,682,746,0
235659,457.12,682,746,0
235669,448.73,682,746,0
235679,439.42,682,746,0
235689,430.72,682,746,0
235699,421.64,682,746,0
235709,413.64,682,746,0
235719,405.61,682,746,0
235729,399.13,682,746,0
235739,392.92,682,746,0
235749,388.61,682,747,0
235759,384.70,682,746,0
235769,382.30,682,746,0
235779,380.50,682,746,0
235789,380.35,682,746,0
235799,380.29,682,746,0
235809,381.74,682,746,0
235820,382.89,682,746,0
235830,385.24,682,746,0
235840,387.52,682,746,0
235850,390.80,682,746,0
235860,394.20,682,746,0
235870,399.24,682,746,0
235880,405.04,682,746,0
235890,413.56,682,746,0
235900,424.19,682,746,0
235910,438.70,682,746,0
235920,456.02,682,746,0
235930,477.40,682,746,0
235940,500.81,682,746,0
235950,526.67,682,747,0
235960,552.31,682,746,0
235970,577.63,682,747,0
235980,599.26,682,746,0
235991,617.01,682,747,0
236001,628.15,682,746,0
236020,633.63,724,743,0
236023,630.19,724,745,0
236033,621.13,724,747,0
236043,605.53,724,745,0
236053,586.30,724,746,0
236063,563.37,724,745,0
236073,539.56,724,747,0
236083,514.49,724,745,0
236093,492.27,724,747,0
236103,470.50,724,745,0
236113,451.58,724,747,0
236123,434.26,724,745,0
236133,420.17,724,747,0
236143,408.12,724,745,0
236153,399.51,724,747,0
236163,393.02,724,745,0
236173,390.01,724,747,0
236183,388.68,724,745,0
236193,390.19,724,747,0
236204,392.92,724,745,0
236214,397.53,724,747,0
236224,402.47,724,745,0
236234,408.29,724,747,0
236244,413.51,724,745,0
236254,418.67,724,747,0
236264,422.42,724,745,0
236274,425.46,724,747,0
236284,426.78,724,745,0
236294,427.27,724,747,0
236304,426.04,724,745,0
236314,423.88,724,747,0
236324,420.27,724,745,0
236334,416.25,724,747,0
236344,411.12,724,745,0
236354,405.85,724,747,0
236364,399.94,724,745,0
236375,394.22,724,747,0
236385,388.19,724,745,0
236395,382.56,724,747,0
236405,376.99,724,745,0
236416,372.11,724,747,0
236425,367.53,724,745,0
236435,363.69,724,747,0
236445,360.31,724,745,0
236455,357.73,724,747,0
236465,355.58,724,745,0
236475,354.12,724,747,0
236485,353.06,724,745,0
236495,352.57,724,747,0
236505,352.36,724,745,0
236515,352.85,724,747,0
236525,353.92,724,745,0
236535,356.35,724,747,0
236545,360.27,724,745,0
236555,367.00,724,747,0
236565,376.86,724,745,0
236575,390.74,724,747,0
236585,408.69,724,745,0
236595,430.98,724,747,0
236605,456.70,724,745,0
236615,485.29,724,747,0
236625,514.65,724,745,0
236635,543.51,724,747,0
236645,569.59,724,745,0
236655,591.74,724,747,0
236675,607.97,654,745,0
236678,615.87,654,748,0
236687,616.89,654,746,0
236697,610.88,654,747,0
236707,598.40,654,746,0
236717,580.50,654,746,0
236727,558.28,654,746,0
236737,533.21,654,746,0
236747,508.63,654,746,0
236758,483.16,654,746,0
236767,458.59,654,746,0
236777,435.27,654,747,0
236787,414.41,654,746,0
236797,395.77,654,746,0
236807,380.37,654,746,0
236817,367.87,654,747,0
236827,359.25,654,746,0
236837,353.86,654,746,0
236847,351.98,654,746,0
236857,352.71,654,747,0
236867,356.40,654,745,0
236877,361.89,654,746,0
236887,369.17,654,746,0
236897,376.83,654,747,0
236907,384.98,654,745,0
236917,392.66,654,746,0
236928,400.35,654,746,0
236937,406.76,654,747,0
236947,412.23,654,745,0
236957,416.15,654,746,0
236967,418.89,654,746,0
236977,419.78,654,747,0
236987,419.46,654,745,0
236997,417.14,654,746,0
237007,413.92,654,746,0
237017,409.53,654,747,0
237027,404.53,654,745,0
237037,398.76,654,746,0
237047,393.13,654,746,0
237057,387.26,654,747,0
237067,382.00,654,745,0
237077,376.81,654,746,0
237087,372.45,654,746,0
237097,368.38,654,746,0
237107,365.26,654,746,0
237117,362.40,654,746,0
237127,360.48,654,746,0
237137,358.75,654,746,0
237147,357.88,654,745,0
237157,357.40,654,746,0
237167,358.57,654,746,0
237177,361.31,654,746,0
237187,366.92,654,746,0
237197,375.60,654,746,0
237207,388.62,654,746,0
237217,405.88,654,746,0
237228,428.11,654,746,0
237238,453.92,654,746,0
237248,483.05,654,746,0
237258,513.16,654,746,0
237278,543.07,603,744,0
237281,569.02,603,746,0
237290,591.26,603,747,0
237300,607.29,603,745,0
237310,617.41,603,747,0
237320,619.90,603,746,0
237330,615.90,603,747,0
237340,604.70,603,745,0
237350,589.32,603,747,0
237360,568.70,603,745,0
237370,545.56,603,747,0
237380,519.42,603,745,0
237390,493.02,603,747,0
237400,466.32,603,745,0
237410,441.96,603,747,0
237420,419.43,603,745,0
237430,400.62,603,747,0
237441,384.40,603,745,0
237451,372.92,603,747,0
237461,364.59,603,746,0
237471,360.68,603,747,0
237481,359.32,603,745,0
237491,361.58,603,747,0
237501,365.39,603,745,0
237511,371.53,603,747,0
237521,377.84,603,745,0
237531,385.35,603,747,0
237541,392.14,603,745,0
237551,399.30,603,747,0
237561,405.21,603,745,0
237571,410.93,603,747,0
237581,415.11,603,745,0
237591,418.93,603,747,0
237601,420.84,603,745,0
237612,422.30,603,747,0
237622,421.87,603,745,0
237632,420.88,603,747,0
237642,418.22,603,745,0
237652,415.28,603,747,0
237662,411.12,603,745,0
237672,407.27,603,747,0
237682,402.43,603,745,0
237692,397.98,603,747,0
237702,392.84,603,745,0
237712,388.39,603,747,0
237722,383.43,603,745,0
237732,379.19,603,747,0
237742,374.72,603,745,0
237752,371.67,603,747,0
237762,369.54,603,745,0
237772,370.24,603,747,0
237783,373.42,603,745,0
237793,380.75,603,747,0
237803,391.84,603,745,0
237813,408.05,603,747,0
237824,428.35,603,745,0
237833,453.14,603,747,0
237843,480.19,603,745,0
237853,509.06,603,747,0
237863,537.20,603,745,0
237882,563.84,605,744,0
237885,584.93,605,746,0
237894,601.32,605,747,0
237904,611.25,605,745,0
237914,615.12,605,747,0
237924,611.61,605,744,0
237934,601.96,605,747,0
237944,585.77,605,745,0
237954,566.73,605,747,0
237964,543.79,605,745,0
237974,518.96,605,747,0
237984,492.83,605,745,0
237995,467.38,605,747,0
238004,443.18,605,745,0
238014,421.70,605,747,0
238024,402.84,605,745,0
238034,387.46,605,747,0
238044,375.28,605,745,0
238054,366.80,605,747,0
238064,361.50,605,745,0
238074,359.59,605,747,0
238084,360.23,605,745,0
238094,363.50,605,747,0
238104,368.37,605,745,0
238114,374.73,605,747,0
238124,381.54,605,745,0
238134,388.96,605,747,0
238144,395.83,605,745,0
238154,402.40,605,747,0
238164,407.55,605,745,0
238174,411.93,605,747,0
238184,414.69,605,745,0
238194,416.33,605,747,0
238204,416.44,605,745,0
238214,415.71,605,747,0
238224,413.70,605,745,0
238234,411.00,605,747,0
238244,407.23,605,745,0
238254,403.39,605,747,0
238264,398.86,605,745,0
238274,394.19,605,747,0
238284,389.07,605,745,0
238295,384.21,605,747,0
238305,379.43,605,745,0
238315,375.19,605,747,0
238325,371.32,605,745,0
238336,368.86,605,747,0
238345,368.09,605,745,0
238355,370.12,605,747,0
238365,375.53,605,745,0
238375,385.18,605,747,0
238385,399.53,605,745,0
238395,419.13,605,747,0
238405,443.73,605,745,0
238415,472.53,605,747,0
238425,503.87,605,745,0
238435,536.14,605,747,0
238454,567.34,572,745,0
238457,593.81,572,748,0
238466,615.72,572,746,0
238476,631.41,572,747,0
238486,640.11,572,746,0
238496,641.15,572,746,0
238507,634.76,572,746,0
238516,621.55,572,747,0
238526,604.16,572,745,0
238536,581.48,572,746,0
238546,555.45,572,746,0
238556,527.33,572,747,0
238566,498.99,572,746,0
238576,471.05,572,746,0
238586,445.02,572,746,0
238596,421.79,572,747,0
238606,402.09,572,746,0
238616,385.82,572,746,0
238626,373.62,572,746,0
238636,365.16,572,747,0
238646,360.87,572,746,0
238656,359.88,572,746,0
238666,362.06,572,746,0
238676,366.54,572,746,0
238686,373.19,572,746,0
238696,380.64,572,746,0
238706,388.80,572,746,0
238716,396.62,572,746,0
238726,404.06,572,746,0
238736,410.34,572,746,0
238746,415.68,572,746,0
238756,419.34,572,746,0
238766,421.63,572,745,0
238776,422.09,572,746,0
238786,421.29,572,746,0
238796,418.85,572,746,0
238807,415.51,572,746,0
238817,410.64,572,746,0
238827,405.43,572,746,0
238837,399.30,572,746,0
238848,393.30,572,746,0
238857,386.99,572,746,0
238867,381.25,572,746,0
238877,375.43,572,746,0
238887,370.98,572,746,0
238897,366.87,572,746,0
238907,364.81,572,746,0
238917,364.57,572,746,0
238927,367.82,572,746,0
238937,374.56,572,746,0
238947,386.31,572,746,0
238957,402.97,572,746,0
238967,425.87,572,746,0
238977,453.55,572,746,0
238987,485.91,572,746,0
238997,520.57,572,746,0
239007,556.48,572,746,0
239027,590.67,572,744,0
239030,620.17,572,748,0
239039,643.86,572,746,0
239049,661.34,572,747,0
239059,670.50,572,745,0
239069,672.28,572,747,0
239079,665.72,572,746,0
239089,652.56,572,747,0
239099,633.97,572,745,0
239109,610.79,572,746,0
239119,583.51,572,746,0
239129,555.16,572,747,0
239139,525.62,572,745,0
239149,497.88,572,747,0
239159,471.90,572,746,0
239169,450.37,572,747,0
239179,432.43,572,745,0
239190,420.09,572,747,0
239199,411.75,572,746,0
239209,408.78,572,747,0
239219,409.28,572,745,0
239229,414.25,572,747,0
239239,421.46,572,746,0
239249,431.69,572,747,0
239259,442.50,572,745,0
239269,454.82,572,747,0
239279,466.62,572,746,0
239289,478.65,572,747,0
239299,488.78,572,745,0
239309,498.10,572,747,0
239319,504.89,572,746,0
239329,510.19,572,747,0
239339,512.45,572,746,0
239349,513.13,572,747,0
239360,511.08,572,745,0
239369,508.22,572,747,0
239379,503.40,572,745,0
239389,498.61,572,747,0
239399,493.11,572,745,0
239409,489.05,572,747,0
239419,485.56,572,746,0
239429,484.75,572,747,0
239439,485.81,572,745,0
239449,490.75,572,747,0
239459,498.71,572,746,0
239469,511.53,572,747,0
239479,527.78,572,745,0
239489,548.46,572,747,0
239499,571.55,572,746,0
239509,596.97,572,747,0
239519,621.75,572,745,0
239529,645.27,572,747,0
239539,664.00,572,746,0
239549,677.33,572,747,0
239559,682.42,572,746,0
239569,679.33,572,747,0
239579,666.46,572,746,0
239589,645.28,572,746,0
239599,615.50,572,745,0
239609,579.99,572,747,0
239619,539.58,572,746,0
239629,497.58,572,746,0
239639,454.55,572,746,0
239649,413.80,572,747,0
239660,375.50,572,746,0
239670,342.14,572,747,0
239680,313.00,572,745,0
239690,289.85,572,747,0
239700,271.64,572,745,0
239710,259.88,572,747,0
239720,252.71,572,745,0
239730,251.56,572,747,0
239740,254.39,572,745,0
239750,262.20,572,747,0
239760,272.81,572,745,0
239770,286.88,572,747,0
239780,302.18,572,745,0
239790,319.39,572,747,0
239800,336.16,572,745,0
239810,353.13,572,747,0
239820,368.13,572,745,0
239831,381.89,572,746,0
239841,392.60,572,745,0
239851,401.46,572,747,0
239861,407.02,572,745,0
239872,410.44,572,747,0
239881,410.74,572,745,0
239891,409.57,572,747,0
239901,406.15,572,745,0
239911,401.94,572,747,0
239921,396.13,572,745,0
239931,390.35,572,747,0
239941,383.82,572,746,0
239951,378.09,572,747,0
239961,371.97,572,745,0
239971,366.97,572,747,0
239981,362.09,572,745,0
239991,358.72,572,747,0
240001,355.68,572,751,0
240011,354.49,572,752,0
240021,353.78,572,752,0
240031,354.79,572,754,0
240041,356.05,572,755,0
240051,357.41,572,761,0
240061,358.27,572,759,0
240071,358.32,572,763,0
240081,357.41,572,762,0
240091,355.66,572,764,0
240101,352.93,572,762,0
240111,349.70,572,764,0
240121,347.22,572,763,0
240131,345.56,572,750,0
240141,347.54,572,747,0
240151,353.72,572,748,0
240161,364.18,572,751,0
240172,379.85,572,751,0
240182,400.64,572,751,0
240192,426.72,572,747,0
240202,457.19,572,746,0
240212,490.17,572,748,0
240222,522.99,572,745,0
240232,555.61,572,747,0
240251,584.91,0,746,0
240253,608.68,0,747,0
240263,626.18,0,745,0
240273,637.01,0,747,0
240283,639.75,0,745,0
240293,634.94,0,747,0
240303,622.10,0,745,0
240313,602.70,0,747,0
240323,579.09,0,745,0
240333,551.59,0,747,0
240343,521.33,0,745,0
240353,490.33,0,747,0
240363,459.59,0,745,0
240373,430.83,0,747,0
240384,404.52,0,745,0
240393,381.69,0,747,0
240403,362.24,0,745,0
240413,346.87,0,747,0
240423,335.29,0,746,0
240433,328.13,0,747,0
240443,324.45,0,744,0
240453,324.49,0,747,0
240463,327.21,0,745,0
240473,332.63,0,747,0
240483,339.47,0,745,0
240493,347.39,0,747,0
240503,355.33,0,745,0
240513,363.42,0,747,0
240523,370.62,0,745,0
240533,377.16,0,747,0
240543,382.17,0,745,0
240553,386.06,0,748,0
240563,388.40,0,745,0
240573,389.61,0,747,0
240583,389.21,0,745,0
240593,387.91,0,747,0
240603,385.36,0,745,0
240613,382.47,0,747,0
240623,378.98,0,745,0
240633,375.48,0,747,0
240643,371.65,0,745,0
240653,368.37,0,747,0
240663,365.39,0,745,0
240673,363.00,0,747,0
240684,361.07,0,745,0
240694,359.81,0,747,0
240704,359.14,0,745,0
240714,359.14,0,747,0
240724,359.61,0,745,0
240734,360.63,0,747,0
240744,362.15,0,745,0
240754,364.46,0,747,0
240764,368.18,0,745,0
240774,373.83,0,747,0
240784,382.15,0,746,0
240794,393.85,0,747,0
240804,409.71,0,745,0
240814,430.24,0,747,0
240824,455.15,0,746,0
240834,483.82,0,747,0
240854,514.99,602,745,0
240857,545.59,602,746,0
240866,575.46,602,747,0
240876,601.93,602,747,0
240886,623.08,602,746,0
240897,637.03,602,746,0
240907,643.11,602,746,0
240917,640.37,602,746,0
240927,631.05,602,746,0
240937,613.38,602,746,0
240947,589.99,602,746,0
240957,561.88,602,746,0
240967,531.53,602,746,0
240977,499.57,602,746,0
240987,468.59,602,747,0
240997,438.67,602,746,0
241007,412.15,602,746,0
241017,388.36,602,746,0
241027,369.05,602,746,0
241037,353.61,602,746,0
241047,343.48,602,746,0
241057,337.60,602,746,0
241068,337.25,602,747,0
241078,340.56,602,746,0
241088,348.40,602,747,0
241098,358.57,602,746,0
241108,371.64,602,747,0
241118,384.91,602,746,0
241128,398.95,602,747,0
241138,411.31,602,745,0
241148,422.96,602,747,0
241158,431.88,602,746,0
241168,439.12,602,747,0
241178,442.85,602,745,0
241188,444.87,602,747,0
241198,443.84,602,746,0
241208,441.36,602,747,0
241218,436.11,602,746,0
241228,429.86,602,747,0
241239,421.63,602,746,0
241249,413.30,602,747,0
241259,403.65,602,745,0
241269,394.41,602,747,0
241280,384.52,602,745,0
241289,375.92,602,747,0
241299,367.29,602,746,0
241309,360.52,602,748,0
241319,354.10,602,746,0
241329,349.74,602,748,0
241339,345.96,602,745,0
241349,344.43,602,747,0
241359,343.66,602,746,0
241369,345.56,602,747,0
241379,348.99,602,745,0
241389,356.28,602,747,0
241399,366.57,602,746,0
241409,381.74,602,747,0
241419,400.93,602,745,0
241429,425.90,602,747,0
241439,454.56,602,746,0
241449,487.30,602,748,0
241459,520.90,602,745,0
241469,554.74,602,748,0
241479,585.33,602,746,0
241489,611.85,602,747,0
241499,630.97,602,745,0
241509,642.93,602,747,0
241519,645.78,602,746,0
241529,640.96,602,747,0
241539,627.86,602,745,0
241549,609.04,602,747,0
241559,584.69,602,745,0
241569,557.78,602,747,0
241580,528.66,602,745,0
241590,500.01,602,747,0
241600,471.85,602,746,0
241610,446.52,602,747,0
241620,423.74,602,745,0
241630,405.30,602,747,0
241640,390.13,602,745,0
241650,379.59,602,747,0
241660,372.34,602,745,0
241670,369.50,602,747,0
241680,369.39,602,745,0
241690,372.66,602,747,0
241700,377.48,602,745,0
241710,384.53,602,747,0
241720,391.53,602,745,0
241730,399.21,602,747,0
241740,405.79,602,745,0
241751,412.03,602,747,0
241761,416.35,602,745,0
241771,419.67,602,747,0
241781,420.63,602,745,0
241792,420.74,602,747,0
241801,418.93,602,745,0
241811,416.42,602,748,0
241821,412.31,602,745,0
241831,407.76,602,747,0
241841,401.96,602,745,0
241851,396.23,602,747,0
241861,389.78,602,745,0
241871,383.67,602,747,0
241881,377.34,602,745,0
241891,371.84,602,747,0
241901,366.32,602,745,0
241911,361.76,602,747,0
241921,357.21,602,745,0
241931,353.89,602,747,0
241941,350.75,602,745,0
241951,348.85,602,747,0
241961,346.88,602,745,0
241971,346.23,602,748,0
241981,345.61,602,745,0
241991,345.98,602,747,0
242001,346.59,602,745,0
242011,348.77,602,747,0
242021,351.79,602,745,0
242031,357.77,602,747,0
242041,366.37,602,745,0
242051,379.29,602,747,0
242061,396.26,602,745,0
242071,418.21,602,747,0
242081,443.95,602,745,0
242092,473.49,602,747,0
242102,504.33,602,745,0
242112,535.17,602,747,0
242122,563.36,602,745,0
242132,587.73,602,747,0
242142,605.81,602,745,0
242161,617.31,0,743,0
242163,619.14,0,747,0
242173,613.49,0,747,0
242183,600.66,0,745,0
242193,582.29,0,746,0
242203,559.40,0,745,0
242213,533.78,0,747,0
242223,506.25,0,745,0
242233,480.03,0,747,0
242243,454.56,0,745,0
242253,430.82,0,747,0
242263,409.45,0,745,0
242273,391.06,0,747,0
242283,375.91,0,745,0
242293,364.45,0,747,0
242304,356.99,0,745,0
242313,353.26,0,746,0
242323,352.93,0,745,0
242333,355.65,0,747,0
242343,360.68,0,745,0
242353,367.42,0,746,0
242363,375.14,0,745,0
242373,383.07,0,747,0
242383,390.80,0,745,0
242393,398.02,0,746,0
242403,404.06,0,745,0
242413,408.80,0,747,0
242423,411.99,0,745,0
242433,413.70,0,746,0
242443,413.92,0,745,0
242453,412.75,0,747,0
242463,410.16,0,745,0
242473,406.47,0,746,0
242483,401.83,0,745,0
242493,396.61,0,747,0
242503,390.98,0,745,0
242513,385.12,0,746,0
242523,379.34,0,745,0
242533,373.97,0,747,0
242543,369.18,0,745,0
242553,364.97,0,746,0
242563,361.33,0,745,0
242573,358.53,0,747,0
242583,356.49,0,745,0
242593,355.01,0,746,0
242604,354.02,0,745,0
242614,353.42,0,746,0
242624,353.21,0,745,0
242634,353.27,0,745,0
242644,353.71,0,745,0
242654,355.08,0,746,0
242664,358.40,0,745,0
242674,364.11,0,745,0
242684,373.29,0,745,0
242694,386.19,0,746,0
242704,403.62,0,745,0
242714,425.29,0,745,0
242724,450.79,0,745,0
242734,478.32,0,746,0
242744,506.81,0,745,0
242754,533.40,0,745,0
242764,554.28,0,743,0
242775,568.59,0,745,0
242785,577.12,0,745,0
242804,576.78,643,743,0
242807,569.30,643,746,0
242817,553.78,643,743,0
242827,534.48,643,745,0
242837,514.96,643,744,0
242847,496.12,643,745,0
242857,476.62,643,744,0
242867,460.15,643,745,0
242877,444.72,643,744,0
242887,432.46,643,745,0
242897,420.67,643,744,0
242907,410.35,643,745,0
242917,400.69,643,744,0
242927,393.28,643,745,0
242937,387.07,643,744,0
242947,383.96,643,745,0
242957,382.77,643,744,0
242967,384.30,643,745,0
242977,381.94,643,742,0
242988,378.74,643,744,0
242998,374.49,643,740,0
243008,377.94,643,748,0
243018,386.79,643,746,0
243028,391.35,643,743,0
243038,392.32,643,741,0
243048,392.65,643,741,0
243058,391.08,643,741,0
243068,389.82,643,743,0
243078,380.53,643,742,0
243088,366.18,643,744,0
243098,356.44,643,742,0
243108,350.61,643,744,0
243118,350.51,643,742,0
243128,355.42,643,744,0
243138,361.29,643,742,0
243148,368.70,643,744,0
243159,374.75,643,742,0
243169,380.05,643,744,0
243179,384.02,643,742,0
243189,387.62,643,744,0
243200,388.72,643,742,0
243209,389.19,643,744,0
243219,388.40,643,743,0
243229,388.97,643,745,0
243239,390.22,643,742,0
243249,393.11,643,744,0
243259,397.19,643,743,0
243269,405.36,643,745,0
243279,416.70,643,743,0
243289,432.22,643,744,0
243299,450.88,643,743,0
243309,473.97,643,745,0
243319,499.61,643,743,0
243338,528.31,534,741,0
243341,555.26,534,744,0
243350,582.05,534,745,0
243360,605.18,534,743,0
243371,623.47,534,744,0
243380,634.34,534,742,0
243390,638.40,534,745,0
243400,633.99,534,742,0
243410,623.79,534,744,0
243420,605.47,534,742,0
243430,582.32,534,744,0
243440,554.92,534,742,0
243450,525.97,534,744,0
243460,495.77,534,742,0
243470,466.35,534,744,0
243480,438.09,534,742,0
243490,412.99,534,743,0
243500,389.85,534,742,0
243510,369.67,534,743,0
243520,353.91,534,743,0
243530,343.27,534,743,0
243540,336.84,534,742,0
243550,335.26,534,743,0
243560,336.60,534,741,0
243570,341.99,534,743,0
243580,350.56,534,742,0
243590,360.42,534,743,0
243600,370.32,534,741,0
243610,380.51,534,743,0
243620,390.00,534,742,0
243630,400.59,534,744,0
243640,410.31,534,742,0
243650,419.73,534,743,0
243660,427.10,534,742,0
243671,432.04,534,743,0
243681,431.64,534,741,0
243691,427.55,534,743,0
243701,418.90,534,741,0
243712,407.62,534,743,0
243721,393.89,534,741,0
243731,379.14,534,741,0
243741,364.48,534,740,0
243751,353.45,534,743,0
243761,349.33,534,744,0
243771,353.95,534,746,0
243781,365.32,534,744,0
243791,378.68,534,743,0
243801,389.49,534,740,0
243811,398.77,534,743,0
243821,407.71,534,741,0
243831,409.17,534,742,0
243841,401.96,534,739,0
243851,390.83,534,743,0
243861,377.90,534,739,0
243871,371.97,534,742,0
243881,378.62,534,743,0
243891,393.26,534,742,0
243901,414.78,534,740,0
243911,442.88,534,742,0
243921,475.14,534,741,0
243931,514.14,534,744,0
243941,553.70,534,741,0
243951,583.19,534,742,0
243961,603.96,534,741,0
243971,616.66,534,742,0
243981,617.62,534,738,0
243991,609.63,534,743,0
244001,592.60,534,740,0
244012,569.49,534,743,0
244022,544.23,534,741,0
244032,518.83,534,743,0
244042,492.48,534,740,0
244052,470.52,534,742,0
244062,449.58,534,740,0
244072,428.75,534,741,0
244082,410.35,534,742,0
244092,395.93,534,742,0
244102,381.21,534,740,0
244112,370.86,534,742,0
244122,362.03,534,740,0
244132,356.19,534,741,0
244142,354.29,534,740,0
244152,354.38,534,742,0
244162,355.08,534,741,0
244172,363.33,534,746,0
244183,382.43,534,745,0
244193,409.60,534,751,0
244203,435.69,534,741,0
244213,455.24,534,740,0
244224,468.33,534,741,0
244233,473.54,534,740,0
244243,469.69,534,741,0
244253,452.77,534,742,0
244263,426.91,534,741,0
244273,398.22,534,740,0
244283,373.21,534,740,0
244293,352.02,534,742,0
244303,338.13,534,741,0
244313,326.73,534,741,0
244323,319.53,534,741,0
244333,316.67,534,742,0
244343,320.58,534,740,0
244353,327.91,534,742,0
244363,339.89,534,743,0
244373,354.62,534,744,0
244383,374.37,534,743,0
244393,396.76,534,744,0
244403,420.79,534,744,0
244413,444.72,534,745,0
244423,470.78,534,743,0
244433,495.62,534,744,0
244443,518.87,534,744,0
244453,540.64,534,745,0
244463,560.89,534,743,0
244473,578.67,534,744,0
244483,593.98,534,743,0
244493,605.94,534,744,0
244503,613.97,534,743,0
244513,616.98,534,744,0
244524,613.99,534,743,0
244534,601.91,534,741,0
244544,583.16,534,742,0
244554,560.06,534,743,0
244564,533.98,534,743,0
244574,507.20,534,744,0
244584,481.86,534,743,0
244594,459.27,534,744,0
244604,443.80,534,744,0
244614,433.36,534,744,0
244624,425.88,534,744,0
244634,419.96,534,744,0
244644,414.44,534,744,0
244654,408.01,534,744,0
244664,401.28,534,743,0
244674,392.80,534,743,0
244684,383.64,534,743,0
244695,374.06,534,744,0
244705,366.76,534,744,0
244715,361.47,534,744,0
244725,359.92,534,744,0
244736,360.59,534,744,0
244745,364.65,534,744,0
244755,370.50,534,745,0
244765,374.98,534,741,0
244775,377.64,534,744,0
244785,380.62,534,744,0
244795,381.76,534,743,0
244805,382.09,534,744,0
244815,380.78,534,744,0
244825,379.00,534,743,0
244835,378.66,534,743,0
244845,377.65,534,743,0
244855,373.64,534,742,0
244865,369.42,534,744,0
244875,365.56,534,744,0
244885,362.87,534,744,0
244895,360.51,534,744,0
244905,359.84,534,744,0
244915,360.57,534,743,0
244925,363.83,534,744,0
244935,367.44,534,744,0
244945,371.34,534,744,0
244955,374.36,534,744,0
244965,377.98,534,744,0
244975,381.67,534,744,0
244985,387.86,534,745,0
244995,395.79,534,744,0
245005,406.65,534,745,0
245015,419.87,534,745,0
245025,437.05,534,745,0
245045,457.05,0,743,0
245047,479.24,0,746,0
245057,502.26,0,744,0
245067,525.63,0,746,0
245078,546.53,0,744,0
245087,564.54,0,745,0
245097,576.98,0,744,0
245107,583.93,0,745,0
245117,584.68,0,743,0
245127,579.25,0,745,0
245137,566.87,0,744,0
245147,550.11,0,745,0
245157,528.61,0,743,0
245167,505.32,0,745,0
245177,480.16,0,744,0
245187,455.85,0,745,0
245197,431.94,0,743,0
245207,410.83,0,745,0
245217,391.51,0,743,0
245227,375.88,0,745,0
245237,362.63,0,743,0
245248,353.44,0,745,0
245257,346.92,0,743,0
245267,344.38,0,745,0
245277,343.96,0,743,0
245287,346.76,0,745,0
245297,350.99,0,743,0
245307,357.55,0,745,0
245317,364.37,0,743,0
245327,372.36,0,745,0
245337,379.54,0,743,0
245347,387.00,0,745,0
245357,392.92,0,743,0
245367,398.56,0,745,0
245377,401.99,0,743,0
245387,404.65,0,745,0
245397,404.97,0,743,0
245407,404.46,0,745,0
245417,401.88,0,743,0
245427,398.92,0,745,0
245437,394.23,0,743,0
245447,389.75,0,745,0
245457,384.81,0,743,0
245467,381.31,0,745,0
245477,377.70,0,743,0
245487,375.43,0,745,0
245497,373.03,0,744,0
245507,371.87,0,745,0
245517,370.45,0,743,0
245527,369.71,0,745,0
245537,368.13,0,743,0
245548,368.05,0,745,0
245558,368.25,0,743,0
245568,371.04,0,745,0
245578,375.57,0,743,0
245588,383.93,0,746,0
245598,394.97,0,743,0
245608,410.40,0,745,0
245618,428.33,0,743,0
245628,449.61,0,746,0
245638,471.63,0,743,0
245648,494.37,0,745,0
245667,514.96,622,744,0
245670,532.03,622,747,0
245679,544.49,622,743,0
245689,552.44,622,745,0
245699,554.11,622,743,0
245709,550.35,622,745,0
245719,540.52,622,743,0
245729,526.60,622,745,0
245739,509.84,622,743,0
245749,490.60,622,745,0
245760,469.08,622,743,0
245769,447.63,622,745,0
245779,426.39,622,743,0
245789,407.03,622,745,0
245799,389.11,622,743,0
245809,374.16,622,745,0
245819,361.64,622,743,0
245829,352.79,622,745,0
245839,346.43,622,743,0
245849,343.94,622,746,0
245859,343.66,622,743,0
245869,346.08,622,745,0
245879,349.70,622,743,0
245889,355.10,622,745,0
245899,360.99,622,743,0
245909,367.76,622,745,0
245919,373.53,622,743,0
245929,379.33,622,745,0
245939,384.03,622,743,0
245949,388.44,622,745,0
245959,391.35,622,743,0
245969,393.39,622,745,0
245979,393.83,622,743,0
245989,393.62,622,745,0
245999,391.81,622,743,0
246009,389.46,622,745,0
246019,385.81,622,743,0
246029,382.22,622,745,0
246039,377.91,622,743,0
246049,373.83,622,744,0
246060,369.29,622,743,0
246070,365.48,622,745,0
246080,361.82,622,743,0
246090,358.87,622,745,0
246100,356.00,622,743,0
246110,353.94,622,745,0
246120,353.02,622,743,0
246130,353.35,622,744,0
246140,354.79,622,743,0
246150,358.20,622,745,0
246160,363.71,622,743,0
246170,372.07,622,744,0
246180,383.06,622,742,0
246190,396.37,622,745,0
246200,412.50,622,743,0
246210,431.29,622,745,0
246220,451.26,622,743,0
246231,471.84,622,745,0
246250,491.13,583,744,0
246253,506.91,583,744,0
246262,519.66,583,744,0
246273,527.31,583,745,0
246283,529.27,583,744,0
246293,525.33,583,744,0
246303,515.98,583,744,0
246313,501.84,583,745,0
246323,485.56,583,744,0
246333,465.93,583,744,0
246343,445.34,583,744,0
246353,424.32,583,745,0
246363,404.56,583,744,0
246373,385.92,583,744,0
246383,369.96,583,744,0
246393,356.26,583,744,0
246403,345.89,583,744,0
246413,338.38,583,744,0
246423,334.32,583,744,0
246433,332.73,583,744,0
246444,334.14,583,744,0
246454,336.84,583,744,0
246464,341.43,583,744,0
246474,346.40,583,744,0
246484,352.11,583,744,0
246494,357.26,583,744,0
246504,362.50,583,744,0
246514,366.55,583,744,0
246524,370.63,583,744,0
246534,373.52,583,744,0
246544,375.94,583,744,0
246554,376.64,583,744,0
246564,376.62,583,744,0
246574,375.15,583,744,0
246584,373.26,583,744,0
246594,369.84,583,744,0
246604,365.99,583,744,0
246615,361.23,583,743,0
246625,356.96,583,744,0
246635,352.22,583,743,0
246645,348.04,583,744,0
246656,343.36,583,742,0
246665,339.61,583,744,0
246675,335.65,583,743,0
246685,332.84,583,744,0
246695,330.19,583,743,0
246705,329.28,583,743,0
246715,329.41,583,743,0
246725,332.37,583,744,0
246735,336.72,583,742,0
246745,343.96,583,743,0
246755,352.46,583,742,0
246765,363.08,583,743,0
246775,373.77,583,741,0
246785,386.09,583,743,0
246795,399.22,583,743,0
246805,413.56,583,744,0
246815,426.80,583,743,0
246825,439.72,583,744,0
246835,450.82,583,743,0
246845,461.20,583,744,0
246855,467.74,583,743,0
246865,470.39,583,744,0
246875,468.22,583,743,0
246885,462.92,583,744,0
246895,453.65,583,743,0
246905,441.97,583,744,0
246915,427.40,583,743,0
246925,412.28,583,744,0
246935,396.08,583,743,0
246945,380.97,583,744,0
246956,366.45,583,743,0
246966,354.49,583,744,0
246976,344.27,583,742,0
246986,337.16,583,744,0
246996,331.84,583,742,0
247006,329.45,583,744,0
247016,328.50,583,742,0
247026,329.89,583,744,0
247036,332.54,583,743,0
247046,337.22,583,744,0
247056,342.13,583,743,0
247066,348.22,583,744,0
247076,353.72,583,743,0
247086,359.42,583,744,0
247096,364.18,583,743,0
247106,368.20,583,744,0
247116,370.20,583,743,0
247127,371.59,583,744,0
247137,370.69,583,742,0
247147,369.37,583,744,0
247157,366.17,583,742,0
247168,362.09,583,744,0
247177,356.36,583,742,0
247187,350.34,583,743,0
247197,342.74,583,741,0
247207,334.63,583,743,0
247217,327.46,583,743,0
247227,323.68,583,748,0
247237,321.84,583,743,0
247247,322.96,583,748,0
247257,325.59,583,743,0
247267,331.07,583,747,0
247277,339.02,583,745,0
247287,348.01,583,744,0
247297,356.37,583,743,0
247307,365.81,583,745,0
247317,375.34,583,743,0
247327,386.38,583,745,0
247337,397.84,583,746,0
247347,410.96,583,747,0
247357,423.57,583,745,0
247367,436.17,583,746,0
247377,446.45,583,743,0
247387,455.40,583,745,0
247397,461.15,583,743,0
247407,464.45,583,746,0
247417,463.67,583,746,0
247427,460.47,583,747,0
247437,453.94,583,743,0
247447,446.07,583,745,0
247457,435.81,583,743,0
247468,425.24,583,745,0
247478,413.60,583,743,0
247488,402.49,583,745,0
247498,391.24,583,743,0
247508,381.31,583,745,0
247518,371.96,583,743,0
247528,364.64,583,745,0
247538,358.24,583,743,0
247548,353.97,583,745,0
247558,350.93,583,743,0
247568,350.05,583,745,0
247578,350.08,583,743,0
247588,351.73,583,745,0
247598,353.82,583,743,0
247608,357.13,583,745,0
247618,360.26,583,743,0
247628,363.96,583,745,0
247639,366.97,583,743,0
247649,370.06,583,745,0
247659,372.32,583,743,0
247669,374.15,583,745,0
247680,374.83,583,743,0
247689,375.31,583,745,0
247699,374.83,583,743,0
247709,374.15,583,745,0
247719,372.91,583,743,0
247729,371.74,583,745,0
247739,370.23,583,743,0
247749,368.92,583,745,0
247759,367.31,583,743,0
247769,366.06,583,745,0
247779,364.54,583,743,0
247789,363.27,583,745,0
247799,361.73,583,743,0
247809,360.74,583,745,0
247819,359.87,583,743,0
247829,359.83,583,745,0
247839,360.22,583,743,0
247849,362.00,583,745,0
247859,364.70,583,743,0
247869,369.16,583,745,0
247879,375.58,583,743,0
247889,384.15,583,746,0
247899,394.22,583,744,0
247909,405.43,583,746,0
247919,416.48,583,743,0
247929,427.48,583,746,0
247948,437.07,0,744,0
247950,443.99,0,746,0
247960,449.26,0,744,0
247970,451.76,0,745,0
247980,451.66,0,743,0
247990,449.96,0,746,0
248000,446.03,0,743,0
248010,440.66,0,745,0
248020,434.55,0,744,0
248030,426.97,0,746,0
248040,419.09,0,743,0
248050,411.01,0,745,0
248060,402.99,0,744,0
248070,395.62,0,746,0
248080,389.09,0,743,0
248090,383.45,0,745,0
248100,378.60,0,744,0
248110,374.91,0,746,0
248120,372.49,0,743,0
248130,371.02,0,745,0
248140,370.67,0,744,0
248151,371.24,0,745,0
248161,372.67,0,743,0
248171,374.52,0,745,0
248181,376.77,0,744,0
248192,379.07,0,745,0
248201,381.49,0,743,0
248211,383.66,0,745,0
248221,385.60,0,744,0
248231,387.14,0,745,0
248241,388.34,0,743,0
248251,388.92,0,745,0
248261,389.55,0,744,0
248271,389.47,0,745,0
248281,389.07,0,743,0
248291,388.02,0,745,0
248301,386.64,0,744,0
248311,384.82,0,745,0
248321,382.82,0,743,0
248331,380.34,0,745,0
248341,378.10,0,744,0
248351,375.71,0,745,0
248361,374.26,0,744,0
248371,373.36,0,745,0
248381,373.51,0,744,0
248391,374.39,0,745,0
248401,376.29,0,744,0
248411,379.07,0,745,0
248421,383.16,0,744,0
248431,387.87,0,746,0
248441,393.65,0,744,0
248451,400.19,0,745,0
248461,407.84,0,744,0
248471,415.56,0,745,0
248481,424.05,0,744,0
248492,432.35,0,745,0
248511,440.22,563,743,0
248514,446.02,563,746,0
248523,450.86,563,744,0
248534,453.64,563,744,0
248543,455.29,563,744,0
248553,454.13,563,744,0
248563,451.39,563,744,0
248573,446.60,563,744,0
248583,441.84,563,744,0
248593,435.71,563,744,0
248603,429.67,563,744,0
248613,422.87,563,744,0
248623,417.04,563,744,0
248633,411.11,563,744,0
248643,406.36,563,744,0
248653,401.58,563,744,0
248663,397.98,563,744,0
248673,394.51,563,744,0
248683,392.52,563,744,0
248693,390.78,563,744,0
248704,390.59,563,744,0
248713,390.67,563,744,0
248723,392.18,563,744,0
248733,393.58,563,744,0
248743,395.98,563,745,0
248753,397.87,563,744,0
248763,400.27,563,744,0
248773,401.82,563,744,0
248783,403.76,563,745,0
248793,404.69,563,744,0
248803,405.68,563,744,0
248813,405.52,563,744,0
248823,405.88,563,745,0
248833,405.70,563,745,0
248843,405.96,563,745,0
248853,405.24,563,744,0
248863,404.31,563,744,0
248873,402.25,563,744,0
248883,400.55,563,744,0
248893,397.81,563,744,0
248903,395.17,563,744,0
248913,391.73,563,744,0
248923,387.83,563,745,0
248933,380.68,563,742,0
248943,372.80,563,742,0
248953,364.98,563,743,0
248963,361.86,563,744,0
248973,362.11,563,744,0
248983,366.62,563,744,0
248993,374.96,563,744,0
249004,389.85,563,744,0
249014,408.32,563,743,0
249024,428.88,563,744,0
249034,445.89,563,743,0
249054,459.68,542,740,0
249057,467.02,542,742,0
249066,471.30,542,743,0
249076,471.94,542,741,0
249086,470.67,542,743,0
249096,466.40,542,741,0
249106,459.38,542,742,0
249116,450.44,542,740,0
249126,442.63,542,742,0
249136,434.94,542,740,0
249146,426.86,542,741,0
249156,420.43,542,741,0
249166,416.83,542,743,0
249176,416.24,542,741,0
249186,418.44,542,743,0
249196,422.12,542,742,0
249206,425.86,542,743,0
249217,430.23,542,741,0
249227,433.12,542,744,0
249237,434.32,542,742,0
249247,435.13,542,744,0
249257,434.27,542,741,0
249267,433.46,542,744,0
249277,431.82,542,741,0
249287,430.72,542,743,0
249297,428.66,542,741,0
249307,426.06,542,743,0
249317,420.69,542,740,0
249327,416.50,542,744,0
249337,413.18,542,741,0
249347,412.05,542,744,0
249357,411.39,542,742,0
249367,412.22,542,744,0
249377,413.57,542,741,0
249388,417.30,542,744,0
249398,420.21,542,742,0
249408,422.16,542,744,0
249418,422.20,542,741,0
249428,422.57,542,744,0
249438,421.54,542,742,0
249448,419.66,542,744,0
249458,417.06,542,741,0
249468,414.00,542,744,0
249478,410.57,542,742,0
249488,407.53,542,744,0
249498,403.21,542,741,0
249508,399.89,542,744,0
249518,397.01,542,742,0
249528,395.29,542,744,0
249538,394.99,542,741,0
249548,396.41,542,744,0
249559,399.24,542,741,0
249569,404.23,542,743,0
249579,410.54,542,741,0
249589,418.91,542,743,0
249600,428.45,542,741,0
249609,438.99,542,743,0
249619,450.01,542,741,0
249629,461.70,542,743,0
249649,472.94,595,740,0
249652,480.80,595,743,0
249661,487.63,595,741,0
249671,493.31,595,742,0
249681,497.63,595,742,0
249691,499.80,595,742,0
249701,499.69,595,742,0
249711,497.47,595,742,0
249721,495.40,595,741,0
249731,490.74,595,742,0
249741,484.26,595,741,0
249751,476.25,595,742,0
249761,468.55,595,742,0
249772,460.93,595,742,0
249782,454.31,595,742,0
249792,448.90,595,742,0
249802,445.46,595,743,0
249812,443.09,595,742,0
249822,442.42,595,743,0
249832,441.95,595,743,0
249842,442.31,595,743,0
249852,442.95,595,743,0
249862,444.85,595,743,0
249872,446.69,595,743,0
249882,449.27,595,743,0
249892,450.95,595,743,0
249902,452.81,595,743,0
249912,453.81,595,743,0
249922,454.59,595,744,0
249932,454.03,595,744,0
249943,453.34,595,744,0
249953,451.39,595,744,0
249963,449.52,595,744,0
249973,446.45,595,744,0
249984,443.31,595,744,0
249993,439.15,595,744,0
250003,435.20,595,744,0
250013,430.47,595,744,0
250023,426.43,595,744,0
250033,421.97,595,743,0
250043,418.59,595,744,0
250053,415.07,595,744,0
250063,412.65,595,745,0
250073,410.10,595,744,0
250083,408.83,595,744,0
250093,407.68,595,744,0
250103,407.56,595,744,0
250113,407.18,595,744,0
250123,407.85,595,744,0
250133,408.63,595,744,0
250143,410.97,595,744,0
250153,413.72,595,743,0
250163,418.13,595,744,0
250173,423.45,595,744,0
250183,431.37,595,744,0
250193,440.30,595,743,0
250203,451.23,595,744,0
250213,462.26,595,744,0
250223,474.14,595,744,0
250233,484.73,595,743,0
250243,494.88,595,744,0
250253,502.12,595,744,0
250263,507.61,595,744,0
250273,509.70,595,743,0
250284,509.83,595,744,0
250294,506.75,595,743,0
250304,502.28,595,745,0
250314,495.34,595,742,0
250324,488.08,595,745,0
250334,479.66,595,744,0
250344,471.79,595,745,0
250354,463.45,595,743,0
250364,456.03,595,745,0
250374,448.65,595,744,0
250384,442.67,595,745,0
250394,436.77,595,743,0
250404,432.51,595,745,0
250414,428.46,595,744,0
250424,426.09,595,745,0
250434,423.96,595,743,0
250444,423.50,595,745,0
250455,423.27,595,743,0
250465,424.43,595,745,0
250475,425.29,595,743,0
250485,427.00,595,745,0
250496,427.81,595,743,0
250505,429.46,595,746,0
250515,429.83,595,743,0
250525,430.48,595,745,0
250535,429.70,595,743,0
250545,429.14,595,746,0
250555,427.17,595,743,0
250565,425.36,595,745,0
250575,422.38,595,744,0
250585,419.78,595,745,0
250595,416.16,595,743,0
250605,413.20,595,745,0
250615,409.50,595,744,0
250625,406.82,595,745,0
250635,403.66,595,743,0
250645,401.32,595,745,0
250655,398.57,595,743,0
250665,396.85,595,745,0
250675,394.88,595,743,0
250685,393.80,595,745,0
250695,392.36,595,743,0
250705,392.13,595,746,0
250715,391.57,595,744,0
250725,391.83,595,745,0
250735,391.50,595,744,0
250745,391.82,595,745,0
250755,391.74,595,744,0
250765,392.55,595,745,0
250775,392.94,595,744,0
250785,394.29,595,746,0
250796,395.74,595,743,0
250806,398.69,595,746,0
250816,402.08,595,743,0
250826,407.07,595,746,0
250836,412.67,595,743,0
250846,419.97,595,745,0
250856,427.60,595,743,0
250866,436.59,595,746,0
250876,445.37,595,743,0
250886,454.73,595,745,0
250896,463.04,595,743,0
250906,470.79,595,745,0
250916,476.64,595,744,0
250926,481.46,595,745,0
250945,483.68,0,744,0
250947,483.69,0,747,0
250957,481.60,0,743,0
250967,478.55,0,745,0
250977,473.80,0,743,0
250987,468.50,0,746,0
250997,462.05,0,744,0
251008,455.78,0,745,0
251017,449.80,0,743,0
251027,444.12,0,746,0
251037,438.17,0,744,0
251047,432.89,0,745,0
251057,427.69,0,743,0
251067,423.59,0,746,0
251077,419.94,0,743,0
251087,417.47,0,745,0
251097,415.40,0,743,0
251107,414.51,0,746,0
251117,413.97,0,743,0
251127,414.37,0,745,0
251137,414.77,0,743,0
251147,415.87,0,745,0
251157,416.72,0,744,0
251167,417.83,0,745,0
251177,418.23,0,744,0
251187,418.76,0,746,0
251197,418.70,0,744,0
251207,418.53,0,745,0
251217,417.60,0,744,0
251227,416.69,0,746,0
251237,415.16,0,743,0
251247,413.78,0,745,0
251257,411.79,0,744,0
251267,409.97,0,746,0
251277,407.88,0,744,0
251287,406.16,0,745,0
251297,404.14,0,743,0
251308,402.85,0,746,0
251318,401.40,0,744,0
251328,400.46,0,745,0
251338,399.47,0,744,0
251348,398.81,0,746,0
251358,398.01,0,744,0
251368,397.54,0,745,0
251378,396.69,0,744,0
251388,396.05,0,745,0
251398,395.40,0,744,0
251408,394.93,0,745,0
251418,394.44,0,744,0
251428,394.05,0,746,0
251438,393.65,0,744,0
251448,393.41,0,745,0
251458,393.63,0,744,0
251468,394.04,0,746,0
251479,394.93,0,744,0
251489,396.32,0,745,0
251499,398.54,0,744,0
251509,401.81,0,745,0
251520,406.28,0,744,0
251529,411.68,0,745,0
251539,418.33,0,744,0
251549,425.82,0,746,0
251559,434.23,0,744,0
251569,442.99,0,745,0
251579,451.91,0,744,0
251598,460.29,653,742,0
251601,467.36,653,745,0
251610,473.94,653,745,0
251620,479.40,653,744,0
251630,483.14,653,745,0
251640,485.50,653,745,0
251650,485.99,653,745,0
251660,485.09,653,744,0
251670,483.14,653,745,0
251680,479.67,653,745,0
251691,474.80,653,745,0
251700,469.59,653,744,0
251710,463.62,653,745,0
251720,457.91,653,745,0
251730,451.94,653,745,0
251740,446.77,653,744,0
251750,441.57,653,745,0
251760,437.24,653,744,0
251770,433.18,653,745,0
251780,430.13,653,744,0
251790,427.43,653,745,0
251800,425.97,653,745,0
251810,424.78,653,745,0
251820,424.42,653,744,0
251830,424.29,653,745,0
251840,425.02,653,745,0
251850,425.53,653,745,0
251860,426.27,653,744,0
251870,426.49,653,745,0
251880,426.77,653,744,0
251890,426.54,653,745,0
251900,426.42,653,744,0
251910,425.61,653,745,0
251920,425.04,653,744,0
251930,424.04,653,745,0
251940,423.13,653,744,0
251950,421.76,653,745,0
251960,420.55,653,745,0
251970,418.75,653,745,0
251980,417.07,653,744,0
251991,414.82,653,745,0
252001,412.73,653,745,0
252011,410.24,653,745,0
252021,408.37,653,745,0
252032,406.29,653,745,0
252041,404.83,653,745,0
252051,403.25,653,745,0
252061,402.45,653,744,0
252071,401.46,653,745,0
252081,401.23,653,745,0
252091,400.61,653,745,0
252101,400.64,653,744,0
252111,400.28,653,745,0
252121,400.49,653,745,0
252131,400.22,653,745,0
252141,400.54,653,744,0
252151,400.29,653,745,0
252161,400.55,653,745,0
252171,400.30,653,745,0
252181,400.59,653,744,0
252191,400.42,653,745,0
252201,401.06,653,745,0
252211,401.60,653,745,0
252221,403.26,653,744,0
252231,405.16,653,745,0
252241,408.62,653,745,0
252251,412.98,653,745,0
252261,419.29,653,744,0
252271,426.40,653,745,0
252281,435.32,653,745,0
252291,444.83,653,745,0
252301,455.55,653,745,0
252311,465.97,653,745,0
252331,476.52,732,743,0
252334,484.81,732,746,0
252343,492.84,732,745,0
252353,498.71,732,744,0
252363,503.30,732,746,0
252374,505.27,732,744,0
252383,505.83,732,745,0
252393,503.91,732,744,0
252403,501.88,732,746,0
252413,497.42,732,744,0
252423,492.41,732,745,0
252433,485.86,732,744,0
252443,479.64,732,746,0
252453,472.55,732,744,0
252463,466.21,732,745,0
252473,459.76,732,744,0
252483,454.52,732,746,0
252493,449.78,732,744,0
252503,446.59,732,745,0
252513,443.33,732,744,0
252523,441.69,732,746,0
252533,440.19,732,744,0
252544,439.79,732,746,0
252553,439.21,732,744,0
252563,439.28,732,746,0
252573,438.94,732,744,0
252583,439.51,732,746,0
252593,439.27,732,744,0
252603,439.53,732,745,0
252613,438.95,732,744,0
252623,438.79,732,746,0
252633,437.70,732,744,0
252643,436.93,732,746,0
252653,435.32,732,744,0
252663,434.11,732,746,0
252673,431.98,732,744,0
252683,430.44,732,746,0
252693,428.17,732,744,0
252703,426.45,732,746,0
252713,424.00,732,744,0
252723,422.20,732,746,0
252733,419.78,732,744,0
252743,418.18,732,746,0
252753,416.11,732,744,0
252763,414.88,732,746,0
252773,413.07,732,744,0
252783,412.06,732,746,0
252793,410.33,732,744,0
252803,409.42,732,745,0
252813,408.01,732,744,0
252823,407.23,732,746,0
252833,405.92,732,743,0
252844,405.52,732,746,0
252854,404.72,732,744,0
252864,404.80,732,746,0
252874,404.39,732,743,0
252884,404.70,732,746,0
252894,404.49,732,744,0
252904,405.03,732,746,0
252914,404.85,732,743,0
252924,405.24,732,746,0
252934,404.99,732,744,0
252944,405.38,732,746,0
252954,405.10,732,743,0
252964,405.41,732,746,0
252974,404.94,732,744,0
252984,405.13,732,746,0
252994,404.58,732,743,0
253004,404.70,732,746,0
253015,404.15,732,744,0
253025,404.28,732,746,0
253035,404.07,732,744,0
253045,405.12,732,746,0
253056,406.62,732,744,0
253065,410.29,732,746,0
253075,414.96,732,743,0
253085,422.00,732,746,0
253095,430.36,732,744,0
253105,440.97,732,746,0
253124,452.33,794,744,0
253127,464.19,794,746,0
253136,476.35,794,744,0
253146,488.89,794,746,0
253156,500.19,794,743,0
253166,510.46,794,746,0
253176,518.17,794,744,0
253186,523.90,794,746,0
253196,527.36,794,744,0
253206,527.98,794,746,0
253216,525.50,794,744,0
253227,521.06,794,746,0
253236,514.32,794,744,0
253246,506.72,794,746,0
253256,497.93,794,744,0
253266,489.21,794,746,0
253276,480.19,794,744,0
253286,471.99,794,746,0
253296,464.28,794,744,0
253306,458.02,794,746,0
253316,452.53,794,744,0
253326,448.69,794,746,0
253336,445.69,794,744,0
253346,444.16,794,746,0
253356,443.25,794,744,0
253366,443.43,794,746,0
253376,443.82,794,744,0
253386,444.90,794,746,0
253396,445.79,794,744,0
253406,447.09,794,746,0
253416,447.92,794,744,0
253426,448.93,794,746,0
253436,449.30,794,744,0
253446,449.76,794,746,0
253456,449.53,794,744,0
253466,449.20,794,746,0
253476,448.07,794,744,0
253486,446.85,794,746,0
253496,444.75,794,744,0
253506,442.60,794,746,0
253516,439.85,794,744,0
253527,437.24,794,746,0
253537,434.38,794,744,0
253547,431.78,794,746,0
253557,429.23,794,744,0
253568,426.93,794,746,0
253577,424.60,794,744,0
253587,422.53,794,746,0
253597,420.36,794,744,0
253607,418.41,794,746,0
253617,416.44,794,744,0
253627,414.81,794,746,0
253637,413.45,794,744,0
253647,412.55,794,746,0
253657,411.82,794,744,0
253667,411.53,794,746,0
253677,411.37,794,744,0
253687,411.48,794,746,0
253697,411.42,794,744,0
253707,411.64,794,746,0
253717,411.70,794,744,0
253727,411.79,794,746,0
253737,411.77,794,744,0
253747,411.71,794,746,0
253757,411.45,794,744,0
253767,411.19,794,745,0
253777,410.62,794,744,0
253787,410.13,794,746,0
253797,409.45,794,744,0
253807,408.72,794,745,0
253817,408.03,794,744,0
253827,407.81,794,746,0
253837,408.12,794,744,0
253847,409.20,794,745,0
253857,411.24,794,744,0
253868,415.02,794,746,0
253878,420.59,794,744,0
253888,428.08,794,745,0
253898,437.40,794,744,0
253908,448.30,794,745,0
253927,460.72,803,744,0
253930,473.10,803,746,0
253939,486.06,803,745,0
253949,498.43,803,745,0
253959,510.17,803,745,0
253969,520.02,803,745,0
253979,527.94,803,745,0
253989,533.02,803,745,0
253999,536.48,803,745,0
254009,536.68,803,745,0
254019,534.76,803,745,0
254029,529.95,803,745,0
254039,523.58,803,745,0
254049,515.43,803,745,0
254059,506.73,803,745,0
254069,497.30,803,745,0
254080,488.29,803,745,0
254089,479.51,803,745,0
254099,471.85,803,745,0
254109,464.91,803,745,0
254119,459.54,803,745,0
254129,455.09,803,745,0
254139,452.15,803,745,0
254149,449.66,803,745,0
254159,448.35,803,745,0
254169,447.60,803,745,0
254179,447.81,803,745,0
254189,447.99,803,746,0
254199,448.85,803,745,0
254209,449.41,803,745,0
254219,450.57,803,745,0
254229,451.09,803,745,0
254239,451.62,803,745,0
254249,451.39,803,745,0
254259,451.23,803,745,0
254269,450.35,803,745,0
254279,449.51,803,745,0
254289,447.82,803,745,0
254299,446.16,803,745,0
254309,443.75,803,745,0
254319,441.56,803,745,0
254329,438.65,803,745,0
254339,435.97,803,745,0
254349,432.89,803,745,0
254359,430.27,803,745,0
254369,427.27,803,745,0
254380,424.96,803,745,0
254390,422.44,803,745,0
254400,420.81,803,745,0
254410,418.94,803,745,0
254420,418.06,803,745,0
254430,417.40,803,745,0
254440,417.79,803,745,0
254450,417.90,803,745,0
254460,418.70,803,745,0
254470,419.05,803,745,0
254480,419.98,803,745,0
254490,420.03,803,745,0
254500,420.10,803,745,0
254510,419.34,803,745,0
254520,418.94,803,745,0
254530,417.76,803,745,0
254540,416.93,803,745,0
254551,415.32,803,745,0
254561,414.20,803,745,0
254571,412.42,803,745,0
254581,411.23,803,745,0
254592,409.40,803,744,0
254601,408.38,803,745,0
254611,407.07,803,745,0
254621,406.92,803,745,0
254631,406.86,803,745,0
254641,408.31,803,745,0
254651,410.28,803,745,0
254661,414.52,803,745,0
254671,419.85,803,744,0
254681,427.78,803,745,0
254691,437.06,803,745,0
254701,448.83,803,745,0
254721,461.57,793,744,0
254724,475.41,793,747,0
254733,489.30,793,744,0
254743,503.78,793,745,0
254753,516.70,793,744,0
254764,528.66,793,746,0
254774,537.68,793,744,0
254784,544.46,793,746,0
254794,548.22,793,744,0
254804,549.36,793,746,0
254814,546.85,793,744,0
254824,542.22,793,745,0
254834,534.74,793,744,0
254844,526.16,793,746,0
254854,516.00,793,744,0
254864,505.97,793,745,0
254874,495.39,793,744,0
254884,485.76,793,746,0
254894,476.40,793,744,0
254904,468.70,793,745,0
254914,461.67,793,744,0
254924,456.71,793,746,0
254935,452.51,793,744,0
254945,450.17,793,745,0
254955,448.49,793,744,0
254965,448.30,793,746,0
254976,448.38,793,744,0
254985,449.85,793,745,0
254995,451.18,793,744,0
255005,453.57,793,746,0
255015,455.29,793,744,0
255025,457.60,793,746,0
255035,459.31,793,744,0
255045,460.80,793,746,0
255055,461.20,793,744,0
255065,461.31,793,745,0
255075,460.28,793,744,0
255085,458.99,793,746,0
255095,456.68,793,744,0
255105,454.21,793,746,0
255115,451.02,793,744,0
255125,447.88,793,746,0
255135,444.06,793,744,0
255145,440.14,793,745,0
255155,435.90,793,744,0
255165,431.99,793,746,0
255175,427.75,793,744,0
255185,424.22,793,746,0
255195,420.60,793,744,0
255205,417.81,793,746,0
255215,415.25,793,744,0
255225,413.46,793,746,0
255235,411.91,793,744,0
255245,411.21,793,746,0
255255,410.84,793,744,0
255265,411.06,793,746,0
255276,411.43,793,744,0
255286,412.07,793,746,0
255296,412.48,793,744,0
255306,412.76,793,745,0
255316,412.79,793,744,0
255326,412.73,793,746,0
255336,412.38,793,744,0
255346,411.97,793,746,0
255356,411.50,793,744,0
255366,411.40,793,746,0
255376,411.41,793,744,0
255386,411.88,793,745,0
255396,412.95,793,744,0
255406,415.36,793,746,0
255416,419.07,793,744,0
255426,424.58,793,745,0
255436,432.12,793,743,0
255447,442.20,793,745,0
255457,454.57,793,744,0
255467,468.97,793,745,0
255477,484.66,793,744,0
255488,501.05,793,745,0
255506,517.23,786,744,0
255509,531.01,786,746,0
255518,543.13,786,744,0
255528,552.44,786,745,0
255538,558.78,786,744,0
255548,561.59,786,745,0
255558,561.24,786,744,0
255568,557.52,786,745,0
255578,552.44,786,744,0
255588,544.46,786,745,0
255598,534.98,786,744,0
255608,523.67,786,744,0
255618,511.90,786,744,0
255628,499.76,786,745,0
255638,488.30,786,744,0
255648,477.28,786,744,0
255659,467.68,786,744,0
255668,459.04,786,745,0
255678,452.30,786,743,0
255688,446.81,786,744,0
255698,443.09,786,744,0
255708,440.49,786,745,0
255718,439.36,786,743,0
255728,438.82,786,744,0
255738,439.48,786,744,0
255748,440.49,786,744,0
255758,442.23,786,743,0
255768,443.62,786,744,0
255778,445.28,786,744,0
255788,446.56,786,744,0
255798,447.77,786,743,0
255808,448.05,786,744,0
255818,448.04,786,744,0
255828,446.91,786,744,0
255838,445.69,786,743,0
255848,443.60,786,744,0
255858,441.11,786,744,0
255868,437.77,786,744,0
255878,434.28,786,743,0
255888,430.21,786,744,0
255898,426.38,786,744,0
255908,421.89,786,743,0
255918,417.68,786,743,0
255928,413.23,786,744,0
255938,409.18,786,743,0
255948,404.63,786,743,0
255959,400.62,786,742,0
255969,394.99,786,742,0
255979,391.01,786,743,0
255989,387.75,786,743,0
256000,386.37,786,743,0
256009,386.13,786,743,0
256019,388.06,786,743,0
256029,390.70,786,743,0
256039,396.58,786,743,0
256049,402.23,786,744,0
256059,408.85,786,744,0
256069,414.72,786,744,0
256079,420.46,786,744,0
256089,424.87,786,744,0
256099,428.64,786,744,0
256109,430.50,786,744,0
256119,431.55,786,744,0
256129,430.61,786,744,0
256139,429.44,786,744,0
256149,427.77,786,744,0
256159,427.37,786,744,0
256169,428.11,786,744,0
256179,431.55,786,744,0
256189,437.30,786,744,0
256199,446.64,786,744,0
256209,458.58,786,744,0
256219,473.36,786,744,0
256229,489.24,786,744,0
256239,506.22,786,744,0
256259,522.27,752,742,0
256262,535.95,752,746,0
256271,546.33,752,743,0
256281,553.56,752,744,0
256291,556.27,752,742,0
256301,555.50,752,744,0
256311,550.12,752,742,0
256321,541.08,752,743,0
256331,528.67,752,741,0
256342,514.97,752,744,0
256351,501.57,752,743,0
256361,490.25,752,745,0
256371,479.81,752,743,0
256381,471.94,752,745,0
256391,465.87,752,743,0
256401,463.21,752,744,0
256411,461.13,752,743,0
256421,458.65,752,745,0
256431,454.85,752,743,0
256441,452.11,752,745,0
256451,449.51,752,743,0
256461,448.71,752,745,0
256471,448.20,752,743,0
256481,449.42,752,745,0
256491,450.88,752,743,0
256501,453.58,752,745,0
256512,455.33,752,743,0
256521,457.29,752,745,0
256531,457.76,752,743,0
256541,458.35,752,745,0
256551,457.56,752,743,0
256561,457.13,752,745,0
256571,455.51,752,743,0
256581,454.03,752,745,0
256591,451.19,752,744,0
256601,448.56,752,745,0
256611,444.71,752,743,0
256621,441.15,752,746,0
256631,436.35,752,744,0
256641,432.00,752,745,0
256651,426.86,752,743,0
256661,422.32,752,746,0
256671,417.16,752,744,0
256681,412.91,752,745,0
256691,408.35,752,743,0
256701,404.99,752,745,0
256711,401.48,752,744,0
256721,399.15,752,746,0
256731,396.79,752,744,0
256741,395.82,752,746,0
256751,394.59,752,744,0
256761,394.37,752,746,0
256771,393.66,752,744,0
256781,393.85,752,745,0
256791,393.46,752,744,0
256801,393.84,752,746,0
256812,393.54,752,743,0
256822,394.62,752,745,0
256832,395.85,752,744,0
256842,399.32,752,746,0
256852,403.98,752,743,0
256862,411.62,752,745,0
256872,421.25,752,744,0
256882,434.20,752,746,0
256892,448.76,752,743,0
256902,465.80,752,745,0
256912,482.96,752,744,0
256922,500.54,752,745,0
256932,516.28,752,743,0
256942,530.30,752,745,0
256952,540.49,752,744,0
256962,547.59,752,745,0
256972,549.94,752,743,0
256992,548.80,734,742,0
256995,542.35,734,744,0
257004,533.16,734,745,0
257014,520.81,734,743,0
257025,507.11,734,745,0
257035,491.95,734,743,0
257045,476.88,734,745,0
257055,461.74,734,743,0
257065,448.58,734,745,0
257075,436.19,734,743,0
257085,425.46,734,745,0
257095,415.98,734,743,0
257105,408.27,734,745,0
257115,401.98,734,743,0
257125,397.44,734,745,0
257135,394.44,734,743,0
257145,393.15,734,745,0
257155,393.06,734,743,0
257165,394.59,734,745,0
257175,396.98,734,743,0
257185,400.33,734,745,0
257196,403.92,734,743,0
257206,407.97,734,745,0
257216,411.58,734,743,0
257226,414.71,734,744,0
257236,417.19,734,743,0
257246,419.11,734,745,0
257256,420.02,734,744,0
257266,420.27,734,745,0
257276,419.59,734,744,0
257286,418.43,734,745,0
257296,417.10,734,744,0
257306,415.14,734,745,0
257316,412.70,734,744,0
257326,410.09,734,745,0
257336,407.15,734,744,0
257346,404.15,734,745,0
257356,401.32,734,744,0
257367,398.35,734,745,0
257377,395.50,734,744,0
257387,392.87,734,745,0
257397,390.46,734,745,0
257408,388.14,734,745,0
257417,386.21,734,745,0
257427,384.48,734,745,0
257437,383.30,734,745,0
257447,382.18,734,745,0
257457,381.27,734,744,0
257467,380.29,734,745,0
257477,380.16,734,744,0
257487,380.50,734,745,0
257497,382.23,734,744,0
257507,385.46,734,745,0
257517,391.50,734,745,0
257527,400.00,734,745,0
257537,411.57,734,744,0
257547,425.29,734,745,0
257557,440.63,734,745,0
257567,456.00,734,745,0
257577,470.78,734,745,0
257587,483.28,734,745,0
257597,493.14,734,744,0
257607,499.31,734,745,0
257617,501.83,734,744,0
257627,500.55,734,744,0
257637,496.40,734,744,0
257647,489.21,734,745,0
257657,480.15,734,744,0
257667,469.39,734,745,0
257677,458.00,734,744,0
257687,446.00,734,745,0
257697,434.39,734,744,0
257708,422.78,734,744,0
257718,412.35,734,744,0
257728,402.47,734,745,0
257738,394.32,734,745,0
257748,387.28,734,744,0
257758,382.27,734,744,0
257768,378.46,734,744,0
257778,376.73,734,744,0
257788,376.09,734,744,0
257798,377.39,734,744,0
257808,379.29,734,745,0
257818,382.67,734,745,0
257828,386.07,734,744,0
257838,389.95,734,744,0
257848,393.22,734,745,0
257858,396.80,734,745,0
257868,399.17,734,744,0
257879,401.44,734,745,0
257889,402.16,734,744,0
257899,402.50,734,745,0
257909,401.45,734,744,0
257920,400.11,734,745,0
257929,397.29,734,744,0
257939,394.76,734,745,0
257949,391.19,734,744,0
257959,388.05,734,745,0
257969,384.39,734,744,0
257979,381.75,734,745,0
257989,378.78,734,744,0
257999,376.92,734,745,0
258009,374.84,734,744,0
258019,373.73,734,745,0
258029,372.14,734,744,0
258039,371.24,734,745,0
258049,369.97,734,745,0
258059,369.68,734,745,0
258069,369.05,734,744,0
258079,369.42,734,745,0
258089,370.11,734,744,0
258099,372.90,734,745,0
258109,377.05,734,744,0
258119,383.59,734,745,0
258129,391.13,734,744,0
258139,400.69,734,744,0
258149,410.64,734,744,0
258159,421.89,734,745,0
258169,432.42,734,744,0
258179,442.84,734,745,0
258189,451.46,734,744,0
258199,459.16,734,745,0
258209,464.43,734,744,0
258220,468.41,734,745,0
258230,469.75,734,744,0
258240,469.65,734,745,0
258250,466.80,734,743,0
258260,462.75,734,745,0
258270,456.82,734,744,0
258280,450.40,734,745,0
258290,442.53,734,743,0
258300,434.65,734,745,0
258310,426.10,734,744,0
258320,418.57,734,745,0
258330,410.77,734,744,0
258340,404.28,734,745,0
258350,397.94,734,744,0
258360,393.24,734,745,0
258370,388.89,734,744,0
258380,386.43,734,745,0
258391,384.42,734,744,0
258401,384.46,734,745,0
258411,384.62,734,744,0
258421,386.49,734,745,0
258432,388.23,734,743,0
258441,391.21,734,745,0
258451,393.42,734,744,0
258461,396.12,734,745,0
258471,397.80,734,744,0
258481,399.87,734,745,0
258491,400.94,734,744,0
258501,402.33,734,745,0
258511,402.62,734,744,0
258521,403.12,734,745,0
258531,402.40,734,744,0
258541,401.81,734,745,0
258551,399.98,734,744,0
258561,398.23,734,745,0
258571,395.55,734,744,0
258581,393.28,734,745,0
258591,390.20,734,743,0
258601,388.04,734,745,0
258611,385.46,734,744,0
258621,383.95,734,746,0
258631,382.16,734,744,0
258641,381.21,734,745,0
258651,379.86,734,744,0
258661,379.52,734,745,0
258671,378.63,734,744,0
258681,378.62,734,745,0
258691,378.56,734,743,0
258701,380.11,734,745,0
258711,382.22,734,744,0
258721,386.31,734,745,0
258732,391.57,734,743,0
258742,399.33,734,745,0
258752,408.15,734,743,0
258762,418.64,734,745,0
258772,429.72,734,743,0
258791,442.32,0,742,0
258794,453.07,0,744,0
258803,463.42,0,745,0
258813,471.69,0,743,0
258823,479.28,0,746,0
258833,484.39,0,743,0
258843,487.06,0,745,0
258853,486.05,0,743,0
258863,484.24,0,745,0
258873,479.79,0,743,0
258883,474.07,0,745,0
258893,466.04,0,743,0
258903,457.62,0,745,0
258913,448.52,0,743,0
258923,440.09,0,745,0
258933,431.71,0,743,0
258944,424.42,0,745,0
258953,417.83,0,743,0
258963,412.74,0,745,0
258973,408.57,0,743,0
258983,406.30,0,745,0
258993,404.97,0,743,0
259003,405.28,0,745,0
259013,406.39,0,743,0
259023,408.68,0,745,0
259033,411.17,0,743,0
259043,414.25,0,745,0
259053,416.79,0,743,0
259063,419.42,0,745,0
259073,421.10,0,743,0
259083,422.52,0,745,0
259093,423.31,0,743,0
259103,423.60,0,745,0
259113,422.74,0,743,0
259123,421.57,0,745,0
259133,419.56,0,743,0
259143,417.50,0,745,0
259153,415.17,0,744,0
259163,412.72,0,745,0
259173,409.89,0,743,0
259183,407.69,0,746,0
259193,405.47,0,744,0
259203,404.47,0,746,0
259213,403.77,0,744,0
259223,403.50,0,746,0
259233,402.92,0,744,0
259244,402.77,0,746,0
259254,401.94,0,743,0
259264,401.06,0,746,0
259274,399.16,0,744,0
259284,397.18,0,745,0
259294,394.94,0,743,0
259304,393.63,0,746,0
259314,393.18,0,744,0
259324,394.46,0,745,0
259334,397.32,0,743,0
259344,402.28,0,746,0
259354,409.05,0,744,0
259364,417.65,0,745,0
259374,427.61,0,743,0
259384,438.79,0,746,0
259394,450.12,0,744,0
259404,461.14,0,745,0
259415,470.74,0,743,0
259425,478.62,0,745,0
259435,484.31,0,744,0
259454,487.39,663,743,0
259458,487.31,663,745,0
259467,484.99,663,745,0
259477,480.92,663,745,0
259487,475.20,663,744,0
259497,468.58,663,744,0
259507,461.04,663,744,0
259517,453.40,663,744,0
259527,445.86,663,744,0
259537,438.70,663,744,0
259547,431.42,663,745,0
259557,425.08,663,744,0
259567,418.93,663,744,0
259577,414.06,663,744,0
259587,410.02,663,745,0
259597,407.44,663,744,0
259607,405.25,663,745,0
259617,404.45,663,744,0
259628,404.01,663,744,0
259638,404.65,663,745,0
259648,405.14,663,744,0
259658,406.09,663,744,0
259668,406.66,663,744,0
259678,407.96,663,744,0
259688,408.40,663,744,0
259698,409.18,663,744,0
259708,409.13,663,744,0
259718,409.60,663,745,0
259728,409.21,663,744,0
259738,409.10,663,744,0
259748,407.96,663,744,0
259758,407.24,663,745,0
259768,405.75,663,744,0
259778,404.63,663,744,0
259788,403.11,663,744,0
259799,402.39,663,745,0
259809,400.99,663,744,0
259819,400.18,663,744,0
259829,398.80,663,744,0
259840,397.91,663,745,0
259849,396.57,663,744,0
259859,395.28,663,744,0
259869,393.31,663,744,0
259879,392.15,663,745,0
259889,390.90,663,744,0
259899,390.76,663,744,0
259909,390.58,663,744,0
259919,391.95,663,745,0
259929,393.89,663,744,0
259939,397.69,663,745,0
259949,401.94,663,743,0
259959,408.00,663,745,0
259969,414.47,663,744,0
259979,422.65,663,745,0
259998,430.77,544,743,0
260001,439.02,544,747,0
260011,446.26,544,743,0
260020,453.72,544,745,0
260030,459.29,544,743,0
260040,464.43,544,745,0
260050,467.60,544,743,0
260060,469.61,544,745,0
260070,469.73,544,743,0
260080,468.52,544,745,0
260090,464.89,544,743,0
260100,460.64,544,744,0
260110,454.41,544,743,0
260120,447.81,544,745,0
260130,440.07,544,743,0
260140,433.15,544,744,0
260150,426.29,544,743,0
260160,421.02,544,745,0
260170,416.73,544,743,0
260180,414.71,544,745,0
260190,413.21,544,743,0
260200,413.62,544,745,0
260210,414.20,544,743,0
260220,415.90,544,745,0
260230,417.04,544,743,0
260240,418.19,544,745,0
260250,418.00,544,743,0
260260,418.05,544,745,0
260270,417.05,544,743,0
260280,416.39,544,745,0
260290,414.73,544,743,0
260300,413.44,544,745,0
260311,411.25,544,743,0
260321,409.50,544,744,0
260331,407.08,544,742,0
260341,405.21,544,744,0
260352,402.75,544,742,0
260361,401.32,544,745,0
260371,399.64,544,743,0
260381,399.19,544,745,0
260391,398.71,544,742,0
260401,399.27,544,745,0
260411,399.57,544,743,0
260421,400.47,544,745,0
260431,400.89,544,742,0
260441,401.99,544,745,0
260451,402.77,544,743,0
260461,403.91,544,745,0
260471,404.02,544,742,0
260481,404.40,544,745,0
260491,404.54,544,743,0
260501,405.10,544,744,0
260511,404.77,544,741,0
260521,405.23,544,743,0
260531,403.49,544,740,0
260541,402.83,544,743,0
260551,404.81,544,742,0
260561,409.84,544,744,0
260571,416.44,544,742,0
260581,425.78,544,744,0
260591,435.10,544,740,0
260601,447.29,544,744,0
260611,459.42,544,742,0
260630,469.49,632,742,0
260633,477.96,632,743,0
260642,486.63,632,745,0
260652,493.47,632,743,0
260662,499.50,632,745,0
260672,503.33,632,743,0
260682,505.29,632,745,0
260692,504.56,632,743,0
260702,500.84,632,745,0
260712,492.87,632,743,0
260722,482.41,632,745,0
260732,468.74,632,742,0
260742,452.23,632,743,0
260752,435.84,632,742,0
260762,421.36,632,744,0
260772,408.56,632,743,0
260782,398.84,632,745,0
260792,391.77,632,742,0
260802,388.88,632,745,0
260812,391.23,632,743,0
260823,395.88,632,745,0
260833,402.13,632,743,0
260843,409.80,632,745,0
260853,417.19,632,743,0
260864,424.72,632,745,0
260873,431.36,632,743,0
260883,437.00,632,746,0
260893,441.37,632,744,0
260903,443.70,632,745,0
260913,443.75,632,744,0
260923,442.45,632,745,0
260933,439.79,632,744,0
260943,436.04,632,745,0
260953,431.14,632,744,0
260963,426.00,632,745,0
260973,420.86,632,744,0
260983,416.96,632,746,0
260993,413.80,632,744,0
261003,411.59,632,746,0
261013,410.30,632,744,0
261023,410.42,632,746,0
261033,410.94,632,744,0
261043,412.16,632,746,0
261053,412.75,632,744,0
261063,413.00,632,746,0
261073,412.74,632,744,0
261083,412.13,632,746,0
261093,410.72,632,744,0
261103,409.13,632,746,0
261113,407.17,632,744,0
261123,405.40,632,746,0
261133,404.04,632,744,0
261143,403.47,632,746,0
261153,404.40,632,745,0
261164,407.41,632,746,0
261174,412.34,632,745,0
261184,419.31,632,746,0
261194,428.09,632,745,0
261204,438.69,632,746,0
261214,450.27,632,745,0
261224,461.97,632,746,0
261234,473.00,632,745,0
261244,482.98,632,746,0
261254,491.47,632,745,0
261264,498.27,632,746,0
261274,502.86,632,745,0
261294,505.30,663,743,0
261297,505.00,663,747,0
261306,502.98,663,745,0
261316,499.60,663,745,0
261326,494.58,663,745,0
261336,488.62,663,745,0
261346,481.71,663,745,0
261356,475.24,663,746,0
261366,469.51,663,745,0
261377,464.08,663,745,0
261387,458.32,663,745,0
261397,453.16,663,745,0
261407,447.42,663,744,0
261417,442.19,663,745,0
261427,435.83,663,744,0
261437,430.23,663,745,0
261447,424.67,663,744,0
261457,420.79,663,745,0
261467,417.55,663,744,0
261477,415.63,663,744,0
261487,412.48,663,742,0
261497,412.08,663,744,0
261507,412.74,663,744,0
261517,415.65,663,745,0
261527,419.35,663,744,0
261537,424.78,663,745,0
261548,430.67,663,745,0
261558,438.87,663,745,0
261568,444.87,663,744,0
261578,449.45,663,745,0
261588,451.07,663,744,0
261598,451.05,663,745,0
261608,448.42,663,744,0
261618,445.08,663,745,0
261628,440.38,663,744,0
261638,436.07,663,745,0
261648,431.03,663,744,0
261658,427.12,663,745,0
261668,422.89,663,744,0
261678,419.88,663,745,0
261688,416.70,663,744,0
261698,414.69,663,746,0
261708,412.47,663,744,0
261719,411.47,663,746,0
261729,409.96,663,744,0
261739,409.67,663,746,0
261749,409.26,663,744,0
261760,410.29,663,746,0
261769,411.49,663,744,0
261779,414.56,663,746,0
261789,418.25,663,745,0
261799,424.22,663,746,0
261809,430.79,663,744,0
261819,439.34,663,746,0
261829,448.54,663,745,0
261839,459.56,663,746,0
261849,470.75,663,745,0
261859,482.87,663,746,0
261869,493.79,663,745,0
261879,504.31,663,746,0
261889,512.45,663,745,0
261899,519.04,663,746,0
261909,522.63,663,745,0
261919,524.54,663,747,0
261929,523.09,663,745,0
261939,519.98,663,746,0
261949,514.11,663,745,0
261959,507.44,663,747,0
261969,498.95,663,745,0
261979,490.35,663,746,0
261989,480.39,663,745,0
261999,471.14,663,746,0
262009,461.54,663,745,0
262019,453.49,663,746,0
262029,445.63,663,745,0
262039,439.49,663,746,0
262049,433.81,663,745,0
262060,430.14,663,747,0
262070,427.18,663,745,0
262080,426.14,663,747,0
262090,425.50,663,745,0
262100,426.34,663,747,0
262110,427.22,663,745,0
262120,429.13,663,747,0
262130,430.42,663,745,0
262140,432.18,663,746,0
262150,433.15,663,745,0
262160,434.48,663,747,0
262170,434.85,663,745,0
262180,435.28,663,747,0
262190,434.55,663,745,0
262200,433.83,663,747,0
262210,431.91,663,745,0
262220,430.05,663,747,0
262231,427.08,663,745,0
262241,424.27,663,747,0
262251,420.80,663,745,0
262261,417.82,663,747,0
262272,414.70,663,745,0
262281,412.39,663,747,0
262291,409.92,663,745,0
262301,408.40,663,747,0
262311,406.69,663,745,0
262321,405.59,663,747,0
262331,404.21,663,745,0
262341,403.33,663,746,0
262351,402.29,663,745,0
262361,401.90,663,747,0
262371,401.12,663,745,0
262381,401.30,663,747,0
262391,401.59,663,745,0
262401,403.13,663,747,0
262411,405.23,663,745,0
262421,408.76,663,746,0
262431,413.03,663,745,0
262441,419.11,663,747,0
262451,425.85,663,744,0
262461,434.34,663,746,0
262471,443.88,663,745,0
262481,454.33,663,747,0
262491,464.60,663,745,0
262501,475.22,663,746,0
262511,484.41,663,744,0
262521,492.86,663,747,0
262531,498.86,663,745,0
262541,502.63,663,746,0
262551,503.77,663,744,0
262561,503.07,663,746,0
262581,499.62,0,745,0
262583,493.99,0,746,0
262593,486.96,0,744,0
262603,479.65,0,746,0
262614,471.78,0,745,0
262623,463.96,0,746,0
262633,456.04,0,744,0
262643,448.75,0,746,0
262653,442.82,0,744,0
262663,437.52,0,746,0
262673,432.91,0,744,0
262683,429.38,0,746,0
262693,426.91,0,745,0
262703,425.39,0,746,0
262713,424.55,0,745,0
262723,424.21,0,746,0
262733,424.19,0,745,0
262743,424.22,0,746,0
262753,423.85,0,744,0
262763,423.13,0,746,0
262773,422.06,0,745,0
262784,420.76,0,746,0
262793,419.29,0,744,0
262803,417.66,0,746,0
262813,415.96,0,744,0
262823,414.17,0,746,0
262833,412.28,0,744,0
262843,410.39,0,746,0
262853,408.60,0,744,0
262863,406.79,0,746,0
262873,404.84,0,744,0
262883,402.83,0,746,0
262893,400.91,0,744,0
262903,399.01,0,746,0
262913,397.21,0,744,0
262923,395.60,0,746,0
262933,394.26,0,744,0
262943,393.33,0,746,0
262953,392.59,0,744,0
262963,392.07,0,746,0
262973,392.13,0,745,0
262983,392.86,0,746,0
262993,394.19,0,745,0
263003,395.89,0,746,0
263013,397.77,0,745,0
263023,399.68,0,746,0
263033,401.62,0,745,0
263043,403.45,0,747,0
263053,404.56,0,745,0
263063,404.77,0,747,0
263073,404.33,0,745,0
263084,403.16,0,746,0
263094,401.74,0,745,0
263104,399.80,0,746,0
263114,397.76,0,745,0
263124,395.78,0,746,0
263134,394.90,0,745,0
263144,395.23,0,746,0
263154,397.26,0,745,0
263164,400.70,0,746,0
263174,406.32,0,745,0
263184,413.34,0,746,0
263194,422.11,0,745,0
263204,431.33,0,746,0
263223,441.00,642,745,0
263226,449.45,642,747,0
263235,458.27,642,746,0
263245,466.03,642,746,0
263255,472.92,642,746,0
263265,478.22,642,746,0
263275,482.22,642,745,0
263285,484.17,642,746,0
263296,485.49,642,746,0
263305,484.40,642,746,0
263315,482.05,642,746,0
263325,477.75,642,746,0
263335,472.73,642,746,0
263345,466.51,642,746,0
263355,460.31,642,746,0
263365,453.58,642,746,0
263375,447.40,642,746,0
263385,441.03,642,746,0
263395,435.66,642,746,0
263405,430.41,642,746,0
263415,426.34,642,746,0
263425,422.64,642,746,0
263435,420.13,642,745,0
263445,417.78,642,746,0
263455,416.47,642,746,0
263465,415.47,642,746,0
263475,415.29,642,745,0
263485,414.95,642,746,0
263495,415.39,642,746,0
263505,415.40,642,746,0
263515,415.88,642,746,0
263525,415.70,642,746,0
263535,415.66,642,746,0
263545,414.91,642,746,0
263555,414.38,642,746,0
263565,412.98,642,746,0
263575,412.00,642,746,0
263585,410.24,642,746,0
263596,409.01,642,746,0
263606,407.17,642,746,0
263616,405.96,642,746,0
263626,404.26,642,746,0
263636,403.11,642,746,0
263646,401.45,642,746,0
263656,400.46,642,746,0
263666,398.95,642,746,0
263676,398.19,642,746,0
263686,397.02,642,746,0
263696,396.67,642,746,0
263706,395.91,642,746,0
263716,395.94,642,746,0
263726,395.53,642,746,0
263736,395.80,642,746,0
263746,395.47,642,746,0
263756,395.80,642,746,0
263767,395.43,642,746,0
263777,395.73,642,747,0
263787,395.38,642,746,0
263797,395.65,642,747,0
263808,395.24,642,745,0
263817,395.60,642,747,0
263827,395.29,642,746,0
263837,395.85,642,747,0
263847,395.94,642,745,0
263857,397.07,642,747,0
263867,397.99,642,746,0
263877,400.48,642,747,0
263887,403.34,642,745,0
263897,408.12,642,747,0
263907,413.40,642,746,0
263917,420.61,642,747,0
263927,428.18,642,745,0
263937,437.17,642,746,0
263956,445.86,733,745,0
263959,454.65,733,748,0
263968,462.77,733,745,0
263979,470.64,733,747,0
263988,476.49,733,745,0
263998,481.44,733,747,0
264008,484.05,733,745,0
264018,485.62,733,747,0
264028,485.18,733,745,0
264038,483.41,733,747,0
264048,479.56,733,745,0
264058,475.36,733,747,0
264068,469.85,733,745,0
264078,464.63,733,747,0
264088,458.48,733,745,0
264098,453.07,733,747,0
264108,447.09,733,745,0
264118,442.22,733,747,0
264128,437.14,733,745,0
264138,433.20,733,747,0
264148,429.32,733,745,0
264158,426.83,733,747,0
264168,424.61,733,745,0
264178,424.04,733,747,0
264188,423.30,733,745,0
264198,423.90,733,747,0
264208,424.18,733,745,0
264218,425.24,733,747,0
264228,425.68,733,745,0
264238,426.81,733,748,0
264248,426.69,733,745,0
264258,427.00,733,747,0
264268,426.14,733,745,0
264279,425.59,733,747,0
264289,424.12,733,745,0
264299,423.06,733,747,0
264309,421.07,733,745,0
264320,419.59,733,747,0
264329,417.53,733,745,0
264339,416.13,733,747,0
264349,414.42,733,745,0
264359,413.26,733,747,0
264369,411.56,733,745,0
264379,410.32,733,747,0
264389,408.59,733,745,0
264399,407.52,733,747,0
264409,405.86,733,745,0
264419,404.70,733,747,0
264429,403.25,733,745,0
264439,402.75,733,747,0
264449,401.84,733,745,0
264459,401.84,733,747,0
264469,401.59,733,745,0
264479,402.14,733,747,0
264489,402.31,733,745,0
264499,403.03,733,747,0
264509,403.15,733,745,0
264519,403.92,733,747,0
264529,404.37,733,745,0
264539,405.55,733,747,0
264549,406.24,733,745,0
264559,407.75,733,747,0
264569,408.98,733,745,0
264579,411.13,733,747,0
264589,413.19,733,745,0
264599,416.22,733,747,0
264609,419.45,733,745,0
264620,424.25,733,747,0
264630,429.36,733,745,0
264640,436.24,733,747,0
264650,443.41,733,745,0
264660,451.81,733,747,0
264670,459.93,733,745,0
264689,468.39,733,743,0
264692,474.92,733,746,0
264701,481.24,733,747,0
264711,485.93,733,745,0
264721,489.81,733,747,0
264731,491.88,733,745,0
264741,493.07,733,747,0
264751,492.45,733,745,0
264761,491.67,733,747,0
264771,489.11,733,745,0
264781,485.61,733,746,0
264791,481.14,733,745,0
264801,476.38,733,747,0
264811,471.00,733,745,0
264821,465.60,733,746,0
264832,460.23,733,745,0
264841,455.66,733,747,0
264851,451.39,733,744,0
264861,447.55,733,746,0
264871,443.83,733,744,0
264881,440.62,733,746,0
264891,437.73,733,744,0
264901,435.29,733,746,0
264911,432.89,733,744,0
264921,431.51,733,746,0
264931,430.75,733,744,0
264941,431.17,733,747,0
264951,432.11,733,744,0
264961,433.70,733,746,0
264971,435.38,733,744,0
264981,437.41,733,746,0
264991,438.91,733,744,0
265001,439.93,733,746,0
265011,439.90,733,744,0
265021,439.29,733,746,0
265031,437.83,733,744,0
265041,436.13,733,746,0
265051,433.60,733,744,0
265061,430.81,733,746,0
265071,427.65,733,744,0
265081,424.58,733,746,0
265091,421.37,733,744,0
265101,418.51,733,746,0
265111,415.53,733,744,0
265121,413.49,733,746,0
265132,411.93,733,744,0
265142,410.83,733,745,0
265152,409.98,733,744,0
265162,410.42,733,746,0
265172,412.18,733,745,0
265182,415.04,733,746,0
265192,417.86,733,745,0
265202,420.47,733,746,0
265212,423.20,733,745,0
265222,425.93,733,746,0
265232,428.13,733,745,0
265242,429.68,733,747,0
265252,430.98,733,745,0
265262,432.31,733,746,0
265272,433.80,733,745,0
265282,435.41,733,747,0
265292,437.34,733,745,0
265303,439.21,733,746,0
265313,441.29,733,745,0
265323,443.60,733,746,0
265333,446.72,733,746,0
265344,450.71,733,745,0
265353,455.89,733,745,0
265363,461.97,733,746,0
265373,469.22,733,746,0
265383,476.53,733,746,0
265393,484.13,733,745,0
265412,490.82,723,744,0
265415,496.40,723,747,0
265424,500.82,723,746,0
265434,503.96,723,746,0
265444,504.92,723,746,0
265454,504.68,723,746,0
265464,502.42,723,746,0
265474,499.38,723,745,0
265484,495.37,723,746,0
265494,490.50,723,746,0
265504,484.56,723,746,0
265515,478.99,723,746,0
265524,473.00,723,746,0
265534,467.77,723,746,0
265544,462.35,723,746,0
265554,457.70,723,746,0
265564,453.21,723,746,0
265574,449.97,723,746,0
265584,446.85,723,746,0
265594,445.01,723,746,0
265604,443.42,723,746,0
265614,442.91,723,746,0
265624,442.55,723,746,0
265634,442.94,723,746,0
265644,443.09,723,746,0
265654,443.79,723,746,0
265664,443.94,723,746,0
265674,444.64,723,746,0
265684,444.88,723,746,0
265694,445.69,723,746,0
265704,446.21,723,746,0
265714,447.39,723,746,0
265724,448.13,723,746,0
265734,449.63,723,746,0
265744,450.81,723,746,0
265754,452.71,723,746,0
265764,454.30,723,746,0
265774,456.57,723,746,0
265784,458.37,723,746,0
265794,460.74,723,746,0
265804,462.32,723,746,0
265815,463.98,723,746,0
265825,464.54,723,746,0
265835,465.07,723,746,0
265845,464.06,723,746,0
265856,463.14,723,747,0
265865,460.91,723,746,0
265875,458.97,723,746,0
265885,455.72,723,746,0
265895,452.46,723,746,0
265905,447.87,723,746,0
265915,443.45,723,746,0
265925,437.70,723,746,0
265935,432.43,723,746,0
265945,426.60,723,746,0
265955,422.05,723,746,0
265965,418.01,723,746,0
265975,416.33,723,746,0
265985,416.23,723,746,0
265995,419.21,723,746,0
266005,424.07,723,746,0
266015,431.72,723,746,0
266025,440.98,723,745,0
266035,452.64,723,745,0
266045,464.75,723,746,0
266055,477.77,723,746,0
266065,489.58,723,746,0
266075,500.81,723,746,0
266094,509.69,682,744,0
266097,516.38,682,747,0
266106,520.17,682,745,0
266116,522.22,682,746,0
266126,521.55,682,745,0
266136,519.76,682,747,0
266146,515.63,682,745,0
266156,510.81,682,746,0
266166,504.87,682,745,0
266176,498.48,682,746,0
266186,490.84,682,745,0
266196,483.47,682,747,0
266206,475.44,682,745,0
266216,468.45,682,746,0
266226,461.25,682,745,0
266236,455.39,682,747,0
266246,449.91,682,745,0
266256,446.13,682,747,0
266266,442.49,682,745,0
266276,440.37,682,747,0
266286,438.33,682,745,0
266296,437.63,682,747,0
266306,436.76,682,746,0
266316,436.83,682,747,0
266327,436.24,682,745,0
266337,436.38,682,747,0
266347,435.54,682,745,0
266357,435.29,682,747,0
266368,434.39,682,745,0
266377,434.36,682,747,0
266387,433.65,682,746,0
266397,433.63,682,747,0
266407,432.88,682,745,0
266417,432.79,682,747,0
266427,431.65,682,745,0
266437,430.69,682,747,0
266447,428.38,682,745,0
266457,426.47,682,747,0
266467,423.33,682,745,0
266477,420.83,682,747,0
266487,417.49,682,745,0
266497,415.07,682,747,0
266507,412.27,682,745,0
266517,410.39,682,747,0
266527,408.00,682,745,0
266537,406.93,682,747,0
266547,405.15,682,745,0
266557,404.38,682,747,0
266567,403.19,682,745,0
266577,402.96,682,747,0
266587,402.72,682,745,0
266597,403.87,682,747,0
266607,405.58,682,745,0
266617,409.39,682,747,0
266627,414.16,682,745,0
266637,421.27,682,747,0
266647,429.12,682,744,0
266657,438.90,682,747,0
266668,448.96,682,745,0
266678,459.73,682,747,0
266688,469.58,682,744,0
266698,479.13,682,747,0
266708,486.47,682,745,0
266718,492.84,682,747,0
266728,496.45,682,744,0
266738,498.67,682,747,0
266748,498.04,682,745,0
266758,496.27,682,747,0
266768,492.12,682,744,0
266778,487.24,682,747,0
266788,480.87,682,745,0
266798,474.44,682,747,0
266808,466.89,682,744,0
266818,459.77,682,747,0
266828,451.95,682,745,0
266839,445.07,682,747,0
266849,438.06,682,744,0
266859,431.87,682,746,0
266869,426.04,682,745,0
266880,421.18,682,746,0
266889,416.80,682,744,0
266899,413.95,682,746,0
266909,411.65,682,745,0
266919,410.64,682,746,0
266929,409.80,682,744,0
266939,409.56,682,746,0
266949,408.97,682,744,0
266959,408.25,682,746,0
266969,403.33,682,741,0
266979,396.20,682,744,0
266989,388.47,682,743,0
266999,382.84,682,745,0
267009,377.70,682,743,0
267019,374.41,682,745,0
267029,372.40,682,743,0
267039,376.22,682,745,0
267049,383.53,682,743,0
267059,392.15,682,745,0
267069,398.49,682,743,0
267079,404.95,682,746,0
267089,410.28,682,743,0
267099,415.12,682,746,0
267109,417.14,682,743,0
267119,417.14,682,745,0
267129,414.61,682,743,0
267139,410.53,682,744,0
267149,404.63,682,743,0
267159,398.01,682,744,0
267169,390.98,682,743,0
267180,385.54,682,745,0
267190,381.87,682,743,0
267200,380.06,682,745,0
267210,381.76,682,743,0
267220,386.37,682,745,0
267230,393.03,682,743,0
267240,401.34,682,746,0
267250,410.15,682,743,0
267260,419.36,682,745,0
267270,429.45,682,743,0
267280,439.47,682,745,0
267290,448.63,682,743,0
267300,457.19,682,745,0
267310,464.33,682,743,0
267320,470.27,682,745,0
267330,474.09,682,743,0
267340,475.65,682,744,0
267351,474.04,682,742,0
267361,470.09,682,744,0
267371,464.57,682,743,0
267381,458.06,682,744,0
267392,449.47,682,742,0
267401,437.89,682,742,0
267411,425.36,682,742,0
267421,416.47,682,745,0
267431,409.64,682,742,0
267441,403.49,682,744,0
267451,400.26,682,743,0
267461,400.44,682,745,0
267471,405.02,682,743,0
267481,412.69,682,745,0
267491,418.39,682,743,0
267501,423.12,682,743,0
267511,427.71,682,743,0
267521,430.58,682,745,0
267531,432.08,682,743,0
267541,432.53,682,744,0
267551,431.68,682,743,0
267561,428.91,682,743,0
267571,426.02,682,743,0
267581,423.49,682,744,0
267591,419.78,682,742,0
267601,414.62,682,744,0
267611,409.51,682,743,0
267621,404.38,682,744,0
267631,400.67,682,742,0
267641,396.95,682,744,0
267651,393.37,682,743,0
267661,390.17,682,743,0
267671,387.85,682,742,0
267681,384.85,682,743,0
267692,382.32,682,743,0
267702,382.06,682,744,0
267712,384.14,682,743,0
267722,385.85,682,743,0
267732,388.73,682,743,0
267742,392.15,682,743,0
267752,397.12,682,743,0
267762,401.97,682,744,0
267772,405.66,682,743,0
267782,407.69,682,743,0
267792,410.57,682,743,0
267802,413.61,682,744,0
267812,418.10,682,743,0
267822,423.21,682,744,0
267832,428.89,682,743,0
267842,435.70,682,744,0
267852,443.59,682,743,0
267863,450.65,682,743,0
267873,458.60,682,744,0
267883,464.98,682,743,0
267893,470.26,682,743,0
267904,474.08,682,743,0
267913,476.28,682,743,0
267923,476.24,682,743,0
267933,475.57,682,743,0
267943,471.50,682,743,0
267953,466.68,682,743,0
267963,459.75,682,743,0
267973,453.56,682,744,0
267983,445.98,682,743,0
267993,439.26,682,743,0
268003,432.58,682,743,0
268013,427.39,682,743,0
268023,422.52,682,743,0
268033,419.62,682,743,0
268043,416.43,682,743,0
268053,414.16,682,743,0
268063,411.67,682,744,0
268073,410.74,682,743,0
268083,410.30,682,744,0
268093,410.90,682,743,0
268103,411.27,682,743,0
268113,411.88,682,743,0
268123,413.03,682,744,0
268133,415.03,682,743,0
268143,416.31,682,743,0
268153,417.89,682,743,0
268163,418.69,682,743,0
268173,419.81,682,743,0
268183,420.51,682,743,0
268193,421.22,682,743,0
268204,420.89,682,743,0
268214,420.67,682,744,0
268224,419.35,682,743,0
268234,418.13,682,743,0
268244,416.51,682,743,0
268254,415.88,682,744,0
268264,415.45,682,744,0
268274,415.61,682,744,0
268284,415.13,682,744,0
268294,415.26,682,744,0
268304,415.18,682,744,0
268314,415.60,682,744,0
268324,415.12,682,744,0
268334,414.78,682,744,0
268344,414.12,682,744,0
268354,414.64,682,744,0
268364,415.43,682,744,0
268375,418.18,682,745,0
268385,421.51,682,743,0
268395,427.01,682,744,0
268405,433.22,682,743,0
268416,441.39,682,745,0
268425,449.67,682,744,0
268444,458.81,0,742,0
268446,466.67,0,743,0
268456,474.95,0,745,0
268466,481.14,0,743,0
268476,486.24,0,744,0
268486,488.65,0,743,0
268496,489.91,0,745,0
268506,489.08,0,743,0
268516,487.60,0,744,0
268526,483.82,0,743,0
268536,479.72,0,745,0
268546,474.32,0,743,0
268556,469.38,0,745,0
268566,463.39,0,743,0
268576,457.66,0,745,0
268587,451.25,0,743,0
268596,445.69,0,745,0
268606,439.74,0,743,0
268616,435.06,0,745,0
268626,430.24,0,743,0
268636,426.96,0,745,0
268646,423.80,0,743,0
268656,422.10,0,745,0
268666,420.48,0,743,0
268676,420.25,0,744,0
268686,419.83,0,743,0
268696,420.36,0,745,0
268706,420.46,0,743,0
268716,421.35,0,745,0
268726,421.55,0,743,0
268736,422.28,0,745,0
268746,422.16,0,743,0
268756,422.54,0,744,0
268766,422.08,0,743,0
268776,421.88,0,745,0
268786,420.76,0,743,0
268796,419.97,0,744,0
268806,418.31,0,743,0
268816,417.49,0,745,0
268826,415.89,0,743,0
268836,414.81,0,745,0
268846,412.98,0,743,0
268856,411.83,0,745,0
268866,410.55,0,743,0
268876,409.83,0,745,0
268887,408.34,0,743,0
268897,407.76,0,745,0
268907,407.32,0,743,0
268917,408.64,0,745,0
268928,410.72,0,743,0
268937,414.53,0,745,0
268947,419.56,0,743,0
268957,427.02,0,745,0
268967,435.71,0,743,0
268986,446.21,542,742,0
268989,456.61,542,744,0
268998,468.00,542,745,0
269008,478.58,542,743,0
269018,488.61,542,745,0
269028,496.23,542,742,0
269038,502.03,542,745,0
269048,505.06,542,743,0
269058,506.63,542,745,0
269068,505.16,542,743,0
269078,501.98,542,745,0
269088,496.67,542,742,0
269099,490.68,542,745,0
269108,483.32,542,743,0
269118,475.73,542,745,0
269128,467.41,542,743,0
269138,459.49,542,745,0
269148,451.50,542,743,0
269158,444.71,542,745,0
269168,438.54,542,743,0
269178,433.83,542,745,0
269188,429.98,542,743,0
269198,427.63,542,745,0
269208,425.81,542,742,0
269218,425.44,542,745,0
269228,425.35,542,742,0
269238,426.15,542,745,0
269248,427.09,542,742,0
269258,428.73,542,745,0
269268,430.18,542,743,0
269278,432.44,542,745,0
269288,434.20,542,742,0
269298,436.19,542,745,0
269308,437.42,542,743,0
269318,438.62,542,745,0
269328,438.91,542,742,0
269338,438.98,542,745,0
269348,437.91,542,743,0
269358,436.65,542,745,0
269368,434.44,542,742,0
269378,432.21,542,745,0
269388,429.23,542,743,0
269399,426.33,542,745,0
269409,422.98,542,742,0
269419,419.90,542,745,0
269429,416.63,542,743,0
269440,413.91,542,745,0
269449,411.32,542,742,0
269459,409.68,542,745,0
269469,408.66,542,743,0
269479,409.07,542,745,0
269489,410.76,542,742,0
269499,414.52,542,745,0
269509,420.06,542,743,0
269519,428.02,542,745,0
269529,437.78,542,742,0
269539,449.42,542,745,0
269549,461.89,542,743,0
269559,474.87,542,745,0
269578,486.95,592,743,0
269581,497.21,592,745,0
269590,506.15,592,743,0
269600,513.00,592,745,0
269611,517.24,592,743,0
269620,518.93,592,745,0
269630,517.71,592,743,0
269640,514.11,592,745,0
269650,509.23,592,743,0
269660,501.96,592,745,0
269670,493.32,592,743,0
269680,483.79,592,745,0
269690,473.96,592,743,0
269700,464.54,592,745,0
269710,455.94,592,743,0
269720,448.11,592,745,0
269730,441.31,592,743,0
269740,435.64,592,745,0
269750,431.12,592,744,0
269760,427.74,592,745,0
269770,425.59,592,743,0
269780,424.43,592,745,0
269790,424.43,592,744,0
269800,425.20,592,745,0
269810,426.55,592,744,0
269820,428.19,592,745,0
269830,430.10,592,744,0
269840,431.87,592,745,0
269850,433.41,592,744,0
269860,434.23,592,745,0
269870,434.55,592,744,0
269880,434.17,592,745,0
269890,433.35,592,744,0
269900,431.96,592,745,0
269911,430.21,592,744,0
269921,428.13,592,745,0
269931,425.99,592,744,0
269941,423.68,592,745,0
269952,421.59,592,744,0
269961,419.40,592,745,0
269971,417.48,592,744,0
269981,415.36,592,745,0
269991,413.54,592,744,0
270001,411.58,592,745,0
270011,410.46,592,744,0
270021,409.72,592,745,0
270031,410.49,592,744,0
270041,412.32,592,745,0
270051,416.16,592,744,0
270061,421.60,592,745,0
270071,429.52,592,744,0
270081,438.71,592,745,0
270091,449.42,592,744,0
270101,460.44,592,744,0
270120,471.71,542,744,0
270124,481.40,542,746,0
270132,491.01,542,745,0
270142,497.95,542,744,0
270152,502.51,542,744,0
270162,503.77,542,744,0
270172,502.29,542,744,0
270182,497.66,542,744,0
270192,491.89,542,744,0
270202,482.93,542,744,0
270212,473.60,542,744,0
270222,463.52,542,744,0
270232,454.07,542,745,0
270242,444.66,542,745,0
270252,436.83,542,745,0
270262,429.13,542,744,0
270272,422.87,542,744,0
270282,417.00,542,745,0
270292,413.01,542,745,0
270302,409.84,542,744,0
270312,408.43,542,745,0
270322,407.40,542,745,0
270332,408.01,542,745,0
270342,409.12,542,744,0
270352,411.36,542,745,0
270362,412.62,542,744,0
270372,414.11,542,745,0
270382,414.76,542,744,0
270392,415.56,542,744,0
270402,415.65,542,745,0
270412,415.88,542,745,0
270423,415.32,542,744,0
270433,415.74,542,745,0
270443,415.60,542,745,0
270453,416.06,542,745,0
270464,415.49,542,744,0
270473,414.91,542,745,0
270483,413.35,542,745,0
270493,412.09,542,745,0
270503,409.71,542,744,0
270513,408.08,542,745,0
270523,405.61,542,745,0
270533,403.97,542,745,0
270543,401.97,542,744,0
270553,400.95,542,745,0
270563,399.93,542,745,0
270573,400.30,542,745,0
270583,401.07,542,745,0
270593,403.96,542,745,0
270603,407.87,542,745,0
270613,414.12,542,745,0
270623,421.33,542,744,0
270633,430.79,542,745,0
270652,440.92,532,744,0
270655,451.66,532,746,0
270664,462.09,532,744,0
270674,472.52,532,745,0
270684,480.85,532,744,0
270694,488.05,532,745,0
270704,491.98,532,744,0
270714,494.04,532,746,0
270724,493.26,532,744,0
270734,490.40,532,745,0
270744,484.83,532,744,0
270754,478.46,532,746,0
270764,470.30,532,745,0
270774,462.11,532,745,0
270784,452.78,532,744,0
270794,443.85,532,745,0
270804,434.42,532,744,0
270814,425.34,532,744,0
270824,416.24,532,744,0
270834,409.18,532,745,0
270844,403.25,532,744,0
270854,399.75,532,745,0
270864,397.21,532,744,0
270874,396.12,532,745,0
270884,396.98,532,744,0
270894,400.25,532,746,0
270904,403.39,532,744,0
270914,407.34,532,746,0
270924,410.58,532,744,0
270935,414.35,532,746,0
270945,417.55,532,744,0
270955,420.21,532,746,0
270965,420.92,532,744,0
270976,420.99,532,745,0
270985,419.49,532,744,0
270995,417.63,532,745,0
271005,414.91,532,744,0
271015,412.97,532,746,0
271025,410.71,532,744,0
271035,409.29,532,746,0
271045,407.71,532,744,0
271055,406.85,532,746,0
271065,405.57,532,744,0
271075,404.93,532,745,0
271085,403.49,532,744,0
271095,401.41,532,745,0
271105,398.72,532,744,0
271115,397.09,532,745,0
271125,396.16,532,744,0
271135,397.57,532,746,0
271145,399.84,532,744,0
271155,404.39,532,745,0
271165,411.17,532,744,0
271175,420.34,532,746,0
271185,430.39,532,744,0
271195,441.59,532,745,0
271205,452.25,532,744,0
271215,463.36,532,746,0
271225,473.11,532,744,0
271244,482.21,592,742,0
271247,488.40,592,746,0
271256,493.38,592,746,0
271266,495.37,592,744,0
271276,495.47,592,746,0
271286,492.42,592,744,0
271296,487.75,592,746,0
271306,480.84,592,744,0
271316,474.20,592,746,0
271326,465.95,592,744,0
271336,458.00,592,747,0
271346,449.43,592,744,0
271356,441.71,592,746,0
271366,433.96,592,744,0
271376,427.28,592,746,0
271386,420.56,592,744,0
271396,415.07,592,746,0
271406,409.95,592,744,0
271416,406.50,592,746,0
271426,403.65,592,744,0
271436,402.42,592,746,0
271447,402.04,592,744,0
271457,403.01,592,746,0
271467,404.47,592,744,0
271477,406.77,592,746,0
271488,409.24,592,744,0
271497,411.95,592,746,0
271507,414.11,592,744,0
271517,415.92,592,746,0
271527,416.80,592,744,0
271537,417.37,592,746,0
271547,417.22,592,744,0
271557,415.78,592,746,0
271567,412.98,592,743,0
271577,410.75,592,746,0
271587,408.34,592,744,0
271597,405.45,592,745,0
271607,402.58,592,744,0
271617,400.60,592,746,0
271627,399.61,592,744,0
271637,399.98,592,746,0
271647,399.47,592,743,0
271657,399.67,592,746,0
271667,401.31,592,744,0
271677,403.96,592,746,0
271687,406.97,592,744,0
271697,411.40,592,746,0
271707,416.81,592,744,0
271717,424.41,592,746,0
271727,432.81,592,744,0
271737,442.34,592,746,0
271747,452.05,592,744,0
271766,462.28,522,743,0
271769,471.62,522,745,0
271778,480.74,522,746,0
271788,487.97,522,744,0
271798,488.75,522,743,0
271808,483.86,522,741,0
271818,481.28,522,748,0
271828,481.80,522,746,0
271838,484.69,522,748,0
271848,485.94,522,745,0
271858,489.09,522,749,0
271868,497.89,522,747,0
271878,510.35,522,749,0
271888,517.92,522,746,0
271898,519.14,522,749,0
271908,515.03,522,747,0
271918,509.79,522,749,0
271928,500.68,522,746,0
271938,489.21,522,749,0
271948,476.24,522,747,0
271959,463.27,522,749,0
271969,451.02,522,747,0
271979,440.30,522,749,0
271989,431.17,522,747,0
272000,423.83,522,749,0
272009,418.31,522,747,0
272019,414.66,522,749,0
272029,412.62,522,747,0
272039,411.79,522,749,0
272049,411.94,522,746,0
272059,412.64,522,749,0
272069,413.95,522,747,0
272079,415.29,522,749,0
272089,416.53,522,747,0
272099,417.49,522,749,0
272109,418.24,522,747,0
272119,418.60,522,749,0
272129,418.59,522,747,0
272139,418.11,522,749,0
272149,417.35,522,747,0
272159,416.17,522,749,0
272169,414.71,522,747,0
272179,412.95,522,749,0
272189,411.12,522,747,0
272199,409.16,522,749,0
272209,407.52,522,747,0
272219,406.77,522,749,0
272229,406.88,522,747,0
272239,408.20,522,749,0
272249,411.27,522,747,0
272259,416.07,522,749,0
272269,423.21,522,748,0
272279,432.45,522,749,0
272289,443.07,522,747,0
272300,454.96,522,749,0
272310,468.13,522,748,0
272320,481.12,522,749,0
272339,493.56,573,747,0
272343,503.07,573,748,0
272351,511.02,573,748,0
272361,516.37,573,748,0
272371,519.82,573,748,0
272381,519.74,573,748,0
272391,517.42,573,748,0
272401,512.54,573,749,0
272411,507.15,573,748,0
272421,499.17,573,748,0
272431,490.55,573,748,0
272441,480.49,573,749,0
272451,470.83,573,748,0
272461,460.89,573,748,0
272471,451.92,573,748,0
272481,443.42,573,748,0
272491,436.65,573,748,0
272501,430.54,573,748,0
272512,426.14,573,748,0
272521,422.45,573,748,0
272531,420.69,573,748,0
272541,419.50,573,748,0
272551,420.03,573,748,0
272561,420.75,573,749,0
272571,422.58,573,748,0
272581,424.42,573,748,0
272591,426.87,573,748,0
272601,428.71,573,749,0
272611,430.77,573,748,0
272621,431.82,573,748,0
272631,432.95,573,748,0
272641,433.09,573,749,0
272651,433.02,573,748,0
272661,431.86,573,748,0
272671,430.66,573,748,0
272681,428.53,573,748,0
272691,426.40,573,748,0
272701,423.49,573,748,0
272711,420.86,573,748,0
272721,417.60,573,748,0
272731,415.06,573,748,0
272741,411.92,573,748,0
272751,409.50,573,748,0
272761,406.73,573,748,0
272771,404.80,573,748,0
272781,402.97,573,748,0
272791,402.47,573,748,0
272801,402.54,573,748,0
272812,404.82,573,748,0
272822,408.56,573,748,0
272832,415.25,573,748,0
272842,423.83,573,748,0
272852,435.37,573,749,0
272862,448.46,573,748,0
272872,463.53,573,749,0
272891,478.72,552,747,0
272894,493.59,552,750,0
272903,507.51,552,747,0
272913,520.77,552,749,0
272923,531.17,552,748,0
272933,539.48,552,749,0
272943,544.22,552,748,0
272953,546.51,552,749,0
272963,545.84,552,748,0
272973,542.33,552,749,0
272983,535.29,552,748,0
272993,526.76,552,749,0
273003,515.90,552,748,0
273013,504.83,552,749,0
273024,492.71,552,747,0
273033,481.74,552,749,0
273043,470.98,552,748,0
273053,462.15,552,749,0
273063,454.01,552,747,0
273073,448.26,552,749,0
273083,443.43,552,748,0
273093,440.94,552,749,0
273103,439.07,552,747,0
273113,439.09,552,749,0
273123,439.41,552,748,0
273133,441.21,552,749,0
273143,442.56,552,747,0
273153,444.88,552,749,0
273163,446.37,552,748,0
273173,448.49,552,749,0
273183,449.41,552,747,0
273193,450.62,552,749,0
273203,450.60,552,748,0
273213,451.07,552,749,0
273223,450.27,552,747,0
273233,449.94,552,749,0
273243,448.45,552,748,0
273253,447.46,552,749,0
273263,445.39,552,748,0
273273,443.69,552,749,0
273283,441.00,552,748,0
273293,438.86,552,749,0
273303,435.90,552,748,0
273313,433.91,552,749,0
273324,431.97,552,747,0
273334,431.98,552,749,0
273344,433.06,552,747,0
273354,437.24,552,749,0
273364,443.64,552,747,0
273374,453.90,552,749,0
273384,466.45,552,747,0
273394,482.30,552,749,0
273404,499.31,552,747,0
273423,518.29,532,746,0
273426,535.22,532,748,0
273435,551.78,532,750,0
273445,565.26,532,747,0
273455,576.32,532,750,0
273465,582.78,532,747,0
273475,585.63,532,749,0
273485,583.34,532,747,0
273495,578.83,532,750,0
273505,569.58,532,747,0
273515,557.88,532,749,0
273525,543.04,532,747,0
273536,527.43,532,750,0
273545,510.80,532,747,0
273555,495.05,532,749,0
273565,479.56,532,747,0
273575,466.19,532,750,0
273585,454.01,532,748,0
273595,444.58,532,749,0
273605,436.69,532,747,0
273615,431.47,532,750,0
273625,427.56,532,747,0
273635,426.06,532,749,0
273645,425.57,532,747,0
273655,427.03,532,750,0
273665,429.03,532,747,0
273675,432.28,532,749,0
273685,435.24,532,747,0
273695,438.72,532,749,0
273705,441.55,532,747,0
273715,444.30,532,749,0
273725,445.84,532,747,0
273735,447.13,532,750,0
273745,447.26,532,748,0
273755,447.05,532,749,0
273765,445.41,532,747,0
273775,443.32,532,749,0
273785,440.14,532,747,0
273795,437.09,532,749,0
273805,433.08,532,747,0
273815,429.50,532,750,0
273825,425.66,532,747,0
273836,422.94,532,749,0
273846,420.64,532,747,0
273856,420.02,532,750,0
273866,420.66,532,747,0
273876,424.23,532,750,0
273886,429.86,532,747,0
273896,438.99,532,749,0
273906,450.99,532,747,0
273916,466.51,532,749,0
273926,484.31,532,747,0
273936,504.23,532,750,0
273955,524.22,532,748,0
273958,542.75,532,749,0
273967,559.71,532,748,0
273977,574.07,532,750,0
273987,584.25,532,747,0
273997,590.26,532,750,0
274007,591.30,532,747,0
274017,588.08,532,750,0
274027,581.41,532,747,0
274037,570.53,532,749,0
274048,556.14,532,747,0
274057,539.86,532,750,0
274067,522.29,532,747,0
274077,504.59,532,750,0
274087,486.97,532,747,0
274097,470.99,532,750,0
274107,456.47,532,747,0
274117,444.20,532,750,0
274127,433.94,532,747,0
274137,425.99,532,750,0
274147,420.08,532,747,0
274157,416.41,532,749,0
274167,414.36,532,747,0
274177,414.21,532,749,0
274187,415.35,532,747,0
274197,417.60,532,750,0
274207,420.33,532,747,0
274217,423.45,532,750,0
274227,426.44,532,747,0
274237,429.18,532,750,0
274247,431.18,532,747,0
274257,432.67,532,749,0
274267,433.20,532,747,0
274277,433.14,532,750,0
274287,432.20,532,747,0
274297,430.72,532,749,0
274307,428.45,532,747,0
274317,425.91,532,749,0
274327,422.85,532,747,0
274337,419.64,532,749,0
274348,416.19,532,748,0
274358,412.62,532,749,0
274368,409.09,532,747,0
274378,405.81,532,749,0
274388,403.21,532,748,0
274398,401.82,532,749,0
274408,402.30,532,747,0
274418,405.30,532,749,0
274428,411.51,532,748,0
274438,421.21,532,749,0
274448,434.82,532,747,0
274458,451.72,532,749,0
274468,471.34,532,748,0
274487,492.50,532,746,0
274490,512.92,532,748,0
274499,532.36,532,749,0
274509,549.52,532,748,0
274519,562.99,532,749,0
274529,572.00,532,747,0
274539,575.94,532,749,0
274549,574.93,532,748,0
274560,569.85,532,749,0
274569,560.55,532,747,0
274579,547.40,532,749,0
274589,531.90,532,748,0
274599,514.61,532,749,0
274609,496.94,532,747,0
274619,479.35,532,749,0
274629,463.04,532,748,0
274639,447.73,532,749,0
274649,434.52,532,748,0
274659,422.92,532,749,0
274669,413.69,532,748,0
274679,406.20,532,749,0
274689,400.82,532,748,0
274699,397.19,532,749,0
274709,395.63,532,748,0
274719,395.36,532,749,0
274729,396.79,532,748,0
274739,398.91,532,749,0
274749,401.94,532,748,0
274759,404.83,532,749,0
274769,407.75,532,748,0
274779,410.10,532,749,0
274789,412.13,532,748,0
274799,413.03,532,749,0
274809,413.54,532,748,0
274819,412.99,532,749,0
274829,412.22,532,748,0
274839,410.53,532,749,0
274849,408.57,532,748,0
274860,405.78,532,748,0
274870,402.98,532,748,0
274880,399.38,532,749,0
274890,396.05,532,748,0
274900,392.18,532,748,0
274910,388.78,532,748,0
274920,385.25,532,749,0
274930,382.65,532,748,0
274940,380.35,532,748,0
274950,379.77,532,748,0
274960,380.40,532,748,0
274970,383.84,532,749,0
274980,389.37,532,748,0
274990,398.17,532,748,0
275000,409.26,532,748,0
275010,423.59,532,748,0
275020,439.48,532,748,0
275031,457.21,532,748,0
275050,474.50,563,747,0
275053,490.77,563,750,0
275062,505.11,563,748,0
275073,517.16,563,750,0
275083,524.78,563,747,0
275093,528.75,563,749,0
275103,527.62,563,747,0
275113,522.98,563,749,0
275123,514.80,563,747,0
275133,504.02,563,749,0
275143,490.51,563,747,0
275153,476.60,563,749,0
275163,461.72,563,748,0
275173,447.79,563,749,0
275183,433.92,563,747,0
275193,421.86,563,749,0
275203,410.33,563,748,0
275213,401.15,563,750,0
275223,392.92,563,747,0
275233,387.11,563,749,0
275244,382.54,563,748,0
275254,380.32,563,749,0
275264,379.02,563,747,0
275274,379.66,563,749,0
275284,380.79,563,747,0
275294,383.34,563,749,0
275304,385.68,563,747,0
275314,388.78,563,749,0
275324,391.29,563,747,0
275334,394.24,563,749,0
275344,396.18,563,747,0
275354,398.10,563,749,0
275364,398.80,563,747,0
275374,399.54,563,749,0
275384,399.00,563,747,0
275394,398.40,563,749,0
275404,396.74,563,747,0
275415,395.40,563,750,0
275425,393.05,563,747,0
275435,390.94,563,749,0
275445,388.00,563,747,0
275456,385.51,563,750,0
275465,382.53,563,747,0
275475,380.01,563,750,0
275485,377.14,563,747,0
275495,375.13,563,749,0
275505,373.42,563,747,0
275515,373.33,563,750,0
275525,374.39,563,747,0
275535,377.79,563,750,0
275545,382.99,563,747,0
275555,391.14,563,749,0
275565,401.38,563,747,0
275575,414.51,563,749,0
275585,428.93,563,747,0
275595,445.02,563,749,0
275614,460.96,564,748,0
275617,475.58,564,749,0
275627,488.35,564,747,0
275636,499.43,564,750,0
275646,507.10,564,747,0
275656,511.79,564,749,0
275666,512.36,564,747,0
275676,509.90,564,749,0
275686,504.87,564,747,0
275696,497.20,564,749,0
275706,486.89,564,747,0
275716,475.31,564,749,0
275726,462.66,564,747,0
275736,449.99,564,750,0
275746,437.39,564,747,0
275756,425.88,564,749,0
275766,415.28,564,747,0
275776,406.41,564,750,0
275786,398.79,564,747,0
275796,393.11,564,749,0
275806,388.83,564,747,0
275816,386.44,564,750,0
275826,385.24,564,747,0
275836,385.51,564,749,0
275846,386.51,564,747,0
275856,388.67,564,750,0
275866,391.13,564,747,0
275876,394.13,564,749,0
275886,397.09,564,747,0
275896,400.15,564,750,0
275906,402.59,564,747,0
275916,404.64,564,749,0
275927,405.82,564,747,0
275937,406.30,564,749,0
275947,406.00,564,747,0
275957,404.67,564,749,0
275968,402.71,564,748,0
275977,400.44,564,749,0
275987,397.78,564,747,0
275997,394.89,564,749,0
276007,391.88,564,747,0
276017,388.92,564,749,0
276027,386.24,564,747,0
276037,383.68,564,749,0
276047,381.42,564,747,0
276057,379.67,564,749,0
276067,378.65,564,747,0
276077,378.67,564,749,0
276087,380.27,564,747,0
276097,383.79,564,749,0
276107,389.72,564,747,0
276117,398.29,564,749,0
276127,409.65,564,747,0
276137,423.68,564,749,0
276147,439.98,564,747,0
276157,457.60,564,749,0
276176,475.76,562,747,0
276179,491.99,562,749,0
276188,507.34,562,748,0
276198,520.26,562,749,0
276208,530.26,562,748,0
276218,536.39,562,748,0
276228,538.76,562,748,0
276238,537.16,562,748,0
276248,533.34,562,748,0
276258,525.44,562,748,0
276268,515.06,562,748,0
276278,502.40,562,748,0
276288,488.82,562,748,0
276298,474.35,562,749,0
276308,460.19,562,748,0
276318,446.55,562,748,0
276328,434.42,562,748,0
276338,423.33,562,749,0
276348,414.23,562,748,0
276358,406.66,562,748,0
276368,401.36,562,748,0
276378,397.65,562,749,0
276388,396.04,562,748,0
276398,395.73,562,749,0
276408,397.05,562,748,0
276418,399.05,562,749,0
276428,402.08,562,748,0
276439,405.10,562,748,0
276449,408.54,562,748,0
276459,411.34,562,748,0
276469,414.15,562,748,0
276480,415.95,562,748,0
276489,417.46,562,748,0
276499,417.88,562,748,0
276509,418.00,562,748,0
276519,416.93,562,748,0
276529,415.62,562,748,0
276539,413.21,562,748,0
276549,410.87,562,748,0
276559,407.57,562,748,0
276569,404.48,562,748,0
276579,400.78,562,748,0
276589,397.68,562,748,0
276599,394.26,562,748,0
276609,391.61,562,748,0
276619,388.94,562,748,0
276629,387.29,562,748,0
276639,385.44,562,748,0
276649,384.63,562,748,0
276659,383.92,562,748,0
276669,384.72,562,748,0
276679,386.47,562,748,0
276689,390.62,562,748,0
276699,396.69,562,748,0
276709,406.13,562,748,0
276719,418.13,562,748,0
276729,433.78,562,748,0
276739,451.63,562,749,0
276749,471.76,562,748,0
276768,492.10,592,747,0
276771,511.96,592,750,0
276780,530.48,592,749,0
276790,546.80,592,749,0
276800,558.69,592,748,0
276810,566.58,592,748,0
276820,569.19,592,748,0
276830,567.89,592,748,0
276840,562.22,592,748,0
276850,552.69,592,748,0
276860,539.49,592,748,0
276870,525.03,592,748,0
276880,509.08,592,748,0
276890,493.41,592,748,0
276900,477.39,592,748,0
276910,463.04,592,749,0
276920,449.53,592,748,0
276930,438.53,592,748,0
276940,428.64,592,748,0
276951,421.16,592,749,0
276961,414.99,592,748,0
276971,411.35,592,749,0
276981,408.76,592,748,0
276992,408.36,592,749,0
277001,408.77,592,748,0
277011,411.06,592,749,0
277021,413.53,592,748,0
277031,417.27,592,749,0
277041,420.45,592,748,0
277051,424.21,592,748,0
277061,426.89,592,748,0
277071,429.54,592,749,0
277081,430.62,592,748,0
277091,431.51,592,748,0
277101,430.88,592,748,0
277111,430.06,592,749,0
277121,427.86,592,748,0
277131,425.89,592,748,0
277141,422.83,592,748,0
277151,420.14,592,749,0
277161,416.63,592,747,0
277171,413.74,592,748,0
277181,410.35,592,748,0
277191,407.84,592,750,0
277201,404.76,592,748,0
277211,402.52,592,748,0
277221,399.88,592,748,0
277231,398.33,592,749,0
277241,396.56,592,748,0
277251,396.26,592,748,0
277261,396.44,592,748,0
277271,399.01,592,749,0
277281,403.21,592,748,0
277292,410.94,592,749,0
277302,421.20,592,748,0
277312,435.67,592,749,0
277322,452.70,592,748,0
277332,472.97,592,749,0
277351,494.15,583,748,0
277354,515.36,583,750,0
277363,535.31,583,747,0
277373,553.65,583,749,0
277383,567.90,583,747,0
277393,578.47,583,750,0
277403,583.64,583,748,0
277413,584.39,583,750,0
277423,580.72,583,747,0
277433,572.96,583,750,0
277443,560.76,583,747,0
277453,546.22,583,749,0
277463,529.18,583,747,0
277473,511.73,583,750,0
277483,493.64,583,747,0
277493,476.69,583,750,0
277504,460.41,583,747,0
277513,446.66,583,750,0
277523,434.46,583,748,0
277533,425.07,583,750,0
277543,417.46,583,747,0
277553,412.78,583,750,0
277563,409.76,583,747,0
277573,409.23,583,750,0
277583,409.72,583,747,0
277593,411.99,583,749,0
277603,414.48,583,748,0
277613,417.93,583,750,0
277623,420.95,583,747,0
277633,424.48,583,750,0
277643,427.08,583,748,0
277653,429.67,583,750,0
277663,430.93,583,747,0
277673,432.06,583,750,0
277683,431.74,583,748,0
277693,431.09,583,750,0
277703,429.05,583,747,0
277713,426.94,583,750,0
277723,423.65,583,747,0
277733,420.59,583,750,0
277743,416.68,583,747,0
277753,413.26,583,750,0
277763,409.41,583,748,0
277773,406.29,583,750,0
277783,402.82,583,747,0
277793,400.13,583,750,0
277804,397.18,583,748,0
277814,394.94,583,750,0
277824,392.60,583,747,0
277834,391.18,583,750,0
277844,389.88,583,748,0
277854,389.96,583,750,0
277864,390.96,583,747,0
277874,394.27,583,750,0
277884,399.72,583,748,0
277894,408.37,583,750,0
277904,419.79,583,747,0
277914,434.90,583,750,0
277924,452.67,583,748,0
277934,473.08,583,750,0
277953,494.14,602,748,0
277956,514.37,602,751,0
277965,533.07,602,748,0
277975,549.51,602,750,0
277985,561.70,602,747,0
277995,569.46,602,750,0
278005,571.94,602,747,0
278016,569.77,602,749,0
278025,563.75,602,747,0
278035,553.76,602,749,0
278045,540.16,602,748,0
278055,524.38,602,750,0
278065,507.00,602,747,0
278075,489.34,602,750,0
278085,471.80,602,747,0
278095,455.31,602,750,0
278105,440.01,602,747,0
278115,426.72,602,750,0
278125,415.32,602,748,0
278135,406.22,602,750,0
278145,399.04,602,748,0
278155,394.27,602,750,0
278165,391.40,602,748,0
278175,390.64,602,750,0
278185,391.31,602,748,0
278195,393.44,602,750,0
278205,396.35,602,747,0
278215,399.98,602,750,0
278225,403.67,602,748,0
278235,407.33,602,750,0
278245,410.40,602,748,0
278255,413.02,602,750,0
278265,414.77,602,747,0
278275,416.00,602,750,0
278285,416.26,602,748,0
278295,415.79,602,750,0
278305,414.40,602,748,0
278316,412.44,602,750,0
278326,409.78,602,748,0
278336,406.80,602,749,0
278346,403.35,602,748,0
278356,399.73,602,749,0
278366,396.12,602,748,0
278376,392.70,602,749,0
278386,389.58,602,748,0
278396,386.79,602,749,0
278406,384.37,602,748,0
278416,382.33,602,750,0
278426,380.99,602,748,0
278436,379.96,602,749,0
278446,379.63,602,748,0
278456,380.17,602,750,0
278466,381.79,602,748,0
278476,384.85,602,749,0
278487,390.21,602,748,0
278497,397.91,602,749,0
278507,408.73,602,748,0
278517,422.70,602,749,0
278528,439.68,602,749,0
278537,459.10,602,749,0
278556,480.24,603,748,0
278559,500.53,603,749,0
278568,521.07,603,749,0
278578,539.52,603,749,0
278588,554.36,603,749,0
278598,564.24,603,749,0
278608,569.18,603,749,0
278618,568.70,603,749,0
278628,564.25,603,749,0
278638,553.72,603,749,0
278648,539.62,603,749,0
278658,522.76,603,749,0
278668,504.96,603,749,0
278678,486.24,603,749,0
278688,468.21,603,749,0
278699,450.88,603,749,0
278708,435.87,603,749,0
278718,422.24,603,748,0
278728,411.32,603,749,0
278738,402.10,603,749,0
278748,395.77,603,749,0
278758,391.12,603,748,0
278768,389.12,603,749,0
278778,388.74,603,749,0
278788,390.27,603,749,0
278798,392.63,603,749,0
278808,396.30,603,749,0
278818,399.77,603,749,0
278828,403.99,603,749,0
278838,407.51,603,748,0
278848,410.87,603,749,0
278858,413.14,603,749,0
278868,414.94,603,749,0
278878,415.47,603,748,0
278888,415.80,603,749,0
278898,414.66,603,749,0
278908,413.35,603,749,0
278918,410.80,603,748,0
278928,408.38,603,749,0
278938,405.05,603,749,0
278948,401.99,603,749,0
278958,398.35,603,748,0
278968,395.20,603,749,0
278978,391.54,603,749,0
278988,388.55,603,749,0
278999,385.04,603,748,0
279009,382.24,603,749,0
279019,379.13,603,749,0
279029,376.73,603,749,0
279040,374.11,603,748,0
279049,372.54,603,749,0
279059,371.13,603,749,0
279069,371.44,603,749,0
279079,372.72,603,748,0
279089,376.62,603,749,0
279099,382.30,603,749,0
279109,391.43,603,749,0
279119,402.83,603,748,0
279129,417.49,603,749,0
279139,433.85,603,749,0
279149,452.32,603,749,0
279159,470.74,603,748,0
279178,489.16,622,747,0
279181,504.07,622,748,0
279190,517.08,622,750,0
279200,526.05,622,748,0
279211,531.69,622,750,0
279220,532.81,622,748,0
279230,530.38,622,750,0
279240,523.50,622,748,0
279250,515.29,622,750,0
279260,503.85,622,748,0
279270,491.25,622,750,0
279280,476.95,622,748,0
279290,462.69,622,750,0
279300,448.00,622,748,0
279310,435.06,622,750,0
279320,422.48,622,748,0
279330,412.14,622,750,0
279340,402.71,622,749,0
279350,395.68,622,750,0
279360,389.69,622,748,0
279370,386.23,622,750,0
279380,383.89,622,748,0
279390,383.79,622,749,0
279400,384.11,622,748,0
279410,386.18,622,750,0
279420,388.31,622,748,0
279430,391.69,622,750,0
279440,394.53,622,748,0
279450,397.71,622,750,0
279460,399.90,622,748,0
279470,402.37,622,749,0
279480,403.55,622,748,0
279490,404.75,622,750,0
279500,404.44,622,748,0
279511,404.27,622,750,0
279521,402.64,622,748,0
279531,401.12,622,750,0
279541,398.39,622,748,0
279552,396.00,622,750,0
279561,392.78,622,748,0
279571,390.53,622,750,0
279581,387.50,622,748,0
279591,385.34,622,750,0
279601,382.71,622,748,0
279611,381.08,622,749,0
279621,379.04,622,748,0
279631,377.87,622,750,0
279641,376.03,622,748,0
279651,375.16,622,749,0
279661,374.08,622,748,0
279671,374.27,622,750,0
279681,374.66,622,748,0
279691,377.16,622,749,0
279701,380.80,622,748,0
279711,387.33,622,750,0
279721,395.55,622,748,0
279731,406.74,622,749,0
279741,419.55,622,748,0
279751,434.90,622,750,0
279761,450.57,622,748,0
279780,467.11,602,746,0
279783,480.49,602,749,0
279792,493.16,602,750,0
279802,502.75,602,748,0
279812,510.07,602,750,0
279822,513.05,602,748,0
279832,512.91,602,750,0
279842,508.39,602,748,0
279852,502.87,602,750,0
279862,493.83,602,748,0
279872,483.29,602,750,0
279882,470.60,602,748,0
279892,457.74,602,750,0
279902,444.19,602,748,0
279912,431.70,602,750,0
279922,419.53,602,748,0
279932,409.05,602,750,0
279942,399.52,602,748,0
279952,392.25,602,750,0
279962,386.35,602,748,0
279972,382.90,602,750,0
279982,380.74,602,748,0
279992,380.73,602,750,0
280002,381.63,602,748,0
280012,384.14,602,750,0
280023,386.88,602,748,0
280033,390.60,602,750,0
280043,394.07,602,748,0
280053,397.82,602,750,0
280064,400.74,602,748,0
280073,403.56,602,750,0
280083,405.32,602,748,0
280093,406.73,602,750,0
280103,406.94,602,748,0
280113,406.70,602,750,0
280123,405.33,602,748,0
280133,403.73,602,750,0
280143,401.24,602,748,0
280153,398.73,602,750,0
280163,395.59,602,748,0
280173,392.67,602,750,0
280183,389.39,602,748,0
280193,386.70,602,750,0
280203,383.79,602,748,0
280213,381.41,602,750,0
280223,378.89,602,748,0
280233,377.03,602,750,0
280243,375.27,602,748,0
280253,374.46,602,750,0
280263,374.19,602,748,0
280273,375.55,602,750,0
280283,378.26,602,748,0
280293,383.28,602,750,0
280303,390.14,602,748,0
280313,399.48,602,750,0
280323,410.39,602,748,0
280333,423.26,602,750,0
280343,436.73,602,747,0
280353,450.74,602,750,0
280373,463.76,593,749,0
280376,474.76,593,750,0
280385,484.09,593,748,0
280395,491.01,593,750,0
280406,494.69,593,748,0
280415,495.34,593,750,0
280425,492.58,593,748,0
280435,487.18,593,750,0
280445,480.18,593,748,0
280455,470.78,593,750,0
280465,460.26,593,748,0
280475,448.96,593,750,0
280485,437.61,593,748,0
280495,426.89,593,750,0
280505,416.85,593,748,0
280515,407.59,593,750,0
280525,399.62,593,748,0
280535,392.83,593,750,0
280545,387.57,593,748,0
280555,383.58,593,750,0
280565,380.92,593,748,0
280576,379.53,593,750,0
280585,379.67,593,748,0
280595,380.80,593,750,0
280605,382.83,593,748,0
280615,385.28,593,750,0
280625,388.11,593,748,0
280635,391.12,593,750,0
280645,394.04,593,748,0
280655,396.30,593,750,0
280665,397.92,593,748,0
280675,398.76,593,750,0
280685,399.05,593,748,0
280695,398.56,593,750,0
280705,397.36,593,748,0
280715,395.54,593,750,0
280725,393.62,593,748,0
280735,391.29,593,750,0
280745,388.98,593,748,0
280755,386.45,593,750,0
280765,384.13,593,748,0
280775,381.74,593,750,0
280785,379.67,593,748,0
280795,377.63,593,750,0
280805,376.03,593,748,0
280815,374.52,593,750,0
280825,373.46,593,748,0
280835,372.81,593,750,0
280845,373.00,593,748,0
280855,373.94,593,750,0
280865,376.14,593,748,0
280876,379.61,593,750,0
280886,385.04,593,749,0
280896,392.15,593,749,0
280906,401.32,593,749,0
280916,411.76,593,749,0
280926,423.75,593,749,0
280936,436.17,593,749,0
280955,448.85,582,748,0
280958,459.35,582,751,0
280967,469.36,582,749,0
280977,477.18,582,749,0
280987,483.25,582,749,0
280997,486.22,582,749,0
281007,487.05,582,749,0
281017,484.85,582,749,0
281027,481.94,582,749,0
281037,476.09,582,749,0
281047,468.95,582,749,0
281057,460.01,582,749,0
281067,450.83,582,749,0
281077,440.73,582,749,0
281088,431.29,582,749,0
281097,421.78,582,749,0
281107,413.53,582,749,0
281117,405.70,582,749,0
281127,399.53,582,749,0
281137,394.02,582,749,0
281147,390.20,582,749,0
281157,387.18,582,749,0
281167,385.80,582,749,0
281177,384.92,582,749,0
281187,385.50,582,749,0
281197,386.16,582,749,0
281207,387.96,582,749,0
281217,389.64,582,749,0
281227,391.89,582,749,0
281237,393.47,582,749,0
281247,395.26,582,749,0
281257,396.04,582,749,0
281267,396.88,582,749,0
281277,396.62,582,749,0
281287,396.35,582,749,0
281297,395.09,582,749,0
281307,393.95,582,749,0
281317,391.86,582,749,0
281327,390.06,582,749,0
281337,387.51,582,749,0
281347,385.47,582,749,0
281357,382.97,582,749,0
281367,381.14,582,749,0
281377,378.83,582,749,0
281388,377.34,582,749,0
281398,375.35,582,748,0
281408,374.22,582,749,0
281418,372.78,582,749,0
281428,372.20,582,750,0
281438,371.54,582,748,0
281448,372.37,582,749,0
281458,373.58,582,749,0
281468,376.84,582,750,0
281478,380.96,582,748,0
281488,387.27,582,749,0
281498,394.47,582,749,0
281508,403.55,582,750,0
281518,412.77,582,749,0
281528,423.00,582,749,0
281547,432.34,592,748,0
281550,441.19,592,750,0
281559,448.68,592,748,0
281569,455.16,592,750,0
281579,458.93,592,748,0
281589,461.48,592,750,0
281600,461.33,592,748,0
281609,460.29,592,750,0
281619,457.42,592,748,0
281629,453.39,592,750,0
281639,447.57,592,748,0
281649,441.87,592,750,0
281659,434.93,592,749,0
281669,428.52,592,750,0
281679,421.25,592,748,0
281689,414.96,592,750,0
281699,408.42,592,749,0
281709,403.19,592,750,0
281719,398.08,592,748,0
281729,394.37,592,750,0
281739,390.87,592,749,0
281749,389.02,592,750,0
281759,387.26,592,748,0
281769,386.97,592,750,0
281779,386.72,592,749,0
281789,387.62,592,750,0
281799,388.33,592,748,0
281809,390.03,592,750,0
281819,391.05,592,749,0
281829,392.71,592,750,0
281839,393.44,592,748,0
281849,394.59,592,750,0
281859,394.76,592,748,0
281869,395.39,592,750,0
281879,395.01,592,748,0
281889,395.10,592,750,0
281900,394.25,592,748,0
281910,393.96,592,750,0
281920,392.77,592,748,0
281930,392.11,592,750,0
281940,390.66,592,748,0
281950,389.78,592,750,0
281960,388.17,592,748,0
281970,387.18,592,750,0
281980,385.50,592,748,0
281990,384.70,592,750,0
282000,383.46,592,748,0
282010,383.28,592,750,0
282020,382.94,592,748,0
282030,384.03,592,750,0
282040,385.35,592,748,0
282050,388.46,592,750,0
282060,392.18,592,748,0
282071,397.87,592,750,0
282081,404.08,592,748,0
282091,411.94,592,750,0
282110,419.76,563,749,0
282114,427.89,563,751,0
282123,435.89,563,748,0
282133,443.68,563,750,0
282143,449.95,563,748,0
282153,455.32,563,750,0
282163,458.61,563,748,0
282173,460.70,563,750,0
282183,461.39,563,748,0
282193,460.16,563,750,0
282203,457.24,563,748,0
282213,453.14,563,750,0
282223,447.87,563,748,0
282233,441.87,563,750,0
282243,434.96,563,748,0
282253,427.90,563,750,0
282263,420.77,563,748,0
282273,414.03,563,750,0
282284,407.98,563,748,0
282294,402.80,563,750,0
282304,398.74,563,748,0
282314,395.82,563,750,0
282324,394.03,563,749,0
282334,393.29,563,749,0
282344,393.46,563,748,0
282354,394.27,563,750,0
282364,395.52,563,748,0
282374,397.16,563,750,0
282384,399.13,563,748,0
282394,400.93,563,750,0
282404,402.49,563,748,0
282414,403.72,563,749,0
282424,404.75,563,748,0
282434,405.29,563,750,0
282444,405.55,563,748,0
282455,405.30,563,749,0
282465,404.99,563,748,0
282475,404.40,563,750,0
282485,403.93,563,749,0
282496,402.93,563,749,0
282505,401.96,563,748,0
282515,400.56,563,750,0
282525,399.58,563,749,0
282535,398.08,563,749,0
282545,397.02,563,749,0
282555,395.52,563,750,0
282565,394.55,563,749,0
282575,393.74,563,749,0
282585,393.69,563,748,0
282595,393.83,563,750,0
282605,395.42,563,749,0
282615,397.95,563,749,0
282625,402.21,563,748,0
282635,407.85,563,750,0
282645,415.26,563,749,0
282655,423.80,563,749,0
282665,433.76,563,749,0
282684,444.03,574,747,0
282687,454.18,574,750,0
282696,464.20,574,749,0
282706,473.57,574,749,0
282716,480.94,574,749,0
282726,486.87,574,749,0
282736,490.34,574,749,0
282746,492.12,574,749,0
282756,491.87,574,749,0
282766,489.55,574,749,0
282776,485.06,574,749,0
282786,479.98,574,749,0
282796,473.69,574,749,0
282806,467.31,574,749,0
282816,460.10,574,749,0
282826,453.30,574,749,0
282836,446.27,574,749,0
282846,440.27,574,749,0
282856,434.32,574,749,0
282866,429.47,574,749,0
282876,424.87,574,749,0
282886,421.74,574,749,0
282896,419.03,574,749,0
282906,417.86,574,749,0
282916,417.00,574,749,0
282926,417.35,574,749,0
282936,417.71,574,749,0
282946,419.04,574,749,0
282956,419.97,574,749,0
282967,421.52,574,749,0
282977,422.27,574,749,0
282987,423.34,574,749,0
282997,423.41,574,749,0
283008,423.72,574,750,0
283017,423.07,574,749,0
283027,422.62,574,749,0
283037,421.19,574,749,0
283047,420.06,574,749,0
283057,418.07,574,749,0
283067,416.64,574,749,0
283077,414.47,574,749,0
283087,413.00,574,750,0
283097,410.99,574,749,0
283107,409.71,574,749,0
283117,407.91,574,749,0
283127,407.12,574,750,0
283137,405.80,574,749,0
283147,405.43,574,749,0
283157,404.87,574,749,0
283167,405.85,574,750,0
283177,407.14,574,749,0
283187,410.61,574,749,0
283197,414.80,574,749,0
283207,421.59,574,749,0
283217,429.60,574,749,0
283227,440.00,574,749,0
283246,451.32,562,748,0
283249,463.74,562,750,0
283258,476.24,562,748,0
283268,489.50,562,749,0
283278,501.48,562,749,0
283288,512.78,562,750,0
283298,521.46,562,748,0
283308,528.22,562,749,0
283318,532.40,562,749,0
283328,534.21,562,750,0
283338,532.52,562,748,0
283348,528.85,562,750,0
283358,522.51,562,749,0
283368,515.28,562,750,0
283378,506.16,562,748,0
283388,497.15,562,750,0
283398,487.33,562,748,0
283408,478.58,562,750,0
283418,469.96,562,748,0
283428,462.77,562,750,0
283438,455.98,562,748,0
283448,451.15,562,750,0
283458,446.73,562,748,0
283468,444.15,562,750,0
283479,441.88,562,748,0
283489,441.19,562,750,0
283499,440.87,562,748,0
283509,441.90,562,750,0
283520,442.79,562,748,0
283529,444.69,562,750,0
283539,445.81,562,748,0
283549,447.63,562,750,0
283559,448.42,562,748,0
283569,449.50,562,750,0
283579,449.52,562,748,0
283589,449.79,562,750,0
283599,449.00,562,748,0
283609,448.70,562,750,0
283619,447.29,562,748,0
283629,446.17,562,750,0
283639,443.89,562,748,0
283649,441.87,562,750,0
283659,438.86,562,748,0
283669,436.29,562,750,0
283679,432.90,562,748,0
283689,430.10,562,750,0
283699,426.77,562,748,0
283709,424.27,562,750,0
283719,421.45,562,748,0
283729,419.73,562,750,0
283739,417.97,562,748,0
283749,417.59,562,750,0
283759,417.76,562,748,0
283769,420.10,562,750,0
283779,423.46,562,748,0
283789,429.62,562,750,0
283799,437.45,562,748,0
283809,448.37,562,750,0
283820,460.82,562,748,0
283839,475.49,593,746,0
283842,489.53,593,748,0
283851,504.80,593,750,0
283862,518.79,593,748,0
283871,531.66,593,750,0
283881,541.32,593,748,0
283891,548.43,593,750,0
283901,551.64,593,748,0
283911,552.86,593,750,0
283921,550.03,593,748,0
283931,544.54,593,750,0
283941,535.93,593,748,0
283951,525.84,593,750,0
283961,514.10,593,747,0
283971,502.46,593,750,0
283981,490.41,593,748,0
283991,479.10,593,750,0
284001,468.14,593,747,0
284011,458.88,593,750,0
284021,450.69,593,748,0
284032,444.31,593,750,0
284041,438.78,593,747,0
284051,435.03,593,750,0
284061,432.32,593,748,0
284071,431.32,593,750,0
284081,430.97,593,747,0
284091,431.79,593,750,0
284101,432.93,593,748,0
284111,434.75,593,750,0
284121,436.32,593,748,0
284131,438.33,593,750,0
284141,439.81,593,748,0
284151,441.28,593,750,0
284161,441.84,593,747,0
284171,442.28,593,750,0
284181,441.76,593,748,0
284191,440.93,593,750,0
284201,439.07,593,748,0
284211,437.03,593,750,0
284221,434.24,593,748,0
284231,431.72,593,750,0
284241,428.55,593,748,0
284251,425.77,593,750,0
284261,422.71,593,748,0
284271,420.10,593,750,0
284281,417.24,593,748,0
284291,415.20,593,750,0
284301,413.21,593,748,0
284311,411.82,593,750,0
284321,410.20,593,748,0
284332,409.15,593,750,0
284342,408.21,593,748,0
284352,408.10,593,750,0
284362,408.46,593,748,0
284372,409.95,593,750,0
284382,413.01,593,748,0
284392,418.19,593,750,0
284402,425.08,593,748,0
284412,434.22,593,750,0
284422,445.17,593,748,0
284432,457.85,593,750,0
284442,471.31,593,748,0
284452,484.89,593,750,0
284462,497.61,593,748,0
284472,509.21,593,750,0
284482,518.49,593,748,0
284492,525.16,593,750,0
284503,528.50,593,748,0
284513,528.86,593,750,0
284523,526.07,593,748,0
284533,520.52,593,750,0
284544,512.57,593,748,0
284553,503.18,593,750,0
284563,492.80,593,748,0
284573,481.97,593,750,0
284583,471.14,593,748,0
284593,460.68,593,750,0
284603,451.31,593,748,0
284613,443.03,593,750,0
284623,435.95,593,748,0
284633,430.14,593,750,0
