Time,PPG,IBI,GSR,GSR_Event
388373,529.21,703,745,0
388383,496.88,703,750,0
388393,469.40,703,750,0
388403,445.07,703,749,0
388413,425.55,703,750,0
388423,409.48,703,749,0
388433,397.42,703,750,0
388443,394.38,703,749,0
388453,392.81,703,750,0
388463,390.25,703,749,0
388473,389.28,703,750,0
388483,388.38,703,749,0
388493,388.61,703,750,0
388503,388.77,703,748,0
388513,389.74,703,750,0
388524,390.42,703,748,0
388534,392.13,703,750,0
388544,392.95,703,748,0
388554,393.99,703,750,0
388564,394.00,703,748,0
388574,394.30,703,750,0
388584,393.57,703,748,0
388594,392.62,703,750,0
388604,390.08,703,748,0
388614,387.70,703,750,0
388624,387.36,703,750,0
388634,387.90,703,750,0
388644,387.88,703,749,0
388654,388.09,703,750,0
388664,387.72,703,749,0
388674,387.59,703,750,0
388684,386.38,703,749,0
388695,382.20,703,750,0
388705,376.40,703,749,0
388715,370.45,703,750,0
388725,364.10,703,749,0
388736,358.37,703,750,0
388745,352.69,703,749,0
388755,348.24,703,750,0
388765,344.14,703,749,0
388775,341.65,703,750,0
388785,339.53,703,748,0
388795,338.81,703,750,0
388805,338.53,703,749,0
388815,339.35,703,750,0
388825,340.23,703,748,0
388835,342.01,703,750,0
388845,343.50,703,749,0
388855,345.67,703,750,0
388865,347.35,703,748,0
388875,349.69,703,750,0
388885,351.58,703,749,0
388895,353.98,703,750,0
388905,355.91,703,748,0
388915,358.55,703,750,0
388925,361.09,703,748,0
388935,364.96,703,750,0
388945,369.94,703,748,0
388955,378.10,703,750,0
388965,389.22,703,748,0
388975,405.22,703,750,0
388985,425.43,703,748,0
388995,451.18,703,750,0
389005,480.70,703,748,0
389015,513.62,703,750,0
389035,547.25,782,750,0
389038,581.72,782,753,0
389047,614.24,782,750,0
389057,643.87,782,752,0
389067,669.02,782,749,0
389078,688.99,782,752,0
389087,702.06,782,750,0
389097,708.17,782,751,0
389107,705.59,782,749,0
389117,694.91,782,751,0
389127,676.68,782,750,0
389137,651.41,782,751,0
389147,620.56,782,749,0
389157,586.36,782,751,0
389167,550.72,782,750,0
389177,515.71,782,752,0
389187,482.41,782,750,0
389197,452.11,782,751,0
389207,425.38,782,750,0
389217,402.98,782,751,0
389227,384.86,782,750,0
389237,371.19,782,751,0
389248,361.49,782,750,0
389257,355.86,782,751,0
389267,353.50,782,750,0
389277,354.33,782,751,0
389287,357.53,782,750,0
389297,362.73,782,751,0
389307,369.03,782,750,0
389317,376.05,782,751,0
389327,383.06,782,750,0
389337,389.81,782,751,0
389347,395.53,782,750,0
389357,400.17,782,751,0
389367,403.20,782,750,0
389377,404.99,782,751,0
389387,405.16,782,750,0
389397,403.96,782,751,0
389407,401.27,782,750,0
389417,397.59,782,751,0
389427,392.83,782,750,0
389437,387.65,782,751,0
389447,381.88,782,750,0
389457,376.13,782,751,0
389467,370.31,782,750,0
389477,364.86,782,751,0
389487,359.67,782,750,0
389497,355.06,782,751,0
389507,350.84,782,750,0
389517,347.33,782,751,0
389527,344.32,782,750,0
389537,342.04,782,751,0
389548,340.35,782,750,0
389558,339.35,782,751,0
389568,338.94,782,750,0
389578,339.13,782,751,0
389588,339.74,782,750,0
389598,340.89,782,751,0
389608,342.38,782,750,0
389618,344.06,782,751,0
389628,346.02,782,750,0
389638,348.11,782,751,0
389648,350.31,782,750,0
389658,352.49,782,751,0
389668,354.57,782,750,0
389678,356.58,782,750,0
389688,358.42,782,750,0
389698,359.92,782,751,0
389708,361.28,782,750,0
389719,362.39,782,750,0
389729,363.78,782,750,0
389739,365.77,782,751,0
389749,369.31,782,750,0
389760,375.09,782,750,0
389769,384.11,782,750,0
389779,396.93,782,751,0
389789,414.78,782,750,0
389799,437.30,782,750,0
389818,464.43,784,749,0
389821,494.17,784,751,0
389830,526.99,784,751,0
389840,560.42,784,750,0
389850,593.00,784,750,0
389860,622.05,784,750,0
389870,646.51,784,750,0
389880,664.66,784,750,0
389890,676.85,784,750,0
389900,680.88,784,750,0
389910,677.70,784,750,0
389920,667.16,784,750,0
389931,650.66,784,750,0
389940,628.94,784,750,0
389950,603.68,784,750,0
389960,575.40,784,749,0
389970,546.18,784,750,0
389980,516.73,784,750,0
389990,488.65,784,750,0
390000,462.27,784,750,0
390010,438.79,784,750,0
390020,418.24,784,750,0
390030,401.71,784,750,0
390040,388.43,784,750,0
390050,379.13,784,750,0
390060,373.09,784,750,0
390070,370.70,784,750,0
390080,371.01,784,750,0
390090,374.22,784,750,0
390100,379.25,784,750,0
390110,386.03,784,750,0
390120,393.18,784,750,0
390130,400.88,784,750,0
390140,407.95,784,750,0
390150,414.52,784,750,0
390160,419.51,784,750,0
390170,423.26,784,750,0
390180,425.11,784,750,0
390190,425.80,784,750,0
390200,424.62,784,750,0
390210,422.42,784,750,0
390220,418.57,784,750,0
390231,414.07,784,750,0
390241,408.30,784,750,0
390251,402.43,784,750,0
390261,395.83,784,750,0
390272,389.67,784,751,0
390281,383.42,784,750,0
390291,377.81,784,750,0
390301,372.08,784,750,0
390311,367.30,784,750,0
390321,362.80,784,750,0
390331,359.34,784,750,0
390341,355.98,784,750,0
390351,353.59,784,750,0
390361,351.35,784,750,0
390371,350.22,784,750,0
390381,349.00,784,750,0
390391,348.61,784,750,0
390401,348.04,784,750,0
390411,348.33,784,750,0
390421,348.27,784,750,0
390431,349.18,784,750,0
390441,349.98,784,750,0
390451,351.83,784,750,0
390461,353.94,784,750,0
390471,357.81,784,750,0
390481,363.18,784,750,0
390491,371.57,784,749,0
390501,382.71,784,750,0
390511,398.40,784,750,0
390521,418.55,784,750,0
390531,443.67,784,750,0
390541,472.36,784,750,0
390551,504.31,784,750,0
390561,537.43,784,750,0
390572,570.99,784,750,0
390591,601.80,773,749,0
390594,628.13,773,751,0
390603,648.49,773,749,0
390614,662.66,773,750,0
390623,669.02,773,749,0
390633,668.24,773,751,0
390643,659.38,773,749,0
390653,644.44,773,750,0
390663,624.04,773,749,0
390673,599.77,773,751,0
390683,571.90,773,749,0
390693,542.78,773,750,0
390703,512.89,773,749,0
390713,484.30,773,751,0
390723,457.04,773,749,0
390733,432.72,773,750,0
390743,411.08,773,749,0
390753,393.31,773,751,0
390763,378.82,773,749,0
390773,368.37,773,750,0
390784,361.19,773,749,0
390793,357.70,773,750,0
390803,356.68,773,749,0
390813,358.45,773,750,0
390823,361.87,773,749,0
390833,367.27,773,751,0
390843,373.19,773,749,0
390853,379.94,773,750,0
390863,386.26,773,749,0
390873,392.95,773,751,0
390883,398.45,773,749,0
390893,403.25,773,750,0
390903,406.04,773,749,0
390913,407.87,773,751,0
390923,407.83,773,749,0
390933,406.72,773,750,0
390943,403.63,773,749,0
390953,399.71,773,750,0
390963,394.61,773,749,0
390973,389.42,773,750,0
390983,383.25,773,749,0
390993,377.35,773,750,0
391003,371.03,773,749,0
391013,365.45,773,750,0
391023,359.78,773,749,0
391033,355.26,773,750,0
391043,350.77,773,749,0
391053,347.50,773,750,0
391063,344.48,773,749,0
391073,342.66,773,750,0
391084,341.01,773,749,0
391094,340.49,773,750,0
391104,339.91,773,748,0
391114,340.63,773,750,0
391124,341.55,773,748,0
391134,343.36,773,750,0
391144,345.05,773,748,0
391154,347.31,773,750,0
391164,349.57,773,749,0
391174,352.27,773,750,0
391184,354.33,773,748,0
391194,356.68,773,750,0
391204,358.53,773,749,0
391214,360.86,773,750,0
391224,362.83,773,748,0
391234,365.62,773,750,0
391244,369.12,773,748,0
391255,375.04,773,750,0
391265,383.26,773,748,0
391275,395.70,773,750,0
391285,412.20,773,749,0
391296,434.47,773,750,0
391305,460.94,773,748,0
391315,491.82,773,750,0
391334,525.21,743,749,0
391337,559.52,743,750,0
391346,592.67,743,749,0
391356,623.67,743,750,0
391366,649.82,743,749,0
391376,670.70,743,750,0
391386,684.55,743,748,0
391396,690.90,743,750,0
391406,690.24,743,748,0
391416,682.16,743,750,0
391426,666.98,743,748,0
391436,646.07,743,750,0
391446,620.16,743,748,0
391456,591.19,743,750,0
391467,560.53,743,748,0
391476,529.60,743,750,0
391486,499.55,743,748,0
391496,471.48,743,750,0
391506,445.88,743,748,0
391516,423.72,743,750,0
391526,404.94,743,748,0
391536,389.88,743,750,0
391546,378.21,743,748,0
391556,370.39,743,750,0
391566,365.90,743,748,0
391576,364.65,743,750,0
391586,366.00,743,748,0
391596,369.81,743,750,0
391606,375.22,743,748,0
391616,382.06,743,750,0
391626,389.54,743,748,0
391636,397.18,743,750,0
391646,404.58,743,749,0
391656,411.39,743,750,0
391666,416.80,743,748,0
391676,421.19,743,750,0
391686,423.83,743,748,0
391696,425.04,743,750,0
391706,424.51,743,748,0
391716,422.43,743,750,0
391726,418.74,743,748,0
391736,414.11,743,750,0
391746,408.42,743,748,0
391756,402.34,743,750,0
391767,395.85,743,748,0
391777,389.42,743,749,0
391787,383.12,743,748,0
391797,377.34,743,749,0
391808,372.23,743,748,0
391817,367.83,743,749,0
391827,364.20,743,748,0
391837,361.09,743,749,0
391847,358.88,743,748,0
391857,357.29,743,750,0
391867,356.22,743,748,0
391877,355.59,743,749,0
391887,355.29,743,748,0
391897,355.20,743,749,0
391907,355.31,743,748,0
391917,355.48,743,750,0
391927,355.93,743,748,0
391937,356.90,743,749,0
391947,358.60,743,748,0
391957,361.55,743,749,0
391967,366.53,743,748,0
391977,374.25,743,749,0
391987,385.36,743,748,0
391997,400.60,743,749,0
392007,420.65,743,748,0
392017,445.35,743,749,0
392027,474.09,743,748,0
392037,505.73,743,749,0
392047,539.07,743,748,0
392057,572.22,743,749,0
392076,603.35,742,748,0
392079,628.92,742,750,0
392088,649.13,742,749,0
392098,662.51,742,749,0
392108,669.00,742,749,0
392118,667.71,742,749,0
392128,659.23,742,749,0
392138,643.94,742,749,0
392148,624.29,742,749,0
392158,599.90,742,749,0
392168,572.72,742,748,0
392178,543.10,742,749,0
392188,513.24,742,749,0
392198,484.07,742,749,0
392208,456.88,742,749,0
392218,431.80,742,749,0
392228,409.62,742,749,0
392238,390.40,742,749,0
392248,374.85,742,748,0
392258,362.55,742,749,0
392268,354.07,742,749,0
392279,348.57,742,748,0
392289,346.90,742,749,0
392299,347.96,742,749,0
392309,352.00,742,749,0
392320,357.78,742,748,0
392329,365.31,742,749,0
392339,373.19,742,749,0
392349,381.62,742,749,0
392359,389.27,742,748,0
392369,396.52,742,749,0
392379,402.41,742,749,0
392389,407.26,742,748,0
392399,410.18,742,748,0
392409,411.84,742,748,0
392419,411.63,742,749,0
392429,410.37,742,748,0
392439,407.39,742,748,0
392449,403.63,742,749,0
392459,398.55,742,748,0
392469,393.03,742,749,0
392479,386.55,742,748,0
392489,380.17,742,749,0
392499,373.39,742,748,0
392509,367.27,742,748,0
392519,360.89,742,748,0
392529,355.57,742,749,0
392539,350.90,742,748,0
392549,347.54,742,748,0
392559,344.72,742,748,0
392569,343.13,742,748,0
392579,342.02,742,748,0
392589,342.02,742,748,0
392599,342.23,742,748,0
392609,343.27,742,748,0
392620,344.39,742,748,0
392630,346.33,742,749,0
392640,348.03,742,748,0
392650,350.29,742,749,0
392660,352.18,742,748,0
392670,354.48,742,749,0
392680,356.27,742,748,0
392690,358.80,742,748,0
392700,361.56,742,748,0
392710,366.32,742,749,0
392720,373.00,742,748,0
392730,383.54,742,748,0
392740,397.95,742,748,0
392750,417.68,742,749,0
392760,442.08,742,748,0
392770,471.67,742,749,0
392780,504.60,742,748,0
392791,540.20,742,749,0
392810,575.71,734,748,0
392813,609.01,734,751,0
392822,638.02,734,748,0
392833,661.76,734,749,0
392843,677.99,734,747,0
392853,686.78,734,749,0
392863,686.89,734,747,0
392873,681.56,734,752,0
392883,676.42,734,752,0
392893,672.44,734,753,0
392903,667.98,734,752,0
392913,660.40,734,750,0
392923,647.38,734,748,0
392933,628.19,734,749,0
392943,601.09,734,748,0
392953,563.65,734,749,0
392963,517.13,734,748,0
392973,465.96,734,749,0
392983,415.66,734,748,0
392993,371.06,734,749,0
393004,334.79,734,747,0
393014,308.19,734,749,0
393024,290.22,734,748,0
393034,280.94,734,749,0
393044,278.64,734,748,0
393054,282.86,734,749,0
393064,291.43,734,747,0
393074,304.33,734,749,0
393084,319.49,734,747,0
393094,336.49,734,749,0
393104,353.40,734,748,0
393114,369.82,734,749,0
393124,384.27,734,748,0
393134,396.92,734,750,0
393144,406.54,734,748,0
393154,413.71,734,750,0
393164,417.74,734,749,0
393175,419.19,734,750,0
393185,417.76,734,748,0
393195,414.28,734,749,0
393205,408.71,734,748,0
393216,401.98,734,749,0
393225,394.32,734,748,0
393235,386.63,734,749,0
393245,378.82,734,748,0
393255,371.63,734,749,0
393265,364.93,734,748,0
393275,359.29,734,749,0
393285,354.40,734,748,0
393295,350.43,734,749,0
393305,346.95,734,748,0
393315,344.48,734,749,0
393325,342.54,734,748,0
393335,341.39,734,749,0
393345,340.59,734,748,0
393355,340.50,734,749,0
393365,340.69,734,748,0
393375,341.38,734,749,0
393385,342.30,734,748,0
393395,343.79,734,749,0
393405,345.70,734,748,0
393415,348.62,734,749,0
393425,352.76,734,748,0
393435,359.05,734,749,0
393445,368.98,734,748,0
393455,383.51,734,749,0
393465,402.77,734,748,0
393475,427.18,734,750,0
393485,456.19,734,748,0
393495,489.47,734,749,0
393505,525.63,734,748,0
393516,562.26,734,750,0
393526,597.19,734,748,0
393545,628.85,735,747,0
393548,654.99,735,749,0
393558,675.22,735,749,0
393567,688.06,735,749,0
393577,692.97,735,749,0
393587,690.11,735,749,0
393597,679.62,735,749,0
393607,662.72,735,749,0
393617,640.73,735,749,0
393627,614.58,735,749,0
393637,585.39,735,749,0
393647,555.19,735,749,0
393657,524.58,735,749,0
393667,495.05,735,749,0
393677,467.05,735,749,0
393687,441.66,735,749,0
393697,418.58,735,749,0
393707,398.73,735,749,0
393717,381.58,735,749,0
393728,367.95,735,749,0
393737,357.68,735,749,0
393747,351.00,735,749,0
393757,347.53,735,749,0
393767,347.42,735,749,0
393777,349.90,735,750,0
393787,354.90,735,749,0
393797,361.53,735,750,0
393807,369.52,735,749,0
393817,377.85,735,750,0
393827,386.21,735,749,0
393837,393.73,735,750,0
393847,400.63,735,749,0
393857,405.92,735,750,0
393867,409.55,735,749,0
393877,411.23,735,749,0
393887,411.37,735,749,0
393897,409.89,735,749,0
393907,407.27,735,749,0
393917,403.11,735,750,0
393927,398.28,735,749,0
393937,392.71,735,749,0
393947,386.88,735,749,0
393957,380.79,735,749,0
393967,375.07,735,749,0
393977,369.26,735,749,0
393987,364.13,735,749,0
393997,359.20,735,749,0
394007,354.94,735,749,0
394017,350.84,735,749,0
394028,347.33,735,749,0
394038,343.72,735,749,0
394048,340.89,735,749,0
394058,338.14,735,749,0
394068,336.34,735,749,0
394078,335.21,735,749,0
394088,335.70,735,749,0
394098,337.51,735,749,0
394108,342.03,735,748,0
394118,349.22,735,749,0
394128,360.42,735,749,0
394138,375.81,735,748,0
394148,396.31,735,749,0
394158,421.25,735,749,0
394168,450.87,735,749,0
394178,483.31,735,749,0
394188,517.80,735,748,0
394199,552.02,735,749,0
394209,584.41,735,749,0
394228,612.32,683,748,0
394231,634.12,683,750,0
394241,648.57,683,748,0
394251,655.86,683,750,0
394261,654.96,683,748,0
394271,646.74,683,749,0
394281,631.00,683,748,0
394291,610.00,683,749,0
394301,584.89,683,748,0
394311,557.28,683,749,0
394321,527.50,683,748,0
394331,497.95,683,749,0
394341,468.86,683,748,0
394351,442.33,683,749,0
394361,417.80,683,748,0
394371,396.91,683,749,0
394381,378.85,683,748,0
394391,364.88,683,749,0
394401,353.94,683,748,0
394412,347.10,683,749,0
394422,343.17,683,748,0
394432,342.86,683,749,0
394442,344.70,683,748,0
394452,349.34,683,749,0
394462,355.28,683,748,0
394472,362.87,683,749,0
394482,370.49,683,748,0
394492,378.57,683,749,0
394502,385.99,683,748,0
394512,393.06,683,749,0
394522,398.61,683,748,0
394532,403.23,683,749,0
394542,406.20,683,748,0
394552,408.33,683,749,0
394562,408.62,683,748,0
394572,408.22,683,750,0
394583,406.22,683,748,0
394593,403.67,683,749,0
394603,400.13,683,748,0
394613,397.00,683,750,0
394624,393.32,683,748,0
394633,389.92,683,749,0
394643,385.79,683,748,0
394653,382.25,683,750,0
394663,378.88,683,748,0
394673,375.78,683,750,0
394683,371.56,683,748,0
394693,367.45,683,750,0
394703,363.07,683,749,0
394713,359.49,683,749,0
394723,356.26,683,748,0
394733,353.31,683,750,0
394743,350.86,683,748,0
394753,349.40,683,749,0
394763,348.34,683,748,0
394773,348.71,683,750,0
394783,349.05,683,748,0
394793,349.85,683,749,0
394803,351.10,683,748,0
394813,353.68,683,750,0
394823,358.06,683,748,0
394833,365.54,683,749,0
394843,375.67,683,748,0
394853,390.42,683,750,0
394863,409.80,683,748,0
394873,434.63,683,750,0
394883,463.71,683,748,0
394893,496.54,683,750,0
394903,531.09,683,748,0
394923,566.38,694,747,0
394926,599.14,694,749,0
394935,628.75,694,750,0
394945,652.53,694,748,0
394955,669.51,694,749,0
394966,678.49,694,748,0
394975,679.76,694,749,0
394985,673.10,694,748,0
394995,660.26,694,749,0
395005,641.15,694,748,0
395015,617.58,694,749,0
395025,590.70,694,748,0
395035,562.21,694,749,0
395045,532.87,694,748,0
395055,504.24,694,750,0
395065,476.78,694,748,0
395075,451.35,694,749,0
395085,428.44,694,748,0
395095,409.07,694,749,0
395105,392.89,694,748,0
395115,380.11,694,749,0
395125,370.73,694,748,0
395136,364.77,694,749,0
395145,361.93,694,748,0
395155,361.82,694,749,0
395165,363.89,694,748,0
395175,367.86,694,749,0
395185,373.52,694,748,0
395195,380.01,694,749,0
395205,386.78,694,747,0
395215,393.44,694,749,0
395225,399.78,694,748,0
395235,405.25,694,749,0
395245,409.59,694,748,0
395255,412.50,694,749,0
395265,413.76,694,748,0
395275,413.92,694,749,0
395285,412.66,694,748,0
395295,410.19,694,749,0
395305,406.66,694,748,0
395315,402.48,694,750,0
395325,397.83,694,748,0
395335,392.96,694,749,0
395345,387.87,694,748,0
395355,382.85,694,749,0
395365,377.88,694,748,0
395375,373.12,694,750,0
395385,368.75,694,749,0
395395,364.71,694,750,0
395405,360.98,694,748,0
395415,357.56,694,749,0
395425,354.69,694,750,0
395436,352.77,694,749,0
395446,351.51,694,748,0
395456,350.59,694,749,0
395466,350.15,694,748,0
395476,350.36,694,749,0
395486,351.03,694,748,0
395496,351.83,694,749,0
395506,352.61,694,748,0
395516,353.50,694,749,0
395526,355.28,694,748,0
395536,357.81,694,749,0
395546,361.85,694,748,0
395556,367.94,694,749,0
395566,377.09,694,748,0
395576,389.96,694,749,0
395586,407.72,694,748,0
395596,430.04,694,749,0
395607,457.63,694,748,0
395617,489.24,694,749,0
395627,524.05,694,749,0
395637,560.00,694,749,0
395657,595.27,734,747,0
395660,626.34,734,749,0
395669,653.11,734,749,0
395679,673.01,734,748,0
395689,685.82,734,749,0
395699,690.46,734,748,0
395709,687.84,734,749,0
395719,677.51,734,748,0
395729,661.93,734,749,0
395739,640.22,734,748,0
395749,614.66,734,749,0
395759,585.79,734,748,0
395769,555.72,734,749,0
395779,524.78,734,748,0
395789,495.23,734,749,0
395799,467.18,734,748,0
395809,442.14,734,749,0
395820,419.90,734,748,0
395830,401.46,734,749,0
395840,386.19,734,748,0
395850,374.86,734,749,0
395860,366.59,734,748,0
395870,362.04,734,749,0
395880,359.93,734,748,0
395890,360.94,734,749,0
395900,363.70,734,748,0
395910,368.72,734,749,0
395920,374.59,734,748,0
395930,381.65,734,749,0
395940,388.40,734,748,0
395950,395.57,734,749,0
395960,401.44,734,748,0
395970,406.84,734,749,0
395980,410.40,734,748,0
395991,413.07,734,749,0
396001,413.65,734,748,0
396011,413.28,734,749,0
396021,410.97,734,748,0
396032,407.93,734,749,0
396041,403.41,734,748,0
396051,398.66,734,749,0
396061,392.85,734,748,0
396071,387.24,734,749,0
396081,380.99,734,748,0
396091,375.30,734,749,0
396101,369.42,734,748,0
396111,364.37,734,749,0
396121,359.33,734,748,0
396131,355.37,734,749,0
396141,351.70,734,747,0
396151,349.31,734,749,0
396161,347.07,734,747,0
396171,346.02,734,749,0
396181,345.20,734,747,0
396191,345.65,734,749,0
396201,346.74,734,748,0
396211,349.82,734,749,0
396221,354.46,734,747,0
396231,362.68,734,749,0
396241,374.30,734,747,0
396251,390.97,734,749,0
396261,412.36,734,747,0
396271,439.60,734,749,0
396281,471.22,734,748,0
396291,507.15,734,749,0
396301,544.82,734,747,0
396320,582.33,664,746,0
396323,617.25,664,749,0
396332,648.54,664,749,0
396342,674.05,664,747,0
396352,693.32,664,749,0
396362,704.63,664,748,0
396372,708.42,664,749,0
396382,705.08,664,747,0
396392,695.63,664,749,0
396402,679.80,664,748,0
396412,658.99,664,749,0
396422,633.79,664,747,0
396432,606.55,664,749,0
396442,578.23,664,748,0
396452,550.95,664,749,0
396462,525.21,664,747,0
396472,502.99,664,749,0
396482,484.48,664,748,0
396492,471.13,664,749,0
396503,462.48,664,747,0
396513,459.21,664,749,0
396523,460.64,664,748,0
396533,467.27,664,749,0
396544,478.16,664,747,0
396553,493.37,664,749,0
396563,511.69,664,748,0
396573,533.29,664,749,0
396583,556.61,664,747,0
396593,581.20,664,749,0
396603,605.22,664,748,0
396613,628.08,664,749,0
396623,647.73,664,748,0
396633,663.67,664,749,0
396643,673.88,664,748,0
396653,677.65,664,749,0
396663,673.42,664,747,0
396673,661.77,664,749,0
396683,641.91,664,748,0
396693,615.24,664,749,0
396703,581.95,664,747,0
396713,543.78,664,749,0
396723,502.45,664,748,0
396733,459.93,664,749,0
396743,416.88,664,748,0
396753,375.43,664,749,0
396763,335.96,664,748,0
396773,299.71,664,749,0
396783,266.93,664,748,0
396793,238.15,664,749,0
396803,213.38,664,748,0
396813,193.51,664,749,0
396823,177.97,664,748,0
396833,167.14,664,749,0
396844,160.45,664,748,0
396854,158.04,664,749,0
396864,159.10,664,748,0
396874,163.53,664,749,0
396884,170.48,664,748,0
396894,179.64,664,749,0
396904,190.68,664,748,0
396914,203.67,664,749,0
396924,218.69,664,748,0
396934,236.14,664,749,0
396944,256.50,664,748,0
396954,280.69,664,749,0
396964,309.07,664,748,0
396974,341.88,664,749,0
396984,378.47,664,748,0
396994,418.23,664,749,0
397004,459.77,664,748,0
397015,501.54,664,749,0
397025,540.89,664,748,0
397035,576.11,664,749,0
397045,605.18,664,748,0
397056,627.11,664,749,0
397065,640.62,664,748,0
397075,645.88,664,749,0
397085,642.36,664,748,0
397095,630.64,664,748,0
397105,611.89,664,748,0
397115,587.54,664,748,0
397125,559.26,664,748,0
397135,528.37,664,749,0
397145,496.11,664,748,0
397155,464.15,664,748,0
397165,433.98,664,748,0
397175,406.21,664,749,0
397185,381.76,664,748,0
397195,360.71,664,748,0
397205,343.74,664,748,0
397215,330.83,664,749,0
397225,322.31,664,748,0
397235,317.85,664,749,0
397245,317.25,664,748,0
397255,319.79,664,749,0
397265,325.08,664,748,0
397275,332.43,664,748,0
397285,341.64,664,748,0
397295,351.26,664,749,0
397305,361.30,664,748,0
397315,370.64,664,748,0
397325,379.58,664,748,0
397335,387.03,664,749,0
397345,393.28,664,748,0
397356,397.14,664,748,0
397366,399.41,664,748,0
397376,399.42,664,748,0
397386,398.31,664,749,0
397396,395.13,664,748,0
397406,391.40,664,749,0
397416,386.27,664,748,0
397426,380.79,664,748,0
397436,374.85,664,748,0
397446,369.15,664,748,0
397456,363.36,664,749,0
397466,358.11,664,748,0
397476,352.55,664,748,0
397486,347.76,664,748,0
397496,343.33,664,748,0
397506,340.02,664,748,0
397516,337.01,664,748,0
397527,335.12,664,748,0
397537,333.71,664,748,0
397547,333.50,664,748,0
397557,333.78,664,748,0
397568,335.52,664,748,0
397577,338.10,664,748,0
397587,343.26,664,748,0
397597,350.60,664,748,0
397607,362.20,664,749,0
397617,377.53,664,748,0
397627,398.03,664,748,0
397637,423.05,664,748,0
397647,453.08,664,752,0
397657,486.31,664,751,0
397667,521.75,664,758,0
397686,556.36,0,762,0
397688,587.84,0,764,0
397698,614.89,0,756,0
397708,636.01,0,764,0
397718,649.29,0,758,0
397728,654.48,0,764,0
397739,651.12,0,759,0
397748,640.50,0,763,0
397758,624.41,0,759,0
397768,603.28,0,764,0
397778,578.26,0,759,0
397788,551.39,0,763,0
397798,523.29,0,759,0
397808,495.69,0,764,0
397818,468.87,0,759,0
397828,444.31,0,764,0
397838,421.89,0,759,0
397848,402.68,0,751,0
397858,387.26,0,749,0
397868,376.60,0,749,0
397878,369.56,0,750,0
397888,366.52,0,749,0
397898,366.15,0,751,0
397908,368.63,0,752,0
397918,373.03,0,752,0
397928,377.65,0,762,0
397938,381.70,0,754,0
397948,385.05,0,763,0
397958,387.13,0,757,0
397968,388.46,0,764,0
397978,388.37,0,758,0
397988,387.49,0,763,0
397998,385.67,0,759,0
398008,383.88,0,764,0
398018,381.95,0,759,0
398028,380.29,0,763,0
398039,378.45,0,759,0
398049,376.86,0,764,0
398059,374.76,0,760,0
398069,372.77,0,763,0
398080,370.05,0,761,0
398089,367.60,0,764,0
398099,364.93,0,760,0
398109,362.47,0,763,0
398119,360.01,0,760,0
398129,357.61,0,763,0
398139,355.15,0,760,0
398149,352.62,0,763,0
398159,349.91,0,760,0
398169,347.41,0,763,0
398179,345.18,0,760,0
398189,344.06,0,763,0
398199,344.34,0,760,0
398209,347.02,0,763,0
398219,352.46,0,759,0
398229,361.58,0,763,0
398239,374.56,0,760,0
398249,392.35,0,763,0
398259,414.32,0,760,0
398278,440.71,592,758,0
398281,470.15,592,764,0
398290,502.29,592,763,0
398300,535.33,592,761,0
398310,567.25,592,763,0
398320,595.80,592,761,0
398330,619.43,592,762,0
398340,637.17,592,761,0
398350,647.84,592,763,0
398360,650.63,592,761,0
398370,645.25,592,762,0
398380,633.35,592,760,0
398390,615.63,592,763,0
398400,593.33,592,761,0
398410,567.00,592,763,0
398420,538.71,592,761,0
398430,509.61,592,763,0
398440,481.19,592,761,0
398450,453.75,592,763,0
398460,428.45,592,761,0
398470,405.94,592,763,0
398480,386.80,592,760,0
398490,370.83,592,762,0
398500,359.18,592,747,0
398510,352.27,592,749,0
398520,349.49,592,747,0
398530,350.71,592,748,0
398540,355.00,592,746,0
398551,361.94,592,748,0
398561,370.70,592,747,0
398571,379.96,592,748,0
398581,388.16,592,749,0
398592,395.57,592,748,0
398601,401.14,592,747,0
398611,405.60,592,748,0
398621,408.16,592,747,0
398631,409.53,592,748,0
398641,409.16,592,747,0
398651,407.91,592,748,0
398661,405.28,592,747,0
398671,402.20,592,748,0
398681,397.98,592,747,0
398691,393.66,592,748,0
398701,388.66,592,747,0
398711,383.83,592,748,0
398721,378.57,592,747,0
398731,373.81,592,748,0
398741,368.85,592,747,0
398751,364.61,592,748,0
398761,360.31,592,747,0
398771,356.83,592,748,0
398781,353.37,592,746,0
398791,350.77,592,748,0
398801,348.36,592,747,0
398811,346.83,592,748,0
398821,345.47,592,747,0
398831,345.24,592,748,0
398841,345.68,592,747,0
398851,347.75,592,748,0
398861,351.00,592,746,0
398871,356.91,592,748,0
398881,365.42,592,746,0
398892,378.07,592,748,0
398902,394.59,592,746,0
398912,416.01,592,748,0
398922,441.72,592,747,0
398932,471.89,592,748,0
398942,504.28,592,746,0
398952,538.05,592,748,0
398971,570.61,693,747,0
398974,599.53,693,749,0
398983,623.58,693,746,0
398993,641.71,693,748,0
399003,652.55,693,747,0
399013,656.16,693,748,0
399023,652.47,693,746,0
399033,642.21,693,748,0
399043,626.94,693,746,0
399053,606.60,693,747,0
399063,582.76,693,746,0
399073,556.69,693,748,0
399083,529.31,693,746,0
399093,501.62,693,748,0
399104,474.56,693,746,0
399113,449.62,693,748,0
399123,427.11,693,746,0
399133,407.36,693,748,0
399143,390.32,693,746,0
399153,376.94,693,748,0
399163,367.02,693,747,0
399173,360.33,693,748,0
399183,356.16,693,746,0
399193,354.74,693,748,0
399203,355.55,693,746,0
399213,358.42,693,748,0
399223,362.63,693,746,0
399233,367.75,693,748,0
399243,373.44,693,746,0
399253,379.35,693,748,0
399263,384.90,693,746,0
399273,389.65,693,748,0
399283,393.40,693,746,0
399293,395.98,693,748,0
399303,397.14,693,746,0
399313,397.31,693,747,0
399323,396.10,693,746,0
399333,393.84,693,748,0
399343,390.59,693,746,0
399353,386.64,693,747,0
399363,382.04,693,746,0
399373,377.31,693,748,0
399383,372.46,693,746,0
399393,367.78,693,747,0
399404,363.47,693,746,0
399414,359.43,693,747,0
399424,356.05,693,746,0
399434,353.03,693,747,0
399444,350.66,693,747,0
399454,348.54,693,747,0
399464,346.96,693,746,0
399474,345.56,693,747,0
399484,344.79,693,747,0
399494,344.17,693,747,0
399504,344.25,693,746,0
399514,344.94,693,747,0
399524,347.15,693,746,0
399534,351.26,693,747,0
399544,358.30,693,746,0
399554,368.84,693,747,0
399564,383.89,693,746,0
399575,403.68,693,747,0
399585,428.50,693,747,0
399595,457.49,693,747,0
399605,489.87,693,747,0
399625,523.77,653,745,0
399628,556.80,653,748,0
399637,587.80,653,747,0
399647,614.99,653,747,0
399657,636.16,653,746,0
399667,650.73,653,747,0
399677,657.62,653,746,0
399687,657.39,653,747,0
399697,650.25,653,746,0
399707,636.72,653,747,0
399717,617.09,653,746,0
399727,593.58,653,747,0
399737,566.57,653,746,0
399747,538.46,653,747,0
399757,509.31,653,746,0
399767,481.53,653,747,0
399777,454.63,653,746,0
399788,430.83,653,747,0
399798,409.23,653,746,0
399808,391.38,653,747,0
399818,376.05,653,745,0
399828,364.81,653,747,0
399838,356.55,653,745,0
399848,352.14,653,747,0
399858,350.21,653,745,0
399868,351.69,653,747,0
399878,355.00,653,745,0
399888,360.70,653,747,0
399898,367.13,653,746,0
399908,374.55,653,747,0
399918,381.54,653,745,0
399928,388.75,653,747,0
399938,394.87,653,746,0
399948,400.65,653,747,0
399959,404.74,653,745,0
399969,407.99,653,747,0
399979,409.15,653,746,0
399989,409.28,653,747,0
400000,407.18,653,745,0
400009,404.04,653,747,0
400019,398.93,653,746,0
400029,393.38,653,747,0
400039,386.45,653,745,0
400049,379.76,653,747,0
400059,372.50,653,745,0
400069,365.97,653,747,0
400079,359.33,653,745,0
400089,353.75,653,747,0
400099,348.42,653,746,0
400109,344.40,653,747,0
400119,340.63,653,745,0
400129,338.17,653,747,0
400139,335.98,653,746,0
400149,334.96,653,747,0
400159,334.07,653,745,0
400169,334.22,653,747,0
400179,334.28,653,746,0
400189,335.95,653,747,0
400199,338.07,653,745,0
400209,342.38,653,747,0
400219,348.22,653,745,0
400229,357.88,653,747,0
400239,370.56,653,745,0
400249,388.31,653,747,0
400259,409.64,653,745,0
400269,435.72,653,747,0
400279,464.48,653,746,0
400289,496.05,653,748,0
400300,527.53,653,747,0
400310,558.36,653,748,0
400320,585.64,653,746,0
400330,608.63,653,748,0
400350,625.24,725,746,0
400353,634.30,725,748,0
400362,635.79,725,745,0
400372,630.63,725,747,0
400382,618.48,725,746,0
400392,601.15,725,747,0
400402,579.08,725,745,0
400412,554.15,725,747,0
400422,528.52,725,745,0
400432,502.52,725,747,0
400442,476.74,725,746,0
400452,452.60,725,747,0
400462,430.39,725,746,0
400472,410.95,725,748,0
400482,394.12,725,746,0
400492,380.37,725,747,0
400502,369.54,725,745,0
400513,361.71,725,746,0
400523,356.61,725,745,0
400533,354.07,725,746,0
400543,353.96,725,745,0
400553,356.33,725,746,0
400563,360.65,725,745,0
400573,366.41,725,746,0
400583,373.49,725,745,0
400593,381.06,725,746,0
400603,388.41,725,745,0
400613,395.14,725,746,0
400623,401.06,725,745,0
400633,405.58,725,746,0
400643,409.05,725,746,0
400653,410.71,725,747,0
400663,410.67,725,746,0
400673,409.01,725,746,0
400684,406.48,725,746,0
400694,402.43,725,746,0
400704,397.89,725,746,0
400714,392.22,725,746,0
400724,386.20,725,746,0
400734,380.10,725,746,0
400744,374.54,725,746,0
400754,368.93,725,746,0
400764,364.15,725,746,0
400774,359.31,725,746,0
400784,355.14,725,746,0
400794,351.33,725,746,0
400804,348.49,725,746,0
400814,346.11,725,746,0
400824,344.45,725,745,0
400834,343.20,725,746,0
400844,343.10,725,746,0
400855,343.75,725,746,0
400865,345.46,725,746,0
400875,347.59,725,746,0
400885,350.93,725,746,0
400896,355.24,725,745,0
400905,361.46,725,746,0
400915,369.81,725,746,0
400925,381.52,725,746,0
400935,396.80,725,746,0
400945,416.49,725,746,0
400955,440.17,725,746,0
400965,468.06,725,746,0
400975,498.51,725,745,0
400985,530.55,725,746,0
400995,561.88,725,746,0
401014,591.23,665,744,0
401017,615.55,665,745,0
401026,635.23,665,746,0
401036,648.23,665,746,0
401046,654.59,665,746,0
401056,653.38,665,745,0
401067,645.55,665,746,0
401076,631.37,665,746,0
401086,613.30,665,746,0
401096,590.28,665,745,0
401106,564.91,665,746,0
401116,537.77,665,745,0
401126,511.14,665,746,0
401136,485.04,665,745,0
401146,460.98,665,746,0
401156,438.75,665,746,0
401166,419.75,665,746,0
401176,403.15,665,745,0
401186,390.12,665,746,0
401196,379.50,665,745,0
401206,372.28,665,746,0
401216,367.35,665,745,0
401226,365.62,665,746,0
401236,365.99,665,745,0
401246,368.95,665,746,0
401256,373.08,665,745,0
401266,378.97,665,746,0
401276,385.24,665,746,0
401286,392.37,665,746,0
401296,398.68,665,745,0
401306,404.78,665,746,0
401316,409.35,665,745,0
401326,413.53,665,746,0
401336,415.68,665,745,0
401346,416.89,665,746,0
401356,416.28,665,745,0
401367,415.08,665,746,0
401377,411.93,665,745,0
401387,408.39,665,746,0
401397,403.05,665,746,0
401408,397.72,665,747,0
401417,391.50,665,745,0
401427,385.65,665,746,0
401437,379.37,665,745,0
401447,374.12,665,747,0
401457,368.90,665,746,0
401467,364.90,665,747,0
401477,361.11,665,746,0
401487,358.42,665,747,0
401497,355.72,665,746,0
401507,354.05,665,747,0
401517,352.32,665,746,0
401527,351.58,665,747,0
401537,350.76,665,746,0
401547,351.01,665,747,0
401557,351.22,665,746,0
401567,352.48,665,747,0
401577,353.71,665,745,0
401587,356.71,665,747,0
401597,360.53,665,746,0
401607,366.71,665,747,0
401617,374.90,665,745,0
401627,386.76,665,747,0
401637,402.04,665,746,0
401647,422.30,665,747,0
401657,446.17,665,746,0
401667,474.19,665,746,0
401677,504.52,665,745,0
401687,536.63,665,746,0
401697,567.90,665,745,0
401717,597.37,703,743,0
401720,621.26,703,745,0
401729,639.91,703,746,0
401739,651.47,703,745,0
401750,656.17,703,746,0
401759,653.33,703,745,0
401769,644.23,703,746,0
401779,628.39,703,745,0
401789,608.82,703,746,0
401799,585.00,703,745,0
401809,559.46,703,746,0
401819,532.28,703,744,0
401829,505.28,703,746,0
401839,478.45,703,745,0
401849,453.76,703,746,0
401859,430.90,703,745,0
401869,411.30,703,746,0
401879,393.94,703,745,0
401889,380.16,703,746,0
401899,369.23,703,745,0
401909,362.30,703,746,0
401920,358.44,703,745,0
401929,358.01,703,746,0
401939,359.59,703,744,0
401949,363.66,703,746,0
401959,368.86,703,745,0
401969,375.33,703,746,0
401979,381.53,703,744,0
401989,387.84,703,746,0
401999,393.29,703,744,0
402009,398.47,703,746,0
402019,402.32,703,744,0
402029,405.65,703,746,0
402039,407.47,703,745,0
402049,408.83,703,746,0
402059,408.84,703,745,0
402069,407.90,703,746,0
402079,405.49,703,744,0
402089,402.21,703,746,0
402099,397.39,703,745,0
402109,392.09,703,745,0
402119,385.63,703,744,0
402129,379.10,703,746,0
402139,372.56,703,744,0
402149,366.73,703,745,0
402159,361.41,703,744,0
402169,357.47,703,746,0
402179,353.99,703,744,0
402189,351.76,703,746,0
402199,349.91,703,744,0
402209,349.12,703,746,0
402220,348.36,703,744,0
402230,348.38,703,746,0
402240,348.39,703,744,0
402250,349.30,703,746,0
402260,350.37,703,744,0
402270,352.66,703,746,0
402280,355.76,703,744,0
402290,361.15,703,746,0
402300,368.86,703,744,0
402310,380.04,703,746,0
402320,394.77,703,744,0
402330,414.17,703,746,0
402340,437.52,703,744,0
402350,464.71,703,746,0
402360,494.02,703,744,0
402370,524.66,703,746,0
402380,554.33,703,744,0
402391,581.62,703,746,0
402410,604.10,693,744,0
402413,619.80,693,746,0
402422,628.90,693,745,0
402433,630.86,693,745,0
402443,625.97,693,745,0
402453,614.80,693,745,0
402463,598.23,693,745,0
402473,577.12,693,745,0
402483,554.33,693,745,0
402493,529.63,693,746,0
402503,504.71,693,745,0
402513,479.81,693,745,0
402523,456.17,693,745,0
402533,434.17,693,745,0
402543,414.79,693,745,0
402553,397.71,693,745,0
402563,383.27,693,745,0
402573,371.40,693,745,0
402583,362.67,693,745,0
402593,356.68,693,745,0
402604,353.78,693,745,0
402614,353.33,693,745,0
402624,355.20,693,745,0
402634,358.61,693,745,0
402644,363.70,693,745,0
402654,369.02,693,745,0
402664,374.80,693,745,0
402674,379.75,693,745,0
402684,384.54,693,745,0
402694,388.06,693,745,0
402704,391.04,693,745,0
402714,392.40,693,745,0
402724,393.44,693,746,0
402734,393.44,693,746,0
402744,392.88,693,746,0
402754,391.20,693,746,0
402764,389.21,693,746,0
402775,386.45,693,746,0
402785,383.83,693,746,0
402795,380.19,693,746,0
402805,376.41,693,746,0
402816,372.13,693,746,0
402825,368.06,693,746,0
402835,364.27,693,746,0
402845,361.23,693,746,0
402855,358.03,693,746,0
402865,355.88,693,746,0
402875,353.65,693,746,0
402885,352.34,693,746,0
402895,350.99,693,746,0
402905,349.92,693,746,0
402915,348.53,693,746,0
402925,348.20,693,747,0
402935,347.63,693,746,0
402945,348.38,693,747,0
402955,349.60,693,746,0
402965,352.72,693,746,0
402975,357.56,693,746,0
402985,365.32,693,746,0
402995,375.90,693,746,0
403005,390.63,693,746,0
403015,409.17,693,746,0
403025,432.35,693,746,0
403035,459.07,693,746,0
403045,488.79,693,745,0
403064,519.45,654,744,0
403067,549.45,654,747,0
403076,577.56,654,745,0
403086,602.29,654,745,0
403096,621.40,654,745,0
403106,634.48,654,746,0
403116,640.51,654,745,0
403126,640.27,654,745,0
403136,633.55,654,744,0
403146,620.87,654,746,0
403156,602.52,654,744,0
403166,580.94,654,745,0
403176,556.23,654,744,0
403186,530.32,654,746,0
403196,503.35,654,744,0
403206,477.36,654,745,0
403216,452.35,654,744,0
403226,430.00,654,746,0
403236,409.56,654,744,0
403246,392.42,654,745,0
403256,377.94,654,744,0
403266,367.33,654,746,0
403276,359.64,654,744,0
403287,355.55,654,745,0
403297,353.89,654,744,0
403307,355.55,654,746,0
403317,358.98,654,744,0
403328,364.77,654,745,0
403337,371.31,654,744,0
403347,379.06,654,746,0
403357,386.46,654,744,0
403367,393.99,654,745,0
403377,399.99,654,744,0
403387,405.31,654,745,0
403397,408.73,654,744,0
403407,411.00,654,745,0
403417,411.13,654,744,0
403427,410.27,654,745,0
403437,407.66,654,744,0
403447,404.51,654,745,0
403457,400.07,654,744,0
403467,395.55,654,745,0
403477,390.37,654,744,0
403487,385.63,654,745,0
403497,380.64,654,744,0
403507,376.51,654,745,0
403517,372.15,654,744,0
403527,368.81,654,745,0
403537,365.31,654,744,0
403547,362.77,654,745,0
403557,360.23,654,744,0
403567,358.66,654,745,0
403577,356.96,654,744,0
403587,356.20,654,745,0
403597,355.50,654,744,0
403607,356.42,654,745,0
403617,358.44,654,744,0
403628,363.23,654,745,0
403638,370.45,654,744,0
403648,381.76,654,745,0
403658,397.09,654,744,0
403668,417.29,654,745,0
403678,441.20,654,744,0
403688,469.26,654,746,0
403698,499.05,654,744,0
403718,530.32,653,743,0
403721,559.28,653,746,0
403730,585.55,653,746,0
403740,606.95,653,744,0
403750,622.60,653,746,0
403760,631.59,653,744,0
403770,633.94,653,745,0
403780,628.86,653,744,0
403790,618.66,653,746,0
403800,603.03,653,744,0
403810,583.52,653,745,0
403820,560.95,653,744,0
403830,536.15,653,745,0
403841,510.35,653,744,0
403851,485.04,653,745,0
403861,460.56,653,744,0
403871,437.76,653,745,0
403881,417.05,653,744,0
403891,399.55,653,745,0
403901,384.77,653,744,0
403911,373.31,653,745,0
403921,364.69,653,744,0
403931,359.47,653,745,0
403941,357.31,653,744,0
403951,357.82,653,745,0
403961,360.27,653,744,0
403971,364.61,653,745,0
403981,370.34,653,744,0
403991,376.88,653,745,0
404001,383.64,653,744,0
404012,390.22,653,745,0
404022,396.46,653,744,0
404032,401.63,653,745,0
404042,405.86,653,744,0
404052,408.43,653,745,0
404062,409.71,653,744,0
404072,409.59,653,745,0
404082,408.12,653,744,0
404092,405.22,653,745,0
404102,401.42,653,744,0
404112,396.97,653,745,0
404122,392.22,653,745,0
404132,387.44,653,745,0
404142,382.81,653,744,0
404152,378.32,653,745,0
404162,374.41,653,744,0
404172,370.77,653,745,0
404183,367.50,653,744,0
404193,364.52,653,745,0
404203,361.92,653,745,0
404213,359.42,653,745,0
404224,357.66,653,744,0
404233,356.31,653,745,0
404243,355.91,653,745,0
404253,355.85,653,745,0
404263,356.88,653,744,0
404273,358.38,653,745,0
404283,361.05,653,745,0
404293,364.55,653,745,0
404303,369.91,653,744,0
404313,377.01,653,745,0
404323,387.04,653,745,0
404333,400.05,653,745,0
404343,417.35,653,744,0
404353,438.50,653,745,0
404363,463.94,653,745,0
404373,492.41,653,745,0
404383,523.53,653,745,0
404403,555.47,685,744,0
404406,585.97,685,747,0
404415,613.67,685,744,0
404425,637.60,685,745,0
404435,655.46,685,744,0
404445,667.11,685,745,0
404455,671.28,685,744,0
404465,668.58,685,745,0
404475,659.62,685,744,0
404485,645.16,685,745,0
404495,625.27,685,744,0
404505,602.00,685,745,0
404515,575.56,685,744,0
404525,548.39,685,745,0
404535,520.63,685,744,0
404545,494.38,685,745,0
404555,468.94,685,744,0
404566,446.20,685,745,0
404575,425.83,685,744,0
404585,408.99,685,745,0
404595,394.81,685,744,0
404605,384.54,685,745,0
404615,376.96,685,744,0
404625,373.20,685,745,0
404635,371.81,685,744,0
404645,373.41,685,745,0
404655,376.55,685,744,0
404665,381.48,685,745,0
404675,386.95,685,744,0
404685,393.61,685,746,0
404695,399.64,685,744,0
404705,405.83,685,745,0
404715,410.64,685,744,0
404725,414.95,685,746,0
404736,417.41,685,744,0
404745,418.70,685,745,0
404755,417.89,685,744,0
404765,416.51,685,746,0
404775,413.48,685,744,0
404785,409.78,685,745,0
404795,404.88,685,744,0
404805,399.81,685,745,0
404815,393.78,685,744,0
404825,387.81,685,745,0
404835,381.14,685,744,0
404845,374.97,685,745,0
404855,368.72,685,744,0
404865,363.32,685,745,0
404875,358.29,685,744,0
404885,354.73,685,745,0
404895,351.51,685,744,0
404905,349.56,685,746,0
404915,347.81,685,744,0
404925,347.35,685,745,0
404935,347.16,685,744,0
404945,348.14,685,745,0
404955,349.56,685,744,0
404965,352.77,685,746,0
404975,357.17,685,744,0
404985,363.85,685,746,0
404995,372.42,685,744,0
405005,384.42,685,745,0
405015,399.38,685,744,0
405025,418.68,685,746,0
405036,441.41,685,744,0
405046,468.20,685,746,0
405056,497.80,685,744,0
405066,530.13,685,746,0
405076,562.53,685,744,0
405086,594.43,685,746,0
405105,622.63,703,744,0
405108,645.54,703,746,0
405117,662.09,703,743,0
405127,672.35,703,746,0
405137,674.47,703,744,0
405147,669.70,703,745,0
405157,657.41,703,743,0
405167,640.06,703,745,0
405177,618.48,703,744,0
405187,593.65,703,745,0
405197,565.90,703,743,0
405207,537.90,703,745,0
405217,509.82,703,744,0
405227,483.39,703,745,0
405237,458.16,703,743,0
405248,435.74,703,745,0
405257,415.89,703,744,0
405267,399.81,703,745,0
405277,386.49,703,743,0
405287,376.83,703,745,0
405297,370.32,703,744,0
405307,367.57,703,745,0
405317,367.23,703,743,0
405327,369.86,703,745,0
405337,374.40,703,746,0
405347,383.62,703,746,0
405357,394.79,703,744,0
405367,407.33,703,746,0
405377,419.44,703,744,0
405387,431.31,703,746,0
405397,441.07,703,744,0
405407,448.98,703,746,0
405417,451.69,703,744,0
405427,451.22,703,746,0
405437,447.43,703,744,0
405447,441.56,703,746,0
405457,433.63,703,744,0
405467,425.09,703,746,0
405477,415.37,703,744,0
405487,405.75,703,746,0
405497,395.92,703,744,0
405507,387.16,703,746,0
405517,378.84,703,744,0
405527,371.99,703,746,0
405537,365.65,703,744,0
405548,360.91,703,746,0
405558,356.91,703,744,0
405568,354.37,703,746,0
405578,352.28,703,744,0
405588,351.51,703,746,0
405598,351.10,703,744,0
405608,351.89,703,746,0
405618,353.21,703,744,0
405628,355.97,703,746,0
405638,359.80,703,744,0
405648,366.03,703,745,0
405658,375.02,703,744,0
405668,388.13,703,746,0
405678,405.32,703,744,0
405688,427.47,703,746,0
405698,453.73,703,744,0
405708,484.19,703,746,0
405719,517.01,703,744,0
405729,550.78,703,746,0
405739,582.94,703,744,0
405749,612.10,703,746,0
405760,635.90,703,744,0
405769,653.67,703,746,0
405779,663.84,703,744,0
405789,666.55,703,746,0
405809,661.24,703,744,0
405812,647.93,703,746,0
405821,628.92,703,745,0
405831,605.11,703,745,0
405841,577.74,703,745,0
405851,548.50,703,745,0
405861,518.48,703,745,0
405871,489.06,703,745,0
405881,462.39,703,745,0
405891,437.76,703,745,0
405901,416.53,703,745,0
405911,398.41,703,745,0
405921,383.68,703,745,0
405932,372.03,703,745,0
405942,364.14,703,745,0
405952,358.99,703,745,0
405962,356.77,703,745,0
405972,356.88,703,745,0
405982,359.57,703,745,0
405992,363.94,703,745,0
406002,370.26,703,745,0
406012,377.04,703,745,0
406022,384.79,703,745,0
406032,392.26,703,745,0
406042,399.47,703,745,0
406052,405.11,703,745,0
406062,409.58,703,745,0
406072,412.23,703,745,0
406082,413.41,703,745,0
406092,412.86,703,745,0
406103,411.01,703,745,0
406113,407.24,703,745,0
406123,402.92,703,746,0
406133,397.89,703,745,0
406144,392.57,703,746,0
406153,387.08,703,745,0
406163,381.91,703,746,0
406173,377.01,703,745,0
406183,373.49,703,746,0
406193,370.39,703,746,0
406203,367.87,703,746,0
406213,365.42,703,745,0
406223,363.84,703,746,0
406233,362.00,703,746,0
406243,360.54,703,746,0
406253,358.54,703,745,0
406263,357.18,703,746,0
406273,355.84,703,745,0
406283,355.33,703,746,0
406293,354.72,703,745,0
406303,355.14,703,746,0
406313,355.83,703,746,0
406323,357.68,703,746,0
406333,359.62,703,745,0
406343,362.78,703,746,0
406353,366.83,703,745,0
406363,373.05,703,746,0
406373,381.35,703,745,0
406383,393.55,703,746,0
406393,409.24,703,746,0
406403,429.74,703,746,0
406413,454.33,703,746,0
406423,483.63,703,746,0
406433,515.29,703,746,0
406453,548.71,645,744,0
406456,579.70,645,747,0
406465,608.59,645,747,0
406475,632.37,645,745,0
406486,650.43,645,747,0
406495,660.54,645,745,0
406505,663.51,645,747,0
406515,658.26,645,745,0
406525,647.55,645,747,0
406535,630.29,645,745,0
406545,608.90,645,747,0
406555,583.64,645,746,0
406565,556.79,645,747,0
406575,528.66,645,745,0
406585,501.42,645,747,0
406595,474.93,645,746,0
406605,450.70,645,747,0
406615,428.50,645,746,0
406625,409.88,645,747,0
406635,393.89,645,746,0
406645,381.79,645,747,0
406656,372.51,645,745,0
406665,367.47,645,747,0
406675,364.97,645,746,0
406685,365.62,645,747,0
406695,367.75,645,745,0
406705,372.28,645,747,0
406715,377.51,645,746,0
406725,383.96,645,747,0
406735,389.63,645,746,0
406745,395.57,645,747,0
406755,400.33,645,746,0
406765,404.81,645,747,0
406775,408.08,645,746,0
406785,410.54,645,747,0
406795,411.24,645,746,0
406805,411.21,645,747,0
406815,409.52,645,746,0
406825,407.26,645,747,0
406835,403.71,645,745,0
406845,399.56,645,747,0
406855,394.33,645,745,0
406865,389.48,645,747,0
406875,383.89,645,746,0
406885,378.82,645,747,0
406895,373.86,645,746,0
406905,369.92,645,747,0
406915,365.70,645,746,0
406925,362.45,645,747,0
406935,358.97,645,746,0
406945,356.45,645,747,0
406956,354.04,645,745,0
406966,352.23,645,747,0
406976,350.19,645,745,0
406986,349.19,645,747,0
406996,348.40,645,745,0
407006,348.75,645,747,0
407016,349.34,645,745,0
407026,350.91,645,747,0
407036,352.39,645,745,0
407046,354.51,645,747,0
407056,356.32,645,745,0
407066,358.71,645,747,0
407076,360.81,645,745,0
407086,363.83,645,747,0
407096,367.14,645,745,0
407106,372.80,645,747,0
407116,380.44,645,746,0
407127,391.97,645,747,0
407137,406.85,645,745,0
407147,426.69,645,747,0
407157,450.27,645,746,0
407168,478.05,645,747,0
407177,507.56,645,746,0
407196,538.46,743,744,0
407199,567.68,743,747,0
407208,594.91,743,747,0
407218,617.26,743,746,0
407228,634.20,743,747,0
407238,644.25,743,745,0
407248,647.61,743,747,0
407258,644.00,743,746,0
407268,634.57,743,747,0
407278,618.97,743,745,0
407288,598.75,743,747,0
407298,575.17,743,745,0
407308,549.87,743,746,0
407318,523.56,743,745,0
407328,497.59,743,747,0
407339,472.64,743,746,0
407348,450.25,743,747,0
407358,430.42,743,745,0
407368,413.58,743,747,0
407378,399.26,743,746,0
407388,388.38,743,747,0
407398,380.13,743,746,0
407408,374.86,743,747,0
407418,371.82,743,746,0
407428,371.23,743,747,0
407438,372.49,743,746,0
407448,375.47,743,747,0
407458,379.49,743,746,0
407468,384.44,743,747,0
407478,389.45,743,745,0
407488,394.33,743,747,0
407498,398.65,743,746,0
407508,402.27,743,747,0
407518,405.01,743,746,0
407528,406.85,743,747,0
407538,407.71,743,746,0
407548,407.88,743,747,0
407558,407.10,743,745,0
407568,405.57,743,747,0
407578,403.13,743,746,0
407588,400.01,743,747,0
407598,396.10,743,746,0
407608,391.79,743,747,0
407618,387.14,743,746,0
407628,382.42,743,747,0
407639,377.84,743,746,0
407649,373.52,743,747,0
407659,369.59,743,746,0
407669,366.16,743,747,0
407680,363.24,743,746,0
407689,360.89,743,747,0
407699,359.21,743,746,0
407709,358.33,743,747,0
407719,358.19,743,746,0
407729,358.52,743,747,0
407739,359.22,743,746,0
407749,360.14,743,747,0
407759,361.17,743,746,0
407769,362.15,743,747,0
407779,362.75,743,746,0
407789,363.17,743,747,0
407799,363.80,743,746,0
407809,365.28,743,747,0
407819,367.89,743,746,0
407829,372.30,743,747,0
407839,379.19,743,745,0
407849,389.29,743,747,0
407859,403.18,743,746,0
407869,421.17,743,747,0
407879,443.40,743,745,0
407889,469.25,743,747,0
407899,497.72,743,746,0
407909,527.33,743,747,0
407928,556.55,732,745,0
407931,582.91,732,747,0
407940,606.08,732,746,0
407950,623.93,732,747,0
407960,635.39,732,746,0
407970,639.69,732,746,0
407980,637.34,732,746,0
407990,628.45,732,747,0
408000,614.56,732,746,0
408010,595.19,732,746,0
408020,572.25,732,746,0
408030,547.19,732,747,0
408040,521.55,732,746,0
408050,495.80,732,746,0
408060,471.34,732,747,0
408070,448.70,732,746,0
408080,428.69,732,746,0
408090,411.25,732,747,0
408100,396.95,732,746,0
408110,385.56,732,747,0
408120,377.47,732,746,0
408130,372.31,732,746,0
408140,370.08,732,746,0
408151,370.05,732,746,0
408161,372.31,732,746,0
408171,376.03,732,746,0
408181,381.08,732,747,0
408192,386.54,732,746,0
408201,392.29,732,746,0
408211,397.69,732,747,0
408221,402.93,732,748,0
408231,407.06,732,747,0
408241,410.22,732,747,0
408251,411.86,732,746,0
408261,412.68,732,746,0
408271,411.96,732,746,0
408281,410.47,732,746,0
408291,407.67,732,746,0
408301,404.64,732,746,0
408311,400.59,732,746,0
408321,396.77,732,746,0
408331,392.51,732,746,0
408341,388.46,732,746,0
408351,384.04,732,746,0
408361,380.04,732,746,0
408371,375.70,732,746,0
408381,372.19,732,746,0
408391,368.58,732,746,0
408401,365.49,732,746,0
408411,362.68,732,746,0
408421,360.85,732,746,0
408431,359.27,732,746,0
408441,358.63,732,747,0
408451,358.66,732,746,0
408461,360.00,732,747,0
408471,361.59,732,746,0
408481,363.81,732,747,0
408492,365.32,732,746,0
408502,367.11,732,747,0
408512,367.98,732,746,0
408522,368.76,732,747,0
408532,368.19,732,746,0
408542,367.96,732,747,0
408552,367.29,732,746,0
408562,367.84,732,747,0
408572,368.75,732,746,0
408582,371.69,732,747,0
408592,375.94,732,746,0
408602,383.93,732,747,0
408612,394.84,732,746,0
408622,410.06,732,747,0
408632,429.24,732,746,0
408642,453.51,732,747,0
408652,481.43,732,746,0
408672,512.67,744,745,0
408675,543.80,744,745,0
408684,575.06,744,747,0
408694,604.01,744,746,0
408705,629.38,744,747,0
408715,648.72,744,746,0
408725,661.75,744,747,0
408735,667.35,744,745,0
408745,666.73,744,747,0
408755,659.36,744,746,0
408765,646.65,744,747,0
408775,628.58,744,746,0
408785,606.42,744,747,0
408795,580.88,744,746,0
408805,554.26,744,747,0
408815,527.05,744,746,0
408825,500.38,744,747,0
408835,474.47,744,746,0
408845,451.27,744,748,0
408855,430.79,744,746,0
408865,413.88,744,747,0
408876,399.56,744,746,0
408886,388.85,744,747,0
408896,380.88,744,745,0
408906,376.42,744,747,0
408916,374.32,744,746,0
408926,375.34,744,747,0
408936,378.37,744,745,0
408946,383.44,744,747,0
408956,389.35,744,746,0
408966,396.23,744,747,0
408976,402.85,744,745,0
408986,409.28,744,747,0
408996,414.47,744,746,0
409006,418.61,744,747,0
409016,421.13,744,745,0
409026,422.68,744,747,0
409036,422.43,744,746,0
409047,421.10,744,747,0
409057,418.71,744,746,0
409067,415.67,744,747,0
409077,411.57,744,746,0
409088,407.24,744,747,0
409097,402.07,744,745,0
409107,397.33,744,747,0
409117,392.39,744,746,0
409127,387.73,744,748,0
409137,383.10,744,745,0
409147,379.21,744,748,0
409157,375.76,744,746,0
409167,372.83,744,747,0
409177,369.93,744,745,0
409187,367.33,744,747,0
409197,364.62,744,746,0
409207,362.38,744,747,0
409217,360.42,744,745,0
409227,358.92,744,747,0
409237,357.83,744,746,0
409247,357.24,744,747,0
409257,357.21,744,745,0
409267,357.70,744,747,0
409277,358.35,744,746,0
409287,359.40,744,747,0
409297,360.35,744,745,0
409307,362.05,744,747,0
409317,364.35,744,746,0
409327,367.80,744,747,0
409337,372.96,744,745,0
409347,380.90,744,747,0
409357,391.99,744,746,0
409367,407.21,744,747,0
409377,426.60,744,746,0
409388,450.34,744,747,0
409398,477.75,744,746,0
409408,507.91,744,747,0
409418,539.39,744,746,0
409438,569.75,765,745,0
409441,596.61,765,749,0
409450,618.88,765,747,0
409460,635.25,765,746,0
409470,644.39,765,746,0
409480,646.07,765,746,0
409490,639.92,765,746,0
409500,627.86,765,746,0
409510,610.63,765,746,0
409520,589.31,765,746,0
409530,564.75,765,746,0
409540,539.19,765,746,0
409550,512.69,765,746,0
409560,486.94,765,747,0
409570,461.93,765,746,0
409580,439.24,765,746,0
409590,418.77,765,746,0
409601,401.18,765,747,0
409611,385.95,765,747,0
409621,374.35,765,746,0
409631,365.63,765,746,0
409641,360.39,765,747,0
409651,358.13,765,747,0
409661,358.47,765,746,0
409671,361.38,765,746,0
409681,366.83,765,747,0
409691,373.48,765,747,0
409701,381.10,765,746,0
409711,388.31,765,746,0
409721,395.42,765,747,0
409731,401.42,765,746,0
409741,406.31,765,747,0
409751,409.00,765,746,0
409761,410.37,765,747,0
409772,410.00,765,746,0
409782,408.80,765,747,0
409792,405.65,765,746,0
409802,402.28,765,747,0
409812,397.23,765,746,0
409822,391.76,765,747,0
409832,385.14,765,746,0
409842,378.46,765,747,0
409852,371.42,765,746,0
409862,365.08,765,747,0
409872,358.41,765,746,0
409882,353.19,765,747,0
409892,348.85,765,746,0
409902,345.94,765,747,0
409912,343.60,765,746,0
409922,342.52,765,747,0
409932,341.76,765,746,0
409943,342.13,765,747,0
409953,342.39,765,745,0
409963,343.13,765,747,0
409973,343.74,765,746,0
409984,345.32,765,747,0
409993,346.51,765,745,0
410003,348.63,765,747,0
410013,350.15,765,746,0
410023,352.42,765,747,0
410033,354.65,765,746,0
410043,357.88,765,748,0
410053,360.96,765,746,0
410063,365.39,765,747,0
410073,370.63,765,745,0
410083,378.71,765,748,0
410093,389.43,765,746,0
410103,404.21,765,747,0
410113,422.62,765,745,0
410123,446.43,765,748,0
410133,474.59,765,746,0
410143,506.60,765,748,0
410153,539.85,765,746,0
410172,573.32,735,745,0
410175,603.23,735,748,0
410184,629.73,735,748,0
410194,649.91,735,745,0
410204,663.52,735,747,0
410214,669.28,735,746,0
410224,668.08,735,748,0
410234,659.31,735,745,0
410244,645.81,735,747,0
410254,626.45,735,746,0
410264,603.21,735,747,0
410274,576.36,735,745,0
410284,548.36,735,747,0
410294,519.41,735,746,0
410304,491.56,735,747,0
410314,464.65,735,745,0
410324,440.41,735,747,0
410334,418.69,735,746,0
410344,400.61,735,747,0
410354,385.08,735,746,0
410364,373.19,735,747,0
410374,363.96,735,746,0
410384,358.14,735,747,0
410394,354.63,735,745,0
410404,354.05,735,747,0
410414,355.20,735,746,0
410424,358.87,735,747,0
410434,363.66,735,746,0
410444,370.15,735,747,0
410455,376.88,735,746,0
410465,384.41,735,747,0
410475,391.32,735,746,0
410485,397.91,735,747,0
410496,402.95,735,746,0
410505,407.47,735,748,0
410515,410.63,735,746,0
410525,412.67,735,747,0
410535,412.81,735,746,0
410545,411.80,735,748,0
410555,409.46,735,746,0
410565,406.28,735,747,0
410575,401.74,735,746,0
410585,396.37,735,747,0
410595,390.18,735,746,0
410605,384.08,735,747,0
410615,377.76,735,746,0
410625,371.96,735,747,0
410635,366.48,735,746,0
410645,361.97,735,747,0
410655,357.86,735,746,0
410665,354.95,735,747,0
410675,352.52,735,746,0
410685,351.21,735,747,0
410695,350.16,735,746,0
410705,349.98,735,747,0
410715,349.95,735,746,0
410725,350.73,735,747,0
410735,351.76,735,746,0
410745,353.71,735,747,0
410755,356.37,735,746,0
410765,360.93,735,747,0
410775,367.51,735,746,0
410785,377.47,735,747,0
410796,391.00,735,746,0
410806,409.34,735,747,0
410816,432.34,735,746,0
410826,460.22,735,748,0
410836,491.66,735,746,0
410846,525.70,735,747,0
410856,560.08,735,746,0
410875,593.40,703,745,0
410878,622.34,703,748,0
410887,646.36,703,747,0
410897,663.70,703,746,0
410907,673.82,703,747,0
410917,676.06,703,746,0
410927,671.11,703,747,0
410937,659.12,703,746,0
410947,641.90,703,747,0
410957,619.47,703,746,0
410967,593.74,703,747,0
410977,565.54,703,746,0
410987,536.19,703,747,0
410997,506.78,703,746,0
411008,478.30,703,747,0
411017,452.02,703,746,0
411027,428.83,703,747,0
411037,408.78,703,746,0
411047,392.18,703,746,0
411057,379.57,703,746,0
411067,370.65,703,747,0
411077,365.44,703,746,0
411087,363.51,703,747,0
411097,364.21,703,746,0
411107,367.45,703,747,0
411117,372.89,703,746,0
411127,379.52,703,747,0
411137,386.95,703,746,0
411147,394.59,703,747,0
411157,402.04,703,746,0
411167,408.63,703,747,0
411177,413.71,703,746,0
411187,417.18,703,747,0
411197,419.32,703,746,0
411207,419.91,703,747,0
411217,419.33,703,746,0
411227,417.65,703,747,0
411237,415.18,703,746,0
411247,412.04,703,747,0
411257,408.26,703,746,0
411267,403.81,703,747,0
411277,398.89,703,746,0
411287,393.57,703,747,0
411297,387.96,703,746,0
411308,382.40,703,747,0
411318,377.09,703,746,0
411328,372.26,703,747,0
411338,368.11,703,746,0
411348,364.61,703,747,0
411358,361.94,703,746,0
411368,359.77,703,747,0
411378,358.51,703,746,0
411388,357.97,703,747,0
411398,358.71,703,746,0
411408,360.98,703,747,0
411418,366.00,703,746,0
411428,373.84,703,747,0
411438,385.68,703,746,0
411448,401.76,703,747,0
411458,422.75,703,746,0
411468,448.58,703,747,0
411479,478.58,703,747,0
411489,511.23,703,747,0
411508,545.32,633,745,0
411511,577.75,633,747,0
411521,607.91,633,747,0
411531,633.18,633,746,0
411541,652.07,633,747,0
411551,663.15,633,746,0
411561,666.28,633,747,0
411571,661.09,633,746,0
411581,649.54,633,747,0
411591,630.86,633,746,0
411601,607.33,633,747,0
411611,579.89,633,746,0
411621,550.82,633,747,0
411631,520.83,633,746,0
411641,491.65,633,747,0
411651,463.73,633,746,0
411661,438.70,633,747,0
411671,416.12,633,746,0
411681,397.18,633,747,0
411692,381.14,633,746,0
411702,368.84,633,747,0
411712,359.67,633,746,0
411722,354.20,633,747,0
411732,351.18,633,746,0
411742,351.47,633,747,0
411752,353.52,633,746,0
411762,358.12,633,747,0
411772,363.87,633,746,0
411782,371.11,633,747,0
411792,378.23,633,746,0
411802,385.92,633,747,0
411812,392.67,633,746,0
411822,399.20,633,747,0
411832,404.07,633,746,0
411842,407.86,633,747,0
411852,409.87,633,746,0
411863,410.77,633,747,0
411873,409.55,633,746,0
411883,407.46,633,747,0
411893,403.85,633,746,0
411904,399.65,633,747,0
411913,394.40,633,748,0
411923,389.31,633,748,0
411933,383.73,633,747,0
411943,378.80,633,747,0
411953,373.84,633,746,0
411963,369.56,633,748,0
411973,365.19,633,746,0
411983,361.92,633,747,0
411993,358.34,633,746,0
412003,356.14,633,748,0
412013,353.87,633,746,0
412023,352.75,633,747,0
412033,351.71,633,746,0
412043,351.88,633,748,0
412053,351.96,633,746,0
412063,353.04,633,748,0
412073,354.32,633,746,0
412083,357.22,633,749,0
412093,360.88,633,748,0
412103,367.18,633,748,0
412113,375.99,633,746,0
412123,389.20,633,748,0
412133,406.84,633,746,0
412143,429.60,633,747,0
412153,456.63,633,746,0
412163,488.20,633,748,0
412173,522.34,633,746,0
412183,558.32,633,747,0
412203,593.20,694,746,0
412206,624.68,694,747,0
412215,651.13,694,746,0
412225,671.84,694,747,0
412235,684.87,694,746,0
412246,690.31,694,748,0
412255,687.30,694,746,0
412265,677.01,694,747,0
412275,660.12,694,746,0
412285,637.67,694,747,0
412295,610.47,694,746,0
412305,580.59,694,747,0
412315,549.00,694,746,0
412325,517.28,694,748,0
412335,486.43,694,746,0
412345,457.97,694,747,0
412355,432.82,694,746,0
412365,411.58,694,748,0
412375,393.87,694,746,0
412385,379.68,694,747,0
412395,368.59,694,747,0
412405,360.79,694,748,0
412416,355.79,694,747,0
412425,353.33,694,748,0
412435,352.67,694,747,0
412445,354.31,694,748,0
412455,357.78,694,747,0
412465,363.33,694,748,0
412475,369.74,694,747,0
412485,376.94,694,748,0
412495,383.77,694,747,0
412505,390.52,694,748,0
412515,396.11,694,747,0
412525,400.66,694,748,0
412535,403.98,694,746,0
412545,406.00,694,747,0
412555,406.26,694,746,0
412565,405.15,694,747,0
412575,402.45,694,746,0
412585,398.80,694,747,0
412595,394.32,694,746,0
412605,388.95,694,747,0
412615,382.97,694,746,0
412625,377.15,694,748,0
412635,371.32,694,748,0
412645,366.08,694,748,0
412655,361.13,694,746,0
412665,356.72,694,747,0
412675,352.73,694,746,0
412685,349.73,694,747,0
412695,347.28,694,746,0
412705,345.82,694,747,0
412716,344.85,694,746,0
412726,344.64,694,747,0
412736,345.05,694,746,0
412746,346.15,694,747,0
412756,348.20,694,747,0
412766,351.61,694,748,0
412776,356.70,694,747,0
412786,364.46,694,748,0
412796,375.77,694,747,0
412806,391.31,694,748,0
412816,411.70,694,747,0
412826,436.95,694,747,0
412836,466.79,694,747,0
412846,500.45,694,748,0
412856,536.15,694,746,0
412875,572.06,673,745,0
412878,604.96,673,747,0
412887,634.20,673,747,0
412897,657.54,673,746,0
412907,673.66,673,747,0
412917,681.52,673,746,0
412928,680.94,673,747,0
412937,672.17,673,746,0
412947,657.03,673,747,0
412957,635.51,673,746,0
412967,609.08,673,748,0
412977,579.70,673,748,0
412987,548.63,673,748,0
412997,517.59,673,747,0
413007,487.24,673,747,0
413017,459.10,673,747,0
413027,433.70,673,747,0
413037,411.80,673,746,0
413047,392.96,673,747,0
413057,377.59,673,746,0
413067,365.71,673,747,0
413077,357.40,673,746,0
413087,352.09,673,747,0
413097,349.62,673,747,0
413107,349.65,673,747,0
413117,351.98,673,746,0
413127,356.02,673,747,0
413137,361.41,673,746,0
413147,367.63,673,747,0
413157,374.47,673,746,0
413167,381.19,673,747,0
413177,387.43,673,746,0
413187,392.83,673,747,0
413197,397.42,673,746,0
413207,400.77,673,747,0
413217,402.94,673,746,0
413228,403.43,673,747,0
413238,402.70,673,746,0
413248,400.48,673,746,0
413258,397.46,673,747,0
413268,393.42,673,746,0
413278,388.92,673,746,0
413288,384.06,673,747,0
413298,379.50,673,747,0
413308,374.94,673,747,0
413318,371.10,673,746,0
413328,367.51,673,747,0
413338,364.87,673,747,0
413348,362.34,673,747,0
413358,360.61,673,747,0
413368,358.93,673,746,0
413378,358.13,673,747,0
413388,357.45,673,746,0
413399,357.96,673,747,0
413409,359.13,673,746,0
413419,362.56,673,747,0
413429,368.01,673,746,0
413440,377.22,673,747,0
413449,389.92,673,746,0
413459,408.08,673,747,0
413469,430.47,673,746,0
413479,457.84,673,747,0
413489,488.23,673,747,0
413508,521.16,633,745,0
413511,553.43,633,746,0
413520,585.23,633,747,0
413530,613.23,633,747,0
413540,636.56,633,747,0
413550,652.98,633,746,0
413560,662.37,633,747,0
413570,663.93,633,746,0
413580,658.98,633,747,0
413590,645.96,633,746,0
413600,626.77,633,747,0
413611,601.98,633,746,0
413620,574.09,633,747,0
413630,543.59,633,746,0
413640,512.47,633,747,0
413650,481.17,633,746,0
413660,451.89,633,747,0
413670,425.22,633,747,0
413680,402.87,633,747,0
413690,383.24,633,746,0
413700,367.82,633,747,0
413710,355.58,633,746,0
413720,347.56,633,747,0
413730,342.64,633,746,0
413740,340.77,633,747,0
413750,340.76,633,746,0
413760,343.91,633,747,0
413770,348.78,633,745,0
413780,355.75,633,747,0
413790,363.37,633,746,0
413800,372.04,633,747,0
413810,380.30,633,745,0
413820,388.65,633,747,0
413830,395.66,633,746,0
413840,402.10,633,747,0
413850,406.66,633,746,0
413860,410.10,633,747,0
413870,411.40,633,746,0
413880,411.54,633,747,0
413890,409.49,633,745,0
413900,406.60,633,747,0
413911,401.92,633,746,0
413921,396.97,633,747,0
413931,391.07,633,745,0
413941,385.35,633,747,0
413952,379.37,633,746,0
413961,374.20,633,747,0
413971,369.04,633,745,0
413981,364.87,633,747,0
413991,360.75,633,746,0
414001,357.61,633,747,0
414011,354.51,633,745,0
414021,352.35,633,747,0
414031,350.19,633,746,0
414041,349.44,633,748,0
414051,348.93,633,745,0
414061,349.55,633,747,0
414071,350.20,633,746,0
414081,352.37,633,747,0
414091,355.43,633,746,0
414101,360.96,633,747,0
414111,368.21,633,746,0
414121,379.29,633,747,0
414131,393.90,633,745,0
414141,413.86,633,747,0
414151,438.25,633,746,0
414161,467.40,633,747,0
414171,499.42,633,746,0
414181,533.75,633,747,0
414191,567.21,633,746,0
414211,599.12,702,745,0
414214,625.53,702,747,0
414223,646.41,702,747,0
414233,659.87,702,746,0
414243,665.74,702,747,0
414253,663.29,702,746,0
414263,654.12,702,747,0
414273,637.62,702,746,0
414283,616.78,702,747,0
414294,591.26,702,746,0
414303,563.28,702,747,0
414313,533.63,702,746,0
414323,503.91,702,747,0
414333,474.62,702,746,0
414343,447.82,702,747,0
414353,423.53,702,746,0
414363,402.84,702,747,0
414373,385.06,702,745,0
414383,371.29,702,747,0
414393,360.66,702,746,0
414403,353.73,702,747,0
414413,350.00,702,746,0
414423,349.23,702,747,0
414433,350.79,702,746,0
414443,354.79,702,747,0
414453,360.21,702,746,0
414464,367.13,702,747,0
414473,374.12,702,745,0
414483,380.90,702,747,0
414493,386.93,702,746,0
414503,392.18,702,747,0
414513,395.90,702,746,0
414523,398.54,702,747,0
414533,399.62,702,746,0
414543,400.04,702,747,0
414553,399.08,702,746,0
414563,397.47,702,747,0
414573,394.72,702,745,0
414583,391.54,702,747,0
414593,387.31,702,746,0
414603,382.93,702,747,0
414613,377.85,702,746,0
414623,372.92,702,747,0
414633,368.06,702,746,0
414643,363.63,702,747,0
414653,359.24,702,745,0
414663,355.87,702,747,0
414673,352.74,702,746,0
414683,350.67,702,747,0
414693,349.01,702,746,0
414703,348.02,702,747,0
414713,347.33,702,746,0
414723,347.75,702,747,0
414733,348.64,702,746,0
414743,350.59,702,747,0
414753,353.20,702,746,0
414764,357.42,702,747,0
414774,363.51,702,746,0
414784,372.49,702,747,0
414794,384.34,702,745,0
414804,400.10,702,747,0
414814,420.00,702,746,0
414824,444.60,702,747,0
414834,473.05,702,746,0
414844,504.62,702,747,0
414863,537.65,653,746,0
414866,569.68,653,747,0
414875,599.82,653,746,0
414885,626.23,653,747,0
414895,647.25,653,746,0
414905,661.62,653,746,0
414915,668.20,653,746,0
414925,667.11,653,747,0
414935,659.62,653,746,0
414945,645.21,653,747,0
414955,624.79,653,746,0
414965,599.39,653,747,0
414976,570.82,653,746,0
414985,540.87,653,747,0
414995,510.65,653,746,0
415005,481.31,653,747,0
415015,453.71,653,746,0
415025,428.94,653,747,0
415035,407.31,653,746,0
415045,389.05,653,747,0
415055,374.25,653,746,0
415065,363.03,653,747,0
415075,355.35,653,746,0
415085,351.13,653,747,0
415095,350.02,653,746,0
415105,351.81,653,747,0
415115,356.07,653,746,0
415125,362.05,653,747,0
415135,369.23,653,746,0
415145,377.18,653,747,0
415155,385.35,653,746,0
415165,393.18,653,747,0
415175,400.15,653,746,0
415185,405.81,653,747,0
415195,410.15,653,746,0
415205,412.89,653,747,0
415215,413.95,653,746,0
415225,413.15,653,747,0
415235,411.01,653,746,0
415245,407.88,653,747,0
415255,404.10,653,746,0
415265,399.65,653,747,0
415276,394.96,653,746,0
415286,390.09,653,747,0
415296,385.73,653,746,0
415306,381.57,653,747,0
415316,377.76,653,747,0
415326,374.06,653,747,0
415336,370.65,653,746,0
415346,367.76,653,747,0
415356,365.69,653,747,0
415366,364.58,653,747,0
415376,364.28,653,747,0
415386,364.15,653,747,0
415396,364.88,653,747,0
415406,366.59,653,747,0
415416,369.41,653,746,0
415426,373.40,653,747,0
415436,379.58,653,746,0
415447,388.66,653,746,0
415457,402.39,653,746,0
415467,420.75,653,746,0
415477,444.27,653,746,0
415488,472.21,653,746,0
415497,504.16,653,747,0
415516,537.42,653,745,0
415519,570.03,653,747,0
415528,600.07,653,747,0
415538,626.45,653,747,0
415548,646.46,653,746,0
415558,659.78,653,747,0
415568,664.81,653,746,0
415578,662.51,653,747,0
415588,653.19,653,746,0
415598,637.36,653,746,0
415608,615.09,653,746,0
415618,589.01,653,746,0
415628,559.74,653,746,0
415638,529.51,653,746,0
415648,498.59,653,746,0
415659,469.05,653,747,0
415668,441.40,653,746,0
415678,417.36,653,746,0
415688,396.98,653,747,0
415698,381.17,653,747,0
415708,368.82,653,746,0
415718,360.73,653,746,0
415728,355.88,653,746,0
415738,354.80,653,747,0
415748,356.06,653,746,0
415758,359.52,653,746,0
415768,363.95,653,746,0
415778,370.26,653,747,0
415788,377.26,653,746,0
415798,385.02,653,746,0
415808,392.17,653,746,0
415818,398.93,653,747,0
415828,404.18,653,746,0
415838,408.37,653,746,0
415848,410.70,653,746,0
415858,411.86,653,747,0
415868,411.35,653,746,0
415878,409.70,653,746,0
415888,406.53,653,746,0
415898,402.86,653,747,0
415908,398.14,653,746,0
415918,393.34,653,746,0
415928,387.84,653,746,0
415938,382.62,653,747,0
415948,377.29,653,746,0
415959,372.87,653,747,0
415969,368.54,653,746,0
415979,365.29,653,747,0
415989,362.08,653,746,0
416000,359.65,653,747,0
416009,357.23,653,746,0
416019,355.75,653,747,0
416029,354.24,653,746,0
416039,353.61,653,747,0
416049,352.95,653,746,0
416059,353.57,653,747,0
416069,354.68,653,746,0
416079,357.18,653,747,0
416089,360.12,653,746,0
416099,364.42,653,747,0
416109,368.58,653,746,0
416119,374.06,653,747,0
416129,379.70,653,746,0
416139,387.25,653,747,0
416149,396.34,653,746,0
416159,408.84,653,748,0
416169,424.62,653,746,0
416179,445.65,653,747,0
416189,470.70,653,746,0
416199,500.53,653,747,0
416209,532.98,653,746,0
416228,567.36,712,745,0
416231,600.51,712,746,0
416240,631.51,712,748,0
416250,658.40,712,746,0
416260,680.22,712,748,0
416270,695.11,712,746,0
416280,702.75,712,747,0
416290,702.23,712,746,0
416300,694.87,712,748,0
416310,680.04,712,746,0
416320,658.90,712,747,0
416330,631.71,712,746,0
416340,600.99,712,747,0
416350,567.60,712,746,0
416360,533.82,712,747,0
416370,499.80,712,746,0
416380,468.11,712,747,0
416390,438.46,712,746,0
416400,412.95,712,747,0
416410,390.81,712,745,0
416420,373.38,712,747,0
416430,360.15,712,746,0
416440,352.01,712,747,0
416450,347.68,712,745,0
416460,347.86,712,747,0
416471,351.16,712,746,0
416481,357.63,712,747,0
416491,365.62,712,745,0
416501,375.04,712,747,0
416512,384.63,712,746,0
416521,394.42,712,747,0
416531,403.04,712,745,0
416541,410.74,712,747,0
416551,416.52,712,746,0
416561,421.03,712,747,0
416571,423.30,712,745,0
416581,424.15,712,747,0
416591,422.86,712,746,0
416601,420.63,712,747,0
416611,416.76,712,745,0
416621,412.46,712,747,0
416631,407.14,712,746,0
416641,401.95,712,747,0
416651,396.35,712,745,0
416661,391.45,712,747,0
416671,386.56,712,746,0
416681,382.66,712,748,0
416691,378.90,712,746,0
416701,376.19,712,748,0
416711,373.69,712,746,0
416721,371.98,712,748,0
416731,370.23,712,746,0
416741,369.13,712,748,0
416751,367.72,712,746,0
416761,366.78,712,748,0
416771,365.47,712,746,0
416781,364.86,712,748,0
416791,364.17,712,746,0
416801,364.12,712,747,0
416812,363.91,712,746,0
416822,364.80,712,748,0
416832,366.49,712,746,0
416842,370.41,712,748,0
416852,376.33,712,746,0
416862,385.75,712,748,0
416872,398.89,712,746,0
416882,417.27,712,748,0
416892,440.63,712,746,0
416902,469.28,712,748,0
416912,501.68,712,746,0
416922,537.18,712,748,0
416942,573.17,713,746,0
416945,607.36,713,748,0
416954,638.32,713,747,0
416964,664.07,713,748,0
416974,682.78,713,746,0
416984,693.82,713,748,0
416994,696.53,713,747,0
417004,691.27,713,747,0
417014,679.15,713,746,0
417025,659.90,713,747,0
417035,635.12,713,747,0
417045,606.20,713,747,0
417055,574.72,713,747,0
417065,541.76,713,747,0
417075,509.22,713,747,0
417085,478.08,713,747,0
417095,449.56,713,747,0
417105,424.02,713,747,0
417115,402.16,713,747,0
417125,383.90,713,747,0
417135,369.83,713,747,0
417145,359.51,713,747,0
417155,353.05,713,747,0
417165,349.91,713,747,0
417175,350.07,713,747,0
417185,352.66,713,747,0
417196,357.48,713,747,0
417206,363.50,713,747,0
417216,370.55,713,747,0
417226,377.63,713,747,0
417236,384.73,713,747,0
417246,390.81,713,747,0
417256,396.09,713,747,0
417266,399.79,713,747,0
417276,402.30,713,747,0
417286,403.02,713,747,0
417296,402.63,713,747,0
417306,400.64,713,747,0
417316,397.92,713,747,0
417326,394.04,713,747,0
417336,389.92,713,747,0
417346,385.14,713,746,0
417356,380.60,713,747,0
417367,375.88,713,747,0
417377,371.71,713,747,0
417387,367.60,713,747,0
417397,364.29,713,747,0
417408,361.16,713,747,0
417417,358.93,713,747,0
417427,356.85,713,747,0
417437,355.65,713,747,0
417447,354.51,713,747,0
417457,354.10,713,747,0
417467,353.60,713,746,0
417477,353.81,713,747,0
417487,353.91,713,747,0
417497,354.71,713,747,0
417507,355.35,713,747,0
417517,356.96,713,747,0
417527,358.86,713,747,0
417537,362.07,713,747,0
417547,365.99,713,747,0
417557,372.12,713,747,0
417567,380.23,713,747,0
417577,391.95,713,748,0
417587,407.26,713,747,0
417597,427.80,713,748,0
417607,452.67,713,747,0
417617,482.21,713,748,0
417627,514.51,713,747,0
417646,549.15,705,746,0
417649,582.58,705,748,0
417658,614.38,705,748,0
417668,641.65,705,746,0
417678,663.74,705,748,0
417688,678.69,705,747,0
417698,686.75,705,748,0
417708,686.70,705,746,0
417718,680.45,705,747,0
417728,666.26,705,746,0
417738,645.82,705,748,0
417748,619.86,705,746,0
417758,591.15,705,748,0
417768,559.86,705,747,0
417778,527.93,705,748,0
417788,495.68,705,746,0
417798,465.73,705,747,0
417808,438.13,705,747,0
417818,414.09,705,748,0
417828,392.76,705,746,0
417838,375.39,705,747,0
417848,361.47,705,747,0
417858,351.99,705,748,0
417868,345.61,705,746,0
417879,343.07,705,748,0
417889,343.05,705,746,0
417899,346.12,705,748,0
417909,350.75,705,746,0
417920,357.39,705,747,0
417929,364.38,705,746,0
417939,372.24,705,748,0
417949,379.33,705,746,0
417959,386.30,705,747,0
417969,391.52,705,746,0
417979,395.87,705,748,0
417989,398.14,705,746,0
417999,399.38,705,747,0
418009,398.97,705,746,0
418019,397.82,705,748,0
418029,395.43,705,746,0
418039,392.60,705,747,0
418049,388.95,705,746,0
418059,385.41,705,748,0
418069,381.04,705,746,0
418079,376.66,705,748,0
418089,371.58,705,746,0
418099,366.99,705,748,0
418109,362.06,705,746,0
418119,357.63,705,748,0
418129,353.11,705,746,0
418139,349.78,705,748,0
418149,346.80,705,746,0
418159,345.10,705,747,0
418169,343.23,705,746,0
418179,342.60,705,748,0
418189,342.42,705,746,0
418199,343.15,705,747,0
418209,343.32,705,746,0
418220,343.57,705,747,0
418230,343.14,705,746,0
418240,342.93,705,747,0
418250,342.31,705,746,0
418260,341.83,705,747,0
418270,341.15,705,746,0
418280,341.58,705,747,0
418290,342.39,705,746,0
418300,344.24,705,747,0
418310,346.31,705,746,0
418320,348.96,705,747,0
418330,351.33,705,746,0
418340,354.27,705,747,0
418350,357.02,705,746,0
418360,360.91,705,747,0
418370,365.91,705,746,0
418380,373.65,705,748,0
418391,384.17,705,746,0
418401,399.29,705,747,0
418411,418.92,705,746,0
418421,444.10,705,747,0
418441,473.68,794,746,0
418444,506.74,794,748,0
418453,541.70,794,746,0
418463,577.19,794,747,0
418473,610.48,794,746,0
418483,639.90,794,747,0
418493,663.03,794,746,0
418503,678.84,794,747,0
418513,686.94,794,746,0
418523,686.79,794,747,0
418533,678.62,794,746,0
418543,663.27,794,747,0
418553,641.46,794,746,0
418563,615.05,794,747,0
418573,585.63,794,746,0
418583,554.54,794,747,0
418593,523.09,794,746,0
418604,492.64,794,747,0
418614,464.68,794,747,0
418624,439.96,794,747,0
418634,418.97,794,747,0
418644,401.15,794,746,0
418654,386.62,794,746,0
418664,375.16,794,747,0
418674,366.76,794,746,0
418684,360.83,794,746,0
418694,357.50,794,746,0
418704,356.23,794,747,0
418714,357.49,794,746,0
418724,360.69,794,746,0
418734,365.67,794,746,0
418744,371.77,794,747,0
418754,378.61,794,746,0
418764,385.33,794,746,0
418775,391.66,794,747,0
418785,396.77,794,747,0
418795,400.78,794,747,0
418805,402.95,794,746,0
418816,403.74,794,747,0
418825,402.70,794,747,0
418835,400.90,794,747,0
418845,397.68,794,746,0
418855,393.96,794,747,0
418865,389.56,794,747,0
418875,385.19,794,747,0
418885,380.25,794,746,0
418895,375.72,794,747,0
418905,370.83,794,747,0
418915,366.60,794,747,0
418925,362.39,794,746,0
418935,358.89,794,747,0
418945,356.05,794,747,0
418955,354.41,794,747,0
418965,352.83,794,746,0
418975,351.72,794,746,0
418985,350.48,794,747,0
418995,349.65,794,747,0
419005,348.68,794,746,0
419015,348.22,794,747,0
419025,347.51,794,747,0
419035,347.70,794,747,0
419045,348.30,794,747,0
419055,349.80,794,747,0
419065,351.83,794,747,0
419075,354.71,794,747,0
419085,357.88,794,747,0
419095,362.72,794,747,0
419105,368.97,794,747,0
419116,377.94,794,747,0
419126,390.09,794,746,0
419136,406.39,794,747,0
419146,427.01,794,747,0
419156,452.25,794,747,0
419166,480.89,794,747,0
419176,512.42,794,747,0
419195,544.61,755,746,0
419198,575.24,755,748,0
419207,603.24,755,747,0
419217,627.30,755,747,0
419227,645.12,755,746,0
419237,656.49,755,747,0
419247,660.07,755,746,0
419257,658.42,755,749,0
419267,649.55,755,746,0
419277,633.10,755,747,0
419287,609.84,755,746,0
419297,582.29,755,747,0
419307,551.00,755,746,0
419317,518.34,755,747,0
419328,483.18,755,745,0
419337,450.34,755,746,0
419347,420.54,755,746,0
419357,395.05,755,747,0
419367,373.61,755,745,0
419377,356.97,755,746,0
419387,344.38,755,746,0
419397,336.46,755,747,0
419407,332.08,755,745,0
419417,331.67,755,746,0
419427,333.83,755,746,0
419437,338.72,755,747,0
419447,345.23,755,745,0
419457,353.56,755,746,0
419467,362.22,755,746,0
419477,371.28,755,747,0
419487,379.47,755,745,0
419497,387.22,755,747,0
419507,393.19,755,745,0
419517,398.11,755,747,0
419527,401.12,755,746,0
419537,403.01,755,746,0
419547,403.01,755,746,0
419557,402.32,755,747,0
419567,400.30,755,746,0
419577,398.24,755,747,0
419587,395.51,755,746,0
419597,393.08,755,747,0
419607,390.14,755,746,0
419617,388.09,755,747,0
419628,385.70,755,746,0
419638,383.91,755,747,0
419648,381.49,755,746,0
419658,379.46,755,747,0
419668,376.88,755,746,0
419678,374.73,755,747,0
419688,371.77,755,746,0
419698,369.22,755,747,0
419708,366.28,755,746,0
419718,364.27,755,748,0
419728,362.05,755,746,0
419738,360.58,755,747,0
419748,359.12,755,746,0
419758,358.61,755,748,0
419768,358.04,755,746,0
419778,358.20,755,747,0
419788,358.01,755,746,0
419799,358.35,755,747,0
419809,358.42,755,746,0
419819,359.23,755,747,0
419829,360.36,755,746,0
419840,363.04,755,747,0
419849,367.19,755,746,0
419859,374.46,755,747,0
419869,384.74,755,746,0
419879,399.94,755,747,0
419889,419.46,755,746,0
419899,444.27,755,747,0
419909,473.11,755,746,0
419929,505.91,733,745,0
419932,539.66,733,747,0
419941,574.27,733,747,0
419951,606.63,733,746,0
419961,635.54,733,747,0
419971,658.69,733,746,0
419981,675.71,733,747,0
419991,684.80,733,746,0
420001,686.96,733,747,0
420012,681.10,733,746,0
420022,668.47,733,747,0
420032,649.60,733,746,0
420042,625.76,733,747,0
420052,597.98,733,746,0
420062,568.41,733,747,0
420072,538.07,733,746,0
420082,508.40,733,747,0
420092,479.86,733,746,0
420102,453.76,733,747,0
420112,430.39,733,746,0
420122,410.09,733,747,0
420132,392.79,733,746,0
420142,378.71,733,747,0
420152,367.95,733,746,0
420162,360.72,733,747,0
420172,356.91,733,746,0
420183,356.16,733,747,0
420193,358.13,733,746,0
420203,362.12,733,747,0
420213,367.91,733,746,0
420224,374.50,733,746,0
420233,381.42,733,746,0
420243,387.94,733,747,0
420253,393.95,733,746,0
420263,399.28,733,746,0
420273,403.66,733,746,0
420283,406.63,733,747,0
420293,408.50,733,746,0
420303,409.16,733,746,0
420313,408.60,733,746,0
420323,406.96,733,747,0
420333,404.49,733,746,0
420343,401.21,733,747,0
420353,397.63,733,746,0
420363,393.67,733,747,0
420373,389.61,733,746,0
420383,385.49,733,747,0
420393,381.87,733,746,0
420403,378.18,733,747,0
420413,374.91,733,746,0
420423,372.02,733,747,0
420433,369.53,733,746,0
420443,367.14,733,747,0
420453,365.17,733,746,0
420463,363.23,733,747,0
420473,361.62,733,746,0
420483,360.19,733,747,0
420493,358.76,733,746,0
420503,357.42,733,747,0
420513,356.78,733,746,0
420524,356.33,733,747,0
420534,356.53,733,747,0
420544,356.84,733,746,0
420554,357.66,733,746,0
420564,358.62,733,746,0
420574,360.28,733,747,0
420584,361.99,733,746,0
420594,365.00,733,746,0
420604,369.07,733,746,0
420614,375.69,733,746,0
420624,385.17,733,746,0
420634,399.00,733,746,0
420644,417.30,733,746,0
420654,440.83,733,746,0
420664,468.91,733,746,0
420674,500.99,733,746,0
420694,535.28,765,745,0
420697,569.78,765,748,0
420706,602.63,765,746,0
420716,632.19,765,746,0
420726,656.00,765,746,0
420737,673.06,765,747,0
420747,681.96,765,746,0
420757,683.04,765,747,0
420767,676.43,765,746,0
420777,662.67,765,747,0
420787,642.28,765,745,0
420797,617.26,765,746,0
420807,588.46,765,745,0
420817,558.15,765,747,0
420827,527.29,765,746,0
420837,497.63,765,747,0
420847,469.33,765,746,0
420857,443.86,765,747,0
420867,421.06,765,746,0
420877,402.01,765,747,0
420887,386.07,765,745,0
420897,373.83,765,747,0
420908,364.71,765,746,0
420918,359.44,765,746,0
420928,356.95,765,745,0
420938,357.87,765,747,0
420948,360.82,765,745,0
420958,366.32,765,746,0
420968,372.69,765,746,0
420978,380.50,765,747,0
420988,387.85,765,745,0
420998,395.22,765,746,0
421008,401.24,765,745,0
421018,406.23,765,747,0
421028,409.20,765,745,0
421038,410.90,765,747,0
421048,410.33,765,746,0
421058,408.82,765,747,0
421068,405.74,765,745,0
421079,402.05,765,746,0
421089,397.71,765,746,0
421099,393.17,765,747,0
421109,388.10,765,745,0
421120,383.14,765,746,0
421129,378.26,765,746,0
421139,373.89,765,747,0
421149,369.47,765,745,0
421159,365.56,765,746,0
421169,361.79,765,746,0
421179,359.07,765,747,0
421189,356.69,765,745,0
421199,354.98,765,747,0
421209,353.40,765,745,0
421219,352.77,765,747,0
421229,352.37,765,745,0
421239,352.68,765,747,0
421249,353.08,765,745,0
421259,354.38,765,747,0
421269,356.07,765,745,0
421279,359.09,765,746,0
421289,363.52,765,745,0
421299,370.39,765,747,0
421309,380.13,765,745,0
421319,394.06,765,747,0
421329,412.43,765,745,0
421339,436.09,765,747,0
421349,464.26,765,745,0
421359,496.71,765,747,0
421369,531.56,765,746,0
421388,567.56,695,744,0
421391,601.25,695,747,0
421400,632.33,695,747,0
421410,658.03,695,745,0
421420,677.82,695,747,0
421430,689.75,695,746,0
421440,693.72,695,747,0
421450,689.22,695,745,0
421460,678.10,695,747,0
421470,659.81,695,746,0
421480,636.04,695,747,0
421490,607.36,695,745,0
421500,575.88,695,747,0
421510,543.00,695,746,0
421520,510.60,695,747,0
421530,479.22,695,746,0
421540,450.23,695,747,0
421550,424.01,695,746,0
421560,402.07,695,747,0
421570,383.75,695,745,0
421580,369.64,695,747,0
421591,359.20,695,746,0
421601,352.93,695,747,0
421611,349.86,695,746,0
421621,350.29,695,747,0
421632,352.82,695,746,0
421641,357.80,695,747,0
421651,364.37,695,746,0
421661,372.15,695,747,0
421671,381.19,695,747,0
421681,391.16,695,748,0
421691,401.01,695,746,0
421701,410.31,695,748,0
421711,418.53,695,747,0
421721,425.19,695,748,0
421731,430.06,695,746,0
421741,431.84,695,747,0
421751,429.87,695,746,0
421761,424.85,695,747,0
421771,417.31,695,745,0
421781,407.88,695,747,0
421791,397.11,695,746,0
421801,385.81,695,747,0
421811,374.77,695,745,0
421821,365.19,695,747,0
421831,357.21,695,746,0
421841,351.10,695,747,0
421851,346.70,695,746,0
421861,343.96,695,747,0
421871,342.69,695,746,0
421881,342.52,695,747,0
421891,343.01,695,746,0
421901,344.16,695,747,0
421911,345.53,695,746,0
421921,347.00,695,747,0
421932,348.46,695,746,0
421942,349.78,695,747,0
421952,351.22,695,746,0
421962,352.74,695,747,0
421972,354.27,695,746,0
421982,355.86,695,747,0
421992,357.70,695,747,0
422002,360.02,695,747,0
422012,363.44,695,746,0
422022,368.28,695,747,0
422032,375.65,695,746,0
422042,386.47,695,747,0
422052,401.29,695,746,0
422062,420.74,695,747,0
422072,445.21,695,746,0
422082,474.07,695,747,0
422092,506.92,695,746,0
422103,541.87,695,747,0
422113,577.01,695,747,0
422132,610.61,744,746,0
422135,640.04,744,748,0
422145,663.77,744,747,0
422155,680.68,744,747,0
422165,689.05,744,746,0
422175,689.16,744,747,0
422185,681.10,744,746,0
422195,665.68,744,747,0
422205,643.96,744,746,0
422215,617.40,744,747,0
422225,586.98,744,746,0
422235,555.36,744,747,0
422245,523.02,744,746,0
422255,491.69,744,747,0
422265,461.78,744,746,0
422275,435.10,744,747,0
422285,411.24,744,746,0
422295,391.33,744,747,0
422305,374.47,744,746,0
422316,361.90,744,747,0
422326,352.76,744,746,0
422336,347.73,744,747,0
422346,345.63,744,746,0
422356,347.02,744,747,0
422366,350.57,744,746,0
422376,356.53,744,747,0
422386,363.31,744,746,0
422396,371.15,744,747,0
422406,378.78,744,746,0
422416,386.51,744,747,0
422426,393.09,744,746,0
422436,398.89,744,747,0
422446,403.12,744,747,0
422456,406.26,744,747,0
422466,407.25,744,746,0
422476,407.18,744,747,0
422487,405.11,744,746,0
422497,402.29,744,747,0
422507,398.05,744,746,0
422517,393.23,744,747,0
422528,387.46,744,746,0
422537,382.10,744,747,0
422547,376.58,744,746,0
422557,371.86,744,747,0
422567,366.98,744,746,0
422577,363.17,744,748,0
422587,359.60,744,746,0
422597,357.07,744,747,0
422607,354.65,744,746,0
422617,352.82,744,747,0
422627,351.12,744,746,0
422637,350.23,744,747,0
422647,349.17,744,746,0
422657,348.78,744,747,0
422667,348.42,744,746,0
422677,349.15,744,747,0
422687,350.30,744,746,0
422697,353.21,744,747,0
422707,357.61,744,746,0
422717,365.22,744,747,0
422727,375.96,744,746,0
422737,391.31,744,748,0
422747,410.46,744,746,0
422757,434.58,744,747,0
422767,462.26,744,746,0
422777,493.51,744,748,0
422787,525.84,744,746,0
422797,558.29,744,747,0
422816,588.12,684,746,0
422819,613.41,684,749,0
422828,633.00,684,745,0
422838,646.24,684,747,0
422848,651.66,684,746,0
422858,649.79,684,747,0
422868,640.34,684,745,0
422878,624.89,684,747,0
422888,604.65,684,746,0
422898,580.37,684,747,0
422908,552.83,684,745,0
422918,524.21,684,747,0
422928,495.00,684,746,0
422938,466.97,684,747,0
422948,440.11,684,745,0
422958,416.21,684,748,0
422968,394.80,684,746,0
422978,376.99,684,747,0
422988,362.16,684,745,0
422999,351.14,684,747,0
423009,343.30,684,746,0
423019,339.18,684,747,0
423029,337.71,684,745,0
423040,339.21,684,747,0
423049,342.71,684,746,0
423059,348.24,684,747,0
423069,354.89,684,746,0
423079,362.38,684,747,0
423089,369.73,684,746,0
423099,376.92,684,747,0
423109,383.12,684,745,0
423119,388.44,684,747,0
423129,392.21,684,746,0
423139,394.80,684,747,0
423149,395.68,684,746,0
423159,395.47,684,747,0
423169,393.70,684,746,0
423179,391.18,684,747,0
423189,387.52,684,746,0
423199,383.42,684,747,0
423209,378.54,684,746,0
423219,373.79,684,747,0
423229,368.93,684,746,0
423239,364.41,684,747,0
423249,360.08,684,746,0
423259,356.42,684,747,0
423269,353.21,684,746,0
423279,350.70,684,747,0
423289,348.39,684,746,0
423299,346.60,684,747,0
423309,345.14,684,746,0
423319,344.24,684,747,0
423329,343.57,684,746,0
423340,343.31,684,747,0
423350,343.30,684,746,0
423360,344.24,684,747,0
423370,345.80,684,746,0
423380,348.73,684,747,0
423390,353.18,684,746,0
423400,360.46,684,747,0
423410,370.99,684,746,0
423420,385.74,684,747,0
423430,404.76,684,746,0
423440,428.40,684,747,0
423450,456.40,684,746,0
423460,487.86,684,747,0
423470,521.12,684,746,0
423489,554.64,673,745,0
423492,585.52,673,747,0
423501,612.66,673,747,0
423511,634.79,673,746,0
423521,650.41,673,747,0
423531,658.65,673,746,0
423541,659.14,673,747,0
423552,652.28,673,746,0
423561,639.60,673,747,0
423571,621.12,673,746,0
423581,597.64,673,747,0
423591,570.75,673,746,0
423601,541.98,673,747,0
423611,512.67,673,746,0
423621,483.71,673,747,0
423631,456.03,673,746,0
423641,430.73,673,746,0
423651,408.40,673,746,0
423661,389.17,673,747,0
423671,373.30,673,746,0
423681,360.83,673,747,0
423691,351.83,673,746,0
423701,346.10,673,747,0
423711,343.41,673,746,0
423721,343.29,673,746,0
423731,345.69,673,746,0
423741,349.81,673,747,0
423751,355.31,673,746,0
423761,361.60,673,746,0
423771,368.28,673,746,0
423781,374.84,673,747,0
423791,381.10,673,746,0
423801,386.34,673,746,0
423811,390.70,673,746,0
423821,393.87,673,747,0
423831,395.84,673,746,0
423841,396.45,673,746,0
423852,396.23,673,746,0
423862,394.70,673,747,0
423872,392.43,673,747,0
423882,389.09,673,746,0
423892,385.33,673,747,0
423902,380.95,673,747,0
423912,376.85,673,747,0
423922,371.97,673,746,0
423932,367.43,673,747,0
423942,362.85,673,747,0
423952,358.99,673,747,0
423962,355.27,673,746,0
423972,352.31,673,747,0
423982,349.39,673,747,0
423992,347.35,673,746,0
424002,345.61,673,746,0
424012,344.70,673,747,0
424023,344.06,673,746,0
424033,344.21,673,746,0
424043,344.66,673,746,0
424053,346.14,673,747,0
424064,348.45,673,746,0
424073,352.65,673,747,0
424083,358.79,673,746,0
424093,368.16,673,747,0
424103,380.80,673,746,0
424113,397.91,673,747,0
424123,419.20,673,746,0
424133,445.37,673,747,0
424143,474.91,673,746,0
424153,507.17,673,747,0
424172,539.90,683,745,0
424175,571.56,683,749,0
424184,599.94,683,746,0
424194,624.04,683,747,0
424204,641.56,683,746,0
424214,652.49,683,747,0
424224,655.69,683,746,0
424235,652.01,683,747,0
424244,641.68,683,746,0
424254,625.87,683,747,0
424264,604.74,683,746,0
424274,580.22,683,747,0
424284,552.51,683,746,0
424294,523.60,683,746,0
424304,493.72,683,746,0
424314,464.92,683,747,0
424324,437.39,683,746,0
424334,412.88,683,747,0
424344,391.15,683,746,0
424354,373.66,683,747,0
424364,359.92,683,746,0
424374,350.86,683,746,0
424384,345.29,683,746,0
424394,343.74,683,747,0
424404,344.81,683,746,0
424414,348.76,683,746,0
424424,354.19,683,746,0
424434,361.12,683,747,0
424444,368.24,683,745,0
424454,375.71,683,746,0
424464,382.44,683,746,0
424474,388.65,683,747,0
424484,393.30,683,746,0
424494,396.98,683,746,0
424504,398.92,683,746,0
424514,400.05,683,747,0
424524,399.61,683,746,0
424535,398.40,683,746,0
424545,395.79,683,745,0
424555,393.28,683,747,0
424565,389.68,683,746,0
424576,386.18,683,747,0
424585,381.75,683,745,0
424595,377.71,683,747,0
424605,373.13,683,745,0
424615,369.19,683,746,0
424625,364.68,683,746,0
424635,361.09,683,747,0
424645,357.55,683,745,0
424655,355.28,683,747,0
424665,353.23,683,746,0
424675,352.22,683,747,0
424685,351.29,683,746,0
424695,351.38,683,747,0
424705,353.11,683,746,0
424715,355.26,683,747,0
424725,356.98,683,745,0
424735,360.16,683,746,0
424745,364.91,683,745,0
424755,373.04,683,747,0
424765,384.21,683,745,0
424775,398.55,683,746,0
424785,417.71,683,745,0
424795,442.40,683,747,0
424805,470.56,683,745,0
424824,501.60,652,744,0
424827,532.40,652,746,0
424836,563.01,652,747,0
424846,590.09,652,745,0
424856,612.69,652,746,0
424866,628.73,652,745,0
424876,638.24,652,747,0
424886,640.14,652,745,0
424896,635.51,652,746,0
424906,623.27,652,745,0
424916,605.53,652,747,0
424926,583.22,652,745,0
424936,558.25,652,746,0
424946,530.83,652,745,0
424956,503.07,652,747,0
424966,475.66,652,745,0
424976,450.26,652,747,0
424986,426.61,652,745,0
424996,405.94,652,747,0
425006,387.53,652,745,0
425016,372.89,652,747,0
425026,361.09,652,745,0
425036,352.96,652,747,0
425047,347.58,652,745,0
425057,345.86,652,747,0
425067,346.59,652,745,0
425077,350.35,652,747,0
425088,355.91,652,745,0
425097,363.30,652,747,0
425107,371.10,652,745,0
425117,379.47,652,747,0
425127,387.26,652,745,0
425137,394.34,652,747,0
425147,399.98,652,745,0
425157,404.27,652,747,0
425167,406.63,652,745,0
425177,407.81,652,747,0
425187,407.14,652,745,0
425197,405.26,652,747,0
425207,401.84,652,745,0
425217,397.64,652,747,0
425227,392.39,652,745,0
425237,387.05,652,747,0
425247,381.08,652,745,0
425257,375.52,652,746,0
425267,369.92,652,745,0
425277,365.10,652,747,0
425287,360.53,652,745,0
425297,356.94,652,747,0
425307,354.00,652,745,0
425317,352.07,652,747,0
425327,350.77,652,745,0
425337,350.28,652,747,0
425347,349.98,652,745,0
425357,350.50,652,747,0
425367,350.95,652,745,0
425377,351.57,652,747,0
425388,352.17,652,745,0
425398,353.40,652,747,0
425408,355.17,652,745,0
425418,358.80,652,747,0
425428,363.96,652,745,0
425438,371.99,652,747,0
425448,383.05,652,745,0
425458,398.51,652,747,0
425468,418.11,652,745,0
425478,442.42,652,747,0
425488,470.11,652,746,0
425498,500.93,652,747,0
425508,533.14,652,745,0
425518,565.50,652,747,0
425537,595.35,713,745,0
425540,620.32,713,748,0
425549,639.76,713,745,0
425559,652.91,713,747,0
425569,658.76,713,745,0
425579,657.46,713,746,0
425589,649.10,713,745,0
425600,634.62,713,746,0
425609,615.88,713,745,0
425619,592.99,713,746,0
425629,567.02,713,745,0
425639,539.46,713,746,0
425649,511.33,713,745,0
425659,483.81,713,746,0
425669,457.68,713,745,0
425679,433.65,713,746,0
425689,412.24,713,745,0
425699,394.04,713,746,0
425709,378.98,713,745,0
425719,367.37,713,746,0
425729,359.12,713,745,0
425739,354.28,713,746,0
425749,352.61,713,745,0
425759,353.67,713,746,0
425769,357.03,713,746,0
425779,362.16,713,747,0
425789,368.41,713,745,0
425799,375.36,713,746,0
425809,382.32,713,745,0
425819,388.96,713,747,0
425829,394.71,713,745,0
425839,399.21,713,746,0
425849,402.45,713,746,0
425859,404.54,713,747,0
425869,405.28,713,745,0
425879,404.77,713,746,0
425889,402.91,713,745,0
425900,400.28,713,747,0
425910,396.81,713,745,0
425920,392.84,713,746,0
425930,388.34,713,746,0
425940,383.35,713,746,0
425950,378.41,713,746,0
425960,373.53,713,746,0
425970,368.91,713,746,0
425980,364.61,713,746,0
425990,360.91,713,745,0
426000,357.98,713,746,0
426010,356.06,713,746,0
426020,354.63,713,746,0
426030,354.18,713,746,0
426040,354.00,713,746,0
426050,354.34,713,746,0
426060,354.80,713,746,0
426071,355.46,713,746,0
426081,356.26,713,746,0
426091,357.98,713,746,0
426101,360.52,713,746,0
426112,365.38,713,746,0
426121,372.89,713,746,0
426131,384.07,713,746,0
426141,399.22,713,746,0
426151,419.30,713,746,0
426161,443.64,713,746,0
426171,472.16,713,746,0
426181,503.14,713,746,0
426191,535.63,713,746,0
426210,567.41,673,744,0
426213,596.17,673,746,0
426222,620.21,673,746,0
426232,638.79,673,746,0
426242,650.38,673,746,0
426252,655.11,673,746,0
426262,652.20,673,746,0
426272,642.63,673,746,0
426283,627.23,673,745,0
426292,607.14,673,746,0
426302,582.76,673,746,0
426312,556.00,673,746,0
426322,527.33,673,745,0
426332,498.90,673,746,0
426342,470.99,673,746,0
426352,445.28,673,746,0
426362,421.58,673,745,0
426372,401.18,673,746,0
426382,383.64,673,746,0
426392,369.99,673,746,0
426402,359.36,673,745,0
426412,352.57,673,746,0
426422,348.67,673,745,0
426432,348.13,673,746,0
426442,349.76,673,745,0
426452,353.95,673,746,0
426462,359.28,673,745,0
426472,366.05,673,746,0
426482,372.85,673,745,0
426492,380.05,673,746,0
426502,386.42,673,746,0
426512,392.42,673,746,0
426522,396.93,673,745,0
426532,400.63,673,746,0
426542,402.76,673,746,0
426552,403.90,673,746,0
426562,403.37,673,745,0
426572,403.05,673,747,0
426583,402.60,673,746,0
426593,402.64,673,747,0
426603,402.15,673,745,0
426613,401.42,673,747,0
426624,399.66,673,745,0
426633,397.75,673,746,0
426643,393.88,673,745,0
426653,388.90,673,746,0
426663,382.38,673,745,0
426673,375.88,673,746,0
426683,369.23,673,745,0
426693,363.76,673,747,0
426703,358.99,673,746,0
426713,355.65,673,746,0
426723,352.58,673,745,0
426733,350.74,673,746,0
426743,349.10,673,745,0
426753,348.86,673,746,0
426763,349.59,673,745,0
426773,352.41,673,746,0
426783,357.52,673,745,0
426793,366.58,673,747,0
426803,379.35,673,745,0
426813,397.58,673,747,0
426823,420.59,673,746,0
426833,449.17,673,747,0
426852,481.01,642,745,0
426855,514.82,642,747,0
426864,549.12,642,746,0
426874,583.28,642,747,0
426884,613.24,642,745,0
426894,637.90,642,747,0
426904,654.34,642,745,0
426914,663.50,642,747,0
426924,665.58,642,745,0
426934,660.00,642,747,0
426944,645.95,642,745,0
426954,626.08,642,747,0
426964,601.20,642,745,0
426974,573.97,642,746,0
426984,544.70,642,745,0
426994,514.62,642,747,0
427004,484.61,642,746,0
427014,456.78,642,747,0
427024,431.05,642,745,0
427034,408.62,642,747,0
427044,388.80,642,745,0
427054,372.96,642,746,0
427064,360.12,642,745,0
427074,351.21,642,747,0
427084,345.15,642,745,0
427095,342.79,642,747,0
427105,342.64,642,745,0
427115,345.53,642,747,0
427125,349.44,642,745,0
427136,355.23,642,746,0
427145,361.37,642,745,0
427155,368.37,642,747,0
427165,374.86,642,745,0
427175,381.33,642,746,0
427185,386.29,642,745,0
427195,390.66,642,746,0
427205,393.46,642,745,0
427215,395.38,642,746,0
427225,395.65,642,745,0
427235,395.07,642,747,0
427245,392.95,642,745,0
427255,390.31,642,746,0
427265,386.53,642,745,0
427275,382.64,642,746,0
427285,378.08,642,745,0
427295,373.85,642,746,0
427305,369.14,642,745,0
427315,365.54,642,747,0
427325,361.95,642,745,0
427335,359.14,642,746,0
427345,356.40,642,745,0
427355,354.56,642,746,0
427365,352.81,642,745,0
427375,351.88,642,746,0
427385,350.84,642,745,0
427395,350.51,642,747,0
427405,350.18,642,745,0
427415,350.77,642,746,0
427425,351.40,642,745,0
427436,353.72,642,747,0
427446,357.45,642,746,0
427456,362.76,642,747,0
427466,369.34,642,746,0
427476,378.24,642,748,0
427486,389.23,642,746,0
427496,403.64,642,747,0
427506,420.25,642,746,0
427516,439.93,642,748,0
427526,462.32,642,746,0
427536,488.11,642,748,0
427546,515.81,642,746,0
427566,544.54,713,744,0
427569,570.56,713,747,0
427578,593.96,713,746,0
427588,612.53,713,745,0
427598,625.79,713,746,0
427608,632.45,713,745,0
427618,633.00,713,746,0
427628,627.30,713,746,0
427638,617.61,713,746,0
427649,603.11,713,745,0
427659,584.86,713,746,0
427669,563.95,713,746,0
427679,541.42,713,746,0
427689,517.64,713,746,0
427699,493.40,713,746,0
427709,469.71,713,745,0
427719,447.43,713,747,0
427729,427.50,713,746,0
427739,409.69,713,746,0
427749,394.53,713,745,0
427759,382.03,713,746,0
427769,372.63,713,746,0
427779,366.01,713,746,0
427789,362.24,713,745,0
427799,360.97,713,746,0
427809,362.43,713,746,0
427820,365.56,713,746,0
427830,370.28,713,746,0
427840,375.72,713,746,0
427850,381.85,713,746,0
427860,387.98,713,746,0
427870,393.77,713,746,0
427880,398.55,713,746,0
427890,402.55,713,746,0
427900,405.64,713,746,0
427910,407.63,713,746,0
427920,408.21,713,746,0
427930,408.88,713,747,0
427940,408.62,713,746,0
427950,407.23,713,746,0
427960,404.38,713,746,0
427970,400.96,713,746,0
427980,396.47,713,746,0
427991,391.87,713,746,0
428001,385.48,713,746,0
428011,378.95,713,746,0
428021,372.24,713,745,0
428032,366.42,713,746,0
428041,360.51,713,746,0
428051,355.99,713,746,0
428061,351.96,713,746,0
428071,349.32,713,746,0
428081,347.16,713,746,0
428091,346.47,713,746,0
428101,346.93,713,746,0
428111,349.22,713,746,0
428121,352.84,713,746,0
428131,359.19,713,746,0
428141,368.13,713,746,0
428151,381.12,713,746,0
428161,397.80,713,746,0
428171,419.03,713,746,0
428181,443.92,713,746,0
428191,472.62,713,746,0
428211,502.99,645,745,0
428214,533.81,645,747,0
428223,563.39,645,745,0
428233,590.53,645,747,0
428243,612.32,645,745,0
428253,629.19,645,747,0
428263,638.69,645,745,0
428273,641.23,645,746,0
428283,636.49,645,745,0
428293,625.07,645,747,0
428303,607.31,645,745,0
428313,585.57,645,747,0
428323,559.43,645,745,0
428333,531.91,645,746,0
428343,503.61,645,746,0
428353,477.11,645,747,0
428363,452.39,645,746,0
428374,431.02,645,747,0
428383,412.41,645,746,0
428393,397.59,645,747,0
428403,385.67,645,746,0
428413,377.11,645,747,0
428423,370.52,645,746,0
428433,366.59,645,746,0
428443,364.10,645,745,0
428453,363.64,645,747,0
428463,364.26,645,745,0
428473,366.58,645,746,0
428483,369.84,645,745,0
428493,374.30,645,747,0
428503,378.62,645,745,0
428513,383.45,645,746,0
428523,387.64,645,745,0
428533,391.65,645,747,0
428544,394.24,645,745,0
428553,396.01,645,746,0
428563,396.31,645,745,0
428573,396.09,645,747,0
428583,394.60,645,745,0
428593,392.67,645,746,0
428603,389.72,645,745,0
428613,386.89,645,747,0
428623,383.37,645,745,0
428633,380.13,645,746,0
428643,376.28,645,745,0
428653,372.94,645,746,0
428663,369.27,645,745,0
428673,366.27,645,746,0
428683,363.15,645,745,0
428693,360.79,645,747,0
428703,358.28,645,745,0
428713,356.65,645,746,0
428723,354.92,645,745,0
428733,354.08,645,747,0
428743,353.20,645,745,0
428753,353.18,645,746,0
428763,353.21,645,745,0
428773,354.18,645,747,0
428783,354.98,645,745,0
428793,356.62,645,746,0
428803,358.19,645,745,0
428813,360.83,645,747,0
428823,364.05,645,746,0
428833,369.44,645,747,0
428844,376.98,645,745,0
428854,388.56,645,747,0
428864,403.95,645,745,0
428874,424.79,645,746,0
428884,450.18,645,745,0
428894,480.26,645,747,0
428913,512.88,703,745,0
428916,546.64,703,747,0
428925,579.49,703,745,0
428935,610.42,703,747,0
428945,636.43,703,745,0
428955,656.75,703,747,0
428965,669.64,703,745,0
428975,675.53,703,747,0
428985,674.09,703,745,0
428995,665.70,703,747,0
429005,650.28,703,745,0
429015,629.79,703,747,0
429025,604.78,703,745,0
429035,577.38,703,747,0
429045,548.08,703,745,0
429056,518.74,703,747,0
429065,489.93,703,745,0
429075,463.34,703,747,0
429085,438.77,703,745,0
429095,417.54,703,746,0
429105,399.20,703,745,0
429115,384.70,703,747,0
429125,373.65,703,745,0
429135,366.72,703,746,0
429145,362.86,703,745,0
429155,362.39,703,747,0
429165,364.12,703,744,0
429175,368.15,703,746,0
429185,373.16,703,745,0
429195,379.33,703,747,0
429205,385.32,703,744,0
429215,391.52,703,747,0
429225,396.89,703,745,0
429235,402.03,703,746,0
429245,405.79,703,744,0
429255,408.81,703,746,0
429265,410.15,703,745,0
429275,410.71,703,747,0
429285,409.47,703,744,0
429295,407.40,703,747,0
429305,403.72,703,745,0
429315,399.82,703,746,0
429325,395.03,703,747,0
429335,390.18,703,748,0
429345,384.60,703,749,0
429356,378.89,703,753,0
429366,373.14,703,756,0
429376,367.57,703,747,0
429386,362.47,703,746,0
429396,358.47,703,746,0
429406,355.20,703,745,0
429416,353.17,703,746,0
429426,352.43,703,745,0
429436,352.52,703,746,0
429446,353.60,703,745,0
429456,355.05,703,746,0
429466,356.45,703,745,0
429476,358.33,703,746,0
429486,360.20,703,745,0
429496,362.67,703,746,0
429506,366.15,703,745,0
429516,371.72,703,746,0
429527,379.56,703,744,0
429537,390.92,703,746,0
429547,406.12,703,745,0
429557,426.22,703,746,0
429568,450.80,703,745,0
429577,479.57,703,746,0
429587,511.29,703,745,0
429597,544.46,703,746,0
429607,577.06,703,745,0
429626,607.26,713,744,0
429629,632.21,713,747,0
429638,651.65,713,746,0
429648,664.05,713,745,0
429658,668.79,713,746,0
429668,666.41,713,745,0
429678,656.90,713,746,0
429688,641.03,713,745,0
429698,620.58,713,746,0
429708,595.85,713,745,0
429718,568.55,713,746,0
429728,539.89,713,745,0
429739,510.73,713,746,0
429748,482.66,713,745,0
429758,456.45,713,746,0
429768,433.04,713,745,0
429778,412.93,713,746,0
429788,396.24,713,745,0
429798,383.09,713,746,0
429808,373.77,713,745,0
429818,368.01,713,746,0
429828,365.69,713,745,0
429838,366.17,713,746,0
429848,368.95,713,745,0
429858,373.55,713,746,0
429868,379.56,713,745,0
429878,386.16,713,746,0
429888,392.88,713,745,0
429898,399.09,713,745,0
429908,405.23,713,746,0
429918,410.95,713,746,0
429928,416.28,713,746,0
429938,421.08,713,746,0
429948,424.87,713,746,0
429958,426.71,713,746,0
429968,426.50,713,745,0
429978,423.69,713,746,0
429988,418.55,713,745,0
429998,411.23,713,746,0
430008,402.12,713,745,0
430018,391.88,713,745,0
430028,382.28,713,746,0
430039,373.49,713,746,0
430049,366.10,713,746,0
430059,359.86,713,745,0
430069,355.31,713,746,0
430080,351.75,713,745,0
430089,349.60,713,745,0
430099,348.43,713,745,0
430109,348.52,713,746,0
430119,349.18,713,746,0
430129,351.31,713,746,0
430139,354.26,713,745,0
430149,359.15,713,746,0
430159,366.18,713,746,0
430169,375.90,713,746,0
430179,388.96,713,745,0
430189,406.58,713,746,0
430199,428.74,713,746,0
430209,455.26,713,745,0
430219,485.14,713,745,0
430229,517.71,713,746,0
430239,550.97,713,745,0
430249,583.55,713,746,0
430259,612.66,713,745,0
430269,636.76,713,746,0
430279,654.45,713,746,0
430299,665.50,672,744,0
430302,667.19,672,745,0
430311,662.29,672,746,0
430321,650.55,672,745,0
430331,634.01,672,746,0
430341,612.84,672,745,0
430351,588.89,672,746,0
430361,561.45,672,745,0
430371,534.10,672,746,0
430381,505.31,672,745,0
430391,477.02,672,746,0
430401,449.11,672,745,0
430411,423.45,672,746,0
430422,399.83,672,745,0
430431,380.72,672,746,0
430441,365.55,672,745,0
430451,355.31,672,746,0
430461,349.26,672,745,0
430471,347.60,672,746,0
430481,348.96,672,745,0
430491,354.07,672,747,0
430501,360.95,672,747,0
430511,370.01,672,749,0
430521,379.26,672,748,0
430531,388.48,672,759,0
430541,396.10,672,752,0
430551,402.24,672,760,0
430561,405.72,672,755,0
430571,407.18,672,760,0
430581,405.84,672,756,0
430592,402.80,672,760,0
430601,398.10,672,756,0
430611,392.84,672,760,0
430621,386.81,672,756,0
430631,380.82,672,760,0
430641,375.90,672,746,0
430651,372.89,672,746,0
430661,371.08,672,745,0
430671,370.58,672,746,0
430681,370.79,672,745,0
430691,372.14,672,746,0
430701,373.34,672,745,0
430711,374.35,672,746,0
430721,373.56,672,745,0
430731,372.36,672,746,0
430741,369.86,672,745,0
430751,367.03,672,746,0
430761,363.29,672,745,0
430771,360.16,672,746,0
430781,356.38,672,745,0
430791,353.61,672,746,0
430801,350.64,672,745,0
430811,348.91,672,746,0
430821,347.86,672,745,0
430831,349.19,672,745,0
430841,352.52,672,745,0
430851,359.52,672,746,0
430861,369.91,672,745,0
430871,385.58,672,746,0
430881,406.02,672,745,0
430892,432.41,672,746,0
430902,462.97,672,745,0
430912,497.65,672,746,0
430931,533.71,633,745,0
430935,569.71,633,747,0
430943,603.40,633,746,0
430953,633.41,633,746,0
430963,656.60,633,745,0
430973,673.43,633,747,0
430983,682.30,633,745,0
430993,684.01,633,746,0
431003,678.91,633,745,0
431013,666.85,633,746,0
431023,647.95,633,745,0
431033,625.00,633,746,0
431043,597.44,633,745,0
431053,567.35,633,746,0
431063,535.62,633,746,0
431073,503.63,633,746,0
431083,472.41,633,745,0
431093,444.09,633,746,0
431104,418.18,633,745,0
431113,396.40,633,746,0
431123,378.58,633,745,0
431133,365.29,633,746,0
431143,355.69,633,745,0
431153,350.42,633,746,0
431163,348.45,633,745,0
431173,350.03,633,746,0
431183,353.62,633,745,0
431193,359.18,633,746,0
431203,365.34,633,745,0
431213,372.52,633,746,0
431223,379.39,633,745,0
431233,386.13,633,746,0
431243,392.35,633,745,0
431253,398.63,633,747,0
431263,403.07,633,745,0
431273,406.18,633,746,0
431283,407.20,633,745,0
431293,407.05,633,746,0
431303,405.02,633,745,0
431313,401.54,633,746,0
431323,396.79,633,745,0
431333,392.57,633,746,0
431343,387.86,633,745,0
431353,383.53,633,746,0
431363,378.83,633,745,0
431373,374.85,633,746,0
431383,370.82,633,745,0
431393,367.02,633,746,0
431404,362.90,633,745,0
431414,359.97,633,746,0
431424,357.62,633,745,0
431434,356.49,633,746,0
431444,355.79,633,745,0
431454,356.07,633,746,0
431464,356.47,633,745,0
431474,357.62,633,746,0
431484,359.06,633,745,0
431494,361.74,633,746,0
431504,365.72,633,745,0
431514,372.32,633,746,0
431524,381.78,633,745,0
431534,395.60,633,746,0
431544,413.42,633,745,0
431554,436.18,633,746,0
431564,462.96,633,745,0
431575,493.65,633,746,0
431594,526.16,663,745,0
431597,558.68,663,746,0
431606,589.76,663,745,0
431617,617.73,663,746,0
431627,640.40,663,745,0
431637,656.65,663,746,0
431647,665.20,663,745,0
431657,666.00,663,746,0
431667,659.74,663,745,0
431677,646.06,663,746,0
431687,626.11,663,745,0
431697,601.14,663,746,0
431707,572.85,663,745,0
431717,542.73,663,746,0
431727,512.17,663,745,0
431737,481.94,663,746,0
431747,453.50,663,745,0
431757,427.64,663,746,0
431767,405.25,663,745,0
431777,386.27,663,746,0
431788,371.02,663,745,0
431798,359.49,663,745,0
431808,352.14,663,745,0
431818,348.33,663,745,0
431828,348.44,663,745,0
431838,351.31,663,744,0
431848,357.99,663,746,0
431858,366.52,663,746,0
431868,376.74,663,746,0
431878,386.80,663,746,0
431888,396.46,663,745,0
431898,404.81,663,746,0
431908,412.02,663,745,0
431918,416.56,663,746,0
431928,419.52,663,745,0
431938,420.52,663,746,0
431948,420.88,663,745,0
431959,420.44,663,745,0
431969,419.28,663,745,0
431979,417.23,663,745,0
431989,414.46,663,746,0
432000,410.72,663,745,0
432009,406.35,663,745,0
432019,400.80,663,745,0
432029,394.77,663,746,0
432039,387.81,663,745,0
432049,380.88,663,745,0
432059,373.50,663,745,0
432069,366.58,663,746,0
432079,359.55,663,745,0
432089,353.39,663,745,0
432099,347.57,663,745,0
432109,342.81,663,746,0
432119,338.50,663,745,0
432129,335.48,663,745,0
432139,333.71,663,745,0
432149,334.18,663,746,0
432159,336.83,663,745,0
432169,342.66,663,745,0
432179,351.85,663,745,0
432189,365.40,663,745,0
432199,383.23,663,745,0
432209,405.62,663,745,0
432219,431.66,663,745,0
432229,460.86,663,745,0
432239,491.42,663,745,0
432249,522.49,663,745,0
432259,551.70,663,745,0
432269,577.89,663,745,0
432279,599.05,663,745,0
432289,614.64,663,746,0
432300,624.86,663,746,0
432310,630.22,663,746,0
432320,629.68,663,746,0
432330,623.99,663,746,0
432340,612.94,663,746,0
432350,598.43,663,747,0
432369,580.77,775,745,0
432372,559.24,775,748,0
432381,535.00,775,746,0
432391,510.40,775,748,0
432401,485.76,775,746,0
432411,462.69,775,747,0
432421,440.33,775,746,0
432431,419.83,775,747,0
432441,400.98,775,745,0
432451,384.19,775,746,0
432461,368.49,775,745,0
432471,355.78,775,747,0
432481,345.26,775,745,0
432491,337.86,775,746,0
432501,332.93,775,745,0
432512,332.05,775,746,0
432521,334.09,775,745,0
432531,339.42,775,746,0
432541,345.85,775,745,0
432551,353.82,775,746,0
432561,362.02,775,745,0
432571,370.63,775,746,0
432581,378.50,775,745,0
432591,385.29,775,746,0
432601,390.22,775,745,0
432611,393.97,775,746,0
432621,395.78,775,745,0
432631,397.43,775,747,0
432641,397.60,775,745,0
432651,396.73,775,746,0
432661,394.20,775,745,0
432671,391.31,775,746,0
432681,387.23,775,745,0
432691,383.39,775,746,0
432701,378.22,775,745,0
432711,373.44,775,746,0
432721,368.21,775,745,0
432731,364.42,775,747,0
432741,360.69,775,745,0
432751,357.96,775,746,0
432761,354.93,775,745,0
432771,352.68,775,746,0
432781,350.37,775,745,0
432791,349.19,775,746,0
432801,348.06,775,745,0
432812,348.21,775,746,0
432822,349.74,775,745,0
432832,354.02,775,746,0
432842,361.00,775,745,0
432852,372.91,775,747,0
432862,389.95,775,745,0
432872,413.24,775,747,0
432882,441.24,775,745,0
432892,472.67,775,746,0
432911,505.08,542,745,0
432914,537.03,542,747,0
432923,566.51,542,745,0
432933,592.03,542,746,0
432943,611.00,542,744,0
432953,623.82,542,746,0
432963,630.09,542,745,0
432973,631.00,542,746,0
432983,626.37,542,744,0
432993,616.10,542,746,0
433003,600.30,542,745,0
433013,580.71,542,746,0
433024,557.74,542,744,0
433033,533.43,542,746,0
433043,507.89,542,745,0
433053,482.81,542,746,0
433063,458.39,542,744,0
433073,436.08,542,746,0
433083,415.65,542,745,0
433093,398.10,542,746,0
433103,382.77,542,744,0
433113,370.67,542,746,0
433123,361.08,542,745,0
433133,354.71,542,746,0
433143,350.73,542,744,0
433153,349.70,542,746,0
433163,350.64,542,745,0
433173,353.97,542,746,0
433183,358.39,542,744,0
433193,364.32,542,746,0
433203,370.44,542,745,0
433213,377.03,542,746,0
433223,382.98,542,744,0
433233,388.56,542,746,0
433243,392.80,542,745,0
433253,396.42,542,746,0
433263,398.44,542,744,0
433273,399.63,542,746,0
433283,399.44,542,745,0
433293,398.80,542,746,0
433303,396.84,542,744,0
433313,394.45,542,746,0
433324,390.97,542,745,0
433334,387.38,542,746,0
433344,383.11,542,745,0
433354,378.92,542,746,0
433364,374.27,542,745,0
433374,370.25,542,746,0
433384,366.27,542,744,0
433394,363.06,542,746,0
433404,360.13,542,745,0
433414,358.12,542,746,0
433424,356.45,542,745,0
433434,355.50,542,746,0
433444,354.92,542,745,0
433454,355.46,542,746,0
433464,357.04,542,744,0
433474,360.58,542,746,0
433484,366.37,542,745,0
433495,375.43,542,746,0
433505,388.11,542,744,0
433515,405.09,542,746,0
433525,426.11,542,745,0
433536,451.58,542,746,0
433545,481.19,542,745,0
433564,513.32,653,743,0
433567,544.34,653,747,0
433576,573.25,653,746,0
433586,598.25,653,745,0
433596,618.06,653,746,0
433606,630.90,653,745,0
433616,635.39,653,746,0
433626,632.14,653,745,0
433636,623.44,653,745,0
433646,609.38,653,745,0
433656,591.57,653,746,0
433666,570.31,653,745,0
433676,546.95,653,746,0
433686,522.53,653,745,0
433696,497.65,653,746,0
433707,473.88,653,746,0
433716,452.40,653,747,0
433726,433.00,653,745,0
433736,415.47,653,746,0
433746,399.98,653,745,0
433756,386.75,653,745,0
433766,376.07,653,745,0
433776,368.72,653,747,0
433786,364.43,653,746,0
433796,361.99,653,745,0
433806,361.65,653,745,0
433816,363.21,653,746,0
433826,366.28,653,745,0
433836,370.56,653,745,0
433846,374.08,653,745,0
433856,376.16,653,746,0
433866,377.91,653,745,0
433876,379.74,653,745,0
433886,381.49,653,745,0
433896,383.01,653,746,0
433906,384.51,653,745,0
433916,385.38,653,745,0
433926,386.21,653,745,0
433936,387.22,653,747,0
433946,389.94,653,746,0
433956,393.30,653,746,0
433966,397.28,653,746,0
433976,400.88,653,747,0
433986,403.70,653,745,0
433996,404.44,653,745,0
434007,402.63,653,745,0
434017,397.34,653,746,0
434027,389.74,653,746,0
434037,380.26,653,745,0
434048,369.98,653,746,0
434057,360.52,653,746,0
434067,353.08,653,745,0
434077,347.57,653,745,0
434087,343.93,653,746,0
434097,342.41,653,746,0
434107,343.27,653,746,0
434117,346.32,653,745,0
434127,352.48,653,747,0
434137,361.51,653,746,0
434147,374.73,653,746,0
434157,392.34,653,745,0
434167,414.61,653,746,0
434177,441.21,653,746,0
434187,471.75,653,746,0
434206,504.48,642,744,0
434209,537.81,642,747,0
434219,570.14,642,746,0
434228,600.18,642,746,0
434238,625.58,642,745,0
434248,645.04,642,746,0
434258,657.41,642,745,0
434268,662.35,642,746,0
434278,660.36,642,745,0
434288,651.51,642,746,0
434298,636.35,642,745,0
434308,616.15,642,745,0
434318,591.72,642,745,0
434328,564.89,642,746,0
434338,536.38,642,745,0
434348,508.92,642,746,0
434358,482.07,642,746,0
434368,456.89,642,746,0
434378,433.74,642,745,0
434388,414.06,642,746,0
434398,397.16,642,745,0
434408,383.82,642,746,0
434418,372.52,642,745,0
434428,364.74,642,746,0
434438,359.59,642,746,0
434448,357.74,642,746,0
434458,358.03,642,745,0
434468,360.89,642,746,0
434478,365.17,642,746,0
434488,370.77,642,745,0
434498,376.54,642,745,0
434508,382.81,642,745,0
434519,388.35,642,745,0
434529,393.47,642,747,0
434539,397.58,642,746,0
434549,401.60,642,746,0
434560,405.28,642,746,0
434569,409.70,642,747,0
434579,413.86,642,746,0
434589,418.57,642,747,0
434599,422.64,642,746,0
434609,426.39,642,747,0
434619,428.38,642,746,0
434629,428.86,642,747,0
434639,426.63,642,746,0
434649,422.76,642,747,0
434659,416.57,642,746,0
434669,409.33,642,747,0
434679,400.66,642,746,0
434689,391.80,642,748,0
434699,382.35,642,747,0
434709,373.59,642,748,0
434719,364.28,642,746,0
434729,355.71,642,747,0
434739,347.18,642,747,0
434749,340.31,642,747,0
434759,334.13,642,746,0
434769,329.98,642,747,0
434779,327.29,642,747,0
434789,328.19,642,747,0
434799,332.50,642,746,0
434809,341.87,642,746,0
434819,356.13,642,747,0
434829,377.35,642,748,0
434839,404.07,642,747,0
434849,435.72,642,746,0
434860,470.39,642,746,0
434870,507.22,642,747,0
434889,543.67,683,746,0
434892,577.15,683,748,0
434902,605.65,683,746,0
434911,629.03,683,747,0
434921,646.16,683,746,0
434931,657.04,683,746,0
434941,660.71,683,746,0
434951,658.14,683,747,0
434961,649.87,683,746,0
434971,636.28,683,746,0
434981,617.34,683,746,0
434991,595.04,683,747,0
435001,569.57,683,746,0
435011,543.08,683,746,0
435021,515.54,683,746,0
435031,488.90,683,747,0
435041,463.30,683,745,0
435051,440.11,683,746,0
435061,419.03,683,745,0
435072,401.67,683,747,0
435081,388.09,683,746,0
435091,378.42,683,746,0
435101,371.35,683,745,0
435111,367.43,683,746,0
435121,365.72,683,745,0
435131,366.57,683,746,0
435141,368.80,683,745,0
435151,371.69,683,746,0
435161,375.13,683,745,0
435171,379.76,683,746,0
435181,384.16,683,745,0
435191,389.04,683,746,0
435201,394.17,683,746,0
435211,400.33,683,747,0
435221,406.36,683,746,0
435231,412.77,683,747,0
435241,417.89,683,746,0
435251,422.47,683,746,0
435261,424.00,683,745,0
435271,422.37,683,746,0
435281,416.69,683,745,0
435291,408.42,683,746,0
435301,397.20,683,745,0
435311,385.10,683,746,0
435321,372.12,683,745,0
435331,361.03,683,746,0
435341,351.51,683,744,0
435351,344.54,683,746,0
435361,339.19,683,745,0
435372,336.31,683,746,0
435382,334.84,683,744,0
435392,336.73,683,747,0
435402,340.97,683,746,0
435412,346.51,683,746,0
435422,351.80,683,745,0
435432,357.47,683,746,0
435442,362.35,683,745,0
435452,367.21,683,746,0
435462,370.02,683,744,0
435472,371.86,683,746,0
435482,374.13,683,745,0
435492,378.72,683,746,0
435502,385.66,683,744,0
435512,396.73,683,746,0
435522,411.86,683,745,0
435532,432.17,683,746,0
435543,456.72,683,745,0
435553,485.30,683,746,0
435563,516.03,683,745,0
435573,547.86,683,746,0
435584,578.12,683,744,0
435593,605.47,683,746,0
435603,627.61,683,745,0
435613,643.67,683,746,0
435633,652.17,743,744,0
435636,651.61,743,746,0
435645,643.67,743,745,0
435655,629.28,743,745,0
435665,609.10,743,744,0
435675,584.72,743,745,0
435685,557.21,743,744,0
435695,528.22,743,745,0
435705,500.47,743,744,0
435715,473.41,743,745,0
435725,448.77,743,745,0
435735,428.10,743,746,0
435745,411.23,743,745,0
435756,396.80,743,745,0
435766,384.90,743,745,0
435776,375.46,743,745,0
435786,368.64,743,744,0
435796,363.56,743,745,0
435806,359.36,743,745,0
435816,356.21,743,745,0
435826,355.81,743,744,0
435836,357.71,743,745,0
435846,361.65,743,745,0
435856,366.94,743,745,0
435866,373.22,743,744,0
435876,379.58,743,745,0
435886,385.83,743,745,0
435896,391.16,743,745,0
435906,395.57,743,744,0
435916,398.87,743,745,0
435927,401.01,743,745,0
435937,401.65,743,745,0
435947,401.33,743,744,0
435957,399.56,743,745,0
435968,398.32,743,746,0
435977,397.49,743,746,0
435987,397.39,743,745,0
435997,397.40,743,745,0
436007,396.77,743,745,0
436017,395.21,743,745,0
436027,393.39,743,745,0
436037,389.54,743,745,0
436047,384.15,743,745,0
436057,376.95,743,745,0
436067,369.34,743,745,0
436077,362.12,743,745,0
436087,356.08,743,745,0
436097,350.79,743,745,0
436107,347.38,743,745,0
436117,345.17,743,745,0
436127,344.73,743,745,0
436137,344.85,743,745,0
436147,346.48,743,745,0
436157,349.17,743,745,0
436167,353.70,743,746,0
436177,359.49,743,745,0
436187,367.14,743,745,0
436197,376.92,743,745,0
436207,390.01,743,745,0
436217,406.59,743,745,0
436227,426.82,743,745,0
436237,450.14,743,745,0
436256,476.67,624,744,0
436259,505.06,624,745,0
436268,534.70,624,745,0
436278,563.76,624,745,0
436288,590.70,624,746,0
436298,613.68,624,745,0
436308,632.16,624,746,0
436318,645.05,624,746,0
436328,652.32,624,745,0
436338,652.27,624,745,0
436348,645.50,624,745,0
436358,632.02,624,745,0
436368,613.55,624,745,0
436378,590.24,624,745,0
436388,563.25,624,746,0
436398,533.86,624,745,0
436408,504.38,624,746,0
436418,475.25,624,745,0
436428,448.13,624,746,0
436439,423.32,624,745,0
436449,401.92,624,746,0
436459,384.33,624,745,0
436469,370.90,624,746,0
436480,360.52,624,744,0
436489,353.98,624,746,0
436499,350.26,624,745,0
436509,349.66,624,746,0
436519,351.14,624,744,0
436529,354.22,624,746,0
436539,358.10,624,744,0
436549,363.51,624,746,0
436559,369.23,624,744,0
436569,375.89,624,746,0
436579,381.97,624,745,0
436589,388.06,624,746,0
436599,392.89,624,744,0
436609,397.29,624,746,0
436619,400.08,624,745,0
436629,401.94,624,746,0
436639,401.96,624,744,0
436649,401.11,624,746,0
436659,398.76,624,745,0
436669,395.96,624,746,0
436679,392.03,624,744,0
436689,388.08,624,746,0
436699,383.98,624,745,0
436709,380.09,624,746,0
436719,375.61,624,744,0
436729,371.52,624,746,0
436739,367.30,624,745,0
436749,363.78,624,746,0
436759,360.20,624,744,0
436769,357.10,624,746,0
436780,354.11,624,744,0
436790,352.41,624,746,0
436800,350.87,624,744,0
436810,350.40,624,746,0
436820,349.89,624,744,0
436830,350.31,624,746,0
436840,350.86,624,744,0
436850,352.92,624,745,0
436860,355.51,624,744,0
436870,359.17,624,746,0
436880,363.24,624,744,0
436890,368.86,624,746,0
436900,375.59,624,744,0
436910,384.67,624,746,0
436920,395.36,624,744,0
436930,409.52,624,746,0
436940,426.98,624,744,0
436951,448.71,624,746,0
436961,473.49,624,744,0
436971,501.41,624,746,0
436981,529.74,624,745,0
437001,557.76,744,744,0
437004,581.62,744,746,0
437013,601.45,744,747,0
437023,614.99,744,744,0
437033,621.89,744,746,0
437043,621.28,744,744,0
437053,614.64,744,746,0
437063,601.59,744,744,0
437073,584.53,744,746,0
437083,563.37,744,744,0
437093,539.90,744,746,0
437103,514.95,744,744,0
437113,490.19,744,746,0
437123,465.58,744,744,0
437133,442.73,744,746,0
437143,421.98,744,744,0
437153,403.86,744,746,0
437164,388.64,744,744,0
437174,376.54,744,745,0
437184,366.86,744,745,0
437194,360.35,744,745,0
437204,356.77,744,744,0
437214,355.77,744,745,0
437224,357.12,744,745,0
437234,360.30,744,746,0
437244,365.31,744,744,0
437254,371.56,744,745,0
437264,378.81,744,745,0
437274,386.15,744,745,0
437284,393.39,744,744,0
437294,399.96,744,745,0
437304,405.24,744,745,0
437314,408.98,744,745,0
437324,411.35,744,744,0
437335,412.66,744,746,0
437345,412.63,744,745,0
437355,411.20,744,745,0
437365,408.65,744,745,0
437376,405.37,744,745,0
437385,401.62,744,745,0
437395,397.53,744,745,0
437405,392.83,744,745,0
437415,388.12,744,745,0
437425,383.97,744,745,0
437435,380.68,744,746,0
437445,377.78,744,745,0
437455,374.84,744,745,0
437465,372.02,744,745,0
437475,369.01,744,745,0
437485,366.18,744,745,0
437495,363.13,744,745,0
437505,360.05,744,745,0
437515,357.63,744,746,0
437525,357.70,744,746,0
437535,359.16,744,745,0
437545,363.01,744,746,0
437555,369.65,744,746,0
437565,379.66,744,746,0
437575,392.10,744,745,0
437585,407.03,744,745,0
437595,423.09,744,745,0
437605,441.84,744,745,0
437615,462.03,744,745,0
437625,483.11,744,745,0
437635,503.90,744,745,0
437654,524.93,654,744,0
437657,543.47,654,746,0
437666,559.78,654,745,0
437676,572.19,654,745,0
437686,580.28,654,745,0
437696,582.94,654,745,0
437706,580.56,654,745,0
437716,572.20,654,745,0
437726,560.53,654,745,0
437736,544.60,654,745,0
437746,525.82,654,745,0
437756,504.70,654,745,0
437766,482.85,654,745,0
437776,460.57,654,745,0
437786,439.31,654,745,0
437796,419.16,654,745,0
437806,401.41,654,745,0
437816,385.99,654,744,0
437826,374.76,654,746,0
437836,366.22,654,745,0
437847,360.71,654,745,0
437857,357.37,654,744,0
437867,356.66,654,745,0
437877,357.45,654,745,0
437888,360.10,654,745,0
437897,362.55,654,744,0
437907,366.29,654,745,0
437917,370.44,654,745,0
437927,375.67,654,745,0
437937,380.65,654,744,0
437947,385.94,654,745,0
437957,390.37,654,745,0
437967,394.55,654,745,0
437977,397.43,654,744,0
437987,399.70,654,745,0
437997,400.52,654,745,0
438007,400.83,654,745,0
438017,399.94,654,744,0
438027,398.63,654,745,0
438037,396.21,654,745,0
438047,393.58,654,745,0
438057,390.06,654,744,0
438067,386.61,654,745,0
438077,382.57,654,745,0
438087,378.80,654,745,0
438097,374.75,654,744,0
438107,371.39,654,745,0
438117,367.98,654,745,0
438127,365.45,654,745,0
438137,362.92,654,744,0
438147,361.19,654,745,0
438157,359.42,654,745,0
438167,358.43,654,745,0
438177,357.40,654,744,0
438188,357.41,654,745,0
438198,357.84,654,745,0
438208,360.16,654,746,0
438218,364.57,654,745,0
438228,373.57,654,747,0
438238,386.64,654,746,0
438248,403.72,654,746,0
438258,423.90,654,744,0
438268,447.93,654,746,0
438287,474.35,633,744,0
438290,501.50,633,747,0
438299,527.84,633,744,0
438309,552.62,633,745,0
438319,575.15,633,745,0
438329,594.77,633,746,0
438339,609.33,633,744,0
438349,619.21,633,746,0
438359,623.86,633,744,0
438369,622.66,633,747,0
438379,615.35,633,745,0
438389,603.24,633,745,0
438400,587.19,633,745,0
438409,568.62,633,747,0
438419,548.63,633,746,0
438429,529.41,633,747,0
438439,510.73,633,746,0
438449,494.01,633,747,0
438459,478.54,633,746,0
438469,464.75,633,747,0
438479,452.44,633,746,0
438489,441.16,633,747,0
438499,430.01,633,747,0
438509,420.28,633,747,0
438519,411.24,633,746,0
438529,404.10,633,747,0
438539,398.02,633,745,0
438549,394.03,633,747,0
438559,391.06,633,746,0
438569,390.27,633,747,0
438579,389.85,633,745,0
438589,390.37,633,746,0
438599,390.51,633,745,0
438609,390.79,633,746,0
438619,390.17,633,745,0
438629,389.60,633,746,0
438639,387.92,633,745,0
