Time,PPG,IBI,GSR,GSR_Event
6901,356.27,622,742,0
6912,338.92,622,745,0
6921,316.23,622,744,0
6931,291.30,622,745,0
6941,264.64,622,744,0
6951,238.95,622,745,0
6961,213.85,622,744,0
6971,197.87,622,745,0
6981,190.88,622,743,0
6991,192.84,622,745,0
7001,200.56,622,744,0
7011,213.46,622,745,0
7021,228.41,622,743,0
7031,245.64,622,745,0
7041,264.14,622,745,0
7051,285.14,622,746,0
7061,307.38,622,745,0
7071,332.34,622,747,0
7081,358.77,622,745,0
7091,388.45,622,747,0
7101,420.42,622,746,0
7111,454.71,622,747,0
7121,489.29,622,746,0
7131,524.43,622,747,0
7141,558.08,622,746,0
7151,590.88,622,748,0
7161,620.27,622,746,0
7171,646.29,622,747,0
7181,666.22,622,746,0
7191,680.68,622,748,0
7201,687.12,622,746,0
7212,686.78,622,748,0
7222,677.89,622,746,0
7232,662.88,622,748,0
7242,640.85,622,746,0
7252,614.45,622,748,0
7262,583.76,622,746,0
7272,552.03,622,748,0
7282,519.11,622,746,0
7292,487.83,622,748,0
7302,457.58,622,746,0
7312,430.84,622,748,0
7322,406.97,622,746,0
7332,387.14,622,748,0
7342,370.34,622,746,0
7352,357.89,622,748,0
7362,348.33,622,746,0
7372,343.26,622,748,0
7383,340.57,622,746,0
7393,341.30,622,748,0
7403,343.65,622,746,0
7413,348.55,622,748,0
7424,354.00,622,746,0
7433,360.99,622,748,0
7443,367.21,622,746,0
7453,374.43,622,748,0
7463,380.26,622,746,0
7473,386.27,622,748,0
7483,390.60,622,746,0
7493,394.23,622,748,0
7503,395.92,622,746,0
7513,396.89,622,748,0
7523,395.64,622,746,0
7533,393.86,622,748,0
7543,390.22,622,746,0
7553,386.29,622,748,0
7563,381.36,622,746,0
7573,376.84,622,748,0
7583,371.70,622,746,0
7593,367.12,622,748,0
7603,362.20,622,746,0
7613,358.15,622,748,0
7623,353.74,622,746,0
7633,350.26,622,748,0
7643,346.49,622,746,0
7653,343.77,622,748,0
7663,341.01,622,746,0
7673,339.38,622,748,0
7683,337.68,622,746,0
7693,337.22,622,748,0
7703,336.81,622,746,0
7713,337.55,622,748,0
7724,338.46,622,746,0
7734,340.94,622,748,0
7744,344.51,622,746,0
7754,350.96,622,748,0
7764,360.44,622,746,0
7774,374.32,622,748,0
7784,392.70,622,746,0
7794,416.79,622,748,0
7804,445.65,622,746,0
7814,479.01,622,748,0
7824,514.54,622,746,0
7843,550.81,0,747,0
7845,586.65,0,749,0
7855,620.23,0,750,0
7865,649.73,0,748,0
7875,674.67,0,750,0
7885,693.15,0,748,0
7895,704.64,0,750,0
7905,707.53,0,748,0
7915,701.16,0,750,0
7925,685.42,0,748,0
7936,660.91,0,750,0
7945,628.50,0,748,0
7955,590.68,0,750,0
7965,549.50,0,748,0
7975,507.87,0,750,0
7985,467.66,0,748,0
7995,430.99,0,750,0
8005,399.02,0,748,0
8015,372.23,0,750,0
8025,350.73,0,748,0
8035,334.96,0,750,0
8045,324.47,0,748,0
8055,319.06,0,750,0
8065,317.88,0,748,0
8075,321.09,0,750,0
8085,327.23,0,748,0
8095,336.25,0,750,0
8105,346.59,0,748,0
8115,357.94,0,750,0
8125,369.32,0,748,0
8135,380.41,0,750,0
8145,389.76,0,748,0
8155,397.93,0,749,0
8165,404.04,0,748,0
8175,408.40,0,750,0
8185,410.89,0,748,0
8195,411.70,0,750,0
8205,410.80,0,748,0
8215,409.10,0,750,0
8225,405.94,0,748,0
8236,401.76,0,749,0
8246,396.86,0,748,0
8256,391.59,0,750,0
8266,385.93,0,748,0
8276,380.46,0,749,0
8286,374.54,0,748,0
8296,369.23,0,750,0
8306,364.28,0,749,0
8316,359.91,0,749,0
8326,355.91,0,748,0
8336,352.59,0,750,0
8346,349.80,0,748,0
8356,347.63,0,749,0
8366,345.81,0,748,0
8376,344.54,0,750,0
8386,343.74,0,750,0
8396,343.39,0,749,0
8407,343.78,0,749,0
8417,344.92,0,749,0
8427,347.99,0,749,0
8437,353.43,0,749,0
8448,362.52,0,749,0
8457,375.65,0,750,0
8467,394.18,0,749,0
8477,418.13,0,749,0
8487,447.92,0,748,0
8497,481.93,0,750,0
8507,519.15,0,749,0
8517,556.95,0,749,0
8537,593.86,693,748,0
8539,625.70,693,749,0
8549,652.32,693,749,0
8559,670.65,693,749,0
8569,680.27,693,750,0
8579,680.19,693,750,0
8589,671.09,693,754,0
8599,652.63,693,754,0
8609,628.06,693,755,0
8620,596.76,693,757,0
8630,561.81,693,761,0
8640,524.33,693,750,0
8650,487.29,693,751,0
8660,451.33,693,749,0
8670,419.00,693,754,0
8680,389.90,693,749,0
8690,365.72,693,750,0
8700,345.79,693,749,0
8710,331.15,693,750,0
8720,320.13,693,749,0
8730,314.09,693,750,0
8740,311.11,693,748,0
8750,312.10,693,750,0
8760,315.07,693,748,0
8770,320.97,693,749,0
8780,327.79,693,748,0
8791,336.51,693,750,0
8801,344.71,693,748,0
8811,353.84,693,750,0
8821,361.78,693,752,0
8832,369.47,693,754,0
8841,375.24,693,749,0
8851,380.44,693,750,0
8861,383.48,693,749,0
8871,385.61,693,750,0
8881,385.25,693,748,0
8891,384.15,693,750,0
8901,381.10,693,748,0
8911,377.52,693,750,0
8921,372.22,693,748,0
8931,366.71,693,750,0
8941,360.15,693,748,0
8951,354.24,693,750,0
8961,347.74,693,748,0
8971,342.50,693,750,0
8981,337.17,693,748,0
8991,333.26,693,750,0
9001,329.32,693,748,0
9011,327.04,693,750,0
9021,324.59,693,748,0
9031,323.42,693,750,0
9041,321.88,693,748,0
9051,321.49,693,750,0
9061,320.57,693,748,0
9071,320.79,693,750,0
9081,320.64,693,748,0
9091,322.24,693,750,0
9101,324.87,693,748,0
9111,330.87,693,750,0
9121,339.78,693,748,0
9132,354.07,693,750,0
9142,373.17,693,748,0
9152,398.92,693,750,0
9162,429.88,693,748,0
9172,466.48,693,750,0
9182,505.55,693,751,0
9192,546.35,693,750,0
9211,585.38,675,749,0
9213,620.62,675,750,0
9223,650.18,675,748,0
9233,672.75,675,750,0
9243,685.94,675,752,0
9253,690.42,675,755,0
9263,685.19,675,754,0
9273,672.28,675,753,0
9283,652.18,675,753,0
9293,625.73,675,750,0
9303,594.65,675,752,0
9313,561.71,675,750,0
9323,527.60,675,748,0
9333,494.72,675,749,0
9344,463.00,675,748,0
9353,434.80,675,750,0
9363,409.92,675,748,0
9373,389.29,675,749,0
9383,372.27,675,748,0
9393,359.93,675,752,0
9403,351.08,675,748,0
9413,346.47,675,750,0
9423,344.92,675,748,0
9433,346.96,675,750,0
9443,351.08,675,748,0
9453,357.62,675,749,0
9463,365.14,675,748,0
9473,374.10,675,750,0
9483,382.94,675,748,0
9493,391.87,675,749,0
9503,399.58,675,748,0
9513,406.61,675,750,0
9523,411.87,675,748,0
9533,415.98,675,749,0
9543,418.17,675,748,0
9553,419.23,675,749,0
9563,418.56,675,748,0
9573,417.11,675,749,0
9583,414.29,675,748,0
9593,411.03,675,750,0
9603,406.78,675,748,0
9613,402.86,675,755,0
9623,398.23,675,749,0
9633,393.83,675,755,0
9644,388.87,675,754,0
9654,384.28,675,751,0
9664,379.70,675,748,0
9674,375.93,675,750,0
9684,372.01,675,748,0
9694,369.05,675,747,0
9704,366.46,675,748,0
9714,364.74,675,755,0
9724,363.45,675,754,0
9734,363.14,675,756,0
9744,363.57,675,757,0
9754,366.18,675,755,0
9764,371.53,675,752,0
9774,380.63,675,756,0
9784,394.20,675,756,0
9794,413.81,675,754,0
9804,439.15,675,752,0
9815,470.35,675,753,0
9825,505.56,675,754,0
9844,543.32,633,747,0
9846,580.85,633,754,0
9857,616.64,633,754,0
9867,647.99,633,754,0
9877,672.76,633,750,0
9887,689.85,633,749,0
9897,697.87,633,749,0
9907,697.26,633,748,0
9917,688.48,633,749,0
9927,672.05,633,748,0
9937,648.29,633,748,0
9947,619.83,633,748,0
9957,587.36,633,752,0
9967,553.52,633,748,0
9977,518.78,633,749,0
9987,485.54,633,748,0
9997,454.31,633,749,0
10007,427.05,633,748,0
10017,403.12,633,748,0
10028,384.14,633,748,0
10038,369.23,633,748,0
10048,359.00,633,750,0
10058,352.44,633,750,0
10068,350.08,633,749,0
10078,350.49,633,750,0
10088,354.24,633,750,0
10098,359.01,633,750,0
10108,365.65,633,750,0
10118,372.61,633,749,0
10128,380.44,633,749,0
10138,387.72,633,753,0
10148,394.88,633,748,0
10158,400.49,633,748,0
10168,405.65,633,748,0
10178,409.02,633,748,0
10188,411.50,633,748,0
10199,411.73,633,748,0
10209,410.78,633,749,0
10219,407.68,633,751,0
10229,403.79,633,749,0
10240,398.41,633,747,0
10249,392.84,633,749,0
10259,386.59,633,752,0
10269,380.97,633,749,0
10279,374.77,633,750,0
10289,369.35,633,752,0
10299,363.54,633,752,0
10309,358.67,633,753,0
10319,353.45,633,752,0
10329,349.20,633,753,0
10339,344.56,633,752,0
10349,341.39,633,752,0
10359,338.27,633,751,0
10369,336.91,633,753,0
10379,336.55,633,752,0
10389,339.08,633,752,0
10399,343.77,633,751,0
10409,353.23,633,753,0
10419,366.62,633,752,0
10429,386.19,633,752,0
10439,410.99,633,752,0
10449,441.46,633,753,0
10459,475.52,633,752,0
10469,512.82,633,751,0
10488,549.73,644,751,0
10491,584.79,644,752,0
10500,615.75,644,751,0
10510,641.37,644,749,0
10520,658.96,644,748,0
10530,668.87,644,749,0
10540,669.59,644,748,0
10550,662.90,644,749,0
10560,648.45,644,747,0
10570,627.95,644,749,0
10580,601.35,644,747,0
10590,572.32,644,749,0
10600,540.64,644,747,0
10610,508.78,644,749,0
10620,476.70,644,747,0
10630,447.39,644,749,0
10640,419.97,644,747,0
10650,396.92,644,749,0
10660,376.68,644,747,0
10670,361.13,644,749,0
10680,349.22,644,747,0
10690,342.30,644,749,0
10700,338.65,644,747,0
10711,339.14,644,749,0
10721,341.93,644,747,0
10731,347.73,644,749,0
10741,354.63,644,747,0
10752,363.31,644,749,0
10761,371.70,644,747,0
10771,380.58,644,752,0
10781,388.03,644,750,0
10791,394.88,644,752,0
10801,399.63,644,750,0
10811,403.51,644,752,0
10821,405.29,644,751,0
10831,406.27,644,752,0
10841,405.33,644,750,0
10851,404.03,644,752,0
10861,401.54,644,750,0
10871,398.98,644,752,0
10881,395.30,644,750,0
10891,391.99,644,752,0
10901,388.14,644,751,0
10911,385.05,644,752,0
10921,381.44,644,750,0
10931,378.39,644,752,0
10941,374.85,644,750,0
10951,372.19,644,752,0
10961,368.92,644,750,0
10971,366.50,644,753,0
10981,363.74,644,751,0
10991,362.70,644,752,0
11001,363.09,644,748,0
11011,366.75,644,752,0
11021,373.34,644,749,0
11031,384.98,644,751,0
11041,400.97,644,748,0
11052,423.01,644,751,0
11062,449.45,644,749,0
11072,480.13,644,751,0
11082,512.79,644,748,0
11102,546.37,613,748,0
11104,577.29,613,750,0
11114,605.19,613,751,0
11124,627.33,613,748,0
11134,642.57,613,749,0
11144,649.77,613,747,0
11154,649.20,613,749,0
11164,640.61,613,747,0
11174,625.68,613,753,0
11184,604.35,613,747,0
11194,578.40,613,749,0
11204,549.48,613,747,0
11214,518.87,613,753,0
11224,488.05,613,747,0
11234,458.38,613,749,0
11244,431.05,613,747,0
11254,406.82,613,749,0
11265,386.17,613,747,0
11275,369.58,613,749,0
11285,357.45,613,747,0
11295,349.51,613,748,0
11305,345.80,613,748,0
11315,345.65,613,749,0
11325,348.67,613,751,0
11335,354.25,613,749,0
11345,361.72,613,749,0
11355,370.08,613,750,0
11365,379.05,613,748,0
11375,387.52,613,750,0
11385,395.72,613,750,0
11395,402.71,613,751,0
11405,408.49,613,750,0
11415,412.42,613,754,0
11425,415.21,613,752,0
11436,416.09,613,749,0
11446,415.80,613,747,0
11456,413.63,613,748,0
11466,410.96,613,748,0
11476,406.86,613,748,0
11486,402.79,613,747,0
11496,397.84,613,748,0
11506,393.13,613,748,0
11516,388.03,613,748,0
11526,383.61,613,747,0
11536,379.01,613,748,0
11546,375.41,613,748,0
11556,371.86,613,748,0
11566,369.20,613,747,0
11576,366.91,613,748,0
11586,366.60,613,748,0
11596,367.83,613,748,0
11607,372.12,613,747,0
11617,379.42,613,748,0
11627,391.55,613,749,0
11637,408.40,613,748,0
11648,431.25,613,752,0
11657,458.48,613,749,0
11667,490.30,613,749,0
11677,524.16,613,748,0
11687,559.38,613,748,0
11706,592.57,605,747,0
11708,621.71,605,749,0
11718,644.73,605,748,0
11728,661.44,605,748,0
11738,669.88,605,748,0
11748,671.07,605,748,0
11758,663.81,605,748,0
11768,649.94,605,748,0
11778,630.50,605,748,0
11788,606.82,605,748,0
11798,579.23,605,748,0
11808,550.15,605,748,0
11819,519.67,605,747,0
11828,490.42,605,748,0
11838,462.26,605,748,0
11848,437.33,605,749,0
11858,414.90,605,747,0
11868,396.37,605,748,0
11878,380.70,605,748,0
11888,369.26,605,749,0
11898,360.78,605,747,0
11908,356.39,605,749,0
11918,354.22,605,748,0
11928,355.44,605,749,0
11938,358.35,605,747,0
11948,363.94,605,748,0
11958,370.18,605,748,0
11968,377.88,605,749,0
11978,385.16,605,747,0
11988,392.95,605,749,0
11998,399.44,605,748,0
12008,405.69,605,749,0
12018,410.03,605,747,0
12028,413.62,605,749,0
12038,415.06,605,748,0
12048,415.56,605,748,0
12058,413.93,605,747,0
12068,411.72,605,749,0
12078,407.69,605,748,0
12088,403.46,605,749,0
12098,397.83,605,747,0
12108,392.48,605,749,0
12119,386.30,605,748,0
12129,380.85,605,749,0
12139,374.94,605,747,0
12149,370.24,605,749,0
12160,365.54,605,748,0
12169,362.85,605,751,0
12179,361.31,605,748,0
12189,363.23,605,750,0
12199,368.22,605,748,0
12209,378.27,605,750,0
12219,392.93,605,748,0
12229,414.25,605,750,0
12239,440.88,605,748,0
12249,473.23,605,750,0
12259,508.52,605,747,0
12269,546.25,605,749,0
12289,583.29,582,751,0
12292,617.66,582,753,0
12301,647.12,582,751,0
12311,670.48,582,753,0
12321,685.55,582,752,0
12332,692.76,582,753,0
12342,690.69,582,751,0
12352,680.67,582,753,0
12362,663.45,582,751,0
12372,639.83,582,753,0
12382,611.25,582,751,0
12392,580.11,582,753,0
12402,547.20,582,748,0
12412,514.91,582,750,0
12422,483.91,582,747,0
12432,455.99,582,749,0
12442,431.27,582,747,0
12452,410.44,582,749,0
12462,393.13,582,747,0
12472,380.06,582,749,0
12482,370.53,582,747,0
12492,364.88,582,749,0
12503,362.35,582,747,0
12513,362.97,582,749,0
12523,366.32,582,748,0
12533,371.75,582,749,0
12544,378.30,582,747,0
12553,385.84,582,749,0
12563,393.34,582,747,0
12573,400.48,582,749,0
12583,406.94,582,747,0
12593,411.89,582,749,0
12603,415.73,582,748,0
12613,418.17,582,749,0
12623,419.28,582,747,0
12633,419.45,582,749,0
12643,418.20,582,747,0
12653,415.61,582,749,0
12663,411.96,582,747,0
12673,407.34,582,749,0
12683,402.18,582,747,0
12693,396.38,582,749,0
12703,389.97,582,747,0
12713,383.64,582,749,0
12723,377.36,582,747,0
12733,371.42,582,749,0
12743,366.20,582,747,0
12753,361.68,582,749,0
12763,358.65,582,748,0
12773,357.81,582,749,0
12783,360.05,582,747,0
12793,366.17,582,749,0
12803,377.04,582,748,0
12813,393.49,582,749,0
12823,415.93,582,747,0
12833,444.19,582,749,0
12844,477.22,582,748,0
12854,513.45,582,749,0
12864,551.20,582,748,0
12883,588.21,595,746,0
12886,621.06,595,749,0
12895,648.82,595,749,0
12905,669.83,595,748,0
12915,682.82,595,748,0
12925,687.68,595,748,0
12935,684.26,595,749,0
12945,673.21,595,748,0
12955,655.96,595,748,0
12965,633.04,595,748,0
12975,605.30,595,748,0
12985,575.08,595,748,0
12995,542.92,595,748,0
13005,510.84,595,748,0
13015,479.47,595,748,0
13025,450.57,595,748,0
13035,424.30,595,748,0
13045,401.97,595,748,0
13056,382.86,595,748,0
13065,368.33,595,748,0
13075,357.48,595,748,0
13085,351.03,595,748,0
13095,347.85,595,748,0
13105,348.32,595,748,0
13115,351.14,595,748,0
13125,356.63,595,748,0
13135,363.17,595,748,0
13145,370.79,595,748,0
13155,378.18,595,748,0
13165,385.67,595,748,0
13175,392.03,595,748,0
13185,397.72,595,748,0
13195,401.79,595,748,0
13205,404.85,595,748,0
13215,406.14,595,748,0
13225,406.70,595,748,0
13235,405.55,595,748,0
13245,403.62,595,748,0
13255,400.09,595,748,0
13265,396.04,595,748,0
13275,391.40,595,748,0
13285,386.74,595,748,0
13295,381.20,595,748,0
13305,375.91,595,748,0
13315,370.32,595,748,0
13325,365.73,595,748,0
13335,361.14,595,748,0
13345,357.37,595,748,0
13356,354.81,595,748,0
13366,354.87,595,748,0
13376,357.61,595,748,0
13386,365.48,595,748,0
13396,377.60,595,748,0
13406,396.06,595,748,0
13416,419.66,595,748,0
13426,449.46,595,749,0
13436,483.05,595,748,0
13446,519.89,595,748,0
13456,556.40,595,748,0
13475,592.11,592,747,0
13477,621.82,592,747,0
13487,647.20,592,749,0
13497,664.67,592,748,0
13507,674.93,592,749,0
13517,676.32,592,747,0
13527,670.35,592,748,0
13537,656.19,592,748,0
13547,637.70,592,749,0
13557,612.81,592,747,0
13568,584.66,592,749,0
13577,553.65,592,748,0
13587,522.60,592,749,0
13597,491.22,592,747,0
13607,462.27,592,749,0
13617,435.49,592,748,0
13627,412.63,592,749,0
13637,392.42,592,748,0
13647,376.53,592,749,0
13657,363.60,592,748,0
13667,355.06,592,749,0
13677,349.17,592,747,0
13687,347.15,592,749,0
13697,347.15,592,748,0
13707,350.32,592,749,0
13717,354.59,592,748,0
13727,360.93,592,749,0
13737,367.47,592,747,0
13747,374.83,592,749,0
13757,380.92,592,748,0
13767,387.03,592,749,0
13777,391.61,592,748,0
13787,395.71,592,749,0
13797,397.68,592,748,0
13807,398.98,592,749,0
13817,398.34,592,747,0
13827,397.34,592,749,0
13837,394.67,592,748,0
13847,391.68,592,749,0
13857,387.23,592,747,0
13868,383.61,592,749,0
13878,378.58,592,752,0
13888,373.82,592,746,0
13898,368.22,592,748,0
13908,363.57,592,749,0
13918,358.38,592,748,0
13928,354.50,592,749,0
13938,350.15,592,752,0
13948,348.05,592,748,0
13958,347.65,592,748,0
13968,351.14,592,749,0
13978,357.83,592,752,0
13988,370.09,592,754,0
13998,386.95,592,748,0
14008,410.32,592,746,0
14018,438.55,592,748,0
14028,472.03,592,754,0
14039,507.55,592,748,0
14058,544.84,583,746,0
14060,579.52,583,748,0
14070,611.63,583,750,0
14081,637.89,583,752,0
14091,657.64,583,754,0
14101,668.72,583,750,0
14111,671.80,583,750,0
14121,665.82,583,753,0
14131,653.23,583,755,0
14141,633.10,583,753,0
14151,607.79,583,750,0
14161,578.11,583,748,0
14171,546.83,583,751,0
14181,514.44,583,748,0
14191,482.89,583,749,0
14201,452.80,583,747,0
14211,426.03,583,749,0
14221,402.41,583,747,0
14231,383.17,583,749,0
14241,367.26,583,747,0
14252,355.78,583,749,0
14262,348.09,583,747,0
14272,344.51,583,749,0
14282,343.97,583,747,0
14292,346.29,583,748,0
14302,350.28,583,751,0
14312,356.06,583,750,0
14322,362.77,583,748,0
14332,369.87,583,748,0
14342,376.64,583,748,0
14352,383.05,583,749,0
14362,388.43,583,747,0
14372,392.85,583,749,0
14382,395.89,583,748,0
14392,397.34,583,749,0
14402,397.19,583,747,0
14412,395.72,583,749,0
14423,392.72,583,748,0
14433,388.86,583,749,0
14443,384.23,583,748,0
14453,378.93,583,748,0
14464,373.51,583,748,0
14473,368.13,583,749,0
14483,362.82,583,748,0
14493,357.77,583,748,0
14503,353.08,583,748,0
14513,348.69,583,749,0
14523,345.01,583,750,0
14533,341.54,583,748,0
14543,338.89,583,748,0
14553,336.91,583,749,0
14563,336.12,583,748,0
14573,336.60,583,749,0
14583,339.55,583,748,0
14593,345.26,583,749,0
14603,355.25,583,748,0
14613,369.75,583,748,0
14623,389.92,583,748,0
14633,415.70,583,749,0
14643,446.95,583,748,0
14653,482.54,583,749,0
14672,520.99,614,747,0
14675,558.66,614,748,0
14684,595.36,614,748,0
14694,628.00,614,748,0
14704,654.96,614,748,0
14714,674.25,614,748,0
14724,685.06,614,752,0
14734,686.59,614,753,0
14744,680.84,614,753,0
14754,666.10,614,749,0
14764,644.73,614,749,0
14774,617.30,614,749,0
14784,586.56,614,748,0
14794,553.01,614,748,0
14804,519.54,614,748,0
14814,486.42,614,748,0
14824,455.82,614,748,0
14834,427.46,614,748,0
14844,403.11,614,748,0
14854,382.03,614,748,0
14864,365.61,614,748,0
14874,352.87,614,748,0
14884,344.72,614,748,0
14894,340.13,614,748,0
14904,339.75,614,748,0
14914,341.88,614,748,0
14924,347.23,614,748,0
14935,353.81,614,748,0
14945,362.05,614,749,0
14955,370.13,614,750,0
14965,378.75,614,748,0
14976,385.98,614,748,0
14985,393.02,614,748,0
14995,397.85,614,748,0
15005,402.10,614,749,0
15015,403.87,614,748,0
15025,404.72,614,748,0
15035,403.52,614,748,0
15045,401.78,614,748,0
15055,398.12,614,748,0
15065,394.27,614,748,0
15075,388.79,614,748,0
15085,383.49,614,748,0
15095,377.43,614,748,0
15105,371.64,614,748,0
15115,365.54,614,748,0
15125,360.32,614,748,0
15135,354.74,614,748,0
15145,350.36,614,747,0
15155,346.05,614,748,0
15165,342.78,614,750,0
15175,339.37,614,749,0
15185,337.20,614,750,0
15195,335.17,614,750,0
15205,334.95,614,750,0
15215,335.82,614,749,0
15225,339.99,614,750,0
15235,347.15,614,749,0
15245,359.53,614,750,0
15255,376.52,614,749,0
15265,400.15,614,749,0
15276,429.20,614,749,0
15286,464.16,614,750,0
15296,502.04,614,749,0
15315,542.14,643,747,0
15318,580.37,643,749,0
15327,616.39,643,751,0
15337,646.57,643,749,0
15347,670.14,643,750,0
15357,684.46,643,749,0
15367,690.58,643,751,0
15377,687.19,643,749,0
15387,676.63,643,750,0
15397,657.54,643,749,0
15407,632.65,643,751,0
15417,602.41,643,750,0
15427,570.15,643,752,0
15437,535.56,643,748,0
15447,501.75,643,753,0
15457,468.70,643,748,0
15467,439.22,643,749,0
15477,412.54,643,747,0
15488,390.73,643,749,0
15497,372.21,643,748,0
15507,358.78,643,749,0
15517,348.94,643,747,0
15527,343.95,643,749,0
15537,341.95,643,747,0
15547,343.81,643,749,0
15557,347.34,643,747,0
15567,353.58,643,749,0
15577,360.65,643,747,0
15587,369.24,643,749,0
15597,377.18,643,747,0
15607,385.10,643,749,0
15617,391.41,643,747,0
15627,397.37,643,749,0
15637,401.20,643,747,0
15647,404.14,643,749,0
15657,404.53,643,747,0
15667,404.28,643,749,0
15677,402.10,643,747,0
15687,399.28,643,749,0
15697,394.57,643,747,0
15707,389.68,643,749,0
15717,383.52,643,747,0
15727,377.71,643,749,0
15737,371.15,643,747,0
15747,365.28,643,749,0
15757,359.15,643,747,0
15767,354.14,643,749,0
15777,349.04,643,747,0
15788,345.17,643,749,0
15798,341.39,643,747,0
15808,338.74,643,749,0
15818,336.08,643,747,0
15828,334.64,643,749,0
15838,333.33,643,747,0
15848,333.62,643,749,0
15858,334.63,643,747,0
15868,338.30,643,749,0
15878,344.12,643,747,0
15888,354.37,643,749,0
15898,368.70,643,747,0
15908,389.06,643,749,0
15918,414.33,643,747,0
15928,445.39,643,749,0
15938,480.71,643,748,0
15948,519.33,643,749,0
15968,558.02,653,748,0
15970,594.27,653,751,0
15980,626.33,653,747,0
15990,653.10,653,749,0
16001,672.23,653,747,0
16011,682.87,653,749,0
16021,684.58,653,747,0
16031,677.85,653,749,0
16041,664.01,653,747,0
16051,643.05,653,749,0
16061,616.25,653,747,0
16071,585.19,653,749,0
16081,551.62,653,747,0
16091,517.06,653,749,0
16101,483.14,653,747,0
16111,451.51,653,749,0
16121,423.33,653,747,0
16131,398.76,653,749,0
16141,378.35,653,747,0
16151,362.00,653,749,0
16161,349.96,653,747,0
16172,342.21,653,749,0
16182,338.33,653,748,0
16192,337.33,653,749,0
16202,339.55,653,747,0
16212,344.27,653,748,0
16222,350.87,653,748,0
16232,358.37,653,749,0
16242,366.23,653,747,0
16252,373.66,653,748,0
16262,380.66,653,748,0
16272,386.34,653,748,0
16282,390.82,653,747,0
16292,393.57,653,748,0
16302,395.12,653,748,0
16312,394.87,653,749,0
16322,393.49,653,747,0
16332,390.52,653,748,0
16343,386.80,653,748,0
16353,381.85,653,748,0
16363,376.71,653,747,0
16373,370.84,653,748,0
16384,365.40,653,748,0
16393,359.84,653,748,0
16403,355.17,653,748,0
16413,350.53,653,748,0
16423,346.95,653,748,0
16433,343.53,653,748,0
16443,341.14,653,748,0
16453,338.66,653,748,0
16463,337.05,653,748,0
16473,335.28,653,748,0
16483,334.34,653,748,0
16493,333.08,653,750,0
16503,332.50,653,750,0
16513,331.66,653,750,0
16523,331.89,653,750,0
16533,332.27,653,750,0
16543,334.84,653,750,0
16553,338.66,653,750,0
16563,345.75,653,750,0
16573,355.98,653,750,0
16583,371.12,653,750,0
16593,390.88,653,750,0
16603,416.33,653,750,0
16613,445.59,653,751,0
16623,479.23,653,751,0
16633,514.82,653,751,0
16643,551.09,653,751,0
16662,585.13,694,749,0
16664,614.79,694,753,0
16674,638.43,694,750,0
16684,655.57,694,751,0
16694,664.18,694,751,0
16704,664.86,694,751,0
16714,656.97,694,750,0
16724,642.28,694,751,0
16734,621.67,694,750,0
16744,596.70,694,750,0
16754,567.43,694,750,0
16764,537.04,694,750,0
16774,505.53,694,750,0
16784,475.50,694,750,0
16794,446.85,694,750,0
16804,421.44,694,751,0
16814,398.51,694,750,0
16824,379.88,694,750,0
16834,364.15,694,749,0
16844,352.96,694,750,0
16855,344.87,694,749,0
16865,340.92,694,750,0
16875,339.58,694,749,0
16885,341.67,694,750,0
16896,345.46,694,748,0
16905,351.75,694,750,0
16915,358.47,694,749,0
16925,366.56,694,751,0
16935,373.85,694,749,0
16945,381.26,694,751,0
16955,387.06,694,750,0
16965,392.61,694,752,0
16975,395.98,694,750,0
16985,398.86,694,752,0
16995,399.37,694,751,0
17005,399.26,694,752,0
17015,397.17,694,748,0
17025,395.02,694,749,0
17035,391.16,694,748,0
17045,387.38,694,749,0
17055,382.34,694,747,0
17065,377.74,694,749,0
17075,372.54,694,748,0
17085,368.10,694,749,0
17095,363.01,694,747,0
17105,358.76,694,749,0
17115,354.33,694,748,0
17125,350.89,694,749,0
17135,347.24,694,747,0
17145,344.81,694,749,0
17155,342.25,694,748,0
17165,341.02,694,749,0
17175,339.56,694,747,0
17185,339.48,694,749,0
17196,339.33,694,748,0
17206,340.99,694,749,0
17216,343.18,694,747,0
17226,348.31,694,749,0
17236,355.59,694,747,0
17246,367.37,694,749,0
17256,382.56,694,747,0
17266,403.39,694,749,0
17276,428.39,694,747,0
17286,458.23,694,749,0
17296,490.35,694,747,0
17306,524.31,694,749,0
17326,557.69,663,748,0
17329,587.87,663,750,0
17338,613.15,663,747,0
17348,632.65,663,749,0
17358,644.63,663,747,0
17368,649.41,663,749,0
17378,645.94,663,747,0
17388,634.86,663,749,0
17398,618.06,663,747,0
17409,595.71,663,749,0
17419,569.36,663,747,0
17429,540.54,663,749,0
17439,510.29,663,748,0
17449,480.33,663,749,0
17459,451.60,663,747,0
17469,425.58,663,749,0
17479,402.78,663,748,0
17489,383.56,663,749,0
17499,368.09,663,747,0
17509,356.79,663,749,0
17519,349.40,663,747,0
17529,345.94,663,749,0
17539,345.65,663,747,0
17549,348.59,663,749,0
17559,353.77,663,747,0
17569,360.91,663,749,0
17580,369.04,663,747,0
17590,377.64,663,749,0
17600,385.98,663,747,0
17610,393.78,663,749,0
17620,400.45,663,747,0
17630,405.80,663,749,0
17640,409.55,663,748,0
17650,411.52,663,749,0
17660,412.05,663,748,0
17670,411.09,663,749,0
17680,408.97,663,748,0
17690,405.55,663,749,0
17700,401.40,663,748,0
17710,396.65,663,749,0
17720,391.74,663,748,0
17730,386.55,663,749,0
17740,381.58,663,748,0
17751,376.87,663,749,0
17761,372.71,663,748,0
17771,368.72,663,748,0
17781,365.33,663,748,0
17792,362.41,663,748,0
17801,360.40,663,748,0
17811,359.46,663,749,0
17821,359.54,663,748,0
17831,360.92,663,748,0
17841,364.50,663,748,0
17851,370.44,663,749,0
17861,380.25,663,748,0
17871,393.85,663,748,0
17881,412.62,663,749,0
17891,436.01,663,749,0
17901,463.86,663,748,0
17911,494.80,663,748,0
17921,527.95,663,748,0
17940,560.79,615,747,0
17943,591.15,615,749,0
17952,616.65,615,748,0
17963,637.07,615,749,0
17972,650.42,615,748,0
17982,656.81,615,748,0
17992,655.41,615,748,0
18002,646.84,615,748,0
18012,632.53,615,749,0
18022,612.62,615,748,0
18032,587.57,615,748,0
18042,559.72,615,748,0
18052,529.59,615,748,0
18062,499.41,615,748,0
18072,469.54,615,748,0
18082,441.74,615,748,0
18092,416.49,615,748,0
18102,395.26,615,748,0
18112,377.48,615,748,0
18122,364.44,615,748,0
18132,354.96,615,748,0
18142,350.17,615,748,0
18152,348.45,615,748,0
18162,350.59,615,748,0
18172,354.78,615,748,0
18182,361.70,615,748,0
18192,369.51,615,748,0
18202,378.66,615,748,0
18212,387.33,615,748,0
18222,396.15,615,748,0
18232,403.34,615,748,0
18242,409.88,615,748,0
18252,414.29,615,748,0
18263,417.67,615,748,0
18273,418.54,615,747,0
18283,418.42,615,749,0
18293,416.07,615,748,0
18304,413.22,615,749,0
18313,408.65,615,748,0
18323,404.17,615,749,0
18333,398.25,615,748,0
18343,393.12,615,749,0
18353,387.08,615,748,0
18363,382.13,615,749,0
18373,376.60,615,748,0
18383,372.44,615,749,0
18393,367.81,615,748,0
18403,364.44,615,749,0
18413,360.71,615,748,0
18423,358.26,615,749,0
18433,355.66,615,748,0
18443,354.77,615,749,0
18453,354.46,615,748,0
18463,357.02,615,749,0
18473,361.94,615,748,0
18483,371.56,615,749,0
18493,385.45,615,748,0
18503,406.14,615,749,0
18513,432.37,615,748,0
18523,465.30,615,749,0
18533,502.45,615,748,0
18552,542.30,612,746,0
18555,581.51,612,747,0
18564,618.82,612,749,0
18574,651.36,612,748,0
18584,678.85,612,749,0
18594,699.81,612,748,0
18604,715.00,612,749,0
18614,723.14,612,748,0
18624,724.90,612,749,0
18634,719.49,612,748,0
18644,707.55,612,749,0
18654,688.53,612,747,0
18664,663.21,612,749,0
18674,631.31,612,748,0
18684,596.50,612,749,0
18694,559.79,612,747,0
18704,524.24,612,749,0
18714,489.88,612,748,0
18724,459.32,612,749,0
18734,432.05,612,748,0
18744,410.01,612,749,0
18754,392.01,612,748,0
18764,379.36,612,749,0
18775,370.55,612,748,0
18785,366.79,612,750,0
18795,366.04,612,747,0
18805,369.20,612,749,0
18816,374.19,612,747,0
18825,381.81,612,749,0
18835,389.71,612,747,0
18845,398.41,612,749,0
18855,406.00,612,747,0
18865,413.24,612,749,0
18875,418.48,612,747,0
18885,422.75,612,749,0
18895,424.67,612,747,0
18905,425.54,612,749,0
18915,424.22,612,747,0
18925,422.18,612,749,0
18935,418.23,612,747,0
18945,413.92,612,749,0
18955,408.24,612,748,0
18965,402.68,612,749,0
18975,396.05,612,747,0
18985,390.16,612,749,0
18995,383.51,612,748,0
19005,377.70,612,749,0
19015,371.79,612,747,0
19025,366.84,612,750,0
19035,361.75,612,748,0
19045,358.01,612,749,0
19055,354.58,612,748,0
19065,353.25,612,749,0
19075,353.73,612,748,0
19085,357.88,612,749,0
19095,365.63,612,747,0
19105,379.16,612,749,0
19116,398.31,612,747,0
19126,424.70,612,749,0
19136,457.23,612,747,0
19146,495.61,612,750,0
19156,536.10,612,748,0
19175,576.87,623,746,0
19178,615.01,623,748,0
19187,649.21,623,750,0
19197,677.43,623,748,0
19207,699.46,623,750,0
19217,714.88,623,748,0
19227,724.13,623,750,0
19237,726.66,623,748,0
19247,722.99,623,749,0
19257,712.37,623,747,0
19267,695.24,623,750,0
19277,670.70,623,747,0
19287,639.72,623,750,0
19297,603.72,623,747,0
19307,565.44,623,749,0
19317,526.44,623,748,0
19328,488.51,623,749,0
19337,452.57,623,747,0
19347,420.94,623,749,0
19357,393.62,623,748,0
19367,371.75,623,749,0
19377,355.15,623,747,0
19387,343.66,623,749,0
19397,337.16,623,748,0
19407,335.57,623,750,0
19417,337.59,623,747,0
19427,342.94,623,750,0
19437,350.41,623,747,0
19447,359.55,623,749,0
19457,369.03,623,747,0
19467,378.75,623,750,0
19477,387.44,623,748,0
19487,395.19,623,749,0
19497,401.13,623,747,0
19507,405.47,623,749,0
19517,407.64,623,747,0
19527,408.13,623,750,0
19537,406.59,623,747,0
19547,403.59,623,750,0
19557,399.00,623,748,0
19567,393.47,623,749,0
19577,386.99,623,747,0
19587,380.35,623,750,0
19597,373.39,623,748,0
19607,366.71,623,750,0
19617,360.07,623,747,0
19628,354.31,623,750,0
19638,348.90,623,748,0
19648,344.09,623,749,0
19658,339.82,623,747,0
19668,336.32,623,749,0
19678,333.48,623,748,0
19688,331.49,623,749,0
19698,330.06,623,747,0
19708,329.44,623,749,0
19718,329.99,623,748,0
19728,331.24,623,749,0
19738,333.61,623,747,0
19748,337.20,623,749,0
19758,342.92,623,748,0
19768,351.52,623,749,0
19778,364.22,623,747,0
19788,381.90,623,749,0
19799,405.97,623,748,0
19809,436.49,623,749,0
19819,473.50,623,748,0
19829,514.32,623,749,0
19840,556.18,623,748,0
19849,596.67,623,749,0
19868,633.58,693,747,0
19870,665.08,693,748,0
19880,690.26,693,749,0
19890,708.44,693,749,0
19900,720.91,693,748,0
19910,726.89,693,748,0
19920,726.45,693,749,0
19930,718.95,693,749,0
19940,704.39,693,748,0
19950,681.90,693,748,0
19960,652.45,693,748,0
19970,616.18,693,749,0
19980,576.66,693,748,0
19990,535.19,693,748,0
20000,494.59,693,748,0
20011,455.71,693,748,0
20020,421.47,693,748,0
20030,391.41,693,748,0
20040,367.46,693,749,0
20050,348.68,693,748,0
20060,336.13,693,748,0
20070,328.46,693,748,0
20080,326.27,693,748,0
20090,327.64,693,748,0
20100,332.89,693,748,0
20110,340.13,693,748,0
20120,349.60,693,748,0
20130,359.58,693,748,0
20140,370.59,693,748,0
20150,380.49,693,748,0
20160,389.85,693,748,0
20170,397.10,693,748,0
20180,403.11,693,748,0
20190,406.46,693,748,0
20200,408.08,693,748,0
20210,406.86,693,748,0
20220,404.59,693,749,0
20230,400.47,693,748,0
20240,395.70,693,748,0
20250,389.32,693,748,0
20260,382.79,693,749,0
20270,375.31,693,748,0
20280,368.15,693,748,0
20290,360.35,693,748,0
20300,353.09,693,748,0
20311,345.86,693,748,0
20321,339.73,693,749,0
20331,334.11,693,748,0
20341,329.96,693,749,0
20352,326.25,693,747,0
20361,324.11,693,748,0
20371,322.24,693,748,0
20381,321.87,693,749,0
20391,321.61,693,747,0
20401,322.41,693,748,0
20411,323.10,693,748,0
20421,324.87,693,749,0
20431,326.58,693,747,0
20441,329.75,693,748,0
20451,333.38,693,748,0
20461,339.70,693,748,0
20471,348.36,693,747,0
20481,361.62,693,748,0
20491,379.35,693,748,0
20501,403.63,693,749,0
20511,433.48,693,747,0
20521,469.77,693,749,0
20531,509.65,693,748,0
20541,551.07,693,749,0
20551,591.04,693,747,0
20561,628.01,693,749,0
20580,659.72,712,747,0
20582,684.79,712,749,0
20592,701.91,712,747,0
20602,710.47,712,749,0
20612,710.15,712,747,0
20622,702.14,712,749,0
20632,685.42,712,747,0
20642,661.21,712,749,0
20652,630.33,712,747,0
20662,594.23,712,749,0
20672,554.78,712,747,0
20682,515.03,712,749,0
20692,475.38,712,747,0
20702,439.22,712,749,0
20712,406.16,712,747,0
20722,378.25,712,749,0
20732,354.90,712,747,0
20742,337.49,712,749,0
20752,324.83,712,747,0
20762,318.15,712,749,0
20772,315.45,712,747,0
20782,317.59,712,749,0
20792,322.47,712,747,0
20802,330.68,712,749,0
20812,340.08,712,747,0
20823,351.28,712,749,0
20833,361.91,712,747,0
20843,373.34,712,749,0
20853,382.97,712,747,0
20864,391.63,712,749,0
20873,397.66,712,747,0
20883,402.30,712,749,0
20893,404.06,712,747,0
20903,404.38,712,749,0
20913,401.65,712,747,0
20923,397.94,712,749,0
20933,392.35,712,747,0
20943,386.37,712,749,0
20953,379.06,712,747,0
20963,372.14,712,749,0
20973,364.60,712,747,0
20983,357.82,712,749,0
20993,350.89,712,747,0
21003,345.31,712,749,0
21013,339.86,712,747,0
21023,335.79,712,749,0
21033,331.78,712,747,0
21043,329.36,712,749,0
21053,327.11,712,747,0
21063,326.30,712,749,0
21073,325.44,712,747,0
21083,325.74,712,749,0
21093,325.82,712,747,0
21103,326.77,712,749,0
21113,327.10,712,747,0
21123,328.14,712,749,0
21133,328.70,712,747,0
21143,329.90,712,749,0
21153,330.66,712,747,0
21164,332.56,712,749,0
21174,335.22,712,747,0
21184,340.43,712,749,0
21194,348.36,712,747,0
21204,360.81,712,749,0
21214,378.05,712,747,0
21224,401.91,712,749,0
21234,431.25,712,747,0
21244,466.49,712,749,0
21254,505.17,712,747,0
21264,545.71,712,749,0
21283,585.18,703,748,0
21285,621.04,703,748,0
21295,651.54,703,747,0
21305,675.68,703,749,0
21315,690.82,703,747,0
21325,697.34,703,748,0
21335,694.54,703,747,0
21345,683.19,703,749,0
21355,664.24,703,747,0
21365,638.02,703,748,0
21376,606.09,703,747,0
21385,570.92,703,749,0
21395,533.53,703,747,0
21405,496.17,703,748,0
21415,460.33,703,747,0
21425,427.62,703,749,0
21435,398.50,703,747,0
21445,373.67,703,748,0
21455,353.24,703,747,0
21465,337.95,703,749,0
21475,327.38,703,747,0
21485,322.38,703,749,0
21495,321.50,703,747,0
21505,324.60,703,749,0
21515,330.68,703,747,0
21525,339.35,703,749,0
21535,349.49,703,747,0
21545,360.74,703,749,0
21555,371.19,703,747,0
21565,381.42,703,749,0
21575,390.68,703,747,0
21585,398.70,703,749,0
21595,405.01,703,747,0
21605,409.72,703,749,0
21615,412.33,703,747,0
21625,413.05,703,749,0
21635,411.75,703,747,0
21645,408.95,703,749,0
21655,404.68,703,747,0
21665,399.50,703,749,0
21676,393.27,703,747,0
21686,386.72,703,748,0
21696,379.99,703,747,0
21706,373.52,703,749,0
21716,367.19,703,747,0
21726,361.52,703,749,0
21736,356.31,703,747,0
21746,351.76,703,749,0
21756,347.84,703,747,0
21766,344.46,703,749,0
21776,341.88,703,747,0
21786,339.77,703,749,0
21796,338.13,703,747,0
21806,336.89,703,749,0
21816,336.49,703,747,0
21826,337.33,703,748,0
21836,340.19,703,747,0
21847,345.10,703,748,0
21857,353.86,703,747,0
21867,366.76,703,748,0
21877,384.79,703,748,0
21888,407.95,703,748,0
21897,436.29,703,748,0
21907,468.56,703,748,0
21917,503.84,703,748,0
21927,539.63,703,748,0
21937,574.20,703,748,0
21956,605.21,673,746,0
21958,629.58,673,749,0
21968,646.55,673,748,0
21978,655.94,673,748,0
21988,656.73,673,748,0
21998,649.44,673,748,0
22008,634.09,673,748,0
22018,612.16,673,747,0
22028,586.06,673,748,0
22038,556.68,673,748,0
22048,524.42,673,748,0
22059,491.85,673,748,0
22068,459.45,673,748,0
22078,429.49,673,748,0
22088,401.87,673,748,0
22098,378.21,673,748,0
22108,357.83,673,748,0
22118,342.20,673,748,0
22128,330.31,673,748,0
22138,323.27,673,748,0
22148,319.76,673,748,0
22158,320.48,673,748,0
22168,323.76,673,748,0
22178,330.18,673,748,0
22188,338.05,673,748,0
22198,347.68,673,748,0
22208,357.25,673,748,0
22218,367.33,673,748,0
22228,376.27,673,748,0
22238,384.76,673,748,0
22248,391.26,673,748,0
22258,396.84,673,748,0
22268,400.06,673,748,0
22278,402.10,673,748,0
22288,402.28,673,748,0
22298,401.43,673,748,0
22308,398.94,673,748,0
22318,395.79,673,748,0
22328,390.79,673,748,0
22338,385.58,673,748,0
22348,379.54,673,748,0
22359,373.25,673,748,0
22369,366.49,673,748,0
22379,360.13,673,748,0
22389,353.70,673,747,0
22400,348.44,673,749,0
22409,343.72,673,748,0
22419,340.16,673,748,0
22429,336.77,673,748,0
22439,334.87,673,749,0
22449,332.98,673,748,0
22459,332.56,673,748,0
22469,332.35,673,748,0
22479,333.87,673,749,0
22489,336.18,673,748,0
22499,341.48,673,748,0
22509,349.14,673,747,0
22519,361.65,673,749,0
22529,378.30,673,748,0
22539,401.40,673,748,0
22549,429.39,673,748,0
22559,463.39,673,749,0
22569,500.99,673,748,0
22588,540.98,632,746,0
22591,579.21,632,747,0
22600,615.53,632,749,0
22610,646.75,632,748,0
22620,671.85,632,749,0
22630,688.31,632,747,0
22640,696.32,632,749,0
22650,694.76,632,747,0
22660,686.39,632,749,0
22670,669.43,632,747,0
22680,645.77,632,749,0
22690,615.88,632,747,0
22700,582.96,632,749,0
22710,547.32,632,747,0
22720,512.16,632,749,0
22730,477.10,632,747,0
22740,445.23,632,749,0
22750,416.19,632,747,0
22760,391.87,632,749,0
22770,371.08,632,747,0
22780,355.54,632,749,0
22790,343.90,632,747,0
22800,337.54,632,749,0
22810,334.68,632,747,0
22820,336.19,632,749,0
22830,340.25,632,747,0
22840,347.63,632,749,0
22850,356.18,632,747,0
22860,366.63,632,749,0
22871,376.73,632,747,0
22881,387.22,632,749,0
22891,396.24,632,747,0
22901,404.70,632,749,0
22912,410.70,632,747,0
22921,415.81,632,749,0
22931,418.18,632,747,0
22941,419.58,632,749,0
22951,418.34,632,747,0
22961,416.22,632,749,0
22971,411.95,632,747,0
22981,407.08,632,749,0
22991,400.54,632,747,0
23001,394.17,632,749,0
23011,386.66,632,747,0
23021,380.08,632,749,0
23031,373.28,632,747,0
23041,367.84,632,749,0
23051,362.92,632,747,0
23061,359.60,632,749,0
23071,356.68,632,747,0
23081,355.53,632,749,0
23091,354.47,632,747,0
23101,354.54,632,749,0
23111,354.55,632,747,0
23121,355.89,632,749,0
23131,357.68,632,747,0
23141,362.02,632,749,0
23151,368.57,632,747,0
23161,379.71,632,749,0
23171,395.23,632,747,0
23181,417.53,632,749,0
23191,445.66,632,747,0
23201,480.52,632,749,0
23212,519.10,632,747,0
23231,559.06,643,746,0
23233,597.66,643,747,0
23243,633.59,643,749,0
23254,664.35,643,748,0
23263,689.45,643,749,0
23273,707.74,643,747,0
23283,719.95,643,749,0
23293,725.88,643,748,0
23303,725.66,643,749,0
23313,718.52,643,747,0
23323,704.52,643,749,0
23333,683.23,643,747,0
23343,655.39,643,749,0
23353,621.63,643,746,0
23363,584.76,643,752,0
23373,546.34,643,748,0
23383,509.08,643,750,0
23393,474.04,643,747,0
23403,443.17,643,749,0
23413,416.81,643,747,0
23424,396.04,643,749,0
23433,380.55,643,747,0
23443,370.70,643,749,0
23453,365.91,643,748,0
23463,365.85,643,749,0
23473,369.84,643,748,0
23483,377.13,643,749,0
23493,386.65,643,747,0
23503,397.72,643,749,0
23513,409.08,643,747,0
23523,420.20,643,749,0
23533,430.34,643,747,0
23543,438.98,643,749,0
23553,445.63,643,747,0
23563,450.67,643,749,0
23573,453.64,643,747,0
23583,455.20,643,749,0
23593,454.93,643,747,0
23603,453.49,643,749,0
23613,450.56,643,747,0
23623,446.53,643,749,0
23633,441.36,643,748,0
23643,435.55,643,749,0
23653,428.96,643,748,0
23663,421.94,643,749,0
23673,414.55,643,747,0
23683,407.31,643,753,0
23693,400.23,643,751,0
23703,393.56,643,749,0
23713,387.14,643,748,0
23724,381.14,643,749,0
23734,375.65,643,748,0
23744,370.66,643,749,0
23754,366.56,643,748,0
23764,363.78,643,748,0
23774,362.73,643,747,0
23784,364.48,643,749,0
23794,370.17,643,748,0
23804,380.83,643,748,0
23814,397.47,643,748,0
23824,420.68,643,749,0
23834,450.86,643,752,0
23844,487.12,643,749,0
23854,526.94,643,748,0
23864,567.33,643,749,0
23883,606.06,652,747,0
23886,641.10,652,750,0
23895,670.90,652,748,0
23905,694.37,652,749,0
23915,711.23,652,749,0
23925,720.59,652,748,0
23936,722.90,652,749,0
23945,717.57,652,749,0
23955,704.59,652,748,0
23965,683.24,652,748,0
23975,654.20,652,748,0
23985,617.97,652,749,0
23995,577.69,652,748,0
24005,534.88,652,748,0
24015,492.28,652,748,0
24025,451.44,652,749,0
24035,414.70,652,748,0
24045,382.05,652,752,0
24055,354.82,652,748,0
24065,332.72,652,749,0
24075,316.86,652,752,0
24085,306.14,652,747,0
24095,300.87,652,748,0
24105,299.84,652,748,0
24115,303.49,652,752,0
24125,309.90,652,749,0
24135,319.31,652,749,0
24145,329.76,652,749,0
24155,341.53,652,748,0
24165,353.12,652,748,0
24175,364.44,652,750,0
24185,374.16,652,750,0
24195,382.64,652,748,0
24205,388.79,652,748,0
24215,393.27,652,748,0
24225,395.46,652,749,0
24236,395.92,652,748,0
24246,394.23,652,748,0
24256,391.50,652,748,0
24266,386.98,652,748,0
24276,381.84,652,749,0
24286,375.51,652,748,0
24296,369.05,652,752,0
24306,361.97,652,749,0
24316,355.63,652,751,0
24326,349.10,652,751,0
24336,343.93,652,751,0
24346,339.02,652,751,0
24356,335.59,652,751,0
24366,332.32,652,751,0
24376,330.43,652,752,0
24386,328.67,652,749,0
24396,328.26,652,749,0
24407,328.05,652,748,0
24417,329.53,652,749,0
24427,332.03,652,748,0
24437,337.81,652,749,0
24448,346.57,652,747,0
24457,360.20,652,748,0
24467,378.52,652,748,0
24477,403.61,652,749,0
24487,434.33,652,748,0
24497,471.17,652,749,0
24507,511.45,652,748,0
24526,552.97,643,746,0
24528,592.84,643,748,0
24538,629.66,643,749,0
24548,661.09,643,748,0
24558,686.82,643,749,0
24568,703.97,643,748,0
24578,713.02,643,749,0
24588,713.62,643,748,0
24598,706.96,643,749,0
24608,691.89,643,748,0
24619,669.12,643,749,0
24628,638.61,643,747,0
24638,603.71,643,749,0
24648,564.80,643,748,0
24658,525.35,643,749,0
24668,485.86,643,748,0
24678,449.43,643,749,0
24688,416.30,643,748,0
24698,388.27,643,749,0
24708,364.62,643,748,0
24718,346.90,643,749,0
24728,333.60,643,748,0
24738,325.62,643,749,0
24748,321.54,643,748,0
24758,322.19,643,749,0
24768,325.39,643,748,0
24778,331.70,643,749,0
24788,338.95,643,747,0
24798,348.22,643,750,0
24808,357.24,643,748,0
24818,366.55,643,749,0
24828,374.10,643,747,0
24838,381.10,643,749,0
24848,385.74,643,748,0
24858,389.20,643,749,0
24868,389.87,643,748,0
24878,389.27,643,749,0
24888,386.40,643,748,0
24898,382.85,643,749,0
24908,377.63,643,748,0
24919,372.38,643,750,0
24929,366.09,643,748,0
24939,360.32,643,749,0
24949,353.97,643,747,0
24960,348.58,643,750,0
24969,342.79,643,747,0
24979,337.97,643,749,0
24989,332.83,643,747,0
24999,328.73,643,750,0
25009,324.39,643,747,0
25019,321.15,643,749,0
25029,317.80,643,747,0
25039,316.02,643,750,0
25049,315.03,643,748,0
25059,316.65,643,749,0
25069,320.65,643,747,0
25079,329.07,643,749,0
25089,341.44,643,747,0
25099,359.86,643,747,0
25109,383.65,643,749,0
25119,413.84,643,753,0
25129,448.73,643,748,0
25139,487.73,643,750,0
25158,527.71,632,748,0
25161,566.67,632,750,0
25170,602.94,632,748,0
25180,634.59,632,749,0
25190,658.50,632,747,0
25200,674.16,632,750,0
25210,679.94,632,751,0
25220,677.39,632,750,0
25230,666.99,632,749,0
25240,648.65,632,750,0
25250,623.38,632,748,0
25260,594.17,632,750,0
25270,561.97,632,748,0
25280,529.32,632,753,0
25290,496.96,632,751,0
25300,467.10,632,750,0
25310,440.58,632,749,0
25320,419.54,632,751,0
25330,403.99,632,749,0
25340,395.16,632,750,0
25350,392.76,632,751,0
25360,396.94,632,751,0
25370,406.78,632,751,0
25380,422.14,632,750,0
25390,441.04,632,747,0
25400,462.84,632,750,0
25410,485.48,632,748,0
25420,508.48,632,750,0
25431,529.93,632,748,0
25441,549.54,632,751,0
25451,565.79,632,749,0
25461,578.84,632,751,0
25472,587.97,632,748,0
25481,593.94,632,750,0
25491,596.49,632,748,0
25501,596.68,632,750,0
25511,594.68,632,747,0
25521,591.60,632,752,0
25531,587.78,632,747,0
25541,583.95,632,754,0
25551,580.49,632,748,0
25561,578.11,632,749,0
25571,576.79,632,748,0
25581,577.37,632,749,0
25591,580.05,632,747,0
25601,585.69,632,749,0
25611,594.95,632,748,0
25621,609.02,632,749,0
25631,626.12,632,751,0
25641,645.15,632,752,0
25651,664.74,632,751,0
25661,683.89,632,750,0
25671,701.45,632,752,0
25681,716.31,632,754,0
25691,726.81,632,749,0
25701,734.19,632,747,0
25711,739.36,632,748,0
25721,743.03,632,749,0
25731,745.63,632,748,0
25741,747.50,632,754,0
25751,748.76,632,752,0
25761,749.65,632,753,0
25772,750.27,632,753,0
25791,750.75,633,751,0
25794,751.12,633,753,0
25803,751.39,633,747,0
25814,751.57,633,749,0
25823,747.07,633,747,0
25833,733.03,633,751,0
25843,705.81,633,748,0
25853,664.85,633,749,0
25863,609.57,633,749,0
25873,540.57,633,748,0
25883,460.04,633,748,0
25893,376.11,633,746,0
25903,296.02,633,749,0
25913,225.13,633,748,0
25923,165.18,633,748,0
25933,117.55,633,748,0
25943,82.29,633,749,0
25953,57.60,633,748,0
25963,40.32,633,748,0
25973,28.22,633,752,0
25984,19.76,633,749,0
25993,13.83,633,748,0
26003,11.05,633,748,0
26013,13.48,633,748,0
26023,21.74,633,748,0
26033,36.73,633,749,0
26043,57.98,633,748,0
26053,85.67,633,748,0
26063,118.73,633,751,0
26073,155.37,633,748,0
26083,191.86,633,748,0
26093,226.79,633,748,0
26103,257.66,633,748,0
26113,284.42,633,752,0
26123,305.68,633,748,0
26133,322.45,633,748,0
26143,334.01,633,749,0
26153,341.77,633,748,0
26163,345.35,633,748,0
26173,346.49,633,748,0
26183,345.01,633,748,0
26193,343.08,633,748,0
26203,339.93,633,748,0
26213,337.42,633,748,0
26223,335.45,633,748,0
26233,336.00,633,748,0
26243,339.04,633,748,0
26253,346.83,633,748,0
26263,359.27,633,748,0
26273,378.94,633,752,0
26284,406.22,633,748,0
26294,442.11,633,752,0
26304,483.39,633,748,0
26314,527.55,633,749,0
26324,571.35,633,748,0
26334,612.78,633,748,0
26344,649.23,633,748,0
26354,679.03,633,749,0
26364,700.62,633,747,0
26374,715.78,633,748,0
26384,726.39,633,748,0
26394,733.81,633,749,0
26404,739.01,633,747,0
26414,742.69,633,749,0
26424,745.23,633,750,0
26443,742.59,652,747,0
26445,729.34,652,748,0
26455,706.78,652,749,0
26465,672.90,652,747,0
26475,628.15,652,749,0
26485,572.17,652,747,0
26496,506.38,652,749,0
26505,435.89,652,748,0
26515,368.13,652,749,0
26525,302.73,652,747,0
26535,243.88,652,749,0
26545,192.28,652,747,0
26555,150.32,652,749,0
26565,117.27,652,747,0
26575,94.39,652,749,0
26585,80.09,652,747,0
26595,75.35,652,753,0
26605,78.07,652,747,0
26615,88.64,652,749,0
26625,104.30,652,747,0
26635,125.60,652,749,0
26645,149.59,652,747,0
26655,176.54,652,749,0
26665,203.51,652,747,0
26675,230.66,652,748,0
26685,255.23,652,747,0
26695,278.09,652,748,0
26705,296.88,652,747,0
26715,312.73,652,749,0
26725,324.00,652,747,0
26735,332.31,652,748,0
26745,336.46,652,747,0
26755,338.42,652,752,0
26765,336.92,652,749,0
26775,333.99,652,749,0
26785,328.55,652,747,0
26796,322.73,652,749,0
26806,315.40,652,747,0
26816,308.63,652,749,0
26826,301.12,652,747,0
26836,295.25,652,749,0
26846,289.86,652,747,0
26856,287.37,652,749,0
26866,286.96,652,747,0
26876,290.66,652,748,0
26886,297.58,652,747,0
26896,309.96,652,748,0
26906,326.99,652,747,0
26916,349.70,652,748,0
26926,375.94,652,747,0
26936,406.47,652,748,0
26946,438.77,652,747,0
26956,472.74,652,751,0
26967,504.83,652,750,0
26977,533.81,652,751,0
26987,557.31,652,750,0
26997,575.00,652,751,0
27008,584.43,652,750,0
27017,586.44,652,750,0
27036,579.80,593,748,0
27038,565.71,593,752,0
27048,546.09,593,751,0
27058,522.57,593,753,0
27068,495.92,593,747,0
27078,468.43,593,749,0
27088,440.53,593,747,0
27098,414.27,593,748,0
27108,390.40,593,747,0
27118,368.77,593,751,0
27128,349.55,593,749,0
27138,334.09,593,748,0
27148,321.76,593,747,0
27158,313.05,593,751,0
27168,307.20,593,750,0
27179,304.79,593,752,0
27188,304.72,593,749,0
27198,307.38,593,750,0
27208,312.15,593,749,0
27218,318.36,593,750,0
27228,325.20,593,748,0
27238,333.02,593,751,0
27248,340.47,593,750,0
27258,347.92,593,752,0
27268,354.28,593,746,0
27278,359.60,593,749,0
27288,363.58,593,747,0
27298,366.66,593,748,0
27308,368.01,593,747,0
27318,368.65,593,748,0
27328,367.85,593,746,0
27338,366.53,593,748,0
27348,363.88,593,746,0
27358,361.00,593,748,0
27368,357.49,593,746,0
27378,353.96,593,748,0
27388,350.07,593,746,0
27398,346.62,593,748,0
27408,343.13,593,746,0
27418,340.27,593,748,0
27428,337.87,593,746,0
27438,336.75,593,748,0
27448,336.74,593,746,0
27458,338.88,593,748,0
27468,343.33,593,746,0
27479,351.24,593,748,0
27489,362.74,593,746,0
27499,378.51,593,748,0
27509,398.15,593,746,0
27520,422.15,593,748,0
27529,448.81,593,746,0
27539,477.45,593,748,0
27549,506.16,593,746,0
27569,533.24,532,745,0
27571,555.67,532,748,0
27581,573.55,532,747,0
27591,585.60,532,747,0
27601,591.46,532,747,0
27611,590.81,532,747,0
27621,583.88,532,747,0
27631,571.79,532,747,0
27641,556.04,532,747,0
27651,536.70,532,747,0
27661,514.25,532,747,0
27671,490.60,532,747,0
27681,465.91,532,747,0
27692,442.15,532,747,0
27702,419.00,532,747,0
27712,398.47,532,747,0
27722,380.07,532,747,0
27732,365.48,532,747,0
27742,353.47,532,746,0
27752,345.48,532,747,0
27762,340.02,532,747,0
27772,338.47,532,747,0
27782,339.10,532,747,0
27792,342.80,532,746,0
27802,347.57,532,746,0
27812,354.52,532,747,0
27822,361.82,532,747,0
27832,370.23,532,746,0
27842,377.92,532,747,0
27852,385.79,532,747,0
27863,392.19,532,746,0
27873,398.22,532,747,0
27883,402.40,532,746,0
27893,405.92,532,748,0
27904,407.36,532,746,0
27913,408.11,532,747,0
27923,406.88,532,746,0
27933,405.33,532,747,0
27943,402.10,532,746,0
27953,398.90,532,747,0
27963,394.30,532,746,0
27973,390.35,532,747,0
27983,385.36,532,746,0
27993,381.22,532,747,0
28003,376.61,532,746,0
28013,373.09,532,747,0
28023,369.29,532,746,0
28033,367.23,532,747,0
28043,365.79,532,746,0
28053,367.61,532,747,0
28063,371.88,532,745,0
28073,380.70,532,747,0
28083,393.56,532,746,0
28093,412.77,532,747,0
28103,436.15,532,746,0
28113,464.61,532,747,0
28123,495.11,532,746,0
28133,527.61,532,748,0
28143,558.54,532,746,0
28163,587.52,594,744,0
28165,609.18,594,746,0
28175,625.58,594,748,0
28185,634.02,594,745,0
28195,635.73,594,747,0
28205,629.30,594,745,0
28215,617.38,594,748,0
28225,598.67,594,745,0
28235,577.55,594,747,0
28246,552.40,594,745,0
28255,526.31,594,748,0
28265,499.09,594,745,0
28275,472.83,594,747,0
28285,447.17,594,745,0
28295,424.62,594,747,0
28305,404.76,594,746,0
28315,388.80,594,747,0
28325,375.66,594,745,0
28335,366.72,594,747,0
28345,360.89,594,745,0
28355,358.87,594,747,0
28365,359.42,594,745,0
28375,362.85,594,748,0
28385,367.91,594,745,0
28395,375.09,594,747,0
28405,382.69,594,745,0
28416,391.27,594,747,0
28425,399.20,594,745,0
28435,407.11,594,747,0
28445,413.34,594,745,0
28455,418.85,594,747,0
28465,422.32,594,745,0
28475,424.67,594,747,0
28485,424.90,594,745,0
28495,423.99,594,747,0
28505,421.08,594,745,0
28515,417.62,594,750,0
28525,412.59,594,747,0
28535,407.19,594,750,0
28545,400.96,594,748,0
28555,395.06,594,750,0
28565,388.35,594,747,0
28575,382.12,594,750,0
28585,375.27,594,747,0
28595,369.32,594,750,0
28605,363.65,594,747,0
28615,359.21,594,750,0
28625,355.51,594,747,0
28635,354.37,594,750,0
28645,355.03,594,747,0
28655,359.35,594,750,0
28665,367.09,594,747,0
28675,379.40,594,749,0
28685,396.73,594,748,0
28695,419.35,594,750,0
28705,446.03,594,747,0
28716,476.58,594,749,0
28726,508.55,594,747,0
28736,540.66,594,750,0
28755,570.46,593,748,0
28758,594.02,593,749,0
28767,611.89,593,747,0
28777,623.02,593,749,0
28787,626.79,593,748,0
28797,623.16,593,749,0
28807,612.66,593,747,0
28817,596.35,593,749,0
28827,576.74,593,747,0
28837,553.16,593,749,0
28847,527.14,593,747,0
28857,499.93,593,749,0
28867,473.04,593,747,0
28877,447.27,593,749,0
28887,423.40,593,747,0
28897,402.41,593,750,0
28907,384.72,593,748,0
28917,370.49,593,749,0
28928,359.84,593,747,0
28937,352.82,593,749,0
28947,349.23,593,747,0
28957,348.82,593,749,0
28967,351.23,593,747,0
28977,355.92,593,749,0
28987,362.33,593,747,0
28997,369.86,593,750,0
29007,378.04,593,747,0
29017,386.34,593,749,0
29027,394.26,593,748,0
29037,401.34,593,749,0
29047,407.32,593,747,0
29057,412.11,593,749,0
29067,415.55,593,747,0
29077,417.44,593,749,0
29087,417.87,593,747,0
29097,416.88,593,749,0
29107,414.94,593,748,0
29117,411.87,593,749,0
29127,407.97,593,747,0
29137,403.26,593,749,0
29147,398.68,593,748,0
29157,393.85,593,749,0
29167,388.92,593,747,0
29177,383.59,593,749,0
29187,378.53,593,747,0
29197,374.21,593,749,0
29207,371.02,593,747,0
29217,368.83,593,749,0
29228,369.05,593,748,0
29238,372.51,593,749,0
29248,380.28,593,747,0
29258,392.76,593,749,0
29268,410.36,593,748,0
29278,433.26,593,749,0
29288,460.96,593,748,0
29298,491.91,593,749,0
29308,524.72,593,748,0
29318,557.12,593,750,0
29337,587.13,582,747,0
29340,610.70,582,749,0
29349,628.62,582,749,0
29359,639.53,582,749,0
29369,643.15,582,748,0
29379,638.73,582,748,0
29389,627.45,582,748,0
29399,609.83,582,749,0
29409,589.35,582,748,0
29419,564.60,582,748,0
29429,537.94,582,749,0
29440,509.71,582,748,0
29449,482.50,582,748,0
29459,456.16,582,749,0
29469,432.46,582,749,0
29479,411.06,582,749,0
29489,393.30,582,748,0
29499,378.55,582,749,0
29509,368.02,582,748,0
29519,360.60,582,749,0
29529,357.08,582,748,0
29539,356.28,582,749,0
29549,359.07,582,749,0
29559,363.59,582,749,0
29569,369.93,582,749,0
29579,376.89,582,749,0
29589,384.90,582,749,0
29599,392.47,582,749,0
29609,400.30,582,749,0
29619,406.55,582,749,0
29629,412.39,582,749,0
29639,416.47,582,749,0
29649,419.76,582,749,0
29659,421.03,582,749,0
29669,421.49,582,748,0
29679,420.06,582,749,0
29689,417.94,582,749,0
29699,414.27,582,749,0
29709,410.42,582,749,0
29719,405.32,582,749,0
29729,400.47,582,749,0
29740,394.80,582,748,0
29750,389.80,582,749,0
29760,384.59,582,749,0
29770,380.56,582,749,0
29780,376.83,582,748,0
29790,375.34,582,749,0
29800,375.19,582,748,0
29810,378.61,582,749,0
29820,384.90,582,748,0
29830,396.03,582,749,0
29840,411.75,582,748,0
29850,432.91,582,749,0
29860,457.75,582,748,0
29870,486.45,582,749,0
29880,516.45,582,748,0
29890,547.08,582,749,0
29900,575.39,582,748,0
29920,599.91,583,748,0
29922,617.17,583,749,0
29932,628.86,583,751,0
29942,632.67,583,749,0
29953,629.47,583,751,0
29963,618.74,583,750,0
29973,601.98,583,748,0
29983,579.74,583,747,0
29993,555.52,583,749,0
30003,528.15,583,747,0
30013,500.46,583,749,0
30023,472.85,583,746,0
30033,447.14,583,749,0
30043,423.44,583,747,0
30053,403.21,583,749,0
30063,386.00,583,746,0
30073,372.67,583,749,0
30083,362.57,583,747,0
30093,356.53,583,749,0
30103,353.41,583,746,0
30113,353.89,583,749,0
30124,356.45,583,747,0
30134,361.46,583,749,0
30144,367.58,583,746,0
30154,375.12,583,749,0
30164,382.67,583,747,0
30174,390.65,583,749,0
30184,397.74,583,746,0
30194,404.38,583,749,0
30204,409.66,583,747,0
30214,414.22,583,749,0
30224,417.24,583,746,0
30234,419.23,583,749,0
30244,419.67,583,747,0
30254,419.30,583,749,0
30264,417.67,583,747,0
30274,415.45,583,749,0
30284,412.15,583,747,0
30295,408.29,583,749,0
30305,403.70,583,747,0
30315,398.86,583,749,0
30325,393.93,583,747,0
30336,389.11,583,749,0
30345,384.66,583,747,0
30355,381.72,583,749,0
30365,380.99,583,747,0
30375,383.52,583,749,0
30385,389.97,583,747,0
30395,401.59,583,749,0
30405,418.73,583,747,0
30415,441.82,583,749,0
30425,469.26,583,747,0
30435,500.17,583,749,0
30445,532.69,583,747,0
30455,565.10,583,749,0
30465,594.81,583,747,0
30484,620.32,564,746,0
30486,638.23,564,747,0
30496,649.17,564,749,0
30507,652.64,564,748,0
30516,648.63,564,751,0
30526,637.51,564,747,0
30536,619.70,564,748,0
30546,596.69,564,747,0
30556,571.07,564,748,0
30566,543.45,564,747,0
30576,514.64,564,748,0
30586,486.16,564,747,0
30596,459.24,564,748,0
30606,434.96,564,747,0
30616,413.67,564,748,0
30626,395.81,564,747,0
30636,381.64,564,748,0
30646,371.42,564,747,0
30656,364.44,564,748,0
30666,361.05,564,747,0
30676,360.43,564,747,0
30686,362.58,564,747,0
30696,366.69,564,748,0
30706,372.35,564,747,0
30716,378.80,564,747,0
30726,386.32,564,747,0
30736,393.55,564,748,0
30746,400.84,564,747,0
30756,407.15,564,747,0
30766,412.68,564,747,0
30776,416.63,564,748,0
30786,419.44,564,747,0
30796,420.68,564,747,0
30807,420.60,564,747,0
30817,418.79,564,747,0
30827,416.03,564,747,0
30837,411.95,564,747,0
30848,407.33,564,747,0
30857,401.75,564,748,0
30867,395.91,564,747,0
30877,389.77,564,747,0
30887,384.31,564,747,0
30897,379.16,564,748,0
30907,375.47,564,747,0
30917,373.18,564,747,0
30927,374.54,564,747,0
30937,379.14,564,747,0
30947,388.74,564,747,0
30957,403.26,564,747,0
30967,424.31,564,748,0
30977,450.70,564,748,0
30987,482.34,564,747,0
30997,516.61,564,747,0
31007,552.68,564,747,0
31017,587.32,564,748,0
31036,619.07,552,746,0
31038,643.18,552,747,0
31048,661.12,552,748,0
31058,670.51,552,747,0
31068,671.95,552,748,0
31078,664.76,552,747,0
31088,651.08,552,748,0
31098,630.27,552,747,0
31108,606.36,552,748,0
31118,577.79,552,747,0
31128,547.73,552,748,0
31138,516.22,552,747,0
31148,485.77,552,748,0
31158,455.80,552,747,0
31168,429.29,552,748,0
31178,405.37,552,747,0
31188,385.97,552,748,0
31198,370.00,552,747,0
31208,358.77,552,747,0
31218,351.04,552,747,0
31228,347.90,552,748,0
31238,347.63,552,747,0
31248,351.08,552,748,0
31258,356.29,552,747,0
31268,364.00,552,748,0
31278,372.23,552,747,0
31288,381.55,552,748,0
31298,390.04,552,747,0
31308,398.51,552,748,0
31319,405.13,552,746,0
31329,410.92,552,748,0
31339,414.42,552,747,0
31349,416.91,552,748,0
31360,416.98,552,746,0
31369,416.77,552,748,0
31379,414.31,552,747,0
31389,411.43,552,748,0
31399,406.72,552,746,0
31409,402.04,552,748,0
31419,396.29,552,747,0
31429,390.93,552,748,0
31439,384.31,552,746,0
31449,378.94,552,748,0
31459,373.99,552,747,0
31469,371.89,552,748,0
31479,371.92,552,747,0
31489,376.28,552,748,0
31499,384.72,552,746,0
31509,399.68,552,748,0
31519,420.17,552,747,0
31529,447.42,552,748,0
31539,478.80,552,747,0
31549,514.30,552,749,0
31559,550.60,552,747,0
31569,587.19,552,749,0
31579,619.70,552,747,0
31598,647.26,562,745,0
31600,665.61,562,747,0
31610,676.79,562,748,0
31620,678.48,562,747,0
31630,672.25,562,748,0
31640,657.00,562,747,0
31650,635.27,562,748,0
31660,607.72,562,747,0
31670,578.10,562,748,0
31680,545.16,562,746,0
31690,511.98,562,748,0
31700,478.94,562,746,0
31710,448.45,562,749,0
31720,420.71,562,747,0
31730,396.97,562,748,0
31740,376.54,562,747,0
31750,361.29,562,749,0
31760,349.72,562,747,0
31770,342.99,562,748,0
31780,339.56,562,747,0
31790,340.25,562,749,0
31800,343.22,562,747,0
31810,349.41,562,748,0
31820,356.66,562,747,0
31831,366.02,562,749,0
31841,375.14,562,746,0
31851,384.70,562,748,0
31861,392.76,562,747,0
31872,400.33,562,748,0
31881,405.93,562,746,0
31891,410.20,562,748,0
31901,412.02,562,746,0
31911,412.40,562,748,0
31921,410.57,562,747,0
31931,407.70,562,748,0
31941,403.12,562,746,0
31951,397.81,562,748,0
31961,391.48,562,747,0
31971,385.12,562,748,0
31981,378.40,562,746,0
31991,372.41,562,748,0
32001,366.50,562,747,0
32011,362.24,562,748,0
32021,359.51,562,746,0
32031,360.08,562,748,0
32041,364.04,562,747,0
32051,373.16,562,748,0
32061,387.43,562,746,0
32071,408.51,562,748,0
32081,435.40,562,747,0
32091,468.02,562,749,0
32101,504.15,562,747,0
32111,542.46,562,749,0
32121,579.86,562,747,0
32131,614.79,562,750,0
32150,643.74,552,747,0
32152,664.43,552,749,0
32162,676.56,552,747,0
32172,679.82,552,749,0
32182,673.49,552,746,0
32192,658.86,552,748,0
32202,636.14,552,746,0
32212,607.69,552,748,0
32222,575.81,552,746,0
32232,541.41,552,749,0
32242,505.63,552,746,0
32252,470.77,552,751,0
32262,437.67,552,750,0
32272,408.07,552,750,0
32282,382.59,552,748,0
32292,361.71,552,750,0
32302,345.30,552,748,0
32312,333.85,552,750,0
32322,326.91,552,748,0
32332,324.54,552,750,0
32343,326.26,552,748,0
32353,331.03,552,750,0
32363,338.35,552,748,0
32373,347.24,552,750,0
32384,357.20,552,748,0
32393,367.55,552,750,0
32403,377.50,552,748,0
32413,386.27,552,749,0
32423,393.73,552,748,0
32433,399.38,552,750,0
32443,403.25,552,748,0
32453,405.02,552,750,0
32463,404.93,552,748,0
32473,403.19,552,750,0
32483,399.88,552,748,0
32493,395.29,552,749,0
32503,389.97,552,748,0
32513,384.07,552,749,0
32523,377.92,552,748,0
32533,371.56,552,750,0
32543,365.35,552,748,0
32553,359.41,552,749,0
32563,354.40,552,748,0
32573,350.00,552,750,0
32583,347.04,552,748,0
32593,345.57,552,750,0
32603,346.51,552,751,0
32613,350.69,552,747,0
32623,359.05,552,749,0
32633,371.85,552,752,0
32643,389.94,552,750,0
32653,413.10,552,752,0
32663,441.78,552,750,0
32673,474.16,552,751,0
32684,508.53,552,750,0
32694,542.74,552,750,0
32704,574.70,552,749,0
32723,602.35,573,748,0
32727,621.83,573,750,0
32735,633.07,573,750,0
32745,635.88,573,749,0
32755,629.66,573,750,0
32765,615.49,573,750,0
32775,594.00,573,750,0
32785,567.30,573,749,0
32795,538.24,573,750,0
32805,507.31,573,750,0
32815,475.37,573,750,0
32825,444.88,573,749,0
32835,415.77,573,750,0
32845,390.17,573,750,0
32855,367.10,573,749,0
32865,348.22,573,749,0
32875,332.81,573,749,0
32885,322.15,573,750,0
32896,315.08,573,749,0
32905,312.57,573,749,0
32915,313.13,573,749,0
32925,317.46,573,750,0
32935,324.14,573,749,0
32945,333.01,573,749,0
32955,342.35,573,749,0
32965,352.70,573,749,0
32975,362.22,573,749,0
32985,371.15,573,749,0
32995,378.09,573,749,0
33005,383.77,573,749,0
33015,387.05,573,748,0
33025,389.14,573,748,0
33035,388.71,573,749,0
33045,387.34,573,749,0
33055,384.02,573,749,0
33065,380.20,573,749,0
33075,375.00,573,749,0
33085,369.86,573,749,0
33095,363.77,573,749,0
33105,358.10,573,750,0
33115,352.20,573,749,0
33125,347.17,573,751,0
33135,341.80,573,750,0
33145,337.45,573,749,0
33155,333.07,573,749,0
33165,330.01,573,749,0
33175,327.00,573,749,0
33185,325.46,573,750,0
33196,324.42,573,749,0
33206,326.22,573,751,0
33216,329.59,573,750,0
33226,336.70,573,751,0
33236,346.82,573,749,0
33246,361.79,573,750,0
33256,380.24,573,749,0
33266,403.74,573,751,0
33276,429.92,573,746,0
33286,459.34,573,748,0
33296,489.50,573,747,0
33315,519.39,592,745,0
33317,544.69,592,745,0
33327,566.94,592,748,0
33337,582.51,592,746,0
33347,591.66,592,748,0
33357,592.53,592,745,0
33367,586.07,592,747,0
33377,571.99,592,746,0
33387,554.04,592,748,0
33397,530.16,592,745,0
33408,503.79,592,747,0
33417,475.18,592,746,0
33427,447.19,592,747,0
33437,419.49,592,747,0
33447,394.66,592,753,0
33457,371.92,592,747,0
33467,353.43,592,752,0
33477,338.17,592,746,0
33487,327.66,592,751,0
33497,320.31,592,748,0
33507,317.43,592,749,0
33517,317.26,592,747,0
33527,320.78,592,749,0
33537,326.16,592,747,0
33547,333.96,592,749,0
33557,342.03,592,747,0
33567,351.23,592,749,0
33577,359.65,592,747,0
33587,368.11,592,749,0
33597,374.68,592,747,0
33607,380.26,592,749,0
33617,383.61,592,747,0
33627,386.17,592,749,0
33637,386.46,592,747,0
33647,386.11,592,749,0
33657,383.76,592,747,0
33667,381.43,592,749,0
33677,377.83,592,747,0
33687,374.24,592,748,0
33697,369.54,592,746,0
33708,365.22,592,749,0
33718,359.93,592,746,0
33728,355.19,592,748,0
33738,349.82,592,747,0
33748,345.03,592,749,0
33758,340.14,592,747,0
33768,336.24,592,749,0
33778,332.74,592,747,0
33788,330.59,592,749,0
33798,329.17,592,747,0
33808,329.33,592,749,0
33818,330.26,592,747,0
33828,333.44,592,749,0
33838,338.32,592,746,0
33848,346.45,592,748,0
33858,357.55,592,746,0
33868,372.60,592,749,0
33879,390.85,592,746,0
33889,413.39,592,748,0
33899,438.43,592,746,0
33909,465.77,592,749,0
33929,492.76,613,747,0
33931,517.51,613,748,0
33941,539.65,613,747,0
33951,557.62,613,748,0
33961,569.57,613,747,0
33971,575.22,613,748,0
33981,573.91,613,746,0
33991,566.27,613,748,0
34001,553.97,613,746,0
34011,536.41,613,748,0
34021,515.33,613,747,0
34031,491.92,613,748,0
34041,467.56,613,747,0
34051,443.43,613,748,0
34061,420.72,613,747,0
34071,399.93,613,748,0
34081,381.78,613,747,0
34092,366.55,613,748,0
34102,354.98,613,747,0
34112,346.54,613,748,0
34122,341.75,613,748,0
34132,339.90,613,748,0
34142,341.13,613,747,0
34152,344.48,613,748,0
34162,350.03,613,747,0
34172,356.54,613,748,0
34182,364.22,613,747,0
34192,371.78,613,748,0
34202,379.48,613,747,0
34212,386.10,613,748,0
34222,391.99,613,747,0
34232,396.23,613,748,0
34242,399.46,613,748,0
34252,400.91,613,748,0
34263,401.28,613,747,0
34273,399.82,613,748,0
34283,397.69,613,748,0
34293,394.18,613,747,0
34304,390.27,613,748,0
34313,385.39,613,748,0
34323,380.64,613,748,0
34333,375.27,613,747,0
34343,370.69,613,748,0
34353,365.85,613,748,0
34363,362.08,613,748,0
34373,358.33,613,747,0
34383,355.74,613,748,0
34393,353.16,613,748,0
34403,351.79,613,748,0
34413,350.56,613,747,0
34423,351.12,613,748,0
34433,352.67,613,748,0
34443,357.06,613,748,0
34453,363.64,613,747,0
34463,374.33,613,747,0
34473,388.42,613,748,0
34483,407.06,613,747,0
34493,428.82,613,747,0
34503,454.29,613,748,0
34513,481.07,613,748,0
34532,508.86,604,746,0
34535,533.38,604,746,0
34544,555.94,604,748,0
34554,573.70,604,747,0
34564,586.82,604,748,0
34574,593.17,604,747,0
34584,593.76,604,748,0
34594,587.32,604,747,0
34604,577.20,604,748,0
34614,561.24,604,747,0
34624,542.09,604,748,0
34634,519.44,604,747,0
34644,495.91,604,748,0
34654,471.33,604,747,0
34664,448.35,604,747,0
34674,426.30,604,746,0
34684,407.31,604,747,0
34694,390.55,604,746,0
34704,377.78,604,751,0
34714,367.69,604,747,0
34724,361.65,604,751,0
34734,358.12,604,749,0
34744,358.38,604,750,0
34754,360.67,604,748,0
34764,366.12,604,749,0
34775,372.64,604,747,0
34785,381.36,604,749,0
34795,390.21,604,748,0
34805,400.18,604,750,0
34816,409.12,604,748,0
34825,418.22,604,751,0
34835,425.48,604,746,0
34845,432.58,604,748,0
34855,437.38,604,746,0
34865,441.46,604,747,0
34875,443.21,604,746,0
34885,444.26,604,748,0
34895,443.24,604,746,0
34905,441.54,604,747,0
34915,437.56,604,746,0
34925,433.37,604,748,0
34935,427.47,604,746,0
34945,422.01,604,748,0
34955,415.37,604,746,0
34965,409.09,604,747,0
34975,401.86,604,746,0
34985,395.43,604,748,0
34995,388.40,604,746,0
35005,382.67,604,748,0
35015,376.81,604,746,0
35025,372.92,604,748,0
35035,369.99,604,746,0
35045,370.38,604,748,0
35055,373.22,604,748,0
35065,380.78,604,753,0
35075,392.12,604,747,0
35085,409.23,604,752,0
35095,430.76,604,750,0
35105,457.49,604,752,0
35116,487.04,604,747,0
35126,519.21,604,748,0
35136,550.78,604,746,0
35155,581.15,623,744,0
35158,605.74,623,746,0
35167,625.49,623,748,0
35177,638.07,623,746,0
35187,643.92,623,747,0
35197,642.02,623,746,0
35207,633.83,623,748,0
35217,618.58,623,746,0
35227,599.51,623,747,0
35237,575.78,623,746,0
35247,550.18,623,748,0
35257,522.82,623,746,0
35267,495.70,623,747,0
35277,469.18,623,746,0
35287,445.43,623,748,0
35297,424.00,623,746,0
35307,406.34,623,747,0
35317,391.54,623,745,0
35328,380.71,623,748,0
35337,373.08,623,746,0
35347,369.37,623,747,0
35357,368.49,623,746,0
35367,370.91,623,748,0
35377,375.01,623,746,0
35387,381.14,623,747,0
35397,387.95,623,746,0
35407,395.72,623,748,0
35417,402.88,623,746,0
35427,409.86,623,747,0
35437,415.56,623,745,0
35447,420.62,623,748,0
35457,423.90,623,746,0
35467,426.25,623,747,0
35477,426.73,623,746,0
35487,426.13,623,748,0
35497,423.90,623,746,0
35507,420.97,623,748,0
35517,416.74,623,746,0
35527,412.19,623,748,0
35537,406.86,623,746,0
35547,401.72,623,748,0
35557,396.19,623,746,0
35567,391.03,623,748,0
35577,385.75,623,746,0
35587,381.28,623,747,0
35597,376.91,623,746,0
35607,373.34,623,748,0
35617,369.94,623,746,0
35628,367.77,623,748,0
35638,366.38,623,746,0
35648,366.87,623,748,0
35658,369.26,623,746,0
35668,375.01,623,747,0
35678,384.14,623,746,0
35688,398.03,623,748,0
35698,416.75,623,746,0
35708,440.69,623,751,0
35718,469.07,623,748,0
35728,501.02,623,750,0
35747,534.66,592,750,0
35749,567.16,592,752,0
35759,597.80,592,749,0
35769,624.43,592,751,0
35779,645.47,592,749,0
35789,659.43,592,751,0
35799,665.82,592,749,0
35809,664.41,592,751,0
35819,656.62,592,750,0
35829,641.35,592,751,0
35840,619.94,592,749,0
35849,593.82,592,750,0
35859,564.94,592,749,0
35869,534.23,592,750,0
35879,503.48,592,749,0
35889,473.93,592,750,0
35899,447.04,592,749,0
35909,423.37,592,750,0
35919,403.59,592,749,0
35929,387.64,592,750,0
35939,376.13,592,749,0
35949,368.47,592,750,0
35959,365.15,592,749,0
35969,365.15,592,750,0
35979,368.62,592,749,0
35989,374.26,592,750,0
35999,381.90,592,749,0
36009,390.54,592,750,0
36019,400.24,592,749,0
36029,409.38,592,750,0
36039,418.22,592,749,0
36049,425.57,592,750,0
36059,431.61,592,749,0
36069,435.67,592,750,0
36079,438.21,592,749,0
36089,438.32,592,750,0
36099,436.98,592,749,0
36109,433.86,592,750,0
36119,429.83,592,749,0
36129,424.52,592,750,0
36140,418.88,592,750,0
36150,412.10,592,750,0
36160,405.73,592,749,0
36170,398.78,592,750,0
36180,392.42,592,750,0
36190,385.86,592,750,0
36200,380.33,592,749,0
36210,374.83,592,750,0
36220,370.98,592,750,0
36230,367.56,592,750,0
36240,366.23,592,749,0
36250,366.55,592,750,0
36260,370.37,592,750,0
36270,377.33,592,750,0
36280,389.19,592,749,0
36290,405.42,592,750,0
36300,427.75,592,750,0
36311,454.87,592,750,0
36321,486.71,592,750,0
36331,520.74,592,750,0
36341,556.52,592,750,0
36361,590.60,613,749,0
36364,620.42,613,752,0
36373,644.21,613,749,0
36383,661.55,613,751,0
36393,670.34,613,749,0
36403,671.57,613,750,0
36413,663.73,613,749,0
36423,649.02,613,751,0
36433,628.44,613,749,0
36443,603.33,613,750,0
36453,573.83,613,749,0
36463,542.89,613,751,0
36473,510.31,613,749,0
36483,479.23,613,751,0
36493,449.46,613,749,0
36503,423.74,613,751,0
36513,400.80,613,749,0
36524,382.73,613,751,0
36534,368.28,613,749,0
36544,359.24,613,751,0
36554,353.77,613,749,0
36564,353.02,613,750,0
36574,354.82,613,749,0
36584,360.31,613,750,0
36594,367.33,613,749,0
36604,376.58,613,750,0
36614,385.79,613,749,0
36624,395.67,613,751,0
36634,404.30,613,749,0
36644,412.44,613,750,0
36654,418.48,613,749,0
36664,423.48,613,751,0
36674,425.86,613,749,0
36684,426.93,613,750,0
36695,425.58,613,749,0
36705,423.14,613,751,0
36715,418.77,613,749,0
36725,413.74,613,750,0
36736,407.30,613,749,0
36745,401.00,613,751,0
36755,393.93,613,749,0
36765,387.48,613,750,0
36775,380.91,613,749,0
36785,375.45,613,751,0
36795,370.39,613,749,0
36805,366.67,613,750,0
36815,363.51,613,749,0
36825,362.12,613,751,0
36835,361.74,613,749,0
36845,363.92,613,750,0
36855,368.61,613,748,0
36865,377.39,613,750,0
36875,390.51,613,749,0
36885,409.64,613,751,0
36895,434.27,613,749,0
36905,465.04,613,751,0
36915,499.40,613,749,0
36925,536.61,613,751,0
36935,573.67,613,749,0
36955,608.78,594,747,0
36957,637.56,594,750,0
36967,659.72,594,751,0
36977,673.39,594,749,0
36987,678.76,594,750,0
36997,675.32,594,749,0
37007,664.08,594,750,0
37017,645.37,594,749,0
37027,621.90,594,750,0
37037,594.07,594,749,0
37047,563.37,594,750,0
37057,531.33,594,749,0
37067,499.04,594,750,0
37078,467.92,594,749,0
37087,439.14,594,751,0
37097,413.60,594,750,0
37107,391.65,594,751,0
37117,373.97,594,751,0
37127,360.65,594,751,0
37137,351.88,594,750,0
37147,347.38,594,751,0
37157,347.22,594,750,0
37167,350.58,594,751,0
37177,356.79,594,749,0
37187,364.87,594,751,0
37197,374.47,594,750,0
37207,384.65,594,751,0
37217,394.66,594,749,0
37227,403.46,594,750,0
37237,411.12,594,749,0
37248,417.13,594,750,0
37257,421.38,594,748,0
37267,423.32,594,750,0
37277,423.35,594,749,0
37287,421.28,594,750,0
37297,417.72,594,748,0
37307,412.53,594,750,0
37317,406.59,594,749,0
37327,399.77,594,749,0
37337,392.77,594,749,0
37347,385.42,594,751,0
37357,378.40,594,750,0
37367,371.33,594,751,0
37377,364.93,594,749,0
37387,359.00,594,751,0
37397,354.11,594,750,0
37407,350.14,594,751,0
37417,347.87,594,749,0
37427,347.91,594,751,0
37437,351.28,594,750,0
37447,358.18,594,750,0
37457,369.65,594,750,0
37467,386.09,594,750,0
37477,408.43,594,750,0
37487,436.03,594,750,0
37497,468.42,594,750,0
37507,503.74,594,750,0
37517,540.76,594,750,0
37527,576.96,594,751,0
37547,610.44,592,749,0
37549,636.45,592,751,0
37559,656.29,592,751,0
37569,667.47,592,751,0
37579,670.67,592,751,0
37590,664.69,592,750,0
37599,651.15,592,751,0
37609,629.98,592,750,0
37619,605.51,592,749,0
37629,575.87,592,749,0
37639,544.45,592,750,0
37649,511.23,592,750,0
37659,479.28,592,750,0
37669,448.25,592,750,0
37679,420.75,592,750,0
37689,396.18,592,750,0
37699,376.37,592,750,0
37709,360.32,592,750,0
37719,349.46,592,750,0
37729,342.42,592,750,0
37739,340.45,592,751,0
37749,341.65,592,750,0
37760,347.07,592,751,0
37769,354.38,592,750,0
37779,364.08,592,750,0
37789,374.08,592,750,0
37799,385.03,592,750,0
37809,394.66,592,751,0
37819,403.89,592,751,0
37829,410.70,592,751,0
37839,416.44,592,752,0
37849,419.65,592,751,0
37859,421.47,592,752,0
37869,420.77,592,751,0
37879,418.91,592,752,0
37889,415.08,592,750,0
37899,410.77,592,752,0
37909,404.88,592,751,0
37919,399.18,592,752,0
37929,392.44,592,751,0
37939,386.26,592,752,0
37949,379.58,592,751,0
37959,373.79,592,752,0
37969,367.64,592,751,0
37979,362.82,592,752,0
37989,357.99,592,751,0
37999,355.04,592,752,0
38009,352.92,592,748,0
38019,353.80,592,748,0
38029,357.29,592,747,0
38039,365.56,592,748,0
38049,377.86,592,747,0
38060,396.25,592,748,0
38070,419.70,592,746,0
38080,449.11,592,748,0
38090,481.99,592,746,0
38100,517.82,592,748,0
38110,553.27,592,746,0
38129,587.48,583,745,0
38132,615.41,583,746,0
38141,637.57,583,748,0
38151,651.54,583,746,0
38161,657.81,583,748,0
38171,654.69,583,746,0
38181,643.99,583,748,0
38191,625.13,583,746,0
38201,602.34,583,748,0
38211,574.29,583,746,0
38221,543.86,583,748,0
38231,511.03,583,746,0
38241,478.67,583,748,0
38251,446.71,583,746,0
38261,417.74,583,748,0
38272,391.37,583,746,0
38281,369.62,583,748,0
38291,351.48,583,746,0
38301,338.56,583,748,0
38311,329.78,583,746,0
38321,326.03,583,748,0
38331,325.68,583,746,0
38341,329.29,583,748,0
38351,335.12,583,746,0
38361,343.74,583,748,0
38371,353.03,583,746,0
38381,363.57,583,748,0
38391,373.42,583,746,0
38401,383.58,583,748,0
38411,391.94,583,746,0
38421,399.24,583,748,0
38431,403.75,583,746,0
38441,406.91,583,748,0
38451,407.37,583,746,0
38461,406.49,583,748,0
38471,403.17,583,746,0
38481,398.70,583,748,0
38491,392.66,583,746,0
38501,386.51,583,748,0
38511,379.24,583,746,0
38521,372.40,583,748,0
38531,365.12,583,746,0
38541,358.78,583,748,0
38551,352.38,583,746,0
38561,347.12,583,748,0
38572,341.86,583,746,0
38582,337.91,583,748,0
38592,334.21,583,746,0
38602,332.35,583,748,0
38612,331.30,583,746,0
38622,333.05,583,748,0
38632,336.94,583,746,0
38642,345.44,583,748,0
38652,358.00,583,746,0
38662,376.43,583,748,0
38672,399.87,583,746,0
38682,429.05,583,748,0
38692,462.25,583,746,0
38702,498.82,583,748,0
38712,535.64,583,746,0
38731,571.62,602,745,0
38733,602.38,602,746,0
38743,627.98,602,748,0
38753,646.24,602,746,0
38763,656.63,602,748,0
38773,658.28,602,746,0
38784,651.64,602,748,0
38793,637.01,602,746,0
38803,616.99,602,749,0
38813,591.02,602,749,0
38823,561.10,602,750,0
38833,528.41,602,747,0
38843,495.25,602,751,0
38853,462.52,602,747,0
38863,431.72,602,751,0
38873,403.43,602,750,0
38883,379.00,602,751,0
38893,358.52,602,749,0
38903,342.80,602,751,0
38913,331.12,602,750,0
38923,324.40,602,751,0
38933,321.92,602,750,0
38943,323.70,602,751,0
38953,328.72,602,749,0
38963,336.60,602,752,0
38973,346.19,602,750,0
38983,357.24,602,752,0
38993,368.31,602,750,0
39003,379.19,602,749,0
39013,388.90,602,746,0
39023,397.37,602,748,0
39033,403.86,602,746,0
39043,408.57,602,748,0
39053,410.97,602,746,0
39063,411.50,602,748,0
39073,409.98,602,746,0
39084,406.98,602,748,0
39094,402.53,602,746,0
39104,397.10,602,748,0
39114,390.98,602,746,0
39124,384.60,602,748,0
39134,378.64,602,746,0
39144,372.83,602,748,0
39154,367.52,602,746,0
39164,362.65,602,748,0
39174,358.86,602,746,0
39184,355.60,602,748,0
39194,353.32,602,746,0
39204,351.64,602,748,0
39214,351.02,602,746,0
39224,351.31,602,748,0
39234,353.36,602,746,0
39244,357.88,602,748,0
39255,365.63,602,749,0
39265,376.97,602,751,0
39275,392.49,602,750,0
39285,412.53,602,750,0
39296,437.61,602,750,0
39305,466.49,602,751,0
39315,497.67,602,750,0
39325,529.57,602,750,0
39345,560.64,613,749,0
39347,587.02,613,750,0
39357,608.87,613,750,0
39367,623.78,613,750,0
39377,631.86,613,750,0
39387,631.95,613,750,0
39397,624.93,613,750,0
39407,610.42,613,749,0
39417,591.70,613,750,0
39427,568.05,613,750,0
39437,542.06,613,750,0
39447,513.63,613,750,0
39457,485.33,613,750,0
39468,457.03,613,749,0
39478,431.31,613,751,0
39488,407.64,613,749,0
39498,388.08,613,751,0
39508,371.21,613,750,0
39518,359.19,613,751,0
39528,350.13,613,749,0
39538,345.68,613,751,0
39548,343.93,613,749,0
39558,346.18,613,751,0
39568,350.07,613,749,0
39578,356.78,613,750,0
39588,363.96,613,749,0
39598,372.67,613,751,0
39608,381.17,613,749,0
39618,389.78,613,751,0
39628,396.70,613,750,0
39639,402.70,613,748,0
39649,406.82,613,749,0
39659,409.58,613,750,0
39669,409.87,613,747,0
39680,408.45,613,749,0
39689,405.06,613,747,0
39699,400.89,613,748,0
39709,394.92,613,747,0
39719,388.26,613,750,0
39729,380.51,613,748,0
39739,373.29,613,750,0
39749,365.66,613,748,0
39759,358.95,613,750,0
39769,352.23,613,748,0
39779,347.15,613,750,0
39789,342.48,613,748,0
39799,339.59,613,750,0
39809,337.06,613,748,0
39819,336.52,613,749,0
39829,336.84,613,748,0
39839,339.67,613,750,0
39849,344.31,613,748,0
39859,352.58,613,749,0
39869,363.85,613,748,0
39879,380.44,613,750,0
39889,401.26,613,748,0
39899,427.63,613,750,0
39909,457.52,613,748,0
39919,491.31,613,750,0
39929,526.06,613,748,0
39948,561.27,604,746,0
39951,591.75,604,748,0
39960,618.69,604,750,0
39970,638.97,604,748,0
39980,652.87,604,750,0
39990,658.13,604,748,0
40000,655.91,604,750,0
40010,645.31,604,748,0
40020,629.66,604,750,0
40030,607.35,604,748,0
40040,581.19,604,751,0
40050,551.30,604,749,0
40060,520.27,604,751,0
40070,488.69,604,749,0
40080,458.87,604,751,0
40090,431.09,604,748,0
40100,407.06,604,750,0
40110,386.30,604,749,0
40120,370.31,604,751,0
40130,358.05,604,749,0
40140,350.49,604,751,0
40151,346.40,604,749,0
40161,346.45,604,751,0
40171,349.06,604,749,0
40181,354.44,604,751,0
40192,361.08,604,749,0
40201,369.28,604,751,0
40211,377.47,604,749,0
40221,385.99,604,752,0
40231,393.32,604,749,0
40241,399.82,604,751,0
40251,404.46,604,749,0
40261,407.62,604,752,0
40271,408.94,604,749,0
40281,408.83,604,749,0
40291,406.82,604,747,0
40301,403.66,604,749,0
40311,399.18,604,746,0
40321,394.07,604,748,0
40331,388.22,604,746,0
40341,382.32,604,748,0
40351,376.23,604,746,0
40361,370.50,604,748,0
40371,364.95,604,746,0
40381,360.08,604,748,0
40391,355.64,604,746,0
40401,352.02,604,748,0
40411,348.71,604,746,0
40421,346.23,604,748,0
40431,344.27,604,746,0
40441,343.21,604,748,0
40451,342.97,604,746,0
40461,344.44,604,748,0
40471,347.95,604,746,0
40481,354.56,604,748,0
40492,364.85,604,746,0
40502,379.77,604,748,0
40512,399.89,604,746,0
40522,425.43,604,748,0
40532,456.20,604,747,0
40542,490.81,604,748,0
40561,527.55,613,747,0
40563,563.56,613,747,0
40573,598.23,613,747,0
40583,628.72,613,748,0
40593,653.28,613,746,0
40603,669.74,613,748,0
40613,677.87,613,747,0
40623,677.70,613,748,0
40633,670.16,613,746,0
40643,654.43,613,748,0
40653,632.23,613,747,0
40663,604.94,613,748,0
40673,574.58,613,746,0
40683,542.13,613,748,0
40693,509.26,613,747,0
40704,477.13,613,747,0
40713,447.39,613,746,0
40723,420.66,613,748,0
40733,398.17,613,747,0
40743,379.52,613,748,0
40753,365.95,613,747,0
40763,356.49,613,748,0
40773,351.76,613,747,0
40783,350.68,613,748,0
40793,353.22,613,746,0
40803,358.12,613,748,0
40813,365.46,613,747,0
40823,373.72,613,748,0
40833,382.80,613,746,0
40843,391.52,613,747,0
40853,399.85,613,747,0
40863,407.01,613,748,0
40873,412.79,613,747,0
40883,416.54,613,748,0
40893,418.74,613,747,0
40903,418.73,613,748,0
40913,417.44,613,747,0
40923,414.09,613,748,0
40933,409.65,613,747,0
40943,403.76,613,748,0
40953,397.44,613,747,0
40963,390.37,613,748,0
40973,383.66,613,747,0
40983,376.56,613,748,0
40993,370.22,613,747,0
41004,363.98,613,748,0
41014,358.85,613,747,0
41024,354.18,613,748,0
41034,350.61,613,747,0
41044,347.47,613,747,0
41054,345.66,613,747,0
41064,344.26,613,747,0
41074,344.14,613,747,0
41084,344.48,613,747,0
41094,345.97,613,747,0
41104,347.35,613,748,0
41114,349.99,613,748,0
41124,352.78,613,747,0
41134,357.51,613,748,0
41144,363.49,613,747,0
41154,372.69,613,748,0
41164,384.78,613,747,0
41175,402.12,613,748,0
41185,423.85,613,747,0
41195,451.67,613,748,0
41205,483.40,613,747,0
41216,519.28,613,748,0
41225,555.97,613,747,0
41235,592.49,613,748,0
41245,625.56,613,747,0
41265,654.19,703,745,0
41267,673.89,703,747,0
41277,686.48,703,748,0
41287,689.64,703,746,0
41297,684.86,703,749,0
41307,671.74,703,747,0
41317,652.19,703,748,0
41327,626.12,703,746,0
41337,597.84,703,748,0
41347,566.39,703,747,0
41357,534.77,703,749,0
41367,503.25,703,746,0
41377,474.04,703,748,0
41388,447.02,703,746,0
41398,424.30,703,748,0
41408,405.06,703,746,0
41418,390.25,703,748,0
41428,379.16,703,747,0
41438,372.51,703,748,0
41448,369.23,703,746,0
41458,370.06,703,749,0
41468,373.39,703,747,0
41478,380.00,703,750,0
41488,387.80,703,748,0
41498,397.03,703,751,0
41508,405.89,703,749,0
41518,415.01,703,751,0
41528,422.38,703,748,0
41538,428.61,703,751,0
41548,432.45,703,750,0
41559,434.55,703,751,0
41569,433.91,703,749,0
41579,431.67,703,751,0
41589,426.92,703,749,0
41600,420.90,703,751,0
41609,413.30,703,750,0
41619,404.77,703,751,0
41629,395.54,703,750,0
41639,386.51,703,751,0
41649,377.44,703,749,0
41659,369.25,703,751,0
41669,361.63,703,749,0
41679,355.27,703,751,0
41689,349.66,703,749,0
41699,345.48,703,751,0
41709,342.29,703,749,0
41719,340.49,703,751,0
41729,339.31,703,749,0
41739,339.56,703,751,0
41749,340.72,703,749,0
41759,342.56,703,751,0
41769,344.54,703,748,0
41779,346.86,703,751,0
41789,349.00,703,749,0
41799,351.49,703,751,0
41809,354.08,703,749,0
41819,357.19,703,751,0
41829,361.67,703,749,0
41839,368.76,703,751,0
41849,379.07,703,748,0
41859,393.79,703,751,0
41869,413.18,703,749,0
41879,438.03,703,751,0
41889,467.63,703,748,0
41900,501.60,703,751,0
41910,537.76,703,749,0
41920,574.48,703,751,0
41930,609.13,703,749,0
41940,639.78,703,751,0
41959,663.80,695,749,0
41961,678.73,695,750,0
41971,685.24,695,749,0
41981,683.03,695,750,0
41991,672.39,695,749,0
42001,654.62,695,750,0
42011,630.73,695,749,0
42021,602.14,695,750,0
42031,572.23,695,749,0
42041,540.36,695,751,0
42051,508.71,695,750,0
42061,478.11,695,750,0
42071,450.05,695,750,0
42081,425.09,695,751,0
42091,404.49,695,750,0
42101,387.80,695,750,0
42112,376.03,695,750,0
42121,368.22,695,750,0
42131,364.81,695,750,0
42141,364.70,695,750,0
42151,368.22,695,749,0
42161,374.07,695,750,0
42171,381.93,695,749,0
42181,390.78,695,750,0
42191,400.23,695,749,0
42201,409.51,695,750,0
42211,418.01,695,749,0
42221,424.56,695,749,0
42231,429.37,695,749,0
42241,431.87,695,750,0
42251,432.17,695,749,0
42261,430.19,695,749,0
42271,426.32,695,749,0
42281,420.65,695,749,0
42291,414.37,695,749,0
42301,406.89,695,749,0
42311,399.38,695,749,0
42321,391.21,695,749,0
42331,383.52,695,749,0
42341,375.69,695,749,0
42351,368.71,695,749,0
42361,361.86,695,749,0
42371,356.24,695,749,0
42381,351.20,695,749,0
42391,347.62,695,750,0
42401,344.57,695,751,0
42412,343.07,695,751,0
42422,342.10,695,749,0
42432,342.50,695,750,0
42442,343.12,695,750,0
42452,344.97,695,750,0
42462,346.78,695,750,0
42472,349.50,695,749,0
42482,351.80,695,748,0
42492,354.90,695,748,0
42502,357.76,695,747,0
42512,361.94,695,748,0
42522,366.63,695,747,0
42532,374.11,695,748,0
42542,383.98,695,747,0
42552,398.34,695,747,0
42562,416.93,695,748,0
42572,441.29,695,748,0
42583,469.96,695,747,0
42593,503.19,695,748,0
42603,538.06,695,747,0
42613,573.91,695,748,0
42624,607.20,695,747,0
42642,636.84,683,746,0
42644,658.19,683,747,0
42654,672.27,683,749,0
42664,676.99,683,746,0
42674,673.74,683,748,0
42684,661.43,683,747,0
42694,642.27,683,751,0
42704,616.00,683,749,0
42714,587.37,683,751,0
42724,554.99,683,750,0
42734,521.91,683,751,0
42744,487.86,683,749,0
42754,456.02,683,751,0
42764,426.14,683,750,0
42774,400.64,683,751,0
42784,378.16,683,750,0
42795,360.93,683,752,0
42804,347.36,683,750,0
42814,339.07,683,752,0
42824,334.21,683,750,0
42834,334.10,683,752,0
42844,336.64,683,750,0
42854,342.88,683,752,0
42864,350.67,683,750,0
42874,360.93,683,752,0
42884,371.41,683,750,0
42894,382.90,683,751,0
42904,392.79,683,753,0
42914,402.28,683,753,0
42924,409.22,683,751,0
42934,414.99,683,749,0
42944,417.65,683,750,0
42954,418.74,683,752,0
42964,416.72,683,750,0
42974,413.76,683,752,0
42984,408.39,683,750,0
42994,402.66,683,749,0
43004,395.26,683,748,0
43014,388.41,683,749,0
43024,381.43,683,748,0
43034,375.52,683,749,0
43044,369.70,683,748,0
43054,365.12,683,749,0
43064,360.16,683,747,0
43074,356.38,683,749,0
43084,352.37,683,747,0
43095,349.13,683,751,0
43105,345.75,683,748,0
43115,343.55,683,750,0
43125,341.37,683,749,0
43136,341.00,683,751,0
43145,340.53,683,748,0
43155,341.40,683,750,0
43165,341.97,683,749,0
43175,343.78,683,748,0
43185,345.09,683,748,0
43195,347.93,683,749,0
43205,351.25,683,747,0
43215,357.39,683,749,0
43225,365.67,683,747,0
43235,378.24,683,748,0
43245,394.80,683,746,0
43255,417.14,683,748,0
43265,443.80,683,747,0
43275,475.45,683,748,0
43285,509.34,683,747,0
43295,545.02,683,746,0
43305,579.17,683,747,0
43324,610.66,682,745,0
43326,634.89,682,748,0
43336,652.75,682,748,0
43346,661.79,682,746,0
43356,663.05,682,748,0
43366,655.32,682,746,0
43376,640.40,682,748,0
43386,617.99,682,746,0
43396,592.32,682,748,0
43406,562.44,682,747,0
43416,530.98,682,748,0
43426,498.20,682,746,0
43436,466.73,682,749,0
43446,436.68,682,747,0
43456,409.99,682,749,0
43466,386.12,682,746,0
43476,366.54,682,748,0
43486,350.78,682,746,0
43496,339.92,682,748,0
43506,333.00,682,746,0
43516,330.69,682,748,0
43526,331.89,682,746,0
43536,336.85,682,748,0
43546,344.10,682,746,0
43556,353.54,682,748,0
43566,363.62,682,750,0
43576,374.45,682,752,0
43586,384.47,682,751,0
43596,393.84,682,752,0
43607,401.39,682,746,0
43617,407.49,682,749,0
43627,411.41,682,747,0
43637,413.47,682,743,0
43648,413.12,682,747,0
43657,411.37,682,748,0
43667,407.70,682,752,0
43677,402.69,682,748,0
43687,396.40,682,751,0
43697,389.38,682,751,0
43707,381.72,682,750,0
43717,373.88,682,751,0
43727,365.90,682,750,0
43737,358.34,682,751,0
43747,351.30,682,752,0
43757,345.04,682,754,0
43767,339.54,682,748,0
43777,335.56,682,752,0
43787,332.78,682,749,0
43797,331.22,682,748,0
43807,330.81,682,747,0
43817,331.90,682,748,0
43827,333.90,682,746,0
43837,336.89,682,748,0
43847,340.69,682,751,0
43857,345.24,682,748,0
43867,351.08,682,747,0
43877,358.39,682,748,0
43887,367.44,682,748,0
43897,379.44,682,746,0
43907,394.86,682,746,0
43917,414.36,682,748,0
43927,438.34,682,751,0
43937,466.09,682,754,0
43948,496.79,682,753,0
43958,529.04,682,755,0
43968,561.00,682,752,0
43978,590.79,682,754,0
43988,616.14,682,753,0
43998,635.60,682,749,0
44017,647.93,693,746,0
44019,651.08,693,748,0
44029,647.16,693,747,0
44039,635.62,693,747,0
44049,617.44,693,746,0
44059,593.65,693,747,0
44069,565.64,693,752,0
44079,534.72,693,753,0
44089,503.99,693,753,0
44099,472.11,693,753,0
44109,441.65,693,753,0
44119,413.17,693,753,0
44129,387.87,693,747,0
44139,365.97,693,750,0
44149,348.71,693,753,0
44160,335.17,693,754,0
44169,326.42,693,748,0
44179,321.75,693,753,0
44189,321.40,693,754,0
44199,323.98,693,744,0
44209,329.94,693,747,0
44219,337.33,693,754,0
44229,347.00,693,748,0
44239,357.20,693,754,0
44249,367.56,693,747,0
44259,377.20,693,750,0
44269,386.53,693,747,0
44279,393.87,693,747,0
44289,399.82,693,746,0
44299,403.35,693,747,0
44309,405.34,693,746,0
44319,404.94,693,746,0
44329,403.03,693,746,0
44339,398.95,693,746,0
44349,393.95,693,749,0
44359,387.45,693,748,0
44369,380.80,693,748,0
44379,373.45,693,747,0
44389,366.71,693,747,0
44399,359.73,693,747,0
44409,353.64,693,746,0
44419,347.83,693,747,0
44429,343.34,693,746,0
44439,338.99,693,746,0
44449,335.83,693,746,0
44460,332.96,693,746,0
44470,331.17,693,750,0
44480,329.84,693,747,0
44490,329.67,693,746,0
44500,330.07,693,746,0
44510,332.45,693,746,0
44520,336.26,693,746,0
44530,343.85,693,746,0
44540,354.70,693,746,0
44550,370.73,693,747,0
44560,391.00,693,746,0
44570,416.67,693,747,0
44580,446.17,693,746,0
44590,479.68,693,747,0
44600,514.06,693,747,0
44610,548.93,693,747,0
44620,580.71,693,746,0
44640,609.25,623,745,0
44643,630.56,623,746,0
44652,646.08,623,747,0
44662,653.26,623,745,0
44673,653.09,623,748,0
44683,644.58,623,745,0
44693,629.79,623,747,0
44703,608.17,623,745,0
44713,583.73,623,748,0
44723,555.18,623,746,0
44733,525.73,623,747,0
44743,495.38,623,745,0
44753,466.85,623,747,0
44763,439.81,623,745,0
44773,416.77,623,747,0
44783,396.65,623,745,0
44793,381.11,623,747,0
44803,369.08,623,745,0
44813,361.77,623,747,0
44823,357.77,623,745,0
44833,357.84,623,747,0
44844,360.29,623,745,0
44854,365.60,623,747,0
44864,372.02,623,745,0
44874,380.03,623,747,0
44884,387.86,623,745,0
44894,396.09,623,747,0
44904,403.05,623,745,0
44914,409.42,623,747,0
44924,413.97,623,745,0
44934,417.66,623,747,0
44944,419.39,623,745,0
44954,420.09,623,747,0
44964,418.90,623,745,0
44974,417.00,623,747,0
44984,413.53,623,745,0
44994,409.56,623,747,0
45004,404.42,623,745,0
45015,399.11,623,747,0
45025,393.25,623,745,0
45035,387.56,623,747,0
45045,382.03,623,746,0
45056,376.80,623,747,0
45065,371.71,623,745,0
45075,367.17,623,747,0
45085,362.92,623,751,0
45095,359.30,623,748,0
45105,356.42,623,745,0
45115,354.88,623,748,0
45125,355.82,623,746,0
45135,360.54,623,747,0
45145,369.00,623,745,0
45155,382.54,623,748,0
45165,401.36,623,745,0
45175,426.07,623,747,0
45185,455.88,623,745,0
45195,489.34,623,751,0
45205,523.87,623,751,0
45224,558.45,584,750,0
45228,589.52,584,746,0
45236,616.88,584,747,0
45246,637.87,584,746,0
45256,650.77,584,747,0
45266,655.46,584,746,0
45276,652.07,584,747,0
45286,640.82,584,746,0
45296,623.30,584,747,0
45306,599.51,584,745,0
45316,571.33,584,750,0
45326,540.67,584,749,0
45336,508.67,584,748,0
45346,476.88,584,746,0
45356,446.70,584,747,0
45366,419.24,584,746,0
45376,394.87,584,749,0
45386,374.21,584,751,0
45396,357.52,584,749,0
45406,345.28,584,749,0
45416,337.39,584,750,0
45426,333.93,584,752,0
45436,334.47,584,748,0
45446,338.87,584,747,0
45456,346.37,584,747,0
45466,356.46,584,746,0
45476,368.10,584,747,0
45486,380.59,584,746,0
45496,392.67,584,747,0
45506,403.91,584,745,0
45516,413.28,584,747,0
45527,420.40,584,746,0
45537,424.39,584,747,0
45547,425.47,584,746,0
45557,422.93,584,746,0
45568,417.60,584,746,0
45577,409.40,584,747,0
45587,399.12,584,746,0
45597,387.04,584,746,0
45607,374.35,584,752,0
45617,361.00,584,747,0
45627,348.61,584,747,0
45637,336.69,584,747,0
45647,326.62,584,747,0
45657,317.91,584,747,0
45667,311.42,584,750,0
45677,306.49,584,749,0
45687,303.95,584,750,0
45697,303.02,584,750,0
45707,304.77,584,751,0
45717,308.74,584,747,0
45727,316.45,584,753,0
45737,327.76,584,751,0
45747,343.86,584,754,0
45757,364.73,584,753,0
45767,391.17,584,746,0
45777,422.75,584,748,0
45787,458.99,584,747,0
45797,497.95,584,747,0
45807,538.34,584,747,0
45817,577.79,584,747,0
45827,614.33,584,748,0
45837,645.51,584,747,0
45847,669.79,584,751,0
45857,685.54,584,749,0
45868,692.88,584,753,0
45878,691.24,584,747,0
45888,682.08,584,747,0
45898,665.73,584,747,0
45908,644.38,584,747,0
45918,618.64,584,749,0
45928,591.06,584,748,0
45938,562.03,584,747,0
45948,534.38,584,747,0
45958,507.78,584,746,0
45968,484.10,584,748,0
45978,462.81,584,748,0
45988,445.43,584,748,0
45998,431.03,584,746,0
46008,420.39,584,747,0
46018,412.00,584,747,0
46028,406.73,584,748,0
46039,403.17,584,746,0
46049,402.17,584,747,0
46059,402.25,584,746,0
46069,404.40,584,747,0
46080,407.28,584,745,0
46089,411.31,584,747,0
46099,414.95,584,746,0
46109,419.38,584,747,0
46119,422.35,584,745,0
46129,425.20,584,747,0
46139,425.70,584,746,0
46149,425.36,584,747,0
46159,422.68,584,745,0
46169,419.52,584,747,0
46179,414.22,584,746,0
46189,409.05,584,747,0
46199,402.35,584,745,0
46209,396.20,584,747,0
46219,389.29,584,746,0
46229,383.37,584,747,0
46239,376.87,584,745,0
46249,371.64,584,747,0
46259,366.09,584,746,0
46269,361.95,584,747,0
46279,357.64,584,745,0
46289,355.05,584,747,0
46299,352.97,584,746,0
46309,353.67,584,747,0
46319,356.25,584,746,0
46329,363.33,584,747,0
46339,373.82,584,746,0
46349,390.20,584,747,0
46359,411.23,584,746,0
46369,438.54,584,747,0
46380,469.88,584,746,0
46399,505.36,1175,745,0
46402,540.91,1175,746,0
46411,577.41,1175,748,0
46422,610.50,1175,746,0
46431,639.92,1175,748,0
46441,662.02,1175,746,0
46451,676.75,1175,748,0
46461,682.23,1175,746,0
46471,680.40,1175,748,0
46481,668.97,1175,746,0
46491,650.59,1175,747,0
46501,624.96,1175,746,0
46511,595.36,1175,748,0
46521,561.95,1175,746,0
46531,528.54,1175,748,0
46541,494.47,1175,746,0
46551,463.35,1175,748,0
46561,434.23,1175,746,0
46571,409.30,1175,748,0
46581,387.57,1175,746,0
46592,371.37,1175,748,0
46601,358.32,1175,746,0
46611,350.68,1175,748,0
46621,346.49,1175,746,0
46631,347.63,1175,748,0
46641,351.81,1175,746,0
46651,359.84,1175,747,0
46661,369.66,1175,746,0
46671,381.85,1175,748,0
46681,394.36,1175,746,0
46691,407.37,1175,747,0
46701,418.87,1175,746,0
46711,429.63,1175,748,0
46721,437.71,1175,746,0
46731,444.18,1175,747,0
46741,447.68,1175,746,0
46751,449.88,1175,748,0
46761,449.32,1175,746,0
46771,447.51,1175,747,0
46781,443.63,1175,746,0
46791,439.67,1175,748,0
46801,433.98,1175,746,0
46811,428.67,1175,747,0
46821,421.61,1175,746,0
46831,414.83,1175,748,0
46841,407.21,1175,746,0
46851,400.42,1175,747,0
46861,393.05,1175,746,0
46871,386.86,1175,748,0
46881,380.60,1175,746,0
46892,376.57,1175,747,0
46902,374.25,1175,746,0
46912,375.55,1175,748,0
46922,379.97,1175,746,0
46932,389.45,1175,747,0
46942,403.42,1175,746,0
46952,423.39,1175,748,0
46962,447.96,1175,746,0
46972,477.37,1175,747,0
46982,509.06,1175,746,0
46992,542.38,1175,748,0
47002,574.50,1175,746,0
47012,604.43,1175,747,0
47031,629.25,632,746,0
47033,646.79,632,748,0
47043,656.75,632,746,0
47053,659.57,632,747,0
47063,654.47,632,746,0
47073,642.76,632,748,0
47083,624.36,632,746,0
47093,600.89,632,747,0
47104,574.95,632,746,0
47113,546.90,632,748,0
47123,517.66,632,746,0
47133,488.79,632,747,0
47143,461.04,632,746,0
47153,435.91,632,748,0
47163,413.95,632,746,0
47173,395.67,632,748,0
47183,380.98,632,746,0
47193,370.32,632,748,0
47203,363.23,632,746,0
47213,359.91,632,748,0
47223,359.64,632,746,0
47233,362.19,632,748,0
47243,366.67,632,746,0
47253,372.69,632,748,0
47263,379.89,632,746,0
47273,387.38,632,748,0
47283,394.47,632,746,0
47293,400.71,632,747,0
47303,405.60,632,746,0
47313,409.06,632,747,0
47323,411.10,632,746,0
47333,411.41,632,748,0
47343,410.13,632,746,0
47353,407.18,632,747,0
47363,402.92,632,746,0
47373,398.10,632,748,0
47383,392.63,632,746,0
47393,386.70,632,748,0
47404,380.36,632,747,0
47414,374.34,632,747,0
47424,368.97,632,747,0
47434,364.39,632,747,0
47444,360.42,632,747,0
47454,357.33,632,747,0
47464,355.35,632,747,0
47474,354.39,632,747,0
47484,355.56,632,747,0
47494,358.69,632,747,0
47504,364.65,632,746,0
47514,373.80,632,747,0
47524,387.66,632,747,0
47534,405.93,632,748,0
47544,429.53,632,747,0
47554,457.22,632,747,0
47564,489.00,632,747,0
47575,523.11,632,747,0
47594,558.52,563,746,0
47597,590.51,563,747,0
47606,620.23,563,747,0
47617,644.55,563,747,0
47627,663.07,563,747,0
47637,673.72,563,747,0
47647,677.02,563,748,0
47657,671.53,563,746,0
47667,661.08,563,747,0
47677,642.84,563,746,0
47687,619.58,563,748,0
47697,591.29,563,746,0
47707,561.42,563,748,0
47717,529.58,563,747,0
47727,498.93,563,748,0
47737,468.74,563,746,0
47747,442.03,563,747,0
47757,418.45,563,747,0
47767,399.89,563,748,0
47777,385.01,563,747,0
47788,375.23,563,747,0
47798,368.99,563,747,0
47808,367.49,563,748,0
47818,368.33,563,746,0
47828,372.26,563,748,0
47838,376.90,563,746,0
47848,382.97,563,748,0
47858,388.64,563,746,0
47868,394.92,563,748,0
47878,399.57,563,746,0
47888,404.46,563,748,0
47898,407.19,563,746,0
47908,409.32,563,748,0
47918,409.05,563,746,0
47928,408.14,563,748,0
47938,404.80,563,747,0
47948,401.04,563,747,0
47959,395.16,563,746,0
47969,389.37,563,748,0
47979,382.40,563,746,0
47989,376.15,563,748,0
48000,369.25,563,746,0
48009,363.69,563,748,0
48019,358.00,563,746,0
48029,353.71,563,748,0
48039,349.51,563,746,0
48049,346.79,563,748,0
48059,343.98,563,746,0
48069,342.57,563,748,0
48079,341.03,563,746,0
48089,340.89,563,748,0
48099,341.01,563,746,0
48109,343.28,563,747,0
48119,346.84,563,746,0
48129,353.87,563,748,0
48139,363.55,563,746,0
48149,378.04,563,747,0
48159,396.37,563,746,0
48169,420.26,563,748,0
48179,447.74,563,746,0
48189,479.53,563,748,0
48199,512.80,563,746,0
48209,547.36,563,748,0
48228,579.74,634,748,0
48230,607.55,634,750,0
48240,629.71,634,749,0
48250,646.08,634,750,0
48260,654.54,634,749,0
48270,656.18,634,750,0
48280,649.53,634,748,0
48290,636.81,634,749,0
48300,619.38,634,748,0
48310,597.58,634,749,0
48320,571.61,634,748,0
48330,543.95,634,750,0
48340,514.74,634,749,0
48350,487.00,634,750,0
48360,460.22,634,749,0
48370,436.45,634,750,0
48380,415.10,634,749,0
48390,397.93,634,750,0
48400,383.68,634,749,0
48410,373.57,634,750,0
48420,366.20,634,748,0
48430,362.50,634,750,0
48440,361.11,634,747,0
48450,362.66,634,751,0
48460,365.55,634,747,0
48471,370.27,634,749,0
48481,375.29,634,746,0
48491,380.77,634,748,0
48501,385.51,634,747,0
48512,389.86,634,748,0
48521,392.86,634,746,0
48531,395.04,634,748,0
48541,395.50,634,748,0
48551,394.75,634,750,0
48561,392.30,634,749,0
48571,388.95,634,751,0
48581,384.38,634,749,0
48591,379.08,634,749,0
48601,372.84,634,746,0
48611,366.68,634,748,0
48621,360.30,634,746,0
48631,354.34,634,748,0
48641,348.37,634,746,0
48651,343.16,634,748,0
48661,338.40,634,746,0
48671,334.38,634,748,0
48681,330.79,634,746,0
48691,328.03,634,748,0
48701,325.70,634,746,0
48711,324.29,634,748,0
48721,323.35,634,746,0
48731,323.67,634,748,0
48741,324.84,634,746,0
48751,327.59,634,748,0
48761,332.08,634,746,0
48771,339.17,634,748,0
48781,349.06,634,746,0
48791,362.63,634,748,0
48801,380.27,634,749,0
48812,402.43,634,750,0
48822,428.62,634,750,0
48832,458.17,634,750,0
48842,489.79,634,749,0
48852,522.00,634,749,0
48862,553.20,634,749,0
48872,580.95,634,750,0
48891,603.85,663,747,0
48893,618.55,663,750,0
48903,626.75,663,749,0
48913,627.64,663,749,0
48923,622.05,663,748,0
48933,609.56,663,749,0
48943,591.99,663,750,0
48953,569.92,663,749,0
48963,547.06,663,749,0
48973,521.93,663,749,0
48983,496.71,663,749,0
48993,471.72,663,748,0
49003,448.79,663,749,0
49013,427.77,663,749,0
49024,410.14,663,749,0
49033,395.70,663,749,0
49043,385.12,663,748,0
49053,377.37,663,749,0
49063,373.10,663,749,0
49073,371.23,663,750,0
49083,372.10,663,749,0
49093,374.39,663,749,0
49103,378.30,663,749,0
49113,382.49,663,749,0
49123,387.32,663,750,0
49133,391.47,663,750,0
49143,395.44,663,750,0
49153,398.01,663,748,0
49163,400.02,663,749,0
49173,400.19,663,748,0
49183,399.57,663,748,0
49193,397.43,663,748,0
49203,394.64,663,748,0
49213,390.81,663,748,0
49223,386.92,663,749,0
49233,381.97,663,748,0
49243,377.18,663,748,0
49253,371.60,663,748,0
49263,366.70,663,748,0
49273,361.31,663,748,0
49283,356.50,663,748,0
49293,351.59,663,749,0
49303,347.82,663,748,0
49313,344.14,663,748,0
49324,342.00,663,748,0
49334,339.94,663,747,0
49344,339.40,663,747,0
49354,338.90,663,747,0
49364,339.61,663,748,0
49374,340.11,663,747,0
49384,341.45,663,747,0
49394,342.30,663,747,0
49404,344.10,663,748,0
49414,345.70,663,747,0
49424,348.87,663,747,0
49434,352.51,663,747,0
49444,358.87,663,747,0
49454,367.22,663,747,0
49464,379.41,663,747,0
49474,394.50,663,749,0
49484,414.28,663,749,0
49495,436.95,663,749,0
49505,463.37,663,748,0
49515,490.73,663,747,0
49525,519.14,663,748,0
49536,545.45,663,746,0
49554,569.66,663,745,0
49556,586.91,663,746,0
49566,599.58,663,748,0
49576,605.15,663,746,0
49586,605.27,663,748,0
49596,598.51,663,746,0
49606,587.17,663,748,0
49616,570.23,663,746,0
49626,552.55,663,748,0
49636,531.64,663,747,0
49646,510.53,663,748,0
49656,488.47,663,749,0
49666,468.19,663,749,0
49676,448.85,663,748,0
49686,432.86,663,750,0
49696,418.42,663,748,0
49707,407.54,663,750,0
49716,398.68,663,748,0
49726,393.33,663,750,0
49736,389.59,663,748,0
49746,388.85,663,751,0
49756,389.07,663,750,0
49766,391.53,663,751,0
49776,394.07,663,747,0
49786,397.91,663,748,0
49796,401.02,663,747,0
49806,404.83,663,750,0
49816,407.28,663,746,0
49826,409.85,663,748,0
49836,410.71,663,748,0
49846,411.44,663,748,0
49856,410.37,663,746,0
49866,409.14,663,748,0
49876,406.10,663,746,0
49886,403.03,663,748,0
49896,398.22,663,746,0
49906,393.52,663,748,0
49916,387.41,663,746,0
49926,381.76,663,748,0
49936,374.97,663,746,0
49946,368.90,663,748,0
49956,361.86,663,746,0
49966,355.90,663,748,0
49976,349.29,663,746,0
49986,343.93,663,751,0
49996,338.16,663,747,0
50007,333.87,663,750,0
50017,329.41,663,746,0
50027,326.72,663,748,0
50037,324.02,663,746,0
50048,322.98,663,752,0
50057,322.04,663,746,0
50067,322.67,663,751,0
50077,323.37,663,746,0
50087,325.75,663,751,0
50097,328.18,663,749,0
50107,332.58,663,752,0
50117,337.81,663,747,0
50127,346.31,663,750,0
50137,356.54,663,750,0
50147,370.31,663,749,0
50157,386.16,663,747,0
50167,406.00,663,750,0
50177,427.86,663,746,0
50187,453.23,663,753,0
50197,479.00,663,747,0
50207,506.04,663,752,0
50217,531.66,663,747,0
50227,556.36,663,748,0
50237,576.78,663,747,0
50256,593.26,702,745,0
50258,602.05,702,746,0
50268,605.94,702,748,0
50278,603.00,702,746,0
50288,594.60,702,748,0
50298,580.11,702,746,0
50308,562.07,702,747,0
50318,540.49,702,746,0
50328,518.79,702,748,0
50338,495.20,702,746,0
50348,472.47,702,748,0
50358,450.43,702,746,0
50368,430.84,702,748,0
50378,412.97,702,746,0
50388,398.15,702,748,0
50398,385.42,702,746,0
50408,375.95,702,748,0
50418,368.68,702,746,0
50428,364.58,702,748,0
50438,362.22,702,749,0
50448,362.54,702,750,0
50458,364.13,702,751,0
50468,367.52,702,751,0
50478,371.27,702,747,0
50488,375.86,702,752,0
50498,379.89,702,751,0
50508,384.03,702,752,0
50519,387.02,702,747,0
50529,389.55,702,748,0
50539,390.88,702,747,0
50549,391.39,702,748,0
50560,390.46,702,747,0
50569,388.91,702,752,0
50579,386.06,702,747,0
50589,382.66,702,751,0
50599,378.39,702,754,0
50609,374.12,702,749,0
50619,369.54,702,747,0
50629,365.48,702,748,0
50639,361.56,702,747,0
50649,358.35,702,748,0
50659,355.63,702,747,0
50669,353.60,702,747,0
50679,351.83,702,747,0
50689,350.90,702,748,0
50699,350.46,702,747,0
50709,350.53,702,748,0
50719,350.97,702,747,0
50729,351.80,702,748,0
50739,353.06,702,747,0
50749,354.88,702,748,0
50759,356.93,702,747,0
50769,358.88,702,748,0
50779,360.89,702,746,0
50789,363.02,702,748,0
50799,365.33,702,747,0
50809,367.89,702,748,0
50819,370.75,702,746,0
50829,374.77,702,748,0
50839,380.49,702,747,0
50849,388.66,702,748,0
50860,399.86,702,747,0
50870,414.73,702,748,0
50880,433.76,702,747,0
50890,456.84,702,748,0
50900,483.50,702,747,0
50919,512.54,663,745,0
50921,541.31,663,747,0
50931,569.80,663,748,0
50941,596.26,663,747,0
50951,618.51,663,748,0
50961,635.50,663,747,0
50971,645.51,663,747,0
50981,648.83,663,747,0
50991,646.39,663,747,0
51001,637.06,663,747,0
51011,621.49,663,747,0
51021,601.37,663,747,0
51031,577.34,663,747,0
51041,551.57,663,747,0
51051,524.44,663,747,0
51061,497.99,663,747,0
51072,472.71,663,747,0
51081,450.13,663,747,0
51091,430.33,663,747,0
51101,414.46,663,747,0
51111,402.15,663,747,0
51121,394.39,663,747,0
51131,389.73,663,747,0
51141,388.87,663,747,0
51151,390.32,663,747,0
51161,394.43,663,747,0
51171,399.70,663,747,0
51181,406.39,663,747,0
51191,412.61,663,747,0
51201,419.20,663,747,0
51211,424.84,663,748,0
51221,430.03,663,747,0
51231,433.32,663,747,0
51241,435.63,663,746,0
51251,435.74,663,748,0
51261,434.70,663,747,0
51271,431.53,663,746,0
51281,427.13,663,747,0
51291,420.83,663,748,0
51301,413.94,663,747,0
51311,405.56,663,747,0
51321,397.16,663,747,0
51331,388.20,663,747,0
51341,380.13,663,747,0
51351,372.03,663,747,0
51361,365.38,663,747,0
51372,358.92,663,747,0
51382,354.02,663,748,0
51392,349.13,663,747,0
51402,345.49,663,747,0
51412,341.57,663,747,0
51422,338.96,663,748,0
51432,335.97,663,747,0
51442,333.75,663,747,0
51452,330.87,663,750,0
51462,329.15,663,747,0
51472,327.43,663,747,0
51482,327.60,663,749,0
51492,328.41,663,749,0
51502,331.97,663,748,0
51512,337.85,663,748,0
51522,348.27,663,748,0
51532,362.16,663,747,0
51543,381.40,663,748,0
51553,404.63,663,748,0
51563,433.24,663,748,0
51573,464.93,663,747,0
51584,500.09,663,749,0
51593,535.46,663,748,0
51603,570.90,663,749,0
51613,602.77,663,747,0
51623,630.87,663,749,0
51642,651.95,723,747,0
51644,665.38,723,749,0
51654,670.15,723,748,0
51664,668.13,723,749,0
51674,658.11,723,748,0
51684,642.65,723,748,0
51694,621.02,723,747,0
51704,596.20,723,749,0
51714,569.40,723,747,0
51724,542.71,723,748,0
51734,515.37,723,747,0
51744,490.23,723,749,0
51755,466.42,723,747,0
51764,446.53,723,748,0
51774,429.23,723,748,0
51784,416.35,723,749,0
51794,406.09,723,747,0
51804,400.15,723,749,0
51814,396.33,723,747,0
51824,396.23,723,749,0
51834,397.49,723,747,0
51844,401.50,723,749,0
51854,405.85,723,747,0
51864,411.64,723,749,0
51874,416.89,723,747,0
51884,422.79,723,749,0
51894,427.01,723,747,0
51904,430.78,723,749,0
51914,432.22,723,747,0
51924,432.71,723,749,0
51934,430.53,723,748,0
51944,427.24,723,749,0
51954,422.02,723,748,0
51964,416.15,723,749,0
51974,408.39,723,747,0
51984,400.94,723,749,0
51994,392.13,723,747,0
52004,384.08,723,749,0
52014,375.31,723,747,0
52024,367.63,723,749,0
52034,359.81,723,747,0
52044,354.17,723,749,0
52055,348.50,723,747,0
52065,345.18,723,749,0
52075,342.26,723,747,0
52085,341.49,723,749,0
52096,340.66,723,747,0
52105,342.05,723,749,0
52115,343.19,723,747,0
52125,345.70,723,749,0
52135,347.89,723,747,0
52145,351.40,723,749,0
52155,354.96,723,748,0
52165,360.20,723,749,0
52175,365.88,723,747,0
52185,374.28,723,749,0
52195,384.61,723,747,0
52205,399.08,723,749,0
52215,416.72,723,747,0
52225,438.87,723,749,0
52235,464.20,723,748,0
52245,493.37,723,749,0
52255,523.73,723,747,0
52265,555.40,723,749,0
52275,584.93,723,748,0
52285,612.13,723,749,0
52295,633.90,723,747,0
52315,650.39,672,746,0
52317,658.41,672,748,0
52327,660.26,672,749,0
52337,654.44,672,747,0
52347,642.69,672,748,0
52357,624.83,672,747,0
52367,603.07,672,748,0
52377,577.72,672,747,0
52387,551.87,672,748,0
52397,525.00,672,747,0
52407,499.03,672,749,0
52417,474.08,672,747,0
52427,451.51,672,749,0
52438,431.47,672,748,0
52447,414.70,672,749,0
52457,400.78,672,747,0
52467,390.34,672,749,0
52477,382.83,672,748,0
52487,378.81,672,749,0
52497,377.24,672,747,0
52507,378.41,672,749,0
52517,381.11,672,748,0
52527,385.54,672,749,0
52537,390.18,672,747,0
52547,395.14,672,749,0
52557,399.51,672,748,0
52567,403.56,672,749,0
52577,406.05,672,747,0
52587,407.40,672,748,0
52597,406.98,672,748,0
52608,405.19,672,749,0
52617,401.92,672,748,0
52627,397.79,672,749,0
52637,392.92,672,748,0
52647,387.67,672,749,0
52657,381.99,672,748,0
52667,376.20,672,749,0
52677,370.19,672,748,0
52687,364.34,672,749,0
52697,358.28,672,747,0
52707,352.37,672,748,0
52717,346.69,672,748,0
52727,341.68,672,749,0
52737,337.19,672,747,0
52747,333.88,672,749,0
52757,331.39,672,748,0
52767,329.90,672,750,0
52777,328.99,672,749,0
52787,328.82,672,749,0
52797,328.96,672,748,0
52807,329.79,672,750,0
52817,330.79,672,749,0
52827,332.35,672,750,0
52837,334.35,672,749,0
52847,337.42,672,749,0
52857,341.96,672,747,0
52867,349.13,672,749,0
52877,359.29,672,748,0
52887,373.69,672,749,0
52897,392.64,672,749,0
52908,417.26,672,749,0
52918,446.76,672,749,0
52928,480.69,672,750,0
52938,517.38,672,749,0
52948,555.11,672,749,0
52958,591.59,672,748,0
52977,624.93,663,747,0
52980,651.91,663,749,0
52989,672.03,663,748,0
52999,684.15,663,749,0
53009,687.54,663,749,0
53019,682.83,663,749,0
53029,669.98,663,748,0
53039,650.74,663,748,0
53049,626.35,663,748,0
53059,598.30,663,748,0
53069,567.61,663,748,0
53079,536.83,663,748,0
53089,506.62,663,748,0
53099,478.88,663,748,0
53109,453.24,663,748,0
53120,431.74,663,748,0
53129,413.61,663,748,0
53139,399.97,663,748,0
53149,389.82,663,748,0
53159,383.92,663,748,0
53169,381.33,663,748,0
53179,382.56,663,748,0
53189,386.12,663,748,0
53199,392.43,663,747,0
53209,399.97,663,747,0
53219,408.94,663,747,0
53229,417.48,663,747,0
53239,426.30,663,747,0
53249,433.79,663,747,0
53259,440.54,663,747,0
53269,445.05,663,747,0
53279,448.03,663,747,0
53289,448.58,663,747,0
53299,447.64,663,747,0
53309,444.27,663,748,0
53319,439.56,663,747,0
53329,432.62,663,747,0
53339,424.89,663,747,0
53349,415.71,663,747,0
53359,406.37,663,747,0
53369,396.40,663,747,0
53379,386.94,663,748,0
53389,377.44,663,747,0
53399,369.30,663,747,0
53409,361.66,663,747,0
53420,355.98,663,749,0
53430,350.89,663,748,0
53440,347.75,663,748,0
53450,345.21,663,748,0
53460,344.80,663,749,0
53470,344.86,663,748,0
53480,346.75,663,749,0
53490,348.62,663,749,0
53500,351.61,663,749,0
53510,353.95,663,748,0
53520,357.18,663,749,0
53530,359.70,663,749,0
53540,363.65,663,749,0
53550,367.95,663,749,0
53560,374.91,663,749,0
53570,384.32,663,748,0
53580,398.54,663,749,0
53591,416.81,663,748,0
53601,440.61,663,749,0
53611,468.15,663,748,0
53621,499.82,663,749,0
53632,532.83,663,748,0
53641,566.83,663,749,0
53651,598.04,663,748,0
53661,626.14,663,750,0
53671,647.44,663,748,0
53690,662.27,713,747,0
53692,666.60,713,748,0
53702,663.63,713,750,0
53712,651.92,713,748,0
53722,634.46,713,749,0
53732,610.28,713,748,0
53742,583.24,713,749,0
53752,552.95,713,748,0
53762,524.47,713,749,0
53772,495.48,713,748,0
53782,468.85,713,749,0
53792,443.35,713,748,0
53803,421.65,713,749,0
53812,402.25,713,748,0
53822,387.26,713,749,0
53832,374.93,713,748,0
53842,366.93,713,749,0
53852,361.60,713,748,0
53862,360.48,713,749,0
53872,361.28,713,748,0
53882,365.31,713,748,0
53892,370.19,713,748,0
53902,377.12,713,749,0
53912,383.72,713,748,0
53922,391.22,713,749,0
53932,397.33,713,748,0
53942,403.53,713,749,0
53952,407.61,713,748,0
53962,411.16,713,749,0
53972,412.31,713,748,0
53982,412.86,713,750,0
53992,411.06,713,748,0
54002,408.68,713,749,0
54012,404.24,713,748,0
54022,399.79,713,749,0
54032,393.73,713,748,0
54042,388.02,713,748,0
54052,381.16,713,748,0
54062,375.11,713,749,0
54072,368.39,713,748,0
54082,362.87,713,749,0
54092,356.91,713,748,0
54103,352.44,713,749,0
54113,347.68,713,747,0
54123,344.52,713,749,0
54133,341.15,713,747,0
54144,339.65,713,748,0
54153,337.82,713,747,0
54163,337.41,713,748,0
54173,336.81,713,747,0
54183,337.47,713,751,0
54193,337.59,713,748,0
54203,338.87,713,750,0
54213,339.46,713,748,0
54223,341.72,713,750,0
54233,344.38,713,748,0
54243,349.62,713,749,0
54253,356.89,713,747,0
54263,368.54,713,749,0
54273,383.29,713,748,0
54283,403.56,713,749,0
54293,427.65,713,748,0
54303,456.86,713,749,0
54313,488.31,713,747,0
54323,522.33,713,749,0
54333,555.32,713,748,0
54343,587.28,713,749,0
54363,614.37,672,748,0
54365,634.91,672,749,0
54375,647.75,672,748,0
54385,653.79,672,749,0
54395,650.98,672,747,0
54405,641.90,672,749,0
54415,625.26,672,747,0
54425,603.24,672,748,0
54435,577.58,672,747,0
54445,549.16,672,749,0
54455,518.04,672,747,0
54465,486.96,672,749,0
54475,455.09,672,748,0
54486,425.15,672,748,0
54495,397.03,672,748,0
54505,372.38,672,748,0
54515,350.62,672,750,0
54525,333.04,672,748,0
54535,318.45,672,750,0
54545,308.63,672,748,0
54555,302.19,672,747,0
54565,300.46,672,748,0
54575,301.69,672,752,0
54585,307.01,672,754,0
54595,314.85,672,753,0
54605,326.60,672,749,0
54615,339.57,672,748,0
54625,354.70,672,748,0
54635,369.49,672,747,0
54645,384.82,672,748,0
54656,398.67,672,747,0
54665,411.46,672,748,0
54675,420.88,672,747,0
54685,428.20,672,748,0
54695,432.12,672,746,0
54705,434.02,672,749,0
54715,432.81,672,752,0
54725,430.08,672,748,0
54735,425.21,672,746,0
54745,420.05,672,748,0
54755,413.74,672,747,0
54765,407.94,672,748,0
54775,401.83,672,746,0
54785,397.13,672,748,0
54795,392.54,672,747,0
54805,389.51,672,748,0
54815,386.79,672,746,0
54825,385.61,672,748,0
54835,384.52,672,747,0
54845,384.80,672,748,0
54855,385.63,672,747,0
54865,387.45,672,748,0
54875,389.55,672,747,0
54885,393.03,672,748,0
54895,397.22,672,746,0
54905,403.80,672,748,0
54915,412.09,672,747,0
54925,423.80,672,748,0
54935,438.60,672,747,0
54945,457.71,672,748,0
54956,479.91,672,747,0
54966,505.91,672,748,0
54976,533.19,672,747,0
54986,561.38,672,748,0
55006,587.06,643,749,0
55009,608.35,643,750,0
55018,624.78,643,747,0
55028,634.83,643,747,0
55038,637.24,643,747,0
55048,632.28,643,747,0
55058,619.86,643,746,0
55068,600.83,643,747,0
55078,578.04,643,747,0
55088,550.81,643,747,0
55098,521.72,643,747,0
55108,491.59,643,747,0
55118,462.32,643,747,0
55128,434.66,643,747,0
55138,410.08,643,747,0
55148,387.98,643,747,0
55158,369.26,643,747,0
55169,353.15,643,747,0
55179,340.59,643,747,0
55189,330.47,643,747,0
55199,323.73,643,748,0
55209,319.14,643,747,0
55219,317.81,643,748,0
55229,318.73,643,747,0
55239,322.97,643,748,0
55249,328.76,643,747,0
55259,337.10,643,747,0
55269,346.03,643,747,0
55279,356.39,643,747,0
55289,365.96,643,747,0
55299,375.23,643,747,0
55309,382.70,643,747,0
55319,389.26,643,747,0
55329,393.38,643,747,0
55340,396.57,643,748,0
55350,397.56,643,746,0
55360,398.33,643,748,0
55370,397.80,643,747,0
55380,397.43,643,748,0
55390,396.36,643,747,0
55400,395.82,643,748,0
55410,394.08,643,746,0
55420,392.85,643,748,0
55430,390.45,643,746,0
55440,388.56,643,748,0
55450,385.31,643,747,0
55460,382.47,643,748,0
55470,378.60,643,746,0
55480,375.64,643,748,0
55490,371.93,643,746,0
55500,369.42,643,748,0
55511,366.64,643,746,0
55521,366.06,643,748,0
55531,366.30,643,746,0
55541,370.20,643,748,0
55552,376.65,643,746,0
55561,388.07,643,748,0
55571,403.35,643,746,0
55581,424.72,643,748,0
55591,450.26,643,746,0
55601,481.04,643,748,0
55611,513.90,643,747,0
55630,549.29,625,745,0
55632,582.59,625,747,0
55642,614.68,625,748,0
55652,641.26,625,747,0
55662,662.31,625,748,0
55672,674.73,625,746,0
55682,679.91,625,748,0
55692,675.14,625,746,0
55702,663.31,625,748,0
55712,641.96,625,746,0
55723,614.72,625,748,0
55732,581.16,625,746,0
55742,544.81,625,748,0
55752,505.27,625,746,0
55762,465.93,625,751,0
55772,426.61,625,752,0
55782,389.83,625,754,0
55792,354.44,625,747,0
55802,322.33,625,748,0
55812,291.85,625,752,0
55822,264.81,625,754,0
55832,239.45,625,753,0
55842,217.50,625,755,0
55852,197.64,625,756,0
55862,180.95,625,762,0
55872,166.13,625,762,0
55882,153.96,625,765,0
55892,143.22,625,764,0
55902,135.40,625,765,0
55912,128.98,625,764,0
55922,124.96,625,766,0
55932,122.31,625,765,0
55942,121.92,625,766,0
55952,123.14,625,765,0
55962,126.10,625,766,0
55972,129.93,625,765,0
55982,135.01,625,766,0
55992,140.62,625,765,0
56002,147.29,625,766,0
56012,154.87,625,766,0
56023,163.61,625,766,0
56033,172.64,625,765,0
56043,182.48,625,765,0
56053,192.41,625,766,0
56064,202.66,625,765,0
56073,212.44,625,765,0
56083,221.40,625,766,0
56093,229.34,625,766,0
56103,237.12,625,765,0
56113,244.03,625,765,0
56123,251.26,625,765,0
56133,258.55,625,765,0
56143,267.26,625,765,0
56153,277.21,625,765,0
56163,290.30,625,765,0
56173,306.28,625,765,0
56183,326.98,625,765,0
56193,351.38,625,765,0
56212,381.22,582,764,0
56215,414.58,582,756,0
56224,454.91,582,749,0
56235,497.92,582,748,0
56244,541.57,582,748,0
56254,582.97,582,748,0
56264,621.42,582,748,0
56274,654.60,582,748,0
56284,683.00,582,748,0
56294,702.93,582,747,0
56304,716.24,582,748,0
56314,722.17,582,748,0
56324,721.86,582,748,0
56334,714.14,582,748,0
56344,699.83,582,749,0
56354,678.15,582,749,0
56364,650.42,582,750,0
56374,617.25,582,750,0
56384,582.50,582,749,0
56394,546.22,582,748,0
56404,512.00,582,749,0
56414,479.94,582,748,0
56424,452.70,582,749,0
56434,429.48,582,748,0
56444,411.85,582,750,0
56454,398.69,582,747,0
56464,391.46,582,748,0
56474,387.98,582,747,0
56484,388.97,582,747,0
56494,392.11,582,751,0
56504,398.42,582,751,0
56514,405.15,582,749,0
56524,413.12,582,747,0
56535,419.85,582,747,0
56545,426.71,582,747,0
56555,431.77,582,747,0
56565,436.47,582,746,0
56576,438.68,582,751,0
56585,440.28,582,748,0
56595,439.51,582,750,0
56605,437.86,582,749,0
56615,434.39,582,751,0
56625,430.41,582,749,0
56635,425.06,582,748,0
56645,419.51,582,749,0
56655,413.27,582,748,0
56665,407.53,582,748,0
56675,401.59,582,748,0
56685,396.40,582,747,0
56695,391.35,582,749,0
56705,387.17,582,751,0
56715,382.96,582,749,0
56725,379.63,582,749,0
56735,376.40,582,749,0
56745,374.65,582,749,0
56755,373.60,582,749,0
56765,374.96,582,748,0
56775,378.74,582,748,0
56785,386.71,582,748,0
56795,398.41,582,748,0
56805,415.43,582,748,0
56815,437.24,582,748,0
56825,464.21,582,748,0
56835,494.15,582,748,0
56845,526.68,582,748,0
56864,559.43,652,746,0
56867,589.82,652,747,0
56876,617.17,652,748,0
56886,640.09,652,748,0
56896,657.21,652,749,0
56906,667.77,652,747,0
56916,670.80,652,747,0
56926,667.22,652,752,0
56936,658.24,652,747,0
56946,643.38,652,749,0
56956,623.12,652,750,0
56966,598.70,652,749,0
56976,572.22,652,749,0
56986,544.98,652,749,0
56996,518.16,652,748,0
57006,493.73,652,749,0
57016,471.99,652,749,0
57026,453.87,652,749,0
57036,440.66,652,749,0
57047,431.46,652,749,0
57057,426.91,652,749,0
57067,425.82,652,749,0
57077,427.98,652,749,0
57088,432.48,652,748,0
57097,439.58,652,749,0
57107,447.16,652,748,0
57117,455.90,652,749,0
57127,463.77,652,748,0
57137,471.77,652,749,0
57147,478.01,652,748,0
57157,482.98,652,748,0
57167,485.26,652,748,0
57177,485.69,652,748,0
57187,483.43,652,748,0
57197,480.00,652,748,0
57207,474.69,652,748,0
57217,468.61,652,748,0
57227,461.44,652,748,0
57237,454.92,652,748,0
57247,447.92,652,748,0
57257,441.60,652,748,0
57267,434.95,652,748,0
57277,428.84,652,749,0
57287,422.63,652,748,0
57297,417.51,652,748,0
57307,412.13,652,748,0
57317,407.98,652,749,0
57327,404.13,652,748,0
57337,402.07,652,748,0
57347,401.15,652,748,0
57357,403.33,652,749,0
57367,408.16,652,748,0
57377,417.59,652,748,0
57388,431.68,652,748,0
57398,452.05,652,749,0
57408,477.53,652,748,0
57418,508.75,652,748,0
57428,543.19,652,748,0
57438,579.05,652,749,0
57457,613.62,593,748,0
57459,645.45,593,749,0
57469,672.66,593,748,0
57479,695.05,593,749,0
57489,710.33,593,748,0
57499,719.19,593,749,0
57509,720.72,593,748,0
57519,716.30,593,749,0
57529,704.94,593,748,0
57539,687.69,593,749,0
57549,663.61,593,748,0
57559,635.27,593,749,0
57569,602.92,593,747,0
57579,570.63,593,749,0
57589,537.87,593,747,0
57600,507.91,593,749,0
57609,480.16,593,747,0
57619,457.40,593,749,0
57629,438.85,593,748,0
57639,426.04,593,747,0
57649,416.98,593,746,0
57659,413.52,593,747,0
57669,413.58,593,745,0
57679,418.16,593,747,0
57689,424.67,593,745,0
57699,433.68,593,747,0
57709,442.74,593,745,0
57719,452.67,593,747,0
57729,460.87,593,745,0
57739,468.41,593,747,0
57749,473.09,593,745,0
57759,476.36,593,747,0
57769,476.30,593,745,0
57779,474.96,593,747,0
57789,470.90,593,745,0
57799,465.96,593,747,0
57809,458.77,593,745,0
57819,451.43,593,747,0
57829,442.81,593,745,0
57839,434.94,593,747,0
57849,426.09,593,745,0
57859,418.18,593,747,0
57869,409.72,593,745,0
57879,402.69,593,747,0
57889,395.50,593,745,0
57900,390.08,593,747,0
57910,384.74,593,745,0
57920,381.52,593,747,0
57930,378.92,593,745,0
57940,379.42,593,747,0
57950,381.52,593,745,0
57960,388.13,593,747,0
57970,397.91,593,745,0
57980,414.22,593,747,0
57990,435.28,593,745,0
58000,463.14,593,747,0
58010,495.28,593,745,0
58020,531.93,593,747,0
58030,569.15,593,745,0
58040,605.96,593,747,0
58059,638.89,602,745,0
58062,667.94,602,749,0
58071,691.14,602,746,0
58081,709.01,602,747,0
58091,719.51,602,745,0
58101,723.77,602,747,0
58112,721.10,602,745,0
58121,712.28,602,747,0
58131,696.21,602,745,0
58141,673.82,602,747,0
58151,644.39,602,745,0
58161,611.70,602,747,0
58171,575.79,602,745,0
58181,540.54,602,747,0
58191,505.36,602,745,0
58201,473.58,602,747,0
58211,444.52,602,745,0
58221,420.84,602,747,0
58231,401.09,602,745,0
58241,387.17,602,747,0
58251,377.01,602,745,0
58261,372.38,602,749,0
58271,371.24,602,748,0
58281,374.51,602,750,0
58291,379.71,602,748,0
58301,387.51,602,749,0
58311,395.50,602,748,0
58321,404.52,602,749,0
58331,412.25,602,748,0
58341,419.89,602,750,0
58351,425.19,602,748,0
58361,429.51,602,750,0
58371,430.98,602,748,0
58381,431.50,602,750,0
58391,429.30,602,748,0
58401,426.34,602,750,0
58412,420.79,602,749,0
58422,414.85,602,750,0
58432,407.27,602,748,0
58442,399.95,602,750,0
58452,391.65,602,749,0
58462,384.12,602,750,0
58472,375.99,602,749,0
58482,369.01,602,750,0
58492,361.98,602,749,0
58502,356.54,602,750,0
58512,351.24,602,749,0
58522,347.52,602,750,0
58532,344.24,602,749,0
58542,343.09,602,750,0
58552,343.07,602,748,0
58562,346.30,602,749,0
58572,352.26,602,748,0
58583,363.24,602,750,0
58593,378.68,602,748,0
58603,400.55,602,749,0
58613,427.81,602,749,0
58624,461.21,602,750,0
58633,498.05,602,749,0
58643,537.63,602,750,0
58662,576.61,603,748,0
58664,611.96,603,750,0
58674,641.84,603,749,0
58684,665.46,603,750,0
58694,680.41,603,749,0
58704,686.63,603,749,0
58714,683.31,603,748,0
58724,671.60,603,749,0
58734,653.47,603,749,0
58744,628.94,603,749,0
58754,599.34,603,749,0
58764,566.80,603,749,0
58774,532.70,603,749,0
58784,498.72,603,749,0
58795,466.10,603,749,0
58804,436.07,603,749,0
58814,409.27,603,749,0
58824,386.04,603,749,0
58834,366.83,603,749,0
58844,352.14,603,749,0
58854,341.60,603,748,0
58864,335.55,603,750,0
58874,333.20,603,749,0
58884,334.72,603,749,0
58894,338.88,603,749,0
58904,345.09,603,749,0
58914,352.60,603,749,0
58924,361.08,603,749,0
58934,369.07,603,748,0
58944,376.42,603,748,0
58954,382.51,603,747,0
58964,387.11,603,747,0
58974,390.16,603,746,0
58984,391.32,603,747,0
58994,390.45,603,746,0
59004,387.87,603,746,0
59014,383.84,603,745,0
59024,378.66,603,747,0
59034,372.72,603,746,0
59044,366.20,603,746,0
59054,359.24,603,746,0
59064,352.44,603,747,0
59074,345.92,603,746,0
59084,339.86,603,746,0
59095,334.20,603,746,0
59105,329.04,603,746,0
59115,324.66,603,746,0
59125,320.90,603,746,0
59136,317.98,603,746,0
59145,315.71,603,747,0
59155,314.43,603,746,0
59165,314.08,603,746,0
59175,315.56,603,746,0
59185,318.65,603,747,0
59195,324.75,603,746,0
59205,333.91,603,746,0
59215,347.31,603,746,0
59225,364.79,603,747,0
59235,386.67,603,746,0
59245,412.35,603,746,0
59255,441.56,603,746,0
59265,472.59,603,747,0
59275,504.17,603,746,0
59285,533.99,603,749,0
59295,561.21,603,749,0
59305,583.43,603,749,0
59324,599.97,662,747,0
59326,607.35,662,749,0
59336,607.38,662,748,0
59346,599.93,662,748,0
59356,586.33,662,748,0
59366,566.30,662,749,0
59376,542.72,662,749,0
59386,515.29,662,748,0
59396,488.55,662,749,0
59406,461.64,662,749,0
59416,436.03,662,749,0
59426,411.55,662,749,0
59436,390.47,662,750,0
59446,371.64,662,748,0
59456,356.58,662,749,0
59466,344.28,662,749,0
