Time,PPG,IBI,GSR,GSR_Event
1054571,391.38,863,756,0
1054581,399.75,863,752,0
1054601,408.35,874,752,0
1054604,420.80,874,756,0
1054613,437.71,874,755,0
1054623,458.58,874,755,0
1054633,481.72,874,755,0
1054643,507.73,874,755,0
1054653,539.61,874,755,0
1054663,573.03,874,755,0
1054673,601.73,874,755,0
1054683,623.84,874,754,0
1054693,637.30,874,755,0
1054703,642.48,874,755,0
1054713,638.91,874,754,0
1054723,627.84,874,754,0
1054733,609.76,874,755,0
1054743,587.03,874,755,0
1054753,560.28,874,754,0
1054764,531.99,874,755,0
1054774,502.72,874,755,0
1054784,474.65,874,755,0
1054794,448.14,874,754,0
1054804,425.00,874,755,0
1054814,404.81,874,755,0
1054824,388.88,874,755,0
1054834,376.10,874,754,0
1054844,367.63,874,755,0
1054854,362.17,874,755,0
1054864,360.23,874,755,0
1054874,360.38,874,754,0
1054884,363.18,874,755,0
1054894,367.02,874,755,0
1054904,372.50,874,755,0
1054914,377.88,874,754,0
1054924,383.96,874,755,0
1054935,389.37,874,754,0
1054945,394.75,874,755,0
1054955,398.68,874,753,0
1054965,402.08,874,756,0
1054976,403.64,874,754,0
1054985,404.65,874,755,0
1054995,403.81,874,753,0
1055005,402.37,874,755,0
1055015,399.26,874,754,0
1055025,395.92,874,755,0
1055035,391.45,874,754,0
1055045,387.37,874,756,0
1055055,382.50,874,754,0
1055065,378.41,874,755,0
1055075,373.96,874,754,0
1055085,370.67,874,756,0
1055095,367.13,874,754,0
1055105,364.56,874,755,0
1055115,361.86,874,754,0
1055125,360.32,874,755,0
1055135,358.51,874,754,0
1055145,357.71,874,756,0
1055155,356.56,874,754,0
1055165,356.35,874,755,0
1055175,355.81,874,754,0
1055185,356.04,874,756,0
1055195,355.73,874,754,0
1055205,356.20,874,755,0
1055215,356.05,874,754,0
1055225,356.68,874,756,0
1055235,356.69,874,754,0
1055245,357.43,874,755,0
1055255,357.60,874,754,0
1055265,358.66,874,756,0
1055276,359.19,874,753,0
1055286,360.38,874,756,0
1055296,360.61,874,753,0
1055306,361.45,874,756,0
1055316,361.75,874,753,0
1055326,362.55,874,756,0
1055336,362.73,874,753,0
1055346,364.05,874,756,0
1055356,365.97,874,753,0
1055366,370.56,874,756,0
1055376,377.08,874,753,0
1055386,387.30,874,756,0
1055396,400.79,874,753,0
1055406,418.86,874,756,0
1055425,440.03,825,754,0
1055428,464.71,825,757,0
1055437,491.58,825,753,0
1055447,520.29,825,756,0
1055457,548.06,825,754,0
1055467,574.53,825,756,0
1055477,597.04,825,753,0
1055488,615.63,825,756,0
1055497,628.38,825,753,0
1055507,635.04,825,756,0
1055517,634.38,825,753,0
1055527,627.80,825,756,0
1055537,614.79,825,753,0
1055547,597.24,825,756,0
1055557,575.01,825,753,0
1055567,550.36,825,755,0
1055577,523.47,825,753,0
1055587,496.89,825,755,0
1055597,470.61,825,753,0
1055607,446.60,825,755,0
1055617,424.65,825,753,0
1055627,406.49,825,756,0
1055637,391.30,825,753,0
1055647,380.24,825,755,0
1055657,371.98,825,753,0
1055667,367.49,825,756,0
1055677,365.20,825,753,0
1055687,366.17,825,755,0
1055697,368.30,825,753,0
1055707,372.41,825,755,0
1055717,377.90,825,753,0
1055727,384.32,825,755,0
1055737,390.18,825,753,0
1055747,396.43,825,755,0
1055757,401.27,825,753,0
1055767,405.99,825,755,0
1055777,409.33,825,753,0
1055788,411.25,825,756,0
1055798,411.86,825,753,0
1055808,411.90,825,755,0
1055818,410.47,825,753,0
1055828,408.66,825,756,0
1055838,405.76,825,753,0
1055848,402.71,825,755,0
1055858,398.51,825,753,0
1055868,394.33,825,755,0
1055878,389.69,825,753,0
1055888,385.67,825,755,0
1055898,381.52,825,753,0
1055908,378.07,825,755,0
1055918,374.53,825,753,0
1055928,372.06,825,755,0
1055938,369.64,825,753,0
1055948,368.16,825,755,0
1055959,366.57,825,753,0
1055969,365.67,825,755,0
1055979,364.74,825,752,0
1055989,364.43,825,756,0
1056000,364.05,825,752,0
1056009,364.33,825,755,0
1056019,364.49,825,753,0
1056029,365.11,825,756,0
1056039,365.64,825,752,0
1056049,366.39,825,755,0
1056059,366.96,825,753,0
1056069,367.78,825,756,0
1056079,368.58,825,752,0
1056089,370.03,825,755,0
1056099,372.12,825,753,0
1056109,375.69,825,756,0
1056119,381.05,825,752,0
1056129,389.22,825,755,0
1056139,400.17,825,753,0
1056149,414.78,825,756,0
1056159,432.54,825,752,0
1056169,453.64,825,756,0
1056179,476.89,825,753,0
1056189,501.91,825,756,0
1056208,526.96,783,755,0
1056211,550.25,783,756,0
1056220,571.04,783,752,0
1056230,588.39,783,756,0
1056240,600.96,783,753,0
1056250,608.34,783,756,0
1056260,609.95,783,752,0
1056270,605.90,783,756,0
1056280,597.06,783,753,0
1056290,582.94,783,755,0
1056300,564.74,783,752,0
1056310,543.56,783,756,0
1056320,520.42,783,753,0
1056330,496.17,783,756,0
1056340,471.99,783,753,0
1056350,449.15,783,756,0
1056360,428.32,783,753,0
1056370,409.92,783,755,0
1056380,394.30,783,752,0
1056390,382.04,783,756,0
1056400,373.11,783,753,0
1056410,367.51,783,755,0
1056420,365.17,783,752,0
1056430,365.72,783,756,0
1056440,368.59,783,752,0
1056450,373.34,783,755,0
1056460,379.45,783,752,0
1056471,386.26,783,755,0
1056481,393.55,783,753,0
1056491,400.12,783,755,0
1056501,406.30,783,753,0
1056512,411.44,783,755,0
1056521,415.68,783,753,0
1056531,418.43,783,755,0
1056541,419.93,783,753,0
1056551,419.82,783,755,0
1056561,418.89,783,753,0
1056571,416.74,783,755,0
1056581,413.99,783,753,0
1056591,410.31,783,755,0
1056601,406.23,783,753,0
1056611,401.87,783,755,0
1056621,397.58,783,753,0
1056631,393.17,783,755,0
1056641,389.00,783,753,0
1056651,385.06,783,755,0
1056661,382.00,783,753,0
1056671,379.38,783,755,0
1056681,377.43,783,754,0
1056691,375.67,783,755,0
1056701,374.35,783,753,0
1056711,373.18,783,755,0
1056721,372.35,783,753,0
1056731,371.43,783,755,0
1056741,370.70,783,753,0
1056751,370.11,783,755,0
1056761,370.25,783,753,0
1056771,371.24,783,755,0
1056781,373.87,783,753,0
1056791,378.15,783,755,0
1056801,385.01,783,753,0
1056812,394.56,783,754,0
1056822,407.72,783,754,0
1056832,424.22,783,754,0
1056842,444.38,783,754,0
1056852,466.98,783,754,0
1056862,491.93,783,754,0
1056872,517.19,783,754,0
1056882,542.59,783,754,0
1056902,565.60,693,753,0
1056905,585.13,693,755,0
1056914,600.09,693,754,0
1056924,610.39,693,755,0
1056934,614.60,693,753,0
1056944,613.82,693,754,0
1056954,606.76,693,753,0
1056964,595.13,693,755,0
1056974,578.98,693,753,0
1056984,559.87,693,754,0
1056994,537.88,693,753,0
1057004,515.03,693,755,0
1057014,491.06,693,753,0
1057025,468.37,693,755,0
1057035,446.79,693,753,0
1057045,428.47,693,755,0
1057055,412.13,693,753,0
1057065,399.36,693,755,0
1057075,389.27,693,753,0
1057085,383.10,693,755,0
1057095,379.60,693,753,0
1057105,379.55,693,755,0
1057115,381.36,693,753,0
1057125,385.71,693,755,0
1057135,390.94,693,753,0
1057145,397.77,693,755,0
1057155,404.40,693,753,0
1057165,411.52,693,755,0
1057175,417.45,693,753,0
1057185,423.10,693,755,0
1057196,427.14,693,753,0
1057206,430.61,693,755,0
1057216,432.14,693,753,0
1057226,433.00,693,756,0
1057236,432.10,693,753,0
1057246,430.74,693,755,0
1057256,427.82,693,753,0
1057266,424.74,693,756,0
1057276,420.45,693,753,0
1057286,416.50,693,756,0
1057296,411.81,693,753,0
1057306,407.62,693,755,0
1057316,402.98,693,753,0
1057326,399.13,693,756,0
1057336,395.06,693,753,0
1057346,391.96,693,756,0
1057356,388.67,693,753,0
1057367,386.33,693,755,0
1057377,383.96,693,753,0
1057387,382.77,693,756,0
1057397,382.15,693,753,0
1057408,383.48,693,756,0
1057417,386.42,693,753,0
1057427,392.55,693,756,0
1057437,401.69,693,753,0
1057447,415.32,693,756,0
1057457,432.80,693,753,0
1057467,454.97,693,756,0
1057477,480.48,693,753,0
1057487,509.22,693,756,0
1057506,538.86,605,754,0
1057509,567.96,605,757,0
1057518,594.88,605,753,0
1057528,618.79,605,756,0
1057538,637.45,605,753,0
1057548,650.69,605,756,0
1057558,656.91,605,753,0
1057568,656.68,605,756,0
1057579,650.13,605,752,0
1057588,637.71,605,755,0
1057598,619.45,605,753,0
1057608,596.86,605,756,0
1057618,570.72,605,752,0
1057628,543.07,605,755,0
1057638,514.59,605,753,0
1057648,487.20,605,755,0
1057658,461.08,605,753,0
1057668,438.00,605,755,0
1057678,417.86,605,753,0
1057688,401.74,605,755,0
1057698,388.92,605,752,0
1057708,380.16,605,755,0
1057718,374.58,605,753,0
1057728,372.78,605,755,0
1057738,373.57,605,752,0
1057748,377.34,605,756,0
1057758,382.43,605,753,0
1057768,389.03,605,755,0
1057778,396.09,605,753,0
1057788,403.35,605,756,0
1057798,409.97,605,753,0
1057808,416.28,605,755,0
1057818,421.38,605,753,0
1057828,425.60,605,756,0
1057838,428.20,605,753,0
1057848,429.73,605,755,0
1057858,429.60,605,753,0
1057868,428.30,605,756,0
1057879,425.25,605,752,0
1057889,421.15,605,756,0
1057899,415.88,605,752,0
1057909,410.38,605,755,0
1057920,404.31,605,752,0
1057929,398.95,605,756,0
1057939,393.78,605,752,0
1057949,389.47,605,755,0
1057959,385.47,605,752,0
1057969,382.33,605,756,0
1057979,379.79,605,752,0
1057989,377.71,605,755,0
1057999,375.74,605,752,0
1058009,374.27,605,756,0
1058019,373.81,605,752,0
1058029,375.28,605,755,0
1058039,378.97,605,752,0
1058049,385.75,605,756,0
1058059,396.67,605,752,0
1058069,412.92,605,756,0
1058079,434.63,605,753,0
1058089,461.44,605,755,0
1058099,492.25,605,752,0
1058109,526.33,605,756,0
1058128,561.85,622,754,0
1058131,596.18,622,754,0
1058140,627.75,622,752,0
1058150,655.00,622,755,0
1058160,676.39,622,753,0
1058170,691.57,622,755,0
1058180,699.33,622,752,0
1058190,699.49,622,755,0
1058200,693.04,622,753,0
1058210,679.31,622,754,0
1058220,659.46,622,752,0
1058230,634.25,622,755,0
1058240,605.03,622,753,0
1058250,573.05,622,754,0
1058260,540.04,622,753,0
1058270,507.24,622,755,0
1058280,476.23,622,752,0
1058290,447.57,622,754,0
1058300,422.63,622,753,0
1058310,401.35,622,755,0
1058320,384.49,622,752,0
1058330,371.79,622,754,0
1058340,363.36,622,753,0
1058350,358.67,622,755,0
1058360,357.35,622,752,0
1058370,358.62,622,754,0
1058380,362.25,622,752,0
1058391,367.27,622,754,0
1058401,373.79,622,753,0
1058411,380.80,622,753,0
1058421,388.40,622,753,0
1058432,395.69,622,753,0
1058441,402.60,622,753,0
1058451,408.33,622,753,0
1058461,413.29,622,753,0
1058471,416.38,622,753,0
1058481,418.23,622,753,0
1058491,418.21,622,753,0
1058501,417.03,622,753,0
1058511,414.15,622,754,0
1058521,410.46,622,753,0
1058531,405.61,622,753,0
1058541,400.50,622,753,0
1058551,394.69,622,754,0
1058561,389.13,622,753,0
1058571,383.56,622,753,0
1058581,379.02,622,753,0
1058591,374.81,622,754,0
1058601,371.70,622,753,0
1058611,369.05,622,753,0
1058621,367.40,622,753,0
1058631,366.04,622,754,0
1058641,365.60,622,753,0
1058651,365.63,622,754,0
1058661,367.42,622,753,0
1058671,370.98,622,754,0
1058681,377.84,622,753,0
1058691,388.00,622,754,0
1058701,402.83,622,753,0
1058711,422.60,622,754,0
1058721,448.05,622,753,0
1058732,477.99,622,754,0
1058742,512.02,622,753,0
1058761,547.89,633,752,0
1058764,583.96,633,757,0
1058774,618.09,633,753,0
1058783,648.75,633,754,0
1058793,673.25,633,753,0
1058803,691.09,633,755,0
1058813,700.36,633,753,0
1058823,701.88,633,754,0
1058833,695.62,633,753,0
1058843,682.45,633,754,0
1058853,662.21,633,753,0
1058863,637.42,633,754,0
1058873,608.28,633,753,0
1058883,577.47,633,754,0
1058893,545.01,633,753,0
1058903,513.34,633,754,0
1058913,482.51,633,753,0
1058923,454.76,633,754,0
1058933,429.50,633,753,0
1058944,408.39,633,754,0
1058953,390.53,633,753,0
1058963,377.26,633,754,0
1058973,367.37,633,753,0
1058983,361.81,633,754,0
1058993,359.04,633,753,0
1059003,359.76,633,754,0
1059013,362.36,633,753,0
1059023,367.44,633,754,0
1059033,373.43,633,754,0
1059043,380.72,633,754,0
1059053,387.49,633,753,0
1059063,394.50,633,754,0
1059073,400.09,633,753,0
1059083,405.34,633,754,0
1059093,408.62,633,753,0
1059103,411.13,633,754,0
1059113,411.44,633,753,0
1059123,411.09,633,754,0
1059133,408.92,633,753,0
1059143,406.12,633,754,0
1059153,401.50,633,753,0
1059163,396.80,633,754,0
1059173,390.78,633,753,0
1059183,385.27,633,754,0
1059193,379.32,633,753,0
1059203,374.04,633,754,0
1059213,368.67,633,753,0
1059223,364.48,633,754,0
1059233,360.27,633,753,0
1059244,357.32,633,754,0
1059254,354.35,633,752,0
1059264,352.53,633,754,0
1059274,350.74,633,752,0
1059284,350.31,633,755,0
1059294,349.83,633,753,0
1059304,350.48,633,754,0
1059314,350.89,633,752,0
1059324,352.34,633,755,0
1059334,353.35,633,753,0
1059344,355.22,633,754,0
1059354,356.44,633,752,0
1059364,358.41,633,755,0
1059374,359.87,633,753,0
1059384,362.09,633,755,0
1059394,364.12,633,752,0
1059404,367.73,633,755,0
1059415,372.52,633,752,0
1059425,380.55,633,754,0
1059435,391.49,633,752,0
1059445,407.46,633,755,0
1059456,427.89,633,753,0
1059465,453.81,633,754,0
1059475,483.57,633,753,0
1059485,517.21,633,755,0
1059505,552.16,743,753,0
1059508,586.27,743,756,0
1059517,617.73,743,752,0
1059527,645.28,743,755,0
1059537,666.71,743,752,0
1059547,681.58,743,755,0
1059557,688.27,743,753,0
1059567,687.20,743,755,0
1059577,679.04,743,752,0
1059587,664.07,743,755,0
1059597,642.58,743,752,0
1059607,616.35,743,755,0
1059617,586.29,743,752,0
1059628,554.49,743,755,0
1059638,521.90,743,751,0
1059648,490.51,743,756,0
1059658,460.75,743,752,0
1059668,434.21,743,755,0
1059678,411.09,743,751,0
1059688,392.25,743,756,0
1059698,377.34,743,752,0
1059708,366.70,743,755,0
1059718,359.72,743,752,0
1059728,356.37,743,756,0
1059738,356.05,743,752,0
1059748,358.35,743,755,0
1059758,362.23,743,751,0
1059768,367.43,743,755,0
1059778,373.22,743,751,0
1059788,379.24,743,755,0
1059799,384.99,743,752,0
1059809,390.01,743,755,0
1059819,394.16,743,752,0
1059829,397.33,743,754,0
1059840,399.46,743,752,0
1059849,400.44,743,755,0
1059859,400.30,743,752,0
1059869,399.01,743,755,0
1059879,396.78,743,752,0
1059889,393.59,743,755,0
1059899,389.81,743,752,0
1059909,385.37,743,755,0
1059919,380.67,743,752,0
1059929,375.93,743,755,0
1059939,371.28,743,752,0
1059949,366.82,743,755,0
1059959,362.80,743,752,0
1059969,359.18,743,755,0
1059979,356.04,743,752,0
1059989,353.28,743,755,0
1059999,351.01,743,752,0
1060009,349.04,743,754,0
1060019,347.74,743,752,0
1060029,346.75,743,755,0
1060039,346.22,743,752,0
1060049,346.07,743,754,0
1060059,346.35,743,752,0
1060069,346.80,743,755,0
1060079,347.72,743,751,0
1060089,348.45,743,754,0
1060099,349.34,743,752,0
1060109,350.14,743,755,0
1060119,351.17,743,752,0
1060129,352.15,743,754,0
1060140,353.22,743,753,0
1060150,354.05,743,754,0
1060160,355.19,743,753,0
1060170,355.99,743,754,0
1060180,356.98,743,753,0
1060190,357.67,743,754,0
1060200,358.76,743,752,0
1060210,360.24,743,753,0
1060220,363.34,743,753,0
1060230,368.04,743,754,0
1060240,375.91,743,752,0
1060250,387.08,743,754,0
1060260,402.87,743,753,0
1060270,422.92,743,754,0
1060289,447.55,785,752,0
1060292,475.20,785,754,0
1060301,506.38,785,753,0
1060311,538.50,785,754,0
1060321,570.36,785,753,0
1060331,599.40,785,754,0
1060341,624.61,785,753,0
1060352,643.80,785,754,0
1060361,656.97,785,753,0
1060371,661.91,785,754,0
1060381,659.54,785,753,0
1060391,649.35,785,753,0
1060401,632.91,785,753,0
1060411,610.53,785,753,0
1060421,584.57,785,753,0
1060431,555.38,785,753,0
1060441,525.31,785,753,0
1060451,495.05,785,753,0
1060461,466.62,785,753,0
1060471,440.03,785,753,0
1060481,417.09,785,753,0
1060491,397.31,785,754,0
1060501,381.83,785,753,0
1060511,370.05,785,754,0
1060521,362.45,785,754,0
1060531,357.94,785,753,0
1060541,356.98,785,753,0
1060551,358.31,785,753,0
1060561,362.12,785,754,0
1060571,366.88,785,753,0
1060581,372.87,785,753,0
1060591,378.74,785,753,0
1060601,384.90,785,753,0
1060611,390.29,785,754,0
1060621,395.30,785,753,0
1060631,398.90,785,754,0
1060641,401.97,785,754,0
1060652,403.22,785,753,0
1060662,403.58,785,754,0
1060672,402.12,785,753,0
1060682,399.90,785,754,0
1060692,395.94,785,752,0
1060702,391.68,785,754,0
1060712,386.37,785,753,0
1060722,381.42,785,754,0
1060732,376.36,785,753,0
1060742,372.48,785,753,0
1060752,368.78,785,753,0
1060762,366.28,785,754,0
1060772,363.75,785,752,0
1060782,362.20,785,753,0
1060792,360.51,785,753,0
1060802,359.58,785,754,0
1060812,358.30,785,753,0
1060823,357.69,785,754,0
1060833,356.80,785,752,0
1060843,356.82,785,754,0
1060853,356.49,785,752,0
1060864,357.03,785,755,0
1060873,357.15,785,753,0
1060883,358.00,785,754,0
1060893,358.39,785,752,0
1060903,359.43,785,754,0
1060913,359.90,785,753,0
1060923,361.04,785,754,0
1060933,361.50,785,752,0
1060943,362.59,785,755,0
1060953,363.06,785,753,0
1060963,364.16,785,754,0
1060973,364.79,785,752,0
1060983,366.36,785,755,0
1060993,367.92,785,753,0
1061003,371.29,785,754,0
1061013,375.74,785,752,0
1061023,383.28,785,755,0
1061033,393.27,785,752,0
1061043,407.41,785,754,0
1061053,424.65,785,752,0
1061072,446.35,783,751,0
1061075,470.08,783,754,0
1061084,496.71,783,754,0
1061094,523.58,783,752,0
1061104,550.54,783,755,0
1061114,574.76,783,753,0
1061124,596.18,783,755,0
1061134,611.98,783,752,0
1061144,623.30,783,755,0
1061154,627.28,783,752,0
1061164,625.57,783,755,0
1061174,616.57,783,752,0
1061184,602.13,783,754,0
1061194,581.86,783,752,0
1061204,558.29,783,755,0
1061214,531.54,783,752,0
1061224,504.47,783,754,0
1061234,476.68,783,752,0
1061244,450.89,783,755,0
1061254,426.88,783,752,0
1061264,406.52,783,754,0
1061274,388.92,783,752,0
1061284,375.32,783,755,0
1061294,364.72,783,752,0
1061304,358.33,783,754,0
1061314,354.85,783,752,0
1061324,355.11,783,755,0
1061335,357.43,783,752,0
1061345,362.57,783,755,0
1061355,368.83,783,752,0
1061365,376.60,783,755,0
1061376,384.13,783,752,0
1061385,392.06,783,755,0
1061395,398.73,783,752,0
1061405,404.81,783,755,0
1061415,409.02,783,752,0
1061425,412.15,783,754,0
1061435,413.26,783,752,0
1061445,413.31,783,755,0
1061455,411.42,783,752,0
1061465,408.81,783,755,0
1061475,404.84,783,752,0
1061485,400.77,783,755,0
1061495,395.83,783,752,0
1061505,391.29,783,754,0
1061515,386.32,783,752,0
1061525,382.07,783,755,0
1061535,377.67,783,752,0
1061545,374.13,783,755,0
1061555,370.49,783,752,0
1061565,367.94,783,755,0
1061575,365.39,783,752,0
1061585,363.86,783,755,0
1061595,362.40,783,752,0
1061605,361.94,783,755,0
1061615,361.57,783,752,0
1061625,362.04,783,755,0
1061635,362.16,783,752,0
1061645,362.88,783,755,0
1061655,363.22,783,752,0
1061665,364.10,783,754,0
1061676,364.71,783,752,0
1061686,365.91,783,755,0
1061696,367.22,783,752,0
1061706,369.90,783,754,0
1061716,373.79,783,752,0
1061726,380.15,783,755,0
1061736,388.59,783,752,0
1061746,400.41,783,754,0
1061756,415.42,783,752,0
1061766,434.32,783,755,0
1061776,456.12,783,752,0
1061786,480.73,783,754,0
1061796,506.57,783,752,0
1061806,533.05,783,755,0
1061825,557.98,753,753,0
1061828,579.50,753,756,0
1061837,596.92,753,751,0
1061847,609.85,753,755,0
1061857,616.71,753,751,0
1061867,617.61,753,755,0
1061877,612.20,753,751,0
1061888,601.34,753,755,0
1061897,586.58,753,752,0
1061907,568.02,753,755,0
1061917,546.29,753,752,0
1061927,522.93,753,755,0
1061937,498.91,753,752,0
1061947,475.49,753,755,0
1061957,453.23,753,751,0
1061967,432.93,753,755,0
1061977,414.70,753,751,0
1061987,399.32,753,755,0
1061997,386.96,753,751,0
1062007,377.89,753,755,0
1062017,371.75,753,752,0
1062027,368.83,753,755,0
1062037,368.41,753,751,0
1062047,370.43,753,755,0
1062057,374.11,753,752,0
1062067,379.01,753,755,0
1062077,384.32,753,751,0
1062087,389.92,753,755,0
1062097,395.22,753,752,0
1062107,400.08,753,755,0
1062117,404.00,753,751,0
1062127,407.04,753,755,0
1062137,408.92,753,752,0
1062147,409.93,753,755,0
1062157,409.78,753,751,0
1062167,408.64,753,755,0
1062177,406.44,753,752,0
1062188,403.65,753,755,0
1062198,400.20,753,752,0
1062208,396.45,753,755,0
1062218,392.54,753,752,0
1062228,388.57,753,754,0
1062238,384.75,753,752,0
1062248,381.14,753,755,0
1062258,377.97,753,752,0
1062268,375.24,753,754,0
1062278,373.37,753,752,0
1062288,372.01,753,755,0
1062298,371.37,753,752,0
1062308,370.96,753,754,0
1062318,370.93,753,752,0
1062328,370.86,753,755,0
1062338,370.95,753,752,0
1062348,371.01,753,754,0
1062359,371.60,753,752,0
1062369,373.18,753,754,0
1062379,376.85,753,753,0
1062389,383.03,753,754,0
1062400,392.92,753,753,0
1062409,406.79,753,754,0
1062419,425.11,753,753,0
1062429,447.58,753,754,0
1062439,474.06,753,753,0
1062458,502.97,633,751,0
1062461,532.59,633,754,0
1062470,561.77,633,753,0
1062480,589.27,633,753,0
1062490,612.97,633,754,0
1062500,631.92,633,753,0
1062510,644.08,633,753,0
1062520,649.54,633,753,0
1062530,648.52,633,753,0
1062540,640.78,633,753,0
1062550,626.32,633,754,0
1062560,606.72,633,753,0
1062571,582.50,633,753,0
1062580,556.25,633,753,0
1062590,528.19,633,753,0
1062600,500.28,633,753,0
1062610,472.94,633,753,0
1062620,447.97,633,753,0
1062630,425.39,633,753,0
1062640,406.38,633,753,0
1062650,390.28,633,753,0
1062660,378.41,633,753,0
1062670,369.89,633,754,0
1062680,365.38,633,753,0
1062690,363.55,633,753,0
1062700,364.84,633,753,0
1062710,367.98,633,753,0
1062720,373.17,633,753,0
1062730,378.86,633,753,0
1062740,385.55,633,753,0
1062750,391.81,633,754,0
1062760,398.25,633,753,0
1062770,403.58,633,753,0
1062780,408.63,633,754,0
1062790,412.21,633,754,0
1062800,415.11,633,753,0
1062810,416.19,633,753,0
1062820,416.30,633,753,0
1062830,414.84,633,754,0
1062840,412.53,633,753,0
1062850,408.64,633,753,0
1062860,404.42,633,753,0
1062871,399.15,633,753,0
1062881,394.05,633,753,0
1062891,388.46,633,753,0
1062901,383.40,633,754,0
1062912,378.35,633,752,0
1062921,374.39,633,753,0
1062931,370.50,633,753,0
1062941,367.99,633,754,0
1062951,365.64,633,752,0
1062961,364.59,633,753,0
1062971,363.64,633,753,0
1062981,363.96,633,754,0
1062991,364.40,633,752,0
1063001,366.34,633,753,0
1063011,369.11,633,753,0
1063021,374.43,633,754,0
1063031,381.89,633,752,0
1063041,393.07,633,753,0
1063051,407.66,633,753,0
1063061,427.43,633,754,0
1063071,451.43,633,753,0
1063081,479.93,633,754,0
1063100,510.89,642,752,0
1063103,542.98,642,755,0
1063112,575.05,642,752,0
1063122,605.85,642,754,0
1063132,632.51,642,752,0
1063142,654.25,642,754,0
1063152,668.92,642,752,0
1063162,677.26,642,754,0
1063172,678.68,642,752,0
1063182,673.16,642,754,0
1063192,660.34,642,752,0
1063202,641.77,642,754,0
1063212,617.58,642,752,0
1063222,590.36,642,754,0
1063232,560.21,642,752,0
1063242,529.68,642,754,0
1063252,498.92,642,752,0
1063262,470.36,642,754,0
1063272,443.93,642,752,0
1063282,421.54,642,754,0
1063292,402.52,642,752,0
1063302,388.05,642,754,0
1063312,376.85,642,752,0
1063322,369.91,642,754,0
1063332,365.69,642,751,0
1063342,365.14,642,754,0
1063352,366.51,642,752,0
1063362,370.52,642,754,0
1063372,375.29,642,751,0
1063383,381.76,642,754,0
1063393,388.05,642,752,0
1063403,394.80,642,754,0
1063413,400.26,642,751,0
1063424,405.46,642,754,0
1063433,408.75,642,752,0
1063443,411.27,642,754,0
1063453,411.57,642,751,0
1063463,411.14,642,754,0
1063473,408.87,642,752,0
1063483,406.51,642,754,0
1063493,402.97,642,751,0
1063503,399.42,642,754,0
1063513,395.10,642,752,0
1063523,391.38,642,754,0
1063533,387.07,642,751,0
1063543,383.58,642,754,0
1063553,379.50,642,752,0
1063563,376.18,642,754,0
1063573,372.57,642,751,0
1063583,369.83,642,754,0
1063593,366.88,642,752,0
1063603,364.99,642,754,0
1063613,362.89,642,752,0
1063623,361.81,642,754,0
1063633,360.50,642,752,0
1063643,360.26,642,754,0
1063653,359.75,642,752,0
1063663,360.34,642,754,0
1063673,361.14,642,752,0
1063683,363.54,642,754,0
1063693,367.11,642,752,0
1063703,373.63,642,754,0
1063713,382.79,642,752,0
1063724,396.48,642,754,0
1063734,414.21,642,752,0
1063744,437.29,642,754,0
1063754,464.50,642,752,0
1063764,495.77,642,754,0
1063774,528.75,642,752,0
1063793,562.77,693,751,0
1063796,594.38,693,753,0
1063805,623.02,693,755,0
1063815,646.16,693,752,0
1063825,663.25,693,754,0
1063835,672.61,693,752,0
1063845,674.70,693,755,0
1063855,668.79,693,752,0
1063865,656.89,693,754,0
1063875,638.50,693,752,0
1063885,615.25,693,754,0
1063895,588.13,693,752,0
1063905,559.29,693,754,0
1063915,529.46,693,752,0
1063925,500.48,693,754,0
1063936,472.69,693,751,0
1063945,447.67,693,754,0
1063955,425.44,693,752,0
1063965,406.79,693,754,0
1063975,391.34,693,751,0
1063985,379.67,693,754,0
1063995,371.41,693,752,0
1064005,367.04,693,754,0
1064015,365.57,693,751,0
1064025,367.12,693,754,0
1064035,370.38,693,752,0
1064045,375.32,693,754,0
1064055,380.76,693,751,0
1064065,386.57,693,754,0
1064075,391.54,693,752,0
1064085,395.92,693,754,0
1064095,399.07,693,751,0
1064105,401.50,693,754,0
1064115,402.63,693,752,0
1064125,403.09,693,754,0
1064135,402.16,693,752,0
1064145,400.57,693,755,0
1064155,398.17,693,752,0
1064165,395.46,693,754,0
1064175,391.98,693,752,0
1064185,388.39,693,754,0
1064195,384.37,693,752,0
1064205,380.74,693,754,0
1064215,377.31,693,752,0
1064225,374.39,693,754,0
1064236,371.57,693,751,0
1064246,369.43,693,755,0
1064256,367.50,693,751,0
1064266,366.11,693,754,0
1064276,364.83,693,751,0
1064286,363.85,693,755,0
1064296,362.70,693,751,0
1064306,361.67,693,754,0
1064316,360.70,693,751,0
1064326,360.06,693,755,0
1064336,359.61,693,751,0
1064346,359.43,693,754,0
1064356,359.34,693,751,0
1064366,359.80,693,755,0
1064376,360.72,693,751,0
1064386,362.34,693,754,0
1064396,365.20,693,751,0
1064407,369.90,693,754,0
1064417,377.13,693,752,0
1064427,387.63,693,754,0
1064437,402.19,693,752,0
1064448,421.46,693,754,0
1064457,445.32,693,751,0
1064467,473.60,693,754,0
1064477,505.17,693,752,0
1064497,538.46,703,751,0
1064500,571.20,703,755,0
1064509,601.74,703,753,0
1064519,628.47,703,753,0
1064529,649.50,703,753,0
1064539,663.75,703,753,0
1064549,670.17,703,753,0
1064559,669.09,703,753,0
1064569,660.83,703,753,0
1064579,646.01,703,753,0
1064589,625.09,703,753,0
1064599,600.12,703,753,0
1064609,571.50,703,753,0
1064620,541.61,703,753,0
1064630,510.87,703,753,0
1064640,481.55,703,754,0
1064650,453.83,703,753,0
1064660,429.41,703,754,0
1064670,407.94,703,753,0
1064680,390.73,703,753,0
1064690,376.88,703,753,0
1064700,367.49,703,754,0
1064710,361.34,703,753,0
1064720,359.18,703,753,0
1064730,359.34,703,753,0
1064740,362.45,703,754,0
1064750,366.86,703,753,0
1064760,373.07,703,753,0
1064770,379.44,703,753,0
1064780,386.55,703,754,0
1064791,392.73,703,752,0
1064801,398.81,703,754,0
1064811,403.32,703,752,0
1064821,407.13,703,754,0
1064832,408.97,703,752,0
1064841,409.97,703,754,0
1064851,409.08,703,752,0
1064861,407.55,703,754,0
1064871,404.43,703,752,0
1064881,401.04,703,754,0
1064891,396.53,703,752,0
1064901,392.34,703,754,0
1064911,387.48,703,752,0
1064921,383.27,703,754,0
1064931,378.64,703,753,0
1064941,374.94,703,754,0
1064951,371.10,703,752,0
1064961,368.37,703,754,0
1064971,365.73,703,753,0
1064981,364.27,703,754,0
1064991,362.73,703,752,0
1065001,362.30,703,754,0
1065011,361.69,703,752,0
1065021,362.00,703,755,0
1065031,362.04,703,752,0
1065041,362.72,703,754,0
1065051,362.93,703,753,0
1065061,363.81,703,754,0
1065071,364.21,703,752,0
1065081,365.26,703,754,0
1065091,365.78,703,753,0
1065101,366.92,703,754,0
1065111,367.54,703,752,0
1065121,368.75,703,754,0
1065132,369.43,703,752,0
1065142,371.06,703,754,0
1065152,372.58,703,752,0
1065162,375.79,703,754,0
1065172,380.31,703,752,0
1065182,387.93,703,754,0
1065192,398.28,703,752,0
1065202,413.33,703,754,0
1065212,432.13,703,752,0
1065222,455.79,703,754,0
1065232,482.64,703,752,0
1065251,512.58,755,751,0
1065254,542.92,755,753,0
1065263,574.01,755,755,0
1065273,602.30,755,752,0
1065283,626.98,755,754,0
1065293,645.71,755,752,0
1065303,658.40,755,755,0
1065313,663.25,755,752,0
1065323,661.42,755,754,0
1065333,651.14,755,752,0
1065344,634.47,755,755,0
1065353,611.78,755,752,0
1065363,585.49,755,754,0
1065373,555.90,755,752,0
1065383,525.50,755,755,0
1065393,494.79,755,752,0
1065403,466.10,755,754,0
1065413,439.67,755,752,0
1065423,417.05,755,755,0
1065433,397.67,755,752,0
1065443,382.85,755,754,0
1065453,371.88,755,752,0
1065463,365.36,755,755,0
1065473,362.04,755,752,0
1065483,362.50,755,755,0
1065493,365.22,755,752,0
1065503,370.60,755,755,0
1065513,377.10,755,752,0
1065523,384.96,755,755,0
1065533,392.60,755,752,0
1065543,400.39,755,755,0
1065553,406.87,755,752,0
1065563,412.74,755,755,0
1065573,416.68,755,752,0
1065583,419.43,755,755,0
1065593,420.07,755,752,0
1065603,419.79,755,755,0
1065613,417.80,755,752,0
1065623,415.20,755,755,0
1065633,411.24,755,752,0
1065644,407.18,755,755,0
1065654,402.33,755,752,0
1065664,397.69,755,755,0
1065674,392.68,755,752,0
1065684,388.28,755,755,0
1065694,383.82,755,752,0
1065704,380.15,755,755,0
1065714,376.55,755,752,0
1065724,373.81,755,755,0
1065734,371.30,755,752,0
1065744,369.71,755,755,0
1065754,368.34,755,753,0
1065764,367.72,755,755,0
1065774,367.16,755,752,0
1065784,367.33,755,755,0
1065794,367.49,755,753,0
1065804,368.28,755,755,0
1065815,368.88,755,752,0
1065825,369.82,755,756,0
1065835,370.64,755,751,0
1065845,371.87,755,756,0
1065856,373.02,755,752,0
1065865,374.73,755,756,0
1065875,376.78,755,752,0
1065885,380.02,755,755,0
1065895,384.73,755,752,0
1065905,391.84,755,755,0
1065915,401.66,755,752,0
1065925,415.17,755,756,0
1065935,432.61,755,752,0
1065945,454.11,755,756,0
1065955,478.98,755,752,0
1065965,506.67,755,756,0
1065985,535.61,733,754,0
1065988,563.97,733,756,0
1065997,590.68,733,753,0
1066007,613.66,733,755,0
1066017,631.51,733,753,0
1066028,643.01,733,754,0
1066038,647.47,733,754,0
1066048,644.45,733,754,0
1066058,635.28,733,754,0
1066068,618.99,733,754,0
1066078,597.82,733,754,0
1066088,572.29,733,754,0
1066098,544.43,733,753,0
1066108,514.99,733,754,0
1066118,486.15,733,754,0
1066128,458.16,733,754,0
1066138,433.00,733,753,0
1066148,410.33,733,754,0
1066158,391.67,733,754,0
1066168,376.68,733,754,0
1066178,366.41,733,753,0
1066188,359.77,733,754,0
1066199,357.31,733,754,0
1066209,357.90,733,754,0
1066219,361.79,733,754,0
1066229,367.38,733,754,0
1066240,374.77,733,754,0
1066249,382.59,733,754,0
1066259,390.94,733,753,0
1066269,398.29,733,754,0
1066279,405.19,733,754,0
1066289,410.36,733,754,0
1066299,414.80,733,754,0
1066309,417.43,733,753,0
1066319,418.97,733,754,0
1066329,418.77,733,754,0
1066339,417.85,733,754,0
1066349,415.28,733,754,0
1066359,412.33,733,754,0
1066369,408.11,733,754,0
1066379,403.88,733,753,0
1066389,398.82,733,754,0
1066399,394.29,733,754,0
1066409,389.40,733,753,0
1066419,385.38,733,753,0
1066429,381.32,733,754,0
1066439,378.31,733,754,0
1066449,375.35,733,753,0
1066459,373.49,733,754,0
1066469,371.58,733,754,0
1066479,370.77,733,754,0
1066489,369.85,733,753,0
1066499,369.85,733,754,0
1066509,369.77,733,753,0
1066519,370.52,733,754,0
1066529,371.05,733,754,0
1066540,372.62,733,754,0
1066550,374.62,733,753,0
1066560,378.68,733,755,0
1066570,384.30,733,753,0
1066580,393.21,733,755,0
1066590,404.89,733,753,0
1066600,421.04,733,755,0
1066610,440.78,733,753,0
1066620,465.02,733,755,0
1066630,491.93,733,753,0
1066640,521.44,733,755,0
1066650,550.75,733,753,0
1066670,579.45,685,751,0
1066673,603.92,685,754,0
1066682,624.34,685,755,0
1066692,638.55,685,753,0
1066702,646.49,685,755,0
1066712,646.73,685,753,0
1066722,640.51,685,755,0
1066732,627.16,685,753,0
1066742,609.20,685,755,0
1066753,585.95,685,752,0
1066763,559.61,685,755,0
1066773,530.80,685,753,0
1066783,501.67,685,755,0
1066793,472.54,685,753,0
1066803,445.68,685,755,0
1066813,421.05,685,753,0
1066823,400.29,685,755,0
1066833,382.80,685,753,0
1066843,369.83,685,755,0
1066853,360.58,685,753,0
1066863,355.69,685,755,0
1066873,353.94,685,753,0
1066883,355.72,685,755,0
1066893,359.53,685,753,0
1066903,365.59,685,755,0
1066913,372.35,685,753,0
1066924,380.05,685,755,0
1066934,387.40,685,753,0
1066944,394.48,685,755,0
1066954,400.55,685,752,0
1066964,405.74,685,756,0
1066974,409.21,685,753,0
1066984,411.54,685,755,0
1066994,412.28,685,752,0
1067004,411.94,685,756,0
1067014,410.24,685,753,0
1067024,407.68,685,755,0
1067034,404.22,685,752,0
1067044,400.47,685,756,0
1067054,396.04,685,753,0
1067064,391.79,685,755,0
1067074,387.27,685,752,0
1067084,383.16,685,756,0
1067095,379.04,685,752,0
1067105,375.64,685,756,0
1067115,372.58,685,752,0
1067125,370.22,685,756,0
1067136,367.92,685,752,0
1067145,366.32,685,756,0
1067155,365.07,685,752,0
1067165,364.23,685,755,0
1067175,363.56,685,752,0
1067185,363.22,685,756,0
1067195,363.11,685,752,0
1067205,363.34,685,755,0
1067215,364.14,685,752,0
1067225,365.81,685,756,0
1067235,368.78,685,752,0
1067245,373.65,685,755,0
1067255,381.30,685,752,0
1067265,392.44,685,756,0
1067275,407.78,685,752,0
1067285,427.73,685,755,0
1067295,452.28,685,753,0
1067305,481.04,685,755,0
1067315,512.61,685,751,0
1067334,545.69,665,751,0
1067337,578.22,665,754,0
1067346,608.89,665,755,0
1067356,635.49,665,752,0
1067366,656.26,665,755,0
1067376,670.19,665,753,0
1067386,676.52,665,755,0
1067396,675.21,665,752,0
1067406,666.75,665,755,0
1067416,651.26,665,753,0
1067426,629.63,665,755,0
1067436,603.77,665,752,0
1067446,574.82,665,755,0
1067456,544.53,665,753,0
1067466,513.65,665,755,0
1067476,483.67,665,753,0
1067486,455.52,665,755,0
1067496,430.38,665,753,0
1067506,408.15,665,755,0
1067516,389.51,665,753,0
1067526,374.53,665,755,0
1067536,363.83,665,753,0
1067546,356.72,665,755,0
1067556,353.42,665,753,0
1067566,353.08,665,755,0
1067576,355.41,665,753,0
1067586,359.62,665,755,0
1067596,365.43,665,753,0
1067607,371.69,665,754,0
1067617,378.47,665,754,0
1067627,384.67,665,754,0
1067637,390.60,665,754,0
1067648,395.43,665,754,0
1067657,399.55,665,754,0
1067667,402.25,665,754,0
1067677,403.89,665,754,0
1067687,403.80,665,754,0
1067697,402.74,665,754,0
1067707,400.21,665,754,0
1067717,397.23,665,754,0
1067727,393.35,665,754,0
1067737,389.17,665,754,0
1067747,384.71,665,754,0
1067757,380.64,665,754,0
1067767,376.37,665,754,0
1067777,372.92,665,754,0
1067787,369.39,665,754,0
1067797,366.57,665,754,0
1067807,363.78,665,754,0
1067817,361.49,665,754,0
1067827,359.29,665,754,0
1067837,358.00,665,754,0
1067847,356.72,665,754,0
1067857,356.41,665,754,0
1067867,356.12,665,754,0
1067877,356.38,665,754,0
1067887,356.61,665,754,0
1067897,357.54,665,754,0
1067907,358.49,665,754,0
1067917,360.53,665,754,0
1067927,363.29,665,754,0
1067937,368.09,665,754,0
1067948,375.30,665,754,0
1067958,386.36,665,754,0
1067968,401.33,665,754,0
1067978,421.42,665,754,0
1067988,445.89,665,754,0
1067998,474.73,665,754,0
1068008,506.18,665,753,0
1068027,539.85,693,753,0
1068030,572.38,693,754,0
1068039,603.43,693,755,0
1068049,630.08,693,753,0
1068059,651.83,693,755,0
1068069,666.54,693,754,0
1068079,674.52,693,755,0
1068089,674.24,693,753,0
1068099,667.61,693,755,0
1068109,653.45,693,754,0
1068119,633.86,693,755,0
1068129,608.53,693,753,0
1068139,580.39,693,755,0
1068149,549.67,693,753,0
1068160,518.87,693,755,0
1068169,488.27,693,753,0
1068179,459.86,693,755,0
1068189,433.37,693,754,0
1068199,410.76,693,755,0
1068209,391.42,693,753,0
1068219,376.51,693,755,0
1068229,364.78,693,754,0
1068239,357.18,693,755,0
1068249,352.37,693,754,0
1068259,351.14,693,755,0
1068269,351.91,693,754,0
1068279,355.20,693,755,0
1068289,359.34,693,754,0
1068299,365.24,693,755,0
1068309,371.17,693,754,0
1068319,377.84,693,755,0
1068329,383.59,693,753,0
1068339,389.29,693,755,0
1068349,393.40,693,754,0
1068359,396.97,693,755,0
1068369,398.65,693,753,0
1068379,399.61,693,755,0
1068389,398.70,693,753,0
1068399,397.33,693,755,0
1068409,394.36,693,753,0
1068419,391.25,693,755,0
1068429,387.06,693,754,0
1068439,383.19,693,755,0
1068449,378.50,693,753,0
1068460,374.58,693,755,0
1068470,370.12,693,753,0
1068480,366.61,693,755,0
1068490,362.79,693,753,0
1068500,359.98,693,755,0
1068510,357.03,693,753,0
1068520,355.22,693,755,0
1068530,353.35,693,753,0
1068540,352.69,693,755,0
1068550,352.10,693,753,0
1068560,352.54,693,755,0
1068570,352.76,693,753,0
1068580,353.86,693,755,0
1068590,354.89,693,753,0
1068600,356.55,693,756,0
1068610,357.76,693,753,0
1068620,359.63,693,755,0
1068631,361.54,693,753,0
1068641,365.11,693,755,0
1068651,369.96,693,753,0
1068661,377.69,693,755,0
1068672,388.28,693,753,0
1068681,403.45,693,755,0
1068691,422.60,693,753,0
1068701,446.89,693,755,0
1068711,474.65,693,753,0
1068721,505.79,693,755,0
1068740,537.82,713,754,0
1068743,569.25,713,756,0
1068752,598.14,713,753,0
1068762,623.56,713,756,0
1068772,642.80,713,753,0
1068782,655.72,713,755,0
1068792,660.69,713,753,0
1068802,658.68,713,756,0
1068812,649.65,713,753,0
1068822,634.37,713,755,0
1068832,613.00,713,753,0
1068843,587.80,713,755,0
1068852,559.45,713,753,0
1068862,530.21,713,755,0
1068872,500.36,713,753,0
1068882,471.93,713,755,0
1068892,445.25,713,753,0
1068902,422.03,713,755,0
1068912,401.66,713,753,0
1068922,385.09,713,755,0
1068932,371.61,713,753,0
1068942,362.21,713,755,0
1068952,355.98,713,753,0
1068962,353.20,713,755,0
1068972,352.50,713,753,0
1068982,354.53,713,755,0
1068992,358.06,713,753,0
1069002,363.40,713,755,0
1069012,369.11,713,753,0
1069022,375.50,713,755,0
1069032,381.44,713,753,0
1069042,387.31,713,755,0
1069052,392.14,713,753,0
1069062,396.43,713,755,0
1069072,399.34,713,753,0
1069082,401.47,713,755,0
1069092,402.10,713,753,0
1069102,402.03,713,755,0
1069112,400.56,713,753,0
1069122,398.55,713,756,0
1069132,395.43,713,753,0
1069143,392.00,713,755,0
1069153,387.93,713,753,0
1069163,383.96,713,756,0
1069173,379.60,713,752,0
1069184,375.74,713,756,0
1069193,371.92,713,753,0
1069203,368.81,713,756,0
1069213,366.00,713,752,0
1069223,363.81,713,756,0
1069233,361.85,713,753,0
1069243,360.66,713,756,0
1069253,359.73,713,753,0
1069263,359.30,713,756,0
1069273,359.04,713,753,0
1069283,359.24,713,756,0
1069293,359.47,713,753,0
1069303,360.06,713,756,0
1069313,360.47,713,753,0
1069323,361.31,713,756,0
1069333,362.12,713,752,0
1069343,363.11,713,756,0
1069353,363.94,713,752,0
1069363,365.15,713,755,0
1069373,366.48,713,753,0
1069383,368.69,713,756,0
1069393,371.70,713,752,0
1069403,376.68,713,756,0
1069413,383.84,713,753,0
1069423,394.31,713,756,0
1069433,408.49,713,752,0
1069443,427.28,713,756,0
1069453,450.43,713,753,0
1069463,477.90,713,756,0
1069483,508.36,742,755,0
1069486,539.92,742,756,0
1069495,571.92,742,753,0
1069505,602.16,742,755,0
1069515,628.68,742,754,0
1069526,649.69,742,755,0
1069535,663.93,742,753,0
1069545,670.51,742,755,0
1069555,670.10,742,753,0
1069565,661.41,742,755,0
1069575,645.82,742,753,0
1069585,624.06,742,755,0
1069595,597.90,742,753,0
1069605,568.40,742,755,0
1069615,537.47,742,753,0
1069625,506.21,742,755,0
1069635,476.49,742,753,0
1069645,448.83,742,755,0
1069655,424.37,742,753,0
1069665,403.30,742,755,0
1069675,386.62,742,753,0
1069685,373.75,742,755,0
1069696,365.13,742,754,0
1069705,360.07,742,755,0
1069715,358.59,742,753,0
1069725,360.00,742,755,0
1069735,364.07,742,754,0
1069745,369.45,742,755,0
1069755,376.26,742,753,0
1069765,383.55,742,755,0
1069775,391.14,742,754,0
1069785,398.26,742,755,0
1069795,404.69,742,753,0
1069805,409.89,742,755,0
1069815,414.03,742,754,0
1069825,416.72,742,756,0
1069835,418.18,742,753,0
1069845,418.04,742,755,0
1069855,416.83,742,754,0
1069865,414.35,742,755,0
1069875,411.20,742,753,0
1069885,407.20,742,755,0
1069895,402.90,742,754,0
1069905,398.08,742,755,0
1069915,393.52,742,753,0
1069925,388.82,742,755,0
1069935,384.63,742,754,0
1069945,380.58,742,755,0
1069955,377.24,742,753,0
1069965,374.34,742,755,0
1069975,372.26,742,754,0
1069985,370.51,742,755,0
1069996,369.46,742,754,0
1070006,368.64,742,755,0
1070016,368.57,742,754,0
1070026,368.57,742,755,0
1070036,369.09,742,754,0
1070046,369.58,742,755,0
1070056,370.43,742,754,0
1070066,371.12,742,755,0
1070076,372.24,742,754,0
1070086,373.11,742,755,0
1070096,374.58,742,754,0
1070106,375.99,742,755,0
1070116,378.56,742,754,0
1070126,382.12,742,755,0
1070136,388.00,742,754,0
1070146,396.23,742,755,0
1070156,408.20,742,754,0
1070167,423.83,742,754,0
1070177,444.19,742,755,0
1070187,468.22,742,755,0
1070197,496.14,742,755,0
1070208,525.88,742,754,0
1070226,556.69,744,753,0
1070229,585.33,744,754,0
1070238,611.84,744,756,0
1070248,633.15,744,754,0
1070258,648.83,744,755,0
1070268,656.90,744,754,0
1070278,657.96,744,755,0
1070288,650.94,744,754,0
1070298,638.06,744,755,0
1070308,617.98,744,754,0
1070318,593.56,744,755,0
1070328,565.11,744,754,0
1070338,535.29,744,755,0
1070348,504.43,744,754,0
1070358,475.12,744,755,0
1070368,447.22,744,754,0
1070379,422.99,744,756,0
1070388,401.78,744,754,0
1070398,385.13,744,755,0
1070408,372.02,744,754,0
1070418,363.70,744,756,0
1070428,358.73,744,754,0
1070438,357.91,744,755,0
1070448,359.61,744,753,0
1070458,364.48,744,755,0
1070468,370.72,744,754,0
1070478,378.78,744,755,0
1070488,386.77,744,753,0
1070498,395.37,744,755,0
1070508,402.97,744,754,0
1070518,410.22,744,755,0
1070528,415.60,744,753,0
1070538,420.01,744,755,0
1070548,422.23,744,753,0
1070558,423.58,744,755,0
1070568,422.89,744,753,0
1070578,421.55,744,755,0
1070588,418.47,744,754,0
1070598,415.37,744,755,0
1070608,411.28,744,753,0
1070618,407.38,744,755,0
1070628,402.64,744,754,0
1070638,398.42,744,755,0
1070648,393.79,744,753,0
1070658,390.13,744,756,0
1070668,385.93,744,754,0
1070679,382.52,744,756,0
1070689,379.02,744,753,0
1070699,376.62,744,756,0
1070709,374.25,744,753,0
1070720,372.89,744,756,0
1070729,371.33,744,753,0
1070739,370.98,744,756,0
1070749,370.56,744,754,0
1070759,371.20,744,756,0
1070769,371.83,744,753,0
1070779,373.98,744,756,0
1070789,376.64,744,754,0
1070799,381.64,744,756,0
1070809,388.13,744,753,0
1070819,398.03,744,756,0
1070829,410.92,744,753,0
1070839,428.48,744,756,0
1070849,449.29,744,753,0
1070859,474.49,744,756,0
1070869,502.11,744,753,0
1070879,532.12,744,756,0
1070899,561.79,672,754,0
1070902,589.41,672,758,0
1070911,613.16,672,754,0
1070921,632.44,672,756,0
1070931,645.08,672,753,0
1070941,651.18,672,756,0
1070951,649.46,672,754,0
1070961,640.88,672,756,0
1070971,626.00,672,753,0
1070981,605.73,672,756,0
1070991,580.61,672,753,0
1071001,552.74,672,756,0
1071011,522.73,672,753,0
1071021,492.94,672,756,0
1071031,463.94,672,753,0
1071041,437.73,672,756,0
1071051,414.24,672,753,0
1071062,394.93,672,756,0
1071071,379.26,672,753,0
1071081,368.21,672,756,0
1071091,360.86,672,753,0
1071101,357.82,672,755,0
1071111,357.87,672,753,0
1071121,361.34,672,756,0
1071131,366.81,672,753,0
1071141,374.45,672,756,0
1071151,382.76,672,753,0
1071161,391.92,672,756,0
1071171,400.56,672,753,0
1071181,408.83,672,756,0
1071191,415.53,672,753,0
1071201,421.07,672,756,0
1071211,424.52,672,753,0
1071221,426.68,672,756,0
1071232,426.82,672,753,0
1071241,425.93,672,756,0
1071251,423.46,672,753,0
1071261,420.50,672,755,0
1071271,416.45,672,753,0
1071281,412.46,672,756,0
1071291,407.86,672,753,0
1071301,403.58,672,755,0
1071311,398.99,672,754,0
1071321,395.09,672,756,0
1071331,391.08,672,753,0
1071341,387.75,672,755,0
1071351,384.36,672,753,0
1071361,381.76,672,756,0
1071371,379.18,672,753,0
1071381,377.45,672,755,0
1071391,375.90,672,753,0
1071401,375.63,672,756,0
1071411,376.21,672,753,0
1071421,379.06,672,755,0
1071431,384.10,672,753,0
1071441,392.90,672,756,0
1071451,405.23,672,753,0
1071461,422.60,672,755,0
1071471,444.28,672,753,0
1071481,470.90,672,756,0
1071491,500.54,672,753,0
1071510,532.82,612,752,0
1071513,564.68,612,753,0
1071522,595.54,612,757,0
1071532,622.72,612,754,0
1071542,645.22,612,756,0
1071552,661.01,612,753,0
1071562,669.79,612,757,0
1071572,670.33,612,753,0
1071582,664.10,612,756,0
1071592,650.31,612,753,0
1071602,630.20,612,756,0
1071612,604.60,612,753,0
1071622,575.45,612,756,0
1071632,543.90,612,753,0
1071642,511.96,612,757,0
1071652,480.39,612,753,0
1071662,451.08,612,756,0
1071672,424.66,612,753,0
1071682,402.35,612,757,0
1071692,384.20,612,753,0
1071703,370.85,612,756,0
1071713,362.03,612,753,0
1071723,357.78,612,756,0
1071733,357.37,612,753,0
1071744,360.43,612,756,0
1071753,365.92,612,753,0
1071763,373.23,612,756,0
1071773,381.52,612,753,0
1071783,390.06,612,756,0
1071793,398.19,612,753,0
1071803,405.50,612,756,0
1071813,411.69,612,753,0
1071823,416.59,612,756,0
1071833,419.92,612,753,0
1071843,421.75,612,756,0
1071853,422.04,612,753,0
1071863,421.08,612,756,0
1071873,418.87,612,752,0
1071883,415.74,612,756,0
1071893,411.87,612,753,0
1071903,407.54,612,756,0
1071913,402.92,612,753,0
1071923,398.40,612,756,0
1071933,394.04,612,753,0
1071943,389.96,612,756,0
1071953,386.24,612,753,0
1071963,383.04,612,756,0
1071973,380.28,612,753,0
1071983,377.97,612,756,0
1071993,376.14,612,753,0
1072003,374.72,612,756,0
1072013,374.08,612,753,0
1072023,374.44,612,756,0
1072033,376.28,612,752,0
1072044,380.52,612,756,0
1072054,388.04,612,754,0
1072064,399.60,612,755,0
1072074,416.26,612,754,0
1072084,438.30,612,755,0
1072094,465.68,612,754,0
1072104,497.66,612,756,0
1072123,533.03,613,754,0
1072126,569.15,613,755,0
1072135,604.55,613,755,0
1072145,637.13,613,755,0
1072155,665.38,613,754,0
1072165,687.21,613,755,0
1072175,701.67,613,755,0
1072185,707.34,613,755,0
1072195,705.18,613,754,0
1072205,694.37,613,755,0
1072215,676.00,613,754,0
1072225,650.37,613,755,0
1072235,619.62,613,754,0
1072245,584.80,613,755,0
1072256,548.56,613,755,0
1072265,511.84,613,755,0
1072275,477.13,613,754,0
1072285,444.65,613,755,0
1072295,416.34,613,754,0
1072305,392.41,613,755,0
1072315,373.86,613,754,0
1072325,360.06,613,755,0
1072335,351.73,613,755,0
1072345,347.65,613,755,0
1072355,348.10,613,754,0
1072365,351.54,613,755,0
1072375,357.89,613,755,0
1072385,365.55,613,755,0
1072395,374.60,613,755,0
1072405,383.55,613,755,0
1072415,392.68,613,755,0
1072425,400.45,613,755,0
1072435,407.34,613,754,0
1072445,412.30,613,755,0
1072455,415.98,613,754,0
1072465,417.53,613,755,0
1072475,417.80,613,754,0
1072485,416.19,613,755,0
1072495,413.86,613,755,0
1072505,410.17,613,755,0
1072515,406.05,613,755,0
1072525,401.06,613,755,0
1072535,396.29,613,755,0
1072545,390.97,613,755,0
1072556,386.14,613,755,0
1072566,381.17,613,755,0
1072576,377.13,613,755,0
1072586,373.15,613,754,0
1072596,370.23,613,755,0
1072606,367.42,613,754,0
1072616,365.79,613,755,0
1072626,364.18,613,754,0
1072636,363.61,613,755,0
1072646,363.09,613,755,0
1072656,363.75,613,755,0
1072666,364.85,613,754,0
1072676,367.81,613,755,0
1072686,372.20,613,755,0
1072696,379.85,613,755,0
1072706,390.70,613,754,0
1072716,406.60,613,755,0
1072727,427.34,613,754,0
1072737,453.93,613,756,0
1072747,485.03,613,754,0
1072766,520.50,643,753,0
1072770,557.34,643,755,0
1072779,594.18,643,756,0
1072789,628.45,643,754,0
1072799,659.00,643,756,0
1072809,683.00,643,753,0
1072819,700.02,643,756,0
1072829,708.07,643,754,0
1072839,708.13,643,756,0
1072849,699.74,643,753,0
1072859,684.04,643,756,0
1072869,660.80,643,754,0
1072879,632.32,643,756,0
1072889,599.27,643,753,0
1072899,564.69,643,756,0
1072909,529.17,643,754,0
1072919,495.17,643,756,0
1072929,462.68,643,753,0
1072940,433.89,643,756,0
1072950,408.55,643,754,0
1072960,387.94,643,756,0
1072970,371.07,643,753,0
1072980,359.09,643,756,0
1072990,350.79,643,753,0
1073000,346.91,643,756,0
1073010,346.13,643,753,0
1073020,349.09,643,756,0
1073030,353.90,643,754,0
1073040,360.79,643,756,0
1073050,368.27,643,753,0
1073060,376.59,643,756,0
1073070,384.30,643,754,0
1073080,391.75,643,756,0
1073090,397.40,643,753,0
1073100,402.12,643,756,0
1073111,404.96,643,753,0
1073121,406.55,643,756,0
1073131,406.30,643,753,0
1073141,404.93,643,756,0
1073152,401.86,643,753,0
1073161,398.18,643,756,0
1073171,393.49,643,753,0
1073181,388.85,643,756,0
1073191,383.71,643,753,0
1073201,378.91,643,756,0
1073211,374.05,643,753,0
1073221,369.79,643,756,0
1073231,365.57,643,752,0
1073241,362.31,643,756,0
1073251,359.30,643,753,0
1073261,357.28,643,756,0
1073271,355.74,643,753,0
1073281,355.13,643,756,0
1073291,354.92,643,753,0
1073301,355.50,643,756,0
1073311,356.04,643,753,0
1073321,356.93,643,757,0
1073331,357.68,643,753,0
1073341,358.63,643,756,0
1073351,359.38,643,753,0
1073361,360.38,643,757,0
1073371,361.08,643,753,0
1073381,361.92,643,756,0
1073391,362.41,643,753,0
1073401,363.02,643,757,0
1073411,363.27,643,753,0
1073421,364.09,643,756,0
1073431,365.43,643,753,0
1073441,368.73,643,757,0
1073452,374.43,643,752,0
1073462,383.90,643,756,0
1073472,397.86,643,753,0
1073482,417.61,643,756,0
1073492,443.06,643,753,0
1073502,474.07,643,756,0
1073521,509.28,755,755,0
1073524,546.69,755,756,0
1073533,584.33,755,754,0
1073543,620.02,755,756,0
1073553,651.85,755,754,0
1073563,678.68,755,756,0
1073573,698.84,755,754,0
1073583,710.97,755,756,0
1073593,715.05,755,754,0
1073603,710.84,755,756,0
1073613,698.80,755,754,0
1073623,679.45,755,756,0
1073633,653.00,755,753,0
1073643,621.24,755,756,0
1073653,586.20,755,754,0
1073664,549.54,755,755,0
1073673,513.29,755,754,0
1073683,478.88,755,756,0
1073693,447.41,755,754,0
1073703,419.65,755,755,0
1073713,396.35,755,753,0
1073723,377.52,755,756,0
1073733,363.61,755,754,0
1073743,354.04,755,755,0
1073753,348.50,755,753,0
1073763,346.38,755,756,0
1073773,347.72,755,754,0
1073783,351.45,755,755,0
1073793,357.18,755,753,0
1073803,363.99,755,756,0
1073813,371.49,755,754,0
1073823,379.06,755,755,0
1073833,386.24,755,754,0
1073843,392.64,755,756,0
1073853,397.93,755,754,0
1073863,401.60,755,755,0
1073873,403.95,755,754,0
1073883,404.86,755,756,0
1073893,404.52,755,754,0
1073903,402.69,755,755,0
1073913,399.78,755,754,0
1073923,395.95,755,756,0
1073933,391.94,755,754,0
1073943,387.41,755,755,0
1073953,383.00,755,754,0
1073964,378.37,755,755,0
1073974,374.32,755,755,0
1073984,370.15,755,754,0
1073994,366.63,755,755,0
1074004,363.19,755,755,0
1074014,360.52,755,755,0
1074024,357.96,755,754,0
1074034,356.26,755,755,0
1074044,354.81,755,755,0
1074054,354.22,755,755,0
1074064,353.81,755,755,0
1074074,354.21,755,755,0
1074084,354.58,755,755,0
1074094,355.48,755,755,0
1074104,356.19,755,755,0
1074114,357.42,755,755,0
1074124,358.49,755,755,0
1074135,360.06,755,755,0
1074145,361.24,755,754,0
1074155,362.97,755,755,0
1074165,364.26,755,754,0
1074176,366.03,755,755,0
1074185,367.18,755,754,0
1074195,368.58,755,755,0
1074205,369.18,755,755,0
1074215,370.20,755,755,0
1074225,370.44,755,755,0
1074235,371.16,755,755,0
1074245,371.71,755,755,0
1074255,373.73,755,755,0
1074265,376.85,755,755,0
1074275,383.03,755,755,0
1074285,392.02,755,755,0
1074295,405.94,755,755,0
1074305,424.60,755,755,0
1074324,449.15,803,754,0
1074327,478.12,803,755,0
1074336,511.90,803,756,0
1074347,547.93,803,754,0
1074356,584.64,803,755,0
1074366,619.33,803,754,0
1074376,650.82,803,756,0
1074386,675.99,803,754,0
1074396,694.68,803,755,0
1074406,704.29,803,754,0
1074416,705.53,803,756,0
1074426,697.96,803,754,0
1074436,682.97,803,755,0
1074446,660.39,803,754,0
1074456,632.68,803,755,0
1074466,600.29,803,754,0
1074476,566.30,803,755,0
1074486,531.20,803,754,0
1074496,497.75,803,756,0
1074506,465.90,803,754,0
1074516,437.77,803,756,0
1074526,413.15,803,754,0
1074536,393.31,803,756,0
1074546,377.32,803,754,0
1074556,366.16,803,756,0
1074566,358.53,803,754,0
1074576,355.16,803,756,0
1074586,354.51,803,754,0
1074596,357.23,803,756,0
1074606,361.57,803,754,0
1074616,368.04,803,756,0
1074626,374.93,803,754,0
1074636,382.88,803,755,0
1074647,390.12,803,754,0
1074657,397.37,803,756,0
1074667,403.00,803,754,0
1074677,408.01,803,755,0
1074688,410.97,803,754,0
1074697,413.12,803,756,0
1074707,413.13,803,754,0
1074717,412.23,803,755,0
1074727,409.68,803,754,0
1074737,406.69,803,756,0
1074747,402.37,803,754,0
1074757,398.10,803,756,0
1074767,392.88,803,754,0
1074777,388.25,803,756,0
1074787,383.20,803,754,0
1074797,378.94,803,756,0
1074807,374.54,803,754,0
1074817,371.25,803,756,0
1074827,367.92,803,754,0
1074837,365.80,803,756,0
1074847,363.72,803,754,0
1074857,362.95,803,756,0
1074867,362.10,803,754,0
1074877,362.16,803,755,0
1074887,361.94,803,754,0
1074897,362.56,803,756,0
1074907,362.82,803,754,0
1074917,363.73,803,756,0
1074927,364.07,803,754,0
1074937,364.86,803,756,0
1074947,365.25,803,754,0
1074957,366.29,803,756,0
1074967,366.72,803,754,0
1074977,367.66,803,756,0
1074988,367.93,803,754,0
1074998,368.72,803,755,0
1075008,368.94,803,754,0
1075018,369.60,803,756,0
1075028,369.50,803,754,0
1075038,369.95,803,756,0
1075048,369.67,803,754,0
1075058,369.98,803,756,0
1075068,369.77,803,754,0
1075078,370.48,803,756,0
1075088,371.45,803,754,0
1075098,374.40,803,756,0
1075108,379.12,803,754,0
1075118,387.40,803,756,0
1075128,399.11,803,754,0
1075138,416.05,803,756,0
1075158,437.81,833,755,0
1075161,464.78,833,758,0
1075170,496.09,833,754,0
1075180,531.03,833,757,0
1075190,567.24,833,753,0
1075201,602.87,833,757,0
1075211,635.39,833,753,0
1075221,663.05,833,757,0
1075231,683.90,833,754,0
1075241,696.32,833,756,0
1075251,699.61,833,753,0
1075261,694.11,833,757,0
1075271,680.36,833,753,0
1075281,659.08,833,756,0
1075291,631.76,833,753,0
1075301,600.29,833,757,0
1075311,566.39,833,754,0
1075321,531.60,833,756,0
1075331,497.48,833,753,0
1075341,465.49,833,757,0
1075351,436.63,833,753,0
1075361,411.67,833,756,0
1075372,390.98,833,753,0
1075382,374.87,833,756,0
1075392,363.38,833,754,0
1075402,356.24,833,756,0
1075412,353.21,833,754,0
1075422,353.88,833,756,0
1075432,357.60,833,754,0
1075442,363.42,833,756,0
1075452,370.79,833,754,0
1075462,378.96,833,756,0
1075472,387.45,833,754,0
1075482,395.46,833,756,0
1075492,402.91,833,754,0
1075502,409.19,833,756,0
1075512,414.32,833,754,0
1075522,417.91,833,756,0
1075532,420.08,833,754,0
1075543,420.48,833,756,0
1075553,419.57,833,755,0
1075563,417.00,833,755,0
1075573,413.66,833,755,0
1075584,409.22,833,755,0
1075593,404.57,833,755,0
1075603,399.38,833,755,0
1075613,394.38,833,755,0
1075623,389.25,833,755,0
1075633,384.68,833,755,0
1075643,380.06,833,755,0
1075653,376.31,833,755,0
1075663,372.62,833,755,0
1075673,369.78,833,755,0
1075683,367.19,833,755,0
1075693,365.50,833,754,0
1075703,363.98,833,755,0
1075713,363.13,833,755,0
1075723,362.45,833,755,0
1075733,362.57,833,754,0
1075743,362.78,833,755,0
1075753,363.75,833,755,0
1075763,364.68,833,755,0
1075773,366.32,833,754,0
1075783,367.85,833,755,0
1075793,369.83,833,755,0
1075803,371.46,833,755,0
1075813,373.30,833,754,0
1075823,374.66,833,755,0
1075833,376.09,833,755,0
1075843,376.97,833,755,0
1075853,378.00,833,754,0
1075863,378.77,833,755,0
1075873,380.56,833,755,0
1075884,383.30,833,755,0
1075894,388.48,833,754,0
1075904,396.27,833,755,0
1075914,408.19,833,755,0
1075924,424.20,833,755,0
1075934,445.18,833,755,0
1075944,470.07,833,755,0
1075963,498.98,806,754,0
1075966,529.11,806,756,0
1075975,560.45,806,755,0
1075985,590.06,806,755,0
1075995,617.04,806,756,0
1076005,638.76,806,754,0
1076015,654.77,806,755,0
1076025,662.94,806,755,0
1076035,664.42,806,756,0
1076045,657.48,806,754,0
1076055,643.83,806,755,0
1076065,623.14,806,754,0
1076075,597.77,806,756,0
1076085,567.92,806,754,0
1076096,536.45,806,756,0
1076105,503.78,806,755,0
1076115,472.43,806,756,0
1076125,442.48,806,754,0
1076135,416.19,806,756,0
1076145,393.16,806,754,0
1076155,375.16,806,756,0
1076165,361.22,806,754,0
1076175,352.41,806,756,0
1076185,347.45,806,754,0
1076195,347.14,806,756,0
1076205,349.71,806,754,0
1076215,355.71,806,756,0
1076225,363.13,806,754,0
1076235,372.35,806,756,0
1076245,381.80,806,754,0
1076255,391.72,806,756,0
1076265,400.42,806,754,0
1076275,408.48,806,756,0
1076285,414.51,806,754,0
1076295,419.41,806,756,0
1076305,422.07,806,754,0
1076315,423.34,806,755,0
1076325,422.46,806,754,0
1076335,420.70,806,756,0
1076345,417.27,806,754,0
1076355,413.55,806,755,0
1076365,408.71,806,755,0
1076375,404.30,806,756,0
1076385,399.11,806,754,0
1076396,394.70,806,756,0
1076406,389.95,806,754,0
1076416,385.94,806,756,0
1076426,381.71,806,754,0
1076436,378.67,806,756,0
1076446,375.43,806,754,0
1076456,373.28,806,756,0
1076466,371.06,806,754,0
1076476,369.84,806,756,0
1076486,368.69,806,754,0
1076496,368.74,806,756,0
1076506,368.43,806,753,0
1076516,368.94,806,756,0
1076526,369.26,806,754,0
1076536,370.43,806,756,0
1076546,371.16,806,753,0
1076556,372.61,806,756,0
1076567,373.41,806,754,0
1076577,375.05,806,756,0
1076587,376.70,806,754,0
1076597,380.09,806,756,0
1076608,384.56,806,754,0
1076617,392.11,806,756,0
1076627,402.23,806,753,0
1076637,417.12,806,756,0
1076647,435.81,806,754,0
1076657,459.48,806,756,0
1076667,486.17,806,753,0
1076677,515.95,806,756,0
1076687,546.69,806,754,0
1076706,577.60,743,753,0
1076709,604.72,743,754,0
1076718,628.07,743,756,0
1076728,645.11,743,754,0
1076738,656.09,743,756,0
1076748,659.32,743,754,0
1076758,655.28,743,756,0
1076768,643.50,743,754,0
1076779,626.21,743,756,0
1076788,603.26,743,753,0
1076798,576.69,743,756,0
1076808,546.79,743,754,0
1076818,515.99,743,756,0
1076828,484.92,743,754,0
1076838,456.02,743,756,0
1076848,429.31,743,754,0
1076858,406.50,743,756,0
1076868,387.11,743,753,0
1076878,372.55,743,756,0
1076888,362.18,743,754,0
1076898,356.51,743,756,0
1076908,354.39,743,754,0
1076918,356.24,743,756,0
1076928,360.67,743,754,0
1076938,367.80,743,756,0
1076948,376.04,743,754,0
1076958,385.33,743,756,0
1076968,394.36,743,754,0
1076978,403.30,743,756,0
1076988,410.96,743,754,0
1076998,417.57,743,756,0
1077008,422.37,743,754,0
1077018,425.99,743,756,0
1077028,427.62,743,754,0
1077038,428.25,743,756,0
1077048,426.97,743,754,0
1077058,424.88,743,756,0
1077068,421.32,743,754,0
1077079,417.32,743,756,0
1077089,412.38,743,754,0
1077099,407.47,743,756,0
1077109,402.01,743,753,0
1077120,396.91,743,757,0
1077129,391.75,743,754,0
1077139,387.37,743,756,0
1077149,383.19,743,753,0
1077159,379.83,743,757,0
1077169,376.71,743,754,0
1077179,374.48,743,756,0
1077189,372.58,743,753,0
1077199,371.38,743,757,0
1077209,370.36,743,754,0
1077219,370.00,743,756,0
1077229,369.83,743,754,0
1077239,370.61,743,757,0
1077249,372.05,743,754,0
1077259,375.47,743,756,0
1077269,380.98,743,754,0
1077279,389.69,743,756,0
1077289,401.87,743,753,0
1077299,418.66,743,756,0
1077309,439.94,743,754,0
1077319,466.18,743,757,0
1077329,496.17,743,753,0
1077339,529.38,743,756,0
1077349,563.85,743,754,0
1077368,598.22,662,752,0
1077371,629.48,662,755,0
1077380,656.73,662,757,0
1077390,677.81,662,753,0
1077400,691.75,662,756,0
1077410,697.35,662,753,0
1077420,694.93,662,757,0
1077430,684.24,662,753,0
1077440,666.81,662,756,0
1077450,642.70,662,753,0
1077460,613.60,662,756,0
1077470,581.02,662,753,0
1077480,546.64,662,756,0
1077490,511.65,662,753,0
1077500,477.81,662,756,0
1077510,446.28,662,753,0
1077520,418.43,662,756,0
1077530,394.77,662,753,0
1077540,375.64,662,757,0
1077550,361.26,662,753,0
1077560,351.80,662,756,0
1077570,346.89,662,753,0
1077580,346.19,662,757,0
1077591,348.96,662,754,0
1077601,354.50,662,756,0
1077611,362.28,662,754,0
1077621,371.41,662,756,0
1077632,381.27,662,755,0
1077641,391.05,662,756,0
1077651,400.16,662,754,0
1077661,408.00,662,756,0
1077671,414.43,662,755,0
1077681,418.93,662,756,0
1077691,421.69,662,754,0
1077701,422.43,662,756,0
1077711,421.70,662,754,0
1077721,419.52,662,756,0
1077731,416.41,662,754,0
1077741,412.34,662,756,0
1077751,407.87,662,755,0
1077761,402.98,662,756,0
1077771,398.19,662,754,0
1077781,393.20,662,756,0
1077791,388.68,662,754,0
1077801,384.24,662,756,0
1077811,380.52,662,754,0
1077821,377.11,662,756,0
1077831,374.20,662,754,0
1077841,371.53,662,756,0
1077851,369.66,662,754,0
1077861,368.04,662,756,0
1077871,367.05,662,754,0
1077881,366.00,662,756,0
1077891,365.40,662,754,0
1077901,365.28,662,756,0
1077911,365.67,662,754,0
1077921,366.03,662,756,0
1077932,366.62,662,755,0
1077942,367.16,662,755,0
1077952,367.93,662,755,0
1077962,368.42,662,755,0
1077972,368.94,662,755,0
1077982,369.38,662,755,0
1077992,370.43,662,755,0
1078002,372.18,662,755,0
1078012,376.16,662,755,0
1078022,382.50,662,755,0
1078032,392.89,662,755,0
1078042,407.71,662,755,0
1078052,428.45,662,755,0
1078062,454.76,662,756,0
1078072,486.85,662,755,0
1078082,523.02,662,755,0
1078102,561.24,733,754,0
1078105,598.76,733,756,0
1078114,633.80,733,756,0
1078124,664.33,733,755,0
1078134,689.73,733,756,0
1078145,708.88,733,754,0
1078155,721.05,733,756,0
1078165,725.66,733,754,0
1078175,723.32,733,756,0
1078185,713.32,733,754,0
1078195,696.51,733,756,0
1078205,672.27,733,754,0
1078215,641.85,733,756,0
1078225,606.28,733,754,0
1078235,569.08,733,756,0
1078245,531.04,733,754,0
1078255,495.16,733,756,0
1078265,461.47,733,754,0
1078275,432.57,733,756,0
1078285,407.97,733,754,0
1078295,389.25,733,756,0
1078305,375.08,733,754,0
1078316,366.52,733,756,0
1078326,362.04,733,754,0
1078336,362.33,733,756,0
1078346,365.53,733,754,0
1078356,372.18,733,756,0
1078366,380.10,733,754,0
1078376,389.88,733,756,0
1078386,399.69,733,754,0
1078396,409.98,733,756,0
1078406,418.77,733,754,0
1078416,426.68,733,756,0
1078426,432.39,733,754,0
1078436,436.86,733,756,0
1078446,438.83,733,754,0
1078456,439.35,733,756,0
1078466,437.45,733,754,0
1078476,434.61,733,756,0
1078487,430.06,733,754,0
1078497,424.77,733,756,0
1078507,418.20,733,754,0
1078517,411.62,733,756,0
1078528,404.45,733,754,0
1078537,397.80,733,756,0
1078547,390.75,733,754,0
1078557,384.44,733,757,0
1078567,378.22,733,754,0
1078577,373.05,733,756,0
1078587,368.15,733,754,0
1078597,364.38,733,756,0
1078607,361.09,733,754,0
1078617,359.31,733,756,0
1078627,357.97,733,754,0
1078637,357.94,733,756,0
1078647,358.17,733,754,0
1078657,359.41,733,756,0
1078667,360.61,733,754,0
1078677,362.44,733,756,0
1078687,363.85,733,754,0
1078697,365.61,733,756,0
1078707,366.80,733,754,0
1078717,368.19,733,756,0
1078727,368.86,733,754,0
1078737,369.72,733,756,0
1078747,369.80,733,754,0
1078757,370.12,733,756,0
1078767,369.70,733,754,0
1078777,369.83,733,756,0
1078787,369.67,733,754,0
1078797,371.18,733,757,0
1078807,373.91,733,754,0
1078817,379.72,733,756,0
1078828,388.72,733,754,0
1078838,402.99,733,756,0
1078848,422.15,733,754,0
1078858,447.78,733,756,0
1078868,477.89,733,753,0
1078887,512.76,786,753,0
1078890,548.75,786,755,0
1078899,585.38,786,757,0
1078909,619.68,786,753,0
1078919,649.69,786,757,0
1078929,672.58,786,753,0
1078939,687.54,786,756,0
1078949,693.03,786,753,0
1078959,690.79,786,757,0
1078969,679.63,786,753,0
1078979,660.84,786,757,0
1078989,635.52,786,753,0
1078999,605.83,786,757,0
1079009,573.18,786,753,0
1079019,539.31,786,757,0
1079029,505.11,786,753,0
1079040,472.29,786,756,0
1079049,441.60,786,753,0
1079059,414.38,786,757,0
1079069,390.56,786,753,0
1079079,370.72,786,757,0
1079089,354.78,786,753,0
1079099,342.97,786,757,0
1079109,335.01,786,753,0
1079119,330.76,786,756,0
1079129,329.29,786,753,0
1079139,330.40,786,757,0
1079149,333.50,786,753,0
1079159,338.23,786,756,0
1079169,344.04,786,753,0
1079179,350.62,786,757,0
1079189,357.29,786,753,0
1079199,363.93,786,757,0
1079209,370.13,786,754,0
1079219,375.62,786,757,0
1079229,380.02,786,753,0
1079239,383.44,786,757,0
1079249,385.37,786,754,0
1079259,386.28,786,757,0
1079269,385.73,786,753,0
1079279,383.88,786,757,0
1079289,380.92,786,753,0
1079299,377.26,786,757,0
1079309,372.76,786,753,0
1079319,368.08,786,757,0
1079329,363.38,786,754,0
1079340,358.81,786,757,0
1079350,354.67,786,753,0
1079360,350.91,786,756,0
1079370,347.94,786,754,0
1079380,345.34,786,756,0
1079390,343.57,786,754,0
1079400,341.85,786,756,0
1079410,340.70,786,754,0
1079420,340.15,786,756,0
1079430,339.85,786,754,0
1079440,339.89,786,756,0
1079450,340.35,786,754,0
1079460,340.59,786,756,0
1079470,341.01,786,753,0
1079480,341.52,786,756,0
1079490,342.01,786,754,0
1079500,342.82,786,756,0
1079511,343.47,786,754,0
1079521,344.19,786,756,0
1079531,345.20,786,755,0
1079541,346.69,786,756,0
1079552,348.84,786,754,0
1079561,351.59,786,755,0
1079571,356.08,786,755,0
1079581,362.23,786,755,0
1079591,371.63,786,755,0
1079601,384.00,786,756,0
1079611,400.59,786,755,0
1079621,421.32,786,755,0
1079631,446.43,786,755,0
1079641,474.58,786,756,0
1079660,505.14,773,755,0
1079663,535.31,773,755,0
1079672,565.30,773,755,0
1079682,591.70,773,755,0
1079692,613.47,773,755,0
1079702,629.19,773,755,0
1079712,637.96,773,755,0
1079723,639.39,773,755,0
1079732,634.34,773,755,0
1079742,621.73,773,755,0
1079752,603.68,773,755,0
1079762,580.80,773,755,0
1079772,554.85,773,755,0
1079782,526.39,773,755,0
1079792,497.56,773,755,0
1079802,468.59,773,755,0
1079812,441.59,773,755,0
1079822,416.47,773,755,0
1079832,394.68,773,755,0
1079842,375.79,773,755,0
1079852,361.33,773,755,0
1079862,350.26,773,755,0
1079872,343.58,773,755,0
1079882,340.02,773,754,0
1079892,340.27,773,756,0
1079902,342.80,773,755,0
1079912,347.79,773,755,0
1079922,353.81,773,754,0
1079932,361.11,773,755,0
1079942,368.36,773,755,0
1079952,375.88,773,755,0
1079962,382.30,773,755,0
1079972,388.43,773,755,0
1079982,393.27,773,755,0
1079992,397.47,773,755,0
1080002,399.99,773,755,0
1080012,401.75,773,755,0
1080023,401.87,773,755,0
1080033,401.35,773,756,0
1080043,399.15,773,754,0
1080053,396.57,773,756,0
1080064,392.63,773,754,0
1080073,388.80,773,756,0
1080083,384.23,773,754,0
1080093,380.22,773,756,0
1080103,375.78,773,754,0
1080113,372.20,773,756,0
1080123,368.37,773,754,0
1080133,365.60,773,756,0
1080143,362.72,773,755,0
1080153,360.79,773,756,0
1080163,358.71,773,754,0
1080173,357.68,773,756,0
1080183,356.49,773,755,0
1080193,356.13,773,756,0
1080203,355.49,773,755,0
1080213,355.60,773,756,0
1080223,355.29,773,755,0
1080233,355.76,773,756,0
1080243,355.83,773,755,0
1080253,356.74,773,756,0
1080263,357.68,773,755,0
1080273,360.17,773,756,0
1080283,363.55,773,755,0
1080293,369.60,773,756,0
1080303,377.73,773,754,0
1080313,389.51,773,756,0
1080323,404.23,773,755,0
1080333,423.10,773,756,0
1080343,444.80,773,755,0
1080353,469.80,773,756,0
1080364,495.96,773,754,0
1080374,523.02,773,756,0
1080393,548.43,733,755,0
1080396,570.67,733,757,0
1080406,588.25,733,754,0
1080415,601.12,733,756,0
1080425,607.34,733,754,0
1080435,607.58,733,756,0
1080445,600.72,733,754,0
1080455,588.51,733,756,0
1080465,571.64,733,754,0
1080475,551.35,733,756,0
1080485,527.63,733,754,0
1080495,502.97,733,756,0
1080505,477.35,733,754,0
1080515,453.03,733,756,0
1080525,429.71,733,754,0
1080535,409.39,733,756,0
1080545,391.32,733,754,0
1080555,376.99,733,756,0
1080565,365.34,733,754,0
1080576,357.65,733,756,0
1080585,353.21,733,755,0
1080595,352.55,733,756,0
1080605,353.80,733,754,0
1080615,357.84,733,756,0
1080625,363.12,733,754,0
1080635,370.11,733,756,0
1080645,376.94,733,754,0
1080655,383.86,733,756,0
1080665,389.56,733,754,0
1080675,395.17,733,756,0
1080685,399.15,733,754,0
1080695,402.41,733,756,0
1080705,403.91,733,754,0
1080715,405.05,733,756,0
1080725,404.61,733,754,0
1080735,403.87,733,756,0
1080745,401.85,733,754,0
1080755,399.80,733,756,0
1080765,396.64,733,754,0
1080775,393.71,733,756,0
1080785,390.02,733,754,0
1080795,386.93,733,756,0
1080805,383.44,733,754,0
1080815,380.69,733,756,0
1080825,377.66,733,754,0
1080835,375.70,733,756,0
1080845,373.52,733,754,0
1080855,372.25,733,756,0
1080865,370.63,733,754,0
1080876,370.01,733,757,0
1080886,369.07,733,754,0
1080896,368.96,733,756,0
1080906,368.63,733,754,0
1080916,369.47,733,757,0
1080926,370.79,733,754,0
1080936,374.28,733,756,0
1080946,379.38,733,754,0
1080956,387.84,733,756,0
1080966,399.12,733,754,0
1080976,414.68,733,756,0
1080986,433.98,733,754,0
1080996,457.68,733,757,0
1081015,484.09,622,755,0
1081018,512.09,622,757,0
1081027,540.99,622,754,0
1081037,569.67,622,757,0
1081047,595.48,622,754,0
1081057,617.62,622,756,0
1081067,633.64,622,754,0
1081077,643.30,622,757,0
1081088,646.25,622,754,0
1081097,641.81,622,756,0
1081107,630.08,622,754,0
1081117,612.48,622,756,0
1081127,589.37,622,753,0
1081137,563.20,622,756,0
1081147,534.68,622,754,0
1081157,505.76,622,757,0
1081167,477.03,622,754,0
1081177,450.32,622,756,0
1081187,426.01,622,754,0
1081197,405.35,622,756,0
1081207,388.10,622,754,0
1081217,375.22,622,756,0
1081227,366.19,622,754,0
1081237,361.51,622,756,0
1081247,360.24,622,754,0
1081257,362.48,622,757,0
1081267,367.01,622,754,0
1081277,373.74,622,756,0
1081287,381.36,622,754,0
1081297,389.82,622,757,0
1081307,398.02,622,754,0
1081317,405.94,622,756,0
1081327,412.69,622,754,0
1081337,418.48,622,757,0
1081347,422.54,622,754,0
1081357,425.55,622,756,0
1081367,426.88,622,754,0
1081377,427.05,622,757,0
1081388,425.79,622,753,0
1081398,423.62,622,757,0
1081408,420.44,622,753,0
1081418,416.75,622,757,0
1081428,412.37,622,753,0
1081438,407.89,622,757,0
1081448,403.12,622,753,0
1081458,398.46,622,757,0
1081468,393.95,622,753,0
1081478,389.93,622,757,0
1081488,386.27,622,753,0
1081498,383.10,622,757,0
1081508,380.29,622,753,0
1081518,378.14,622,757,0
1081528,376.39,622,753,0
1081538,375.24,622,757,0
1081548,374.65,622,753,0
1081559,375.14,622,757,0
1081569,377.16,622,754,0
1081579,381.52,622,756,0
1081589,388.95,622,754,0
1081600,400.50,622,756,0
1081609,416.50,622,754,0
1081619,437.52,622,756,0
1081629,463.51,622,754,0
1081639,493.66,622,756,0
1081658,526.59,643,755,0
1081661,559.80,643,756,0
1081670,592.60,643,755,0
1081680,622.72,643,755,0
1081690,648.52,643,755,0
1081700,667.99,643,756,0
1081710,680.29,643,754,0
1081720,684.53,643,755,0
1081730,681.76,643,754,0
1081740,670.82,643,755,0
1081750,652.96,643,754,0
1081760,628.63,643,755,0
1081771,599.90,643,755,0
1081780,568.00,643,756,0
1081790,534.96,643,754,0
1081800,501.71,643,755,0
1081810,470.13,643,755,0
1081820,441.07,643,756,0
1081830,415.98,643,755,0
1081840,394.94,643,755,0
1081850,378.72,643,755,0
1081860,367.02,643,756,0
1081870,360.33,643,755,0
1081880,357.61,643,755,0
1081890,359.14,643,755,0
1081900,363.52,643,756,0
1081910,370.43,643,754,0
1081920,378.66,643,755,0
1081930,388.06,643,755,0
1081940,397.09,643,755,0
1081950,405.85,643,754,0
1081960,413.09,643,755,0
1081970,419.28,643,755,0
1081980,423.65,643,755,0
1081990,426.67,643,754,0
1082000,427.76,643,755,0
1082010,427.66,643,755,0
1082020,425.83,643,755,0
1082030,423.14,643,754,0
1082040,419.24,643,755,0
1082050,415.01,643,755,0
1082060,409.91,643,755,0
1082071,404.84,643,755,0
1082081,399.23,643,755,0
1082091,394.45,643,755,0
1082101,389.47,643,755,0
1082112,385.30,643,755,0
1082121,381.14,643,755,0
1082131,377.93,643,755,0
1082141,374.99,643,755,0
1082151,373.24,643,755,0
1082161,371.58,643,755,0
1082171,370.72,643,755,0
1082181,369.69,643,755,0
1082191,369.44,643,755,0
1082201,369.09,643,755,0
1082211,369.37,643,755,0
1082221,369.90,643,755,0
1082231,371.86,643,755,0
1082241,375.50,643,755,0
1082251,382.46,643,755,0
1082261,392.40,643,755,0
1082271,407.11,643,755,0
1082281,426.36,643,755,0
1082291,451.02,643,755,0
1082301,479.95,643,755,0
1082311,513.09,643,755,0
1082321,548.08,643,754,0
1082340,583.93,682,754,0
1082343,616.86,682,754,0
1082352,647.16,682,756,0
1082362,671.58,682,754,0
1082372,689.79,682,755,0
1082382,699.63,682,755,0
1082392,701.50,682,756,0
1082402,694.83,682,754,0
1082412,681.85,682,755,0
1082422,661.20,682,754,0
1082432,635.17,682,755,0
1082442,604.13,682,754,0
1082452,571.01,682,756,0
1082462,536.42,682,754,0
1082472,502.99,682,755,0
1082482,470.60,682,754,0
1082492,441.45,682,756,0
1082502,415.55,682,755,0
1082512,394.43,682,755,0
1082522,376.99,682,754,0
1082532,364.56,682,756,0
1082542,355.65,682,755,0
1082552,351.34,682,755,0
1082562,349.95,682,754,0
1082572,352.20,682,756,0
1082583,356.34,682,754,0
1082593,363.01,682,756,0
1082603,370.16,682,753,0
1082613,378.51,682,756,0
1082624,386.37,682,754,0
1082633,394.40,682,756,0
1082643,401.01,682,753,0
1082653,406.92,682,756,0
1082663,410.72,682,754,0
1082673,413.50,682,756,0
1082683,413.91,682,753,0
1082693,413.25,682,756,0
1082703,410.48,682,754,0
1082713,406.95,682,755,0
1082723,401.78,682,753,0
1082733,396.57,682,756,0
1082743,390.53,682,753,0
1082753,385.36,682,756,0
1082763,379.94,682,753,0
1082773,375.63,682,756,0
1082783,371.28,682,754,0
1082793,368.15,682,756,0
1082803,364.98,682,754,0
1082813,362.89,682,756,0
1082823,360.61,682,754,0
1082833,359.35,682,756,0
1082843,358.00,682,754,0
1082853,357.75,682,756,0
1082863,357.35,682,754,0
1082873,358.06,682,756,0
1082883,358.56,682,754,0
1082893,359.93,682,756,0
1082903,360.90,682,753,0
1082913,362.38,682,756,0
1082924,363.30,682,754,0
1082934,364.92,682,755,0
1082944,366.23,682,754,0
1082954,369.03,682,756,0
1082964,372.84,682,753,0
1082974,379.70,682,756,0
1082984,389.26,682,753,0
1082994,403.75,682,756,0
1083004,422.81,682,753,0
1083014,447.60,682,756,0
1083024,476.56,682,754,0
1083034,509.91,682,756,0
1083044,545.04,682,754,0
1083063,581.20,723,752,0
1083066,614.44,723,754,0
1083075,644.31,723,756,0
1083085,668.09,723,754,0
1083095,685.20,723,755,0
1083105,693.71,723,753,0
1083115,694.06,723,756,0
1083125,685.60,723,753,0
1083136,670.59,723,755,0
1083145,648.64,723,753,0
1083155,621.92,723,756,0
1083165,591.22,723,753,0
1083175,559.09,723,755,0
1083185,526.24,723,753,0
1083195,494.88,723,756,0
1083205,465.13,723,754,0
1083215,438.48,723,755,0
1083225,414.89,723,754,0
1083235,395.42,723,756,0
1083245,379.23,723,753,0
1083255,367.29,723,755,0
1083265,358.59,723,754,0
1083275,353.87,723,756,0
1083285,352.02,723,753,0
1083295,353.13,723,755,0
1083305,356.22,723,754,0
1083315,361.34,723,756,0
1083325,367.02,723,753,0
1083335,373.62,723,756,0
1083345,379.69,723,753,0
1083355,385.95,723,756,0
1083365,391.07,723,753,0
1083375,395.55,723,756,0
1083385,398.43,723,753,0
1083395,400.61,723,756,0
1083405,401.33,723,754,0
1083415,401.23,723,756,0
1083425,399.32,723,753,0
1083436,396.82,723,756,0
1083446,392.89,723,754,0
1083456,388.72,723,756,0
1083466,383.75,723,753,0
1083476,378.77,723,757,0
1083486,373.57,723,753,0
1083496,368.85,723,756,0
1083506,364.31,723,753,0
1083516,360.62,723,757,0
1083526,357.22,723,754,0
1083536,354.71,723,756,0
1083546,352.53,723,753,0
1083556,351.25,723,756,0
1083566,350.28,723,753,0
1083576,350.07,723,756,0
1083586,350.05,723,753,0
1083596,350.72,723,757,0
1083607,351.45,723,752,0
1083617,352.64,723,756,0
1083627,353.69,723,753,0
1083637,355.03,723,756,0
1083648,356.13,723,753,0
1083657,357.46,723,756,0
1083667,358.57,723,753,0
1083677,359.73,723,756,0
1083687,360.71,723,753,0
1083697,361.65,723,756,0
1083707,362.44,723,753,0
1083717,363.25,723,756,0
1083727,363.91,723,753,0
1083737,364.58,723,757,0
1083747,365.13,723,752,0
1083757,365.74,723,756,0
1083767,366.67,723,753,0
1083777,368.44,723,756,0
1083787,371.61,723,752,0
1083797,377.13,723,756,0
1083807,385.57,723,753,0
1083817,398.09,723,756,0
1083827,415.16,723,752,0
1083846,437.44,783,752,0
1083849,464.31,783,755,0
1083858,495.67,783,756,0
1083868,529.93,783,753,0
1083878,565.61,783,756,0
1083888,600.57,783,754,0
1083898,632.84,783,756,0
1083908,660.19,783,753,0
1083918,681.35,783,756,0
1083928,694.44,783,754,0
1083938,698.94,783,756,0
1083948,694.97,783,753,0
1083958,683.15,783,756,0
1083968,664.16,783,753,0
1083978,639.00,783,755,0
1083988,609.60,783,753,0
1083998,577.62,783,756,0
1084008,544.69,783,754,0
1084018,511.91,783,755,0
1084028,480.52,783,753,0
1084038,451.87,783,756,0
1084048,426.88,783,754,0
1084058,405.53,783,756,0
1084068,388.18,783,753,0
1084078,374.84,783,756,0
1084088,365.55,783,753,0
1084098,359.77,783,756,0
1084108,357.22,783,753,0
1084119,357.37,783,755,0
1084129,360.00,783,754,0
1084139,364.24,783,755,0
1084149,369.96,783,754,0
1084160,376.18,783,755,0
1084169,382.94,783,754,0
1084179,389.35,783,755,0
1084189,395.50,783,754,0
1084199,400.49,783,755,0
1084209,404.63,783,754,0
1084219,407.27,783,755,0
1084229,408.73,783,754,0
1084239,408.64,783,755,0
1084249,407.51,783,754,0
1084259,404.91,783,755,0
1084269,401.72,783,755,0
1084279,397.39,783,755,0
1084289,392.60,783,754,0
1084299,387.19,783,755,0
1084309,381.78,783,754,0
1084319,376.19,783,755,0
1084329,371.12,783,755,0
1084339,366.15,783,755,0
1084349,362.16,783,754,0
1084359,358.52,783,755,0
1084369,356.05,783,755,0
1084379,353.98,783,755,0
1084389,352.78,783,754,0
1084399,351.78,783,755,0
1084409,351.50,783,754,0
1084419,351.35,783,755,0
1084429,352.02,783,754,0
1084439,352.78,783,755,0
1084449,354.26,783,755,0
1084460,355.81,783,755,0
1084470,357.97,783,755,0
1084480,359.95,783,755,0
1084490,362.28,783,755,0
1084500,364.12,783,754,0
1084510,366.02,783,755,0
1084520,367.21,783,755,0
1084530,368.43,783,755,0
1084540,368.77,783,754,0
1084550,369.10,783,755,0
1084560,368.60,783,755,0
1084570,368.25,783,755,0
1084580,367.32,783,754,0
1084590,367.01,783,754,0
1084600,366.70,783,755,0
1084610,368.04,783,755,0
1084620,370.81,783,755,0
1084631,376.61,783,755,0
1084641,385.21,783,754,0
1084651,398.39,783,755,0
1084661,415.67,783,754,0
1084681,438.49,834,753,0
1084684,464.74,834,754,0
1084693,495.25,834,756,0
1084703,527.66,834,754,0
1084713,561.36,834,756,0
1084723,593.31,834,754,0
1084733,622.49,834,756,0
1084743,645.83,834,754,0
1084753,663.66,834,756,0
1084763,673.28,834,753,0
1084773,675.47,834,756,0
1084783,669.11,834,754,0
1084793,655.92,834,756,0
1084803,636.02,834,753,0
1084813,611.67,834,756,0
1084823,583.31,834,754,0
1084833,553.39,834,756,0
1084844,522.16,834,753,0
1084854,492.07,834,756,0
1084864,463.25,834,753,0
1084874,437.46,834,756,0
1084884,414.56,834,753,0
1084894,395.92,834,756,0
1084904,380.82,834,753,0
1084914,370.33,834,756,0
1084924,363.42,834,753,0
1084934,360.63,834,756,0
1084944,360.62,834,754,0
1084954,363.69,834,756,0
1084964,368.32,834,753,0
1084974,374.78,834,756,0
1084984,381.41,834,753,0
1084994,388.53,834,756,0
1085004,394.88,834,753,0
1085015,400.92,834,756,0
1085025,405.53,834,753,0
1085035,409.27,834,756,0
1085045,411.29,834,753,0
1085056,412.49,834,756,0
1085065,412.13,834,754,0
1085075,411.06,834,756,0
1085085,408.60,834,753,0
1085095,405.51,834,756,0
1085105,401.54,834,754,0
1085115,397.48,834,756,0
1085125,392.83,834,753,0
1085135,388.47,834,756,0
1085145,383.83,834,754,0
1085155,379.77,834,756,0
1085165,375.72,834,753,0
1085175,372.38,834,756,0
1085185,369.09,834,753,0
1085195,366.71,834,756,0
1085205,364.52,834,754,0
1085215,363.34,834,756,0
1085225,362.47,834,753,0
1085235,362.54,834,756,0
1085245,362.68,834,753,0
1085255,363.55,834,756,0
1085265,364.37,834,753,0
1085275,365.71,834,756,0
1085285,366.61,834,754,0
1085295,367.72,834,756,0
1085305,368.40,834,753,0
1085315,369.35,834,756,0
1085325,369.89,834,753,0
1085335,370.57,834,756,0
1085345,370.78,834,753,0
1085356,371.19,834,757,0
1085366,371.22,834,753,0
1085376,371.37,834,757,0
1085386,371.34,834,753,0
1085396,371.75,834,756,0
1085406,372.56,834,752,0
1085416,374.83,834,757,0
1085426,378.83,834,753,0
1085436,385.65,834,756,0
1085446,395.53,834,753,0
1085456,409.43,834,757,0
1085466,427.55,834,753,0
1085476,450.06,834,757,0
1085495,475.84,815,755,0
1085498,503.49,815,756,0
1085507,532.61,815,754,0
1085517,561.70,815,756,0
1085527,588.71,815,753,0
1085537,612.02,815,756,0
1085547,630.02,815,754,0
1085557,641.93,815,756,0
1085568,647.60,815,754,0
1085577,645.79,815,756,0
1085587,636.86,815,753,0
1085597,621.39,815,756,0
1085607,600.44,815,754,0
1085617,575.54,815,756,0
1085627,547.99,815,754,0
1085637,519.11,815,756,0
1085647,490.28,815,754,0
1085657,462.81,815,756,0
1085667,437.75,815,753,0
1085677,415.67,815,756,0
1085687,397.12,815,754,0
1085697,382.30,815,756,0
1085707,371.63,815,753,0
1085717,364.79,815,756,0
1085727,361.69,815,754,0
1085737,361.78,815,755,0
1085747,364.89,815,754,0
1085757,370.11,815,756,0
1085767,376.85,815,754,0
1085777,384.39,815,755,0
1085787,392.20,815,753,0
1085797,399.56,815,756,0
1085807,406.42,815,754,0
1085817,412.21,815,755,0
1085827,416.52,815,753,0
1085837,419.28,815,756,0
1085847,420.48,815,754,0
1085857,420.08,815,755,0
1085868,418.77,815,754,0
1085878,415.97,815,755,0
1085888,412.46,815,755,0
1085898,408.17,815,755,0
1085908,403.87,815,755,0
1085918,399.28,815,756,0
1085928,395.04,815,755,0
1085938,390.31,815,755,0
1085948,386.36,815,755,0
1085958,382.27,815,756,0
1085968,378.97,815,755,0
1085978,375.94,815,755,0
1085988,373.64,815,755,0
1085998,371.52,815,756,0
1086008,370.21,815,754,0
1086018,369.03,815,755,0
1086028,368.55,815,755,0
1086039,368.30,815,755,0
1086049,368.38,815,755,0
1086059,368.40,815,755,0
1086069,368.96,815,755,0
1086080,369.36,815,755,0
1086089,370.02,815,755,0
1086099,370.44,815,755,0
1086109,371.55,815,755,0
1086119,372.85,815,755,0
1086129,375.63,815,755,0
1086139,379.34,815,755,0
1086149,385.54,815,755,0
1086159,393.82,815,755,0
1086169,405.58,815,755,0
1086179,420.15,815,755,0
1086189,438.74,815,755,0
1086199,460.34,815,755,0
1086209,485.01,815,755,0
1086219,511.15,815,755,0
1086238,538.10,743,754,0
1086241,563.06,743,756,0
1086251,586.44,743,756,0
1086260,605.34,743,755,0
1086270,619.16,743,755,0
1086280,626.53,743,755,0
1086290,627.53,743,756,0
1086300,621.84,743,755,0
1086310,611.17,743,755,0
1086320,594.19,743,755,0
1086330,573.26,743,756,0
1086340,548.80,743,755,0
1086350,522.89,743,755,0
1086360,495.75,743,755,0
1086370,469.64,743,756,0
1086380,444.46,743,755,0
1086390,422.08,743,755,0
1086400,402.30,743,755,0
1086410,386.65,743,756,0
1086420,374.41,743,754,0
1086430,366.79,743,755,0
1086440,362.10,743,755,0
1086450,361.30,743,756,0
1086460,363.01,743,754,0
1086470,367.63,743,755,0
1086480,373.36,743,755,0
1086490,380.84,743,756,0
1086500,388.43,743,754,0
1086510,396.66,743,755,0
1086520,403.79,743,755,0
1086530,410.41,743,756,0
1086540,415.30,743,754,0
1086551,419.37,743,755,0
1086561,421.23,743,754,0
1086571,422.02,743,756,0
1086581,420.77,743,754,0
1086592,419.04,743,756,0
1086601,415.86,743,754,0
1086611,412.64,743,756,0
1086621,408.46,743,754,0
1086631,404.55,743,756,0
1086641,399.89,743,754,0
1086651,395.89,743,756,0
1086661,391.64,743,754,0
1086671,388.23,743,756,0
1086681,384.56,743,754,0
1086691,381.69,743,756,0
1086701,378.87,743,754,0
1086711,377.07,743,756,0
1086721,375.25,743,754,0
1086731,374.36,743,756,0
1086741,373.22,743,754,0
1086751,372.98,743,756,0
1086761,372.52,743,754,0
1086771,373.26,743,756,0
1086781,374.08,743,754,0
1086791,376.59,743,756,0
1086801,380.01,743,754,0
1086811,386.61,743,756,0
1086821,395.51,743,754,0
1086831,408.47,743,756,0
1086841,424.53,743,754,0
1086851,445.24,743,756,0
1086861,469.04,743,754,0
1086871,496.46,743,756,0
1086881,525.12,743,754,0
1086901,554.70,663,753,0
1086904,582.09,663,755,0
1086913,607.39,663,756,0
1086923,627.67,663,754,0
1086934,642.47,663,756,0
1086943,650.09,663,754,0
1086953,650.75,663,756,0
1086963,643.79,663,754,0
1086973,631.00,663,756,0
1086983,611.80,663,754,0
1086993,588.63,663,756,0
1087003,561.83,663,754,0
1087013,533.55,663,756,0
1087023,504.29,663,754,0
1087033,476.43,663,756,0
1087043,450.07,663,754,0
1087053,426.91,663,756,0
1087063,406.36,663,754,0
1087073,390.05,663,756,0
1087083,377.22,663,754,0
1087093,368.93,663,756,0
1087104,363.81,663,754,0
1087113,362.62,663,756,0
1087123,363.59,663,754,0
1087133,367.44,663,756,0
1087143,372.58,663,754,0
1087153,379.31,663,756,0
1087163,386.16,663,754,0
1087173,393.44,663,756,0
1087183,399.86,663,754,0
1087193,406.08,663,756,0
1087203,410.81,663,754,0
1087213,414.81,663,756,0
1087223,417.01,663,754,0
1087233,418.29,663,756,0
1087243,417.82,663,754,0
1087253,416.54,663,756,0
1087263,413.60,663,754,0
1087273,410.16,663,756,0
1087283,405.57,663,753,0
1087293,400.98,663,756,0
1087303,395.72,663,754,0
1087313,390.92,663,756,0
1087323,385.84,663,753,0
1087333,381.77,663,756,0
1087343,377.86,663,754,0
1087353,374.99,663,756,0
1087363,372.33,663,753,0
1087373,370.73,663,756,0
1087383,369.23,663,754,0
1087393,368.56,663,756,0
1087404,367.79,663,753,0
1087414,367.68,663,756,0
1087424,367.43,663,754,0
1087434,367.78,663,756,0
1087444,368.10,663,753,0
1087454,369.40,663,756,0
1087464,371.46,663,754,0
1087474,375.57,663,756,0
1087484,381.83,663,753,0
1087494,391.52,663,756,0
1087504,404.65,663,754,0
1087514,422.46,663,756,0
1087524,444.60,663,753,0
1087534,471.34,663,756,0
1087544,501.19,663,754,0
1087554,533.62,663,756,0
1087574,566.52,672,755,0
1087577,597.82,672,756,0
1087586,626.20,672,754,0
1087596,650.06,672,756,0
1087606,667.74,672,754,0
1087617,678.49,672,756,0
1087627,681.51,672,755,0
1087637,676.86,672,756,0
1087647,665.89,672,754,0
1087657,647.96,672,755,0
1087667,624.70,672,754,0
1087677,597.28,672,756,0
1087687,567.54,672,754,0
1087697,536.39,672,755,0
1087707,505.80,672,754,0
1087717,476.38,672,756,0
1087727,449.73,672,754,0
1087737,425.99,672,755,0
1087747,406.10,672,754,0
1087757,389.83,672,756,0
1087767,377.80,672,755,0
1087777,369.29,672,755,0
1087788,364.70,672,755,0
1087798,363.25,672,755,0
1087808,364.93,672,755,0
1087818,368.68,672,755,0
1087828,374.35,672,755,0
1087838,380.76,672,755,0
1087848,387.90,672,755,0
1087858,394.49,672,755,0
1087868,400.81,672,755,0
1087878,405.84,672,755,0
1087888,410.00,672,755,0
1087898,412.40,672,755,0
1087908,414.00,672,755,0
1087918,413.87,672,755,0
1087928,412.97,672,755,0
1087938,410.58,672,755,0
1087948,407.96,672,755,0
1087959,404.16,672,755,0
1087969,400.42,672,755,0
1087979,395.84,672,755,0
1087989,391.77,672,756,0
1088000,387.08,672,755,0
1088009,382.82,672,755,0
1088019,378.11,672,755,0
1088029,374.18,672,756,0
1088039,370.14,672,754,0
1088049,367.01,672,755,0
1088059,363.75,672,755,0
1088069,361.81,672,756,0
1088079,360.07,672,755,0
1088089,359.36,672,755,0
1088099,358.70,672,755,0
1088109,359.13,672,755,0
1088119,359.31,672,754,0
1088129,360.33,672,755,0
1088139,361.09,672,755,0
1088149,362.82,672,756,0
1088159,364.50,672,755,0
1088169,367.35,672,756,0
1088179,370.55,672,755,0
1088189,376.08,672,755,0
1088199,383.69,672,755,0
1088209,394.97,672,756,0
1088219,409.68,672,755,0
1088229,429.32,672,756,0
1088239,452.96,672,755,0
1088249,481.26,672,756,0
1088259,512.13,672,755,0
1088269,544.92,672,756,0
1088288,577.13,715,754,0
1088291,607.09,715,757,0
1088300,632.99,715,754,0
1088310,653.95,715,756,0
1088320,667.55,715,754,0
1088330,674.20,715,756,0
1088340,672.55,715,753,0
1088350,664.12,715,756,0
1088360,648.82,715,754,0
1088370,627.75,715,756,0
1088380,601.47,715,753,0
1088390,572.96,715,756,0
1088400,542.41,715,754,0
1088410,512.37,715,756,0
1088420,482.90,715,753,0
1088430,456.10,715,756,0
1088440,431.77,715,754,0
1088450,411.48,715,756,0
1088460,394.41,715,754,0
1088471,381.56,715,756,0
1088481,371.96,715,754,0
1088491,366.10,715,756,0
1088501,362.94,715,754,0
1088512,363.00,715,756,0
1088521,364.80,715,754,0
1088531,368.76,715,756,0
1088541,373.42,715,753,0
1088551,379.25,715,756,0
1088561,384.79,715,754,0
1088571,390.72,715,756,0
1088581,395.56,715,754,0
1088591,400.32,715,756,0
1088601,403.44,715,754,0
1088611,405.97,715,756,0
1088621,406.75,715,754,0
1088631,407.04,715,756,0
1088641,405.83,715,754,0
1088651,404.38,715,756,0
1088661,401.74,715,754,0
1088671,398.90,715,756,0
1088681,395.07,715,754,0
1088691,391.37,715,756,0
1088701,386.84,715,754,0
1088711,382.69,715,756,0
1088721,377.98,715,754,0
1088731,373.96,715,756,0
1088741,369.77,715,754,0
1088751,366.67,715,756,0
1088761,363.60,715,754,0
1088771,361.92,715,756,0
1088781,360.14,715,754,0
1088791,359.67,715,756,0
1088801,359.00,715,754,0
1088812,359.30,715,757,0
1088822,359.21,715,754,0
1088832,359.96,715,756,0
1088842,360.10,715,754,0
1088852,361.06,715,756,0
1088862,361.38,715,754,0
1088872,362.08,715,756,0
1088882,362.27,715,754,0
1088892,363.00,715,756,0
1088902,363.43,715,754,0
1088912,364.37,715,756,0
1088922,364.78,715,754,0
1088932,365.61,715,756,0
1088942,366.03,715,754,0
1088952,366.96,715,756,0
1088962,367.40,715,754,0
1088972,368.23,715,756,0
1088983,369.01,715,754,0
1088993,371.15,715,756,0
1089003,374.49,715,754,0
1089013,380.69,715,756,0
1089024,389.65,715,753,0
1089033,403.21,715,756,0
1089043,420.98,715,754,0
1089062,443.91,774,753,0
1089065,470.47,774,755,0
1089074,501.01,774,757,0
1089084,533.50,774,753,0
1089094,566.90,774,757,0
1089104,598.52,774,754,0
1089114,627.12,774,757,0
1089124,650.23,774,753,0
1089134,667.17,774,757,0
1089144,676.21,774,754,0
1089154,677.43,774,756,0
1089164,670.62,774,753,0
1089174,656.76,774,757,0
1089184,636.17,774,753,0
1089195,610.62,774,756,0
1089204,581.68,774,753,0
1089214,551.05,774,757,0
1089224,519.79,774,753,0
1089234,489.55,774,756,0
1089244,461.10,774,753,0
1089254,435.91,774,757,0
1089264,414.25,774,753,0
1089274,396.78,774,756,0
1089284,382.92,774,753,0
1089294,373.00,774,757,0
1089304,366.48,774,753,0
1089314,363.42,774,756,0
1089324,363.00,774,753,0
1089334,365.31,774,757,0
1089344,369.20,774,753,0
1089354,374.80,774,756,0
1089364,381.29,774,753,0
1089374,388.23,774,757,0
1089384,394.93,774,753,0
1089394,401.25,774,757,0
1089404,406.41,774,753,0
1089414,410.53,774,757,0
1089424,413.07,774,753,0
1089434,414.25,774,756,0
1089444,414.00,774,753,0
1089454,412.80,774,757,0
1089464,410.46,774,753,0
1089474,407.41,774,757,0
1089484,403.73,774,753,0
1089495,399.74,774,756,0
1089505,395.45,774,754,0
1089515,391.07,774,756,0
1089525,386.59,774,754,0
1089536,382.26,774,756,0
1089545,378.28,774,753,0
1089555,374.60,774,756,0
1089565,371.50,774,754,0
1089575,368.87,774,756,0
1089585,366.81,774,754,0
1089595,365.15,774,756,0
1089605,364.03,774,754,0
1089615,363.08,774,756,0
1089625,362.41,774,753,0
1089635,361.95,774,756,0
1089645,361.75,774,754,0
1089655,361.70,774,756,0
1089665,361.92,774,753,0
1089675,362.41,774,756,0
1089685,363.23,774,754,0
1089695,364.19,774,756,0
1089705,365.25,774,754,0
1089715,366.42,774,757,0
1089725,367.62,774,754,0
1089735,368.63,774,756,0
1089745,369.52,774,754,0
1089755,370.13,774,757,0
1089765,370.52,774,753,0
1089775,370.71,774,756,0
1089785,370.92,774,754,0
1089795,371.25,774,757,0
1089805,372.24,774,754,0
1089815,374.23,774,756,0
1089825,378.10,774,754,0
1089836,384.46,774,756,0
1089846,394.13,774,755,0
1089856,407.47,774,755,0
1089866,425.37,774,755,0
1089886,447.54,823,754,0
1089889,473.57,823,757,0
1089898,502.28,823,755,0
1089908,533.01,823,756,0
1089918,563.31,823,755,0
1089928,592.14,823,755,0
1089938,616.83,823,755,0
1089948,636.51,823,756,0
1089958,649.47,823,755,0
1089968,655.76,823,755,0
1089978,654.07,823,755,0
1089988,645.78,823,756,0
1089998,630.37,823,754,0
1090008,610.03,823,755,0
1090018,585.08,823,755,0
1090028,558.06,823,756,0
1090038,528.98,823,755,0
1090049,500.36,823,755,0
1090059,472.44,823,755,0
1090069,447.32,823,756,0
1090079,424.60,823,754,0
1090089,405.90,823,756,0
1090099,390.20,823,754,0
1090109,379.00,823,756,0
1090119,370.94,823,754,0
1090129,366.89,823,756,0
1090139,365.38,823,755,0
1090149,367.07,823,756,0
1090159,370.26,823,754,0
1090169,375.67,823,756,0
1090179,381.51,823,754,0
1090189,388.47,823,756,0
1090199,394.84,823,754,0
1090209,401.28,823,756,0
1090220,406.34,823,754,0
1090230,410.86,823,756,0
1090240,413.56,823,754,0
1090250,415.45,823,756,0
1090260,415.83,823,754,0
1090270,415.45,823,756,0
1090280,413.35,823,754,0
1090290,410.97,823,756,0
1090300,407.21,823,754,0
1090310,403.76,823,757,0
1090320,399.37,823,754,0
1090330,395.11,823,756,0
1090340,390.23,823,754,0
1090350,386.26,823,757,0
1090360,381.94,823,754,0
1090370,378.66,823,756,0
1090380,375.07,823,754,0
1090391,372.57,823,756,0
1090401,369.91,823,754,0
1090411,368.44,823,756,0
1090421,366.89,823,754,0
1090432,366.24,823,756,0
1090441,365.48,823,754,0
1090451,365.51,823,756,0
1090461,365.40,823,754,0
1090471,365.96,823,756,0
1090481,366.32,823,754,0
1090491,367.38,823,756,0
1090501,368.12,823,754,0
1090511,369.29,823,756,0
1090521,370.14,823,754,0
1090531,371.47,823,756,0
1090541,372.23,823,754,0
1090551,373.45,823,756,0
1090561,373.87,823,754,0
1090571,374.72,823,756,0
1090581,374.98,823,754,0
1090591,375.37,823,756,0
1090601,375.09,823,754,0
1090611,375.53,823,756,0
1090621,375.76,823,754,0
1090631,377.42,823,756,0
1090641,380.08,823,754,0
1090651,385.45,823,756,0
1090661,393.25,823,754,0
1090671,405.09,823,756,0
1090681,420.28,823,754,0
1090700,440.04,815,753,0
1090703,462.65,815,755,0
1090712,488.51,815,756,0
1090722,515.66,815,754,0
1090732,543.70,815,757,0
1090742,569.81,815,754,0
1090752,593.44,815,757,0
1090762,611.86,815,754,0
1090772,625.32,815,756,0
1090782,631.82,815,754,0
1090792,631.96,815,756,0
1090802,624.64,815,754,0
1090812,611.47,815,756,0
1090822,592.60,815,754,0
1090832,570.13,815,756,0
1090842,544.55,815,754,0
1090852,517.73,815,756,0
1090862,490.25,815,753,0
1090872,464.25,815,757,0
1090882,440.05,815,754,0
1090892,418.82,815,756,0
1090903,400.61,815,754,0
1090913,386.12,815,757,0
1090923,375.28,815,753,0
1090933,368.25,815,757,0
1090944,364.84,815,753,0
1090953,364.63,815,757,0
1090963,366.80,815,753,0
1090973,371.27,815,757,0
1090983,377.06,815,753,0
1090993,384.07,815,757,0
1091003,391.12,815,753,0
1091013,397.69,815,757,0
1091023,403.52,815,753,0
1091033,408.68,815,757,0
1091043,412.63,815,753,0
1091053,415.44,815,757,0
1091063,416.55,815,753,0
1091073,416.77,815,757,0
1091083,416.07,815,753,0
1091093,414.33,815,757,0
1091103,411.41,815,753,0
1091113,407.56,815,757,0
1091123,403.36,815,753,0
1091133,399.05,815,757,0
1091143,394.41,815,753,0
1091153,389.70,815,757,0
1091163,385.25,815,753,0
1091173,381.44,815,757,0
1091183,378.01,815,753,0
1091193,375.22,815,757,0
1091203,372.67,815,753,0
1091213,370.84,815,757,0
1091223,369.52,815,753,0
1091233,368.68,815,757,0
1091244,368.22,815,754,0
1091254,368.11,815,757,0
1091264,367.99,815,753,0
1091274,368.16,815,756,0
1091284,368.76,815,754,0
1091294,369.39,815,757,0
1091304,370.26,815,753,0
1091314,370.95,815,756,0
1091324,372.04,815,754,0
1091334,373.05,815,757,0
1091344,374.24,815,753,0
1091354,375.37,815,756,0
1091364,377.23,815,754,0
1091374,380.20,815,757,0
1091384,384.77,815,754,0
1091394,391.40,815,756,0
1091404,400.83,815,754,0
1091415,413.57,815,756,0
1091425,429.86,815,754,0
1091435,449.36,815,756,0
1091445,471.66,815,755,0
1091456,496.06,815,755,0
1091474,521.25,774,755,0
1091477,545.13,774,756,0
1091486,567.38,774,755,0
1091496,586.08,774,755,0
1091506,600.28,774,755,0
1091516,608.90,774,755,0
1091526,611.84,774,755,0
1091536,608.29,774,755,0
1091546,599.89,774,755,0
1091556,585.56,774,755,0
1091566,567.40,774,755,0
1091576,545.55,774,755,0
1091586,522.03,774,755,0
1091596,497.16,774,755,0
1091606,473.24,774,755,0
1091616,450.15,774,755,0
1091627,429.92,774,755,0
1091636,411.90,774,755,0
1091646,397.40,774,755,0
1091656,385.80,774,755,0
1091666,377.93,774,755,0
1091676,372.98,774,755,0
1091686,371.44,774,755,0
1091696,372.04,774,755,0
1091706,375.11,774,755,0
1091716,379.54,774,755,0
1091726,385.46,774,755,0
1091736,391.58,774,755,0
1091746,398.18,774,755,0
1091756,404.04,774,755,0
1091766,409.68,774,755,0
1091776,413.85,774,755,0
1091786,417.37,774,755,0
1091796,418.97,774,755,0
1091806,419.97,774,755,0
1091816,419.38,774,755,0
1091826,418.11,774,755,0
1091836,415.29,774,755,0
1091846,412.24,774,755,0
1091856,408.14,774,755,0
1091866,404.24,774,755,0
1091876,399.54,774,755,0
1091886,395.09,774,755,0
1091896,390.48,774,755,0
1091906,386.61,774,755,0
1091916,382.74,774,755,0
1091927,379.86,774,755,0
1091937,377.07,774,755,0
1091947,375.25,774,756,0
1091957,373.38,774,754,0
1091968,372.36,774,756,0
1091977,371.27,774,755,0
1091987,371.06,774,755,0
1091997,370.61,774,754,0
1092007,370.99,774,756,0
1092017,371.25,774,755,0
1092027,372.63,774,756,0
1092037,374.37,774,754,0
1092047,377.94,774,756,0
1092057,382.72,774,755,0
1092067,390.39,774,756,0
1092077,400.43,774,754,0
1092087,414.53,774,756,0
1092097,431.81,774,755,0
1092107,453.30,774,756,0
1092117,477.47,774,755,0
1092127,504.54,774,756,0
1092137,532.24,774,755,0
1092156,560.15,682,754,0
1092159,584.75,682,755,0
1092168,606.47,682,756,0
1092178,622.78,682,754,0
1092188,633.82,682,756,0
1092198,637.77,682,754,0
1092208,635.61,682,756,0
1092218,626.43,682,754,0
1092228,612.89,682,756,0
1092238,593.93,682,754,0
1092248,571.97,682,756,0
1092258,546.86,682,754,0
1092268,521.28,682,756,0
1092278,495.14,682,754,0
1092288,470.62,682,756,0
1092298,447.34,682,754,0
1092308,427.18,682,756,0
1092318,409.34,682,754,0
1092328,395.52,682,756,0
1092338,384.44,682,754,0
1092348,377.28,682,756,0
1092358,372.87,682,755,0
1092368,372.01,682,756,0
1092378,373.08,682,754,0
1092388,376.78,682,756,0
1092398,381.22,682,755,0
1092408,387.24,682,756,0
1092418,393.12,682,754,0
1092428,399.52,682,756,0
1092439,404.85,682,754,0
1092449,410.04,682,756,0
1092459,413.62,682,754,0
1092469,416.69,682,756,0
1092480,417.86,682,754,0
1092489,418.46,682,756,0
1092499,417.42,682,754,0
1092509,416.01,682,756,0
1092519,413.09,682,754,0
1092529,410.11,682,756,0
1092539,406.13,682,754,0
1092549,402.49,682,756,0
1092559,398.14,682,754,0
1092569,394.33,682,756,0
1092579,390.07,682,754,0
1092589,386.71,682,756,0
1092599,383.11,682,754,0
1092609,380.46,682,756,0
1092619,377.80,682,754,0
1092629,376.27,682,756,0
1092639,374.73,682,754,0
1092649,374.34,682,756,0
1092659,373.77,682,754,0
1092669,374.14,682,756,0
1092679,374.22,682,754,0
1092689,375.01,682,756,0
1092699,375.40,682,754,0
1092709,376.43,682,756,0
1092719,377.16,682,754,0
1092729,379.04,682,756,0
1092739,381.64,682,754,0
1092749,386.94,682,756,0
1092759,394.33,682,754,0
1092769,405.76,682,756,0
1092780,420.96,682,754,0
1092790,441.59,682,757,0
1092800,466.48,682,754,0
1092810,495.95,682,756,0
1092820,527.68,682,754,0
1092839,561.50,683,753,0
1092842,593.97,683,755,0
1092851,624.75,683,756,0
1092861,650.84,683,754,0
1092871,671.80,683,757,0
1092881,685.53,683,754,0
1092891,692.23,683,756,0
1092901,690.79,683,754,0
1092911,683.05,683,757,0
1092921,668.08,683,754,0
1092931,647.48,683,756,0
1092941,621.75,683,754,0
1092951,593.41,683,757,0
1092961,563.12,683,754,0
1092971,532.91,683,756,0
1092981,503.15,683,754,0
1092992,475.68,683,756,0
1093001,450.92,683,754,0
1093011,430.16,683,756,0
1093021,412.62,683,754,0
1093031,399.19,683,756,0
1093041,389.19,683,754,0
1093051,383.09,683,756,0
1093061,379.98,683,754,0
1093071,379.90,683,756,0
1093081,381.60,683,754,0
1093091,385.41,683,756,0
1093101,390.13,683,754,0
1093111,395.92,683,756,0
1093121,401.51,683,754,0
1093131,407.32,683,756,0
1093141,412.28,683,754,0
1093151,416.78,683,756,0
1093161,419.89,683,754,0
1093171,422.19,683,756,0
1093181,422.82,683,754,0
1093191,422.53,683,756,0
1093201,420.66,683,754,0
1093211,418.15,683,757,0
1093221,414.50,683,754,0
1093231,411.01,683,756,0
1093241,406.68,683,754,0
1093251,402.79,683,757,0
1093261,398.74,683,754,0
1093271,395.30,683,757,0
1093281,391.61,683,754,0
1093292,388.64,683,757,0
1093302,385.24,683,753,0
1093312,382.46,683,757,0
1093322,379.58,683,754,0
1093332,377.09,683,757,0
1093342,374.49,683,753,0
1093352,372.55,683,757,0
1093362,370.71,683,754,0
1093372,369.47,683,757,0
1093382,368.60,683,753,0
1093392,368.33,683,757,0
1093402,368.45,683,753,0
1093412,369.09,683,757,0
1093422,370.09,683,753,0
1093432,371.35,683,757,0
1093442,372.61,683,753,0
1093452,374.06,683,757,0
1093463,375.24,683,753,0
1093473,376.50,683,757,0
1093483,377.85,683,754,0
1093493,379.65,683,756,0
1093504,382.37,683,754,0
1093513,386.80,683,757,0
1093523,393.42,683,754,0
1093533,403.41,683,756,0
1093543,417.56,683,754,0
1093553,436.50,683,757,0
1093563,460.48,683,754,0
1093573,489.18,683,757,0
1093593,521.83,753,754,0
1093596,556.46,753,756,0
1093605,591.55,753,756,0
1093615,624.86,753,756,0
1093625,654.90,753,755,0
1093635,679.92,753,756,0
1093645,698.76,753,755,0
1093655,709.80,753,755,0
1093665,713.63,753,755,0
1093676,709.41,753,755,0
1093686,698.28,753,756,0
1093696,679.94,753,755,0
1093706,655.87,753,755,0
1093716,626.72,753,755,0
1093726,595.43,753,756,0
1093736,562.48,753,755,0
1093746,530.49,753,755,0
1093756,499.49,753,755,0
1093766,471.87,753,756,0
1093776,447.18,753,755,0
1093786,426.85,753,755,0
1093796,409.88,753,755,0
1093806,397.28,753,756,0
1093816,387.85,753,755,0
1093826,382.41,753,755,0
1093836,379.50,753,755,0
1093847,379.82,753,756,0
1093857,382.32,753,755,0
1093867,387.02,753,756,0
1093877,392.42,753,754,0
1093888,398.93,753,757,0
1093897,405.17,753,755,0
1093907,411.46,753,756,0
1093917,416.47,753,754,0
1093927,420.70,753,757,0
1093937,422.97,753,755,0
1093947,424.27,753,756,0
1093957,423.46,753,754,0
1093967,421.78,753,757,0
1093977,418.33,753,755,0
1093987,414.50,753,756,0
1093997,409.12,753,754,0
1094007,403.90,753,757,0
1094017,398.02,753,755,0
1094027,392.91,753,756,0
1094037,387.54,753,754,0
1094047,383.22,753,757,0
1094057,378.87,753,754,0
1094067,375.82,753,756,0
1094077,372.79,753,754,0
1094087,370.97,753,756,0
1094097,368.92,753,754,0
1094107,367.96,753,756,0
1094117,366.73,753,754,0
1094127,366.38,753,756,0
1094137,365.80,753,754,0
1094147,366.59,753,756,0
1094157,367.10,753,754,0
1094167,368.87,753,757,0
1094177,370.28,753,754,0
1094188,372.34,753,756,0
1094198,373.69,753,754,0
1094208,375.46,753,756,0
1094218,375.92,753,754,0
1094228,376.76,753,756,0
1094238,376.53,753,754,0
1094248,376.59,753,757,0
1094258,376.07,753,754,0
1094268,376.18,753,756,0
1094278,375.69,753,754,0
1094288,375.83,753,756,0
1094298,375.37,753,754,0
1094308,375.43,753,756,0
1094318,375.04,753,754,0
1094328,375.20,753,756,0
1094338,374.88,753,754,0
1094348,375.43,753,756,0
1094359,375.99,753,754,0
1094369,378.13,753,756,0
1094379,381.48,753,754,0
1094389,387.94,753,756,0
1094400,397.43,753,754,0
1094418,412.08,826,753,0
1094421,431.17,826,755,0
1094430,456.58,826,757,0
1094440,486.83,826,754,0
1094450,521.81,826,757,0
1094460,558.64,826,754,0
1094470,595.52,826,756,0
1094480,629.78,826,754,0
1094490,660.70,826,757,0
1094500,686.21,826,754,0
1094510,705.56,826,757,0
1094520,716.88,826,754,0
1094530,720.81,826,757,0
1094540,717.23,826,754,0
1094550,706.70,826,756,0
1094560,688.92,826,754,0
1094571,664.47,826,756,0
1094580,634.46,826,754,0
1094590,601.54,826,756,0
1094600,566.49,826,754,0
1094610,531.80,826,756,0
1094620,498.30,826,754,0
1094630,468.13,826,756,0
1094640,441.30,826,754,0
1094650,419.01,826,756,0
1094660,400.71,826,754,0
1094670,387.34,826,757,0
1094680,378.02,826,754,0
1094690,373.09,826,756,0
1094700,371.22,826,754,0
1094710,372.78,826,757,0
1094720,376.36,826,754,0
1094730,382.04,826,756,0
1094740,388.37,826,754,0
1094750,395.46,826,757,0
1094760,402.05,826,754,0
1094770,408.38,826,756,0
1094780,413.45,826,754,0
1094790,417.82,826,757,0
1094800,420.48,826,754,0
1094810,422.14,826,756,0
1094820,422.05,826,754,0
1094830,421.05,826,756,0
1094840,418.59,826,754,0
1094850,415.50,826,756,0
1094860,411.15,826,754,0
1094871,406.52,826,757,0
1094881,401.18,826,753,0
1094891,396.28,826,757,0
1094901,391.23,826,754,0
1094912,386.70,826,757,0
1094921,382.12,826,753,0
1094931,378.18,826,757,0
1094941,374.79,826,753,0
1094951,372.02,826,757,0
1094961,369.36,826,753,0
1094971,367.32,826,757,0
1094981,365.90,826,753,0
1094991,365.58,826,757,0
1095001,365.97,826,754,0
1095011,366.92,826,757,0
1095021,368.19,826,753,0
1095031,369.84,826,757,0
1095041,371.39,826,754,0
1095051,373.16,826,757,0
1095061,374.27,826,754,0
1095071,374.96,826,757,0
1095081,374.97,826,754,0
1095091,375.19,826,757,0
1095101,374.96,826,753,0
1095111,374.68,826,757,0
1095121,374.04,826,754,0
1095131,373.52,826,757,0
1095141,372.98,826,753,0
1095151,372.55,826,757,0
1095161,371.83,826,754,0
1095171,371.32,826,757,0
1095181,370.76,826,753,0
1095191,370.40,826,757,0
1095201,370.62,826,754,0
1095212,372.15,826,757,0
1095222,375.79,826,754,0
1095232,382.24,826,757,0
1095242,392.37,826,754,0
1095252,407.39,826,756,0
1095271,427.16,853,756,0
1095274,451.75,853,756,0
1095283,481.35,853,755,0
1095293,514.12,853,755,0
1095303,548.54,853,755,0
1095313,582.62,853,756,0
1095323,614.32,853,755,0
1095333,641.61,853,755,0
1095343,663.20,853,754,0
1095353,676.64,853,756,0
1095363,682.10,853,755,0
1095373,679.12,853,755,0
1095383,668.58,853,754,0
1095393,650.79,853,756,0
1095403,627.33,853,755,0
1095413,599.11,853,755,0
1095424,568.35,853,755,0
1095433,536.19,853,756,0
1095443,504.46,853,755,0
1095453,474.11,853,755,0
1095463,446.35,853,755,0
1095473,421.94,853,756,0
1095483,401.65,853,755,0
1095493,385.12,853,755,0
1095503,372.87,853,755,0
1095513,364.55,853,756,0
1095523,359.97,853,755,0
1095533,358.70,853,756,0
1095543,360.54,853,755,0
1095553,364.80,853,756,0
1095563,371.11,853,755,0
1095573,378.32,853,755,0
1095583,386.33,853,755,0
1095593,393.99,853,755,0
1095603,401.40,853,755,0
1095613,407.58,853,756,0
1095623,412.85,853,755,0
1095633,416.20,853,755,0
1095643,418.24,853,755,0
1095653,418.42,853,756,0
1095663,417.44,853,755,0
1095673,414.91,853,755,0
1095683,411.51,853,755,0
1095693,406.85,853,756,0
1095703,402.23,853,755,0
1095713,397.14,853,756,0
1095724,392.30,853,755,0
1095734,387.54,853,756,0
1095744,383.39,853,755,0
1095754,379.37,853,756,0
1095764,375.96,853,756,0
1095774,372.54,853,756,0
1095784,369.85,853,755,0
1095794,367.11,853,755,0
1095804,365.11,853,756,0
1095814,363.10,853,756,0
1095824,361.92,853,755,0
1095834,360.87,853,755,0
1095844,360.78,853,755,0
1095854,360.76,853,756,0
1095864,361.56,853,755,0
1095874,362.16,853,755,0
1095884,363.36,853,755,0
1095895,364.24,853,755,0
1095905,365.62,853,755,0
1095915,366.46,853,755,0
1095925,367.74,853,756,0
1095936,368.50,853,755,0
1095945,369.60,853,755,0
1095955,370.23,853,755,0
1095965,371.40,853,756,0
1095975,372.35,853,755,0
1095985,374.52,853,756,0
1095995,377.45,853,755,0
1096005,383.06,853,756,0
1096015,390.93,853,755,0
1096025,402.61,853,755,0
1096035,417.64,853,755,0
1096045,437.33,853,756,0
1096055,460.38,853,755,0
1096074,487.05,803,753,0
1096077,514.25,803,756,0
1096086,542.72,803,757,0
1096096,569.46,803,754,0
1096107,593.84,803,756,0
1096116,613.08,803,755,0
1096126,627.03,803,757,0
1096136,633.71,803,754,0
1096146,634.52,803,756,0
1096156,627.64,803,755,0
1096166,614.85,803,756,0
1096176,595.74,803,754,0
1096186,572.67,803,756,0
1096196,546.11,803,755,0
1096206,518.48,803,756,0
1096216,489.96,803,754,0
1096226,462.67,803,756,0
1096236,436.67,803,755,0
1096246,414.10,803,756,0
1096256,394.27,803,754,0
1096266,378.59,803,756,0
1096276,366.11,803,754,0
1096286,358.11,803,756,0
1096296,353.23,803,754,0
1096306,352.35,803,756,0
1096316,353.83,803,754,0
1096326,358.38,803,756,0
1096336,364.09,803,754,0
1096346,371.48,803,756,0
1096356,378.75,803,754,0
1096366,386.54,803,756,0
1096376,393.19,803,754,0
1096386,399.43,803,756,0
1096396,403.89,803,754,0
1096407,407.57,803,757,0
1096417,409.32,803,754,0
1096427,410.30,803,756,0
1096437,409.44,803,754,0
1096448,407.89,803,757,0
1096457,404.84,803,754,0
1096467,401.50,803,756,0
1096477,396.94,803,754,0
1096487,392.58,803,757,0
1096497,387.44,803,754,0
1096507,382.85,803,756,0
1096517,377.88,803,754,0
1096527,373.67,803,756,0
1096537,369.31,803,754,0
1096547,366.05,803,756,0
1096557,362.82,803,754,0
1096567,360.86,803,756,0
1096577,358.93,803,754,0
1096587,358.31,803,756,0
1096597,357.83,803,754,0
1096607,358.40,803,756,0
1096617,358.79,803,754,0
1096627,359.93,803,756,0
1096637,360.50,803,754,0
1096647,361.68,803,756,0
1096657,362.21,803,754,0
1096667,363.17,803,756,0
1096677,363.55,803,754,0
1096687,364.80,803,756,0
1096697,366.14,803,754,0
1096707,369.23,803,757,0
1096717,373.45,803,754,0
1096727,380.56,803,757,0
1096737,389.99,803,754,0
1096748,403.58,803,757,0
1096758,420.46,803,754,0
1096768,441.71,803,757,0
1096778,465.84,803,754,0
1096788,492.93,803,757,0
1096798,520.59,803,754,0
1096817,548.44,743,753,0
1096820,573.30,743,754,0
1096829,594.89,743,757,0
1096839,611.17,743,754,0
1096849,621.87,743,756,0
1096859,625.81,743,754,0
1096869,623.60,743,757,0
1096879,615.06,743,754,0
1096889,601.76,743,756,0
1096899,583.27,743,754,0
1096909,561.33,743,756,0
1096919,536.63,743,754,0
1096929,510.94,743,757,0
1096939,484.77,743,754,0
1096949,459.51,743,756,0
1096960,435.75,743,753,0
1096969,415.04,743,756,0
1096979,397.11,743,754,0
1096989,382.76,743,757,0
1096999,371.61,743,753,0
1097009,364.31,743,757,0
1097019,360.06,743,754,0
1097029,359.10,743,757,0
1097039,360.44,743,754,0
1097049,364.21,743,756,0
1097059,369.25,743,754,0
1097069,375.60,743,757,0
1097079,382.11,743,754,0
1097089,388.93,743,757,0
1097099,395.04,743,754,0
1097109,400.60,743,757,0
1097119,404.79,743,754,0
1097129,408.07,743,757,0
1097139,409.68,743,754,0
1097149,410.37,743,757,0
1097159,409.53,743,754,0
1097169,407.92,743,757,0
1097179,405.07,743,754,0
1097189,401.75,743,756,0
1097199,397.62,743,754,0
1097209,393.41,743,757,0
1097219,388.79,743,754,0
1097229,384.61,743,757,0
1097239,380.48,743,754,0
1097249,377.08,743,757,0
1097260,373.97,743,753,0
1097270,371.62,743,757,0
1097280,369.68,743,753,0
1097290,368.36,743,757,0
1097300,367.27,743,754,0
1097310,366.67,743,758,0
1097320,366.04,743,753,0
1097330,365.73,743,757,0
1097340,365.47,743,754,0
1097350,365.76,743,757,0
1097360,366.30,743,754,0
1097370,367.37,743,757,0
1097380,368.46,743,754,0
1097390,369.95,743,757,0
1097400,371.94,743,754,0
1097410,374.87,743,757,0
1097420,379.19,743,754,0
1097431,385.65,743,757,0
1097441,394.93,743,754,0
1097451,408.06,743,757,0
1097461,425.66,743,755,0
1097472,447.83,743,756,0
1097481,474.33,743,754,0
1097491,504.10,743,757,0
1097510,536.34,693,755,0
1097513,567.87,693,756,0
1097522,598.59,693,755,0
1097532,625.89,693,756,0
1097542,648.29,693,755,0
1097552,664.19,693,756,0
1097562,673.26,693,755,0
1097572,674.38,693,756,0
1097582,669.17,693,755,0
1097592,656.22,693,756,0
1097602,637.51,693,755,0
1097612,613.74,693,755,0
1097622,586.86,693,755,0
1097632,557.50,693,756,0
1097643,527.78,693,755,0
1097652,498.53,693,755,0
1097662,471.42,693,755,0
1097672,446.52,693,756,0
1097682,425.15,693,755,0
1097692,407.06,693,756,0
1097702,392.99,693,755,0
1097712,382.32,693,756,0
1097722,375.71,693,756,0
1097732,372.15,693,756,0
1097742,371.89,693,755,0
1097752,373.90,693,756,0
1097762,378.26,693,755,0
1097772,384.27,693,756,0
1097782,391.26,693,755,0
1097792,398.04,693,756,0
1097802,404.75,693,755,0
1097812,410.49,693,755,0
1097822,415.35,693,755,0
1097832,418.55,693,756,0
1097842,420.14,693,755,0
1097852,420.14,693,755,0
1097862,419.11,693,755,0
1097872,416.72,693,756,0
1097882,413.81,693,755,0
1097892,409.84,693,755,0
1097902,405.73,693,755,0
1097912,400.92,693,756,0
1097922,396.32,693,755,0
1097932,391.51,693,756,0
1097943,387.24,693,755,0
1097953,382.84,693,756,0
1097963,379.29,693,756,0
1097973,376.07,693,755,0
1097984,373.78,693,756,0
1097993,371.66,693,756,0
1098003,370.30,693,756,0
1098013,369.10,693,755,0
1098023,368.73,693,756,0
1098033,368.42,693,756,0
1098043,368.81,693,756,0
1098053,369.21,693,756,0
1098063,370.35,693,756,0
1098073,371.36,693,756,0
1098083,372.79,693,756,0
1098093,373.67,693,755,0
1098103,375.05,693,756,0
1098113,376.11,693,756,0
1098123,378.35,693,756,0
1098133,381.33,693,756,0
1098143,386.93,693,756,0
1098153,395.05,693,755,0
1098163,407.51,693,756,0
1098173,424.16,693,756,0
1098183,446.27,693,756,0
1098193,472.80,693,755,0
1098203,504.06,693,756,0
1098213,537.77,693,756,0
1098232,573.15,722,754,0
1098235,607.31,722,755,0
1098244,639.10,722,757,0
1098254,666.54,722,755,0
1098264,688.58,722,756,0
1098274,703.28,722,755,0
1098284,710.91,722,756,0
1098294,710.21,722,755,0
1098304,702.73,722,756,0
1098314,687.73,722,755,0
1098324,666.72,722,757,0
1098334,640.02,722,755,0
1098344,610.31,722,756,0
1098354,577.73,722,755,0
1098364,545.37,722,757,0
1098374,513.42,722,755,0
1098384,484.11,722,756,0
1098394,456.99,722,755,0
1098404,434.02,722,756,0
1098414,414.30,722,755,0
1098424,399.34,722,756,0
1098434,387.75,722,755,0
1098444,380.37,722,756,0
1098455,376.14,722,755,0
1098465,375.59,722,756,0
1098475,377.30,722,754,0
1098485,381.49,722,757,0
1098496,386.49,722,755,0
1098505,392.81,722,756,0
1098515,398.87,722,754,0
1098525,405.25,722,757,0
1098535,410.45,722,755,0
1098545,415.16,722,756,0
1098555,418.11,722,754,0
1098565,420.65,722,757,0
1098575,421.31,722,755,0
1098585,421.43,722,756,0
1098595,419.80,722,754,0
1098605,417.72,722,757,0
1098615,414.12,722,754,0
1098625,410.35,722,756,0
1098635,405.40,722,754,0
1098645,400.78,722,757,0
1098655,395.45,722,755,0
1098665,390.60,722,756,0
1098675,385.49,722,754,0
1098685,381.44,722,757,0
1098695,377.41,722,754,0
1098705,374.50,722,756,0
1098715,371.65,722,754,0
1098725,370.00,722,757,0
1098735,368.33,722,754,0
1098745,367.72,722,756,0
1098755,366.94,722,754,0
1098765,367.30,722,757,0
1098775,367.47,722,754,0
1098785,368.44,722,756,0
1098796,369.30,722,754,0
1098806,370.92,722,757,0
1098816,372.06,722,754,0
1098826,373.67,722,756,0
1098836,374.58,722,754,0
1098846,375.82,722,757,0
1098856,376.43,722,755,0
1098866,377.16,722,756,0
1098876,377.28,722,754,0
1098886,378.27,722,757,0
1098896,379.47,722,754,0
1098906,382.59,722,756,0
1098916,387.51,722,754,0
1098926,396.06,722,757,0
1098936,408.13,722,755,0
1098946,425.96,722,757,0
1098956,448.73,722,754,0
1098967,477.48,722,757,0
1098986,510.51,754,756,0
1098989,546.74,754,758,0
1098998,583.38,754,754,0
1099009,618.83,754,758,0
1099019,650.60,754,754,0
1099029,678.06,754,757,0
1099039,699.39,754,754,0
1099049,713.63,754,757,0
1099059,720.17,754,754,0
1099069,719.43,754,757,0
1099079,711.33,754,754,0
1099089,696.36,754,757,0
1099099,674.52,754,754,0
1099109,646.68,754,757,0
1099119,614.59,754,754,0
1099129,580.17,754,757,0
1099139,545.06,754,754,0
1099149,511.10,754,758,0
1099159,479.10,754,753,0
1099169,450.66,754,757,0
1099180,426.29,754,754,0
1099190,406.36,754,757,0
1099200,390.95,754,754,0
1099210,379.87,754,757,0
1099220,373.18,754,755,0
1099230,370.30,754,757,0
1099240,370.81,754,754,0
1099250,373.99,754,757,0
1099260,379.48,754,755,0
1099270,386.07,754,757,0
1099280,393.25,754,754,0
1099290,400.29,754,756,0
1099300,407.06,754,755,0
1099310,412.87,754,757,0
1099320,417.45,754,754,0
1099330,420.79,754,757,0
1099340,422.74,754,755,0
1099351,423.20,754,756,0
1099361,422.33,754,755,0
1099371,420.09,754,756,0
1099381,416.67,754,755,0
1099392,412.36,754,756,0
1099401,407.24,754,754,0
1099411,401.77,754,756,0
1099421,396.61,754,755,0
1099431,391.33,754,756,0
1099441,386.56,754,754,0
1099451,382.06,754,756,0
1099461,378.40,754,755,0
1099471,374.89,754,756,0
1099481,372.14,754,754,0
1099491,369.57,754,756,0
1099501,367.86,754,755,0
1099511,366.36,754,756,0
1099521,365.48,754,754,0
1099531,364.82,754,756,0
1099541,364.96,754,755,0
1099551,365.23,754,756,0
1099561,366.10,754,755,0
1099571,367.02,754,756,0
1099581,368.38,754,755,0
1099591,369.55,754,756,0
1099601,370.97,754,755,0
1099611,372.10,754,756,0
1099621,373.44,754,755,0
1099631,374.29,754,756,0
1099641,375.19,754,755,0
1099651,375.60,754,756,0
1099661,376.19,754,755,0
1099671,376.48,754,756,0
1099681,377.28,754,755,0
1099692,377.67,754,756,0
1099702,379.05,754,756,0
1099712,381.01,754,755,0
1099722,385.08,754,755,0
1099732,391.14,754,755,0
1099742,400.65,754,756,0
1099752,413.83,754,756,0
1099762,432.40,754,755,0
1099772,456.11,754,755,0
1099791,485.26,805,755,0
1099794,517.84,805,755,0
1099803,553.59,805,756,0
1099813,589.54,805,755,0
1099823,623.92,805,756,0
1099833,654.80,805,756,0
1099843,680.92,805,756,0
1099853,700.91,805,755,0
1099863,714.65,805,756,0
1099873,719.90,805,755,0
1099883,717.66,805,756,0
1099893,707.48,805,755,0
1099904,690.19,805,756,0
1099913,665.62,805,755,0
1099923,635.60,805,756,0
1099933,600.88,805,755,0
1099943,564.83,805,756,0
1099953,528.24,805,755,0
1099963,493.80,805,756,0
1099973,461.67,805,755,0
1099983,433.78,805,756,0
1099993,409.63,805,755,0
1100003,390.72,805,756,0
1100013,375.97,805,755,0
1100023,366.29,805,756,0
1100033,360.59,805,756,0
1100043,359.21,805,756,0
1100053,360.52,805,755,0
1100063,365.12,805,756,0
1100073,370.96,805,755,0
1100083,378.68,805,756,0
1100093,386.36,805,755,0
1100103,394.40,805,756,0
1100113,401.22,805,755,0
1100123,407.63,805,756,0
1100133,412.20,805,755,0
1100143,415.91,805,756,0
1100153,417.65,805,755,0
1100163,418.31,805,756,0
1100173,417.40,805,755,0
1100183,415.70,805,756,0
1100193,412.32,805,755,0
1100204,408.32,805,756,0
1100214,403.38,805,754,0
1100224,398.17,805,757,0
1100234,392.50,805,754,0
1100244,386.74,805,757,0
1100254,380.99,805,754,0
1100264,376.19,805,757,0
1100274,371.38,805,754,0
1100284,367.62,805,757,0
1100294,364.09,805,754,0
1100304,361.75,805,756,0
1100314,359.64,805,754,0
1100324,358.68,805,757,0
1100334,357.83,805,754,0
1100344,358.31,805,757,0
1100354,358.69,805,754,0
1100364,360.07,805,757,0
1100375,361.03,805,754,0
1100385,362.82,805,757,0
1100395,364.25,805,755,0
1100405,366.23,805,757,0
1100416,367.70,805,754,0
1100425,369.55,805,757,0
1100435,370.80,805,755,0
1100445,372.45,805,757,0
1100455,373.55,805,754,0
1100465,374.85,805,756,0
1100475,375.58,805,755,0
1100485,377.08,805,757,0
1100495,378.90,805,754,0
1100505,382.91,805,757,0
1100515,388.85,805,755,0
1100525,398.41,805,757,0
1100535,411.66,805,754,0
1100545,430.45,805,757,0
1100555,453.97,805,755,0
1100565,482.95,805,757,0
1100584,514.98,793,755,0
1100588,549.19,793,758,0
1100596,583.42,793,755,0
1100606,616.55,793,757,0
1100616,645.36,793,754,0
1100626,668.61,793,757,0
1100636,683.98,793,754,0
1100646,691.53,793,757,0
1100656,690.56,793,754,0
1100666,681.35,793,757,0
1100676,664.01,793,754,0
1100686,640.52,793,757,0
1100696,611.65,793,755,0
1100706,579.70,793,757,0
1100716,545.59,793,754,0
1100726,511.94,793,757,0
1100736,479.13,793,754,0
1100746,449.05,793,757,0
1100756,421.73,793,754,0
1100766,398.97,793,757,0
1100776,380.08,793,754,0
1100786,366.34,793,757,0
1100796,356.55,793,754,0
1100806,351.54,793,757,0
1100816,350.01,793,754,0
1100826,352.36,793,757,0
1100836,356.97,793,754,0
1100846,364.05,793,757,0
1100856,371.96,793,755,0
1100866,380.85,793,756,0
1100876,389.42,793,754,0
1100887,397.74,793,757,0
1100897,404.59,793,754,0
1100907,410.28,793,756,0
1100917,414.10,793,755,0
1100928,416.21,793,757,0
1100937,416.19,793,754,0
1100947,414.98,793,756,0
1100957,412.03,793,754,0
1100967,408.29,793,757,0
1100977,403.32,793,754,0
1100987,398.25,793,756,0
1100997,392.82,793,754,0
1101007,387.77,793,757,0
1101017,382.44,793,754,0
1101027,377.81,793,756,0
1101037,373.49,793,754,0
1101047,370.09,793,757,0
1101057,366.85,793,754,0
1101067,364.62,793,756,0
1101077,362.94,793,754,0
1101087,362.18,793,757,0
1101097,361.87,793,754,0
1101107,362.21,793,756,0
1101117,362.66,793,755,0
1101127,363.66,793,757,0
1101137,364.54,793,754,0
1101147,365.62,793,756,0
1101157,366.50,793,754,0
1101167,367.60,793,757,0
1101177,368.32,793,754,0
1101187,369.34,793,756,0
1101197,370.01,793,754,0
1101207,370.99,793,757,0
1101217,372.15,793,754,0
1101228,374.46,793,757,0
1101238,378.14,793,753,0
1101248,384.44,793,757,0
1101258,393.61,793,754,0
1101268,406.80,793,757,0
1101278,424.04,793,754,0
1101288,445.80,793,757,0
1101298,471.28,793,754,0
1101308,499.61,793,757,0
1101327,529.13,743,756,0
1101330,557.37,743,757,0
1101339,583.75,743,755,0
1101349,606.32,743,756,0
1101359,623.50,743,754,0
1101369,634.36,743,757,0
1101379,637.90,743,754,0
1101389,634.41,743,756,0
1101399,624.95,743,754,0
1101409,608.59,743,757,0
1101419,586.69,743,755,0
1101429,560.29,743,756,0
1101440,530.85,743,755,0
1101449,500.21,743,757,0
1101459,469.42,743,754,0
1101469,439.93,743,756,0
1101479,413.21,743,755,0
1101489,389.96,743,757,0
1101499,371.07,743,754,0
1101509,356.48,743,757,0
1101519,346.31,743,755,0
1101529,340.39,743,757,0
1101539,338.39,743,754,0
1101549,339.86,743,756,0
1101559,344.40,743,755,0
1101569,350.96,743,757,0
1101579,359.03,743,754,0
1101589,367.85,743,757,0
1101599,376.72,743,755,0
1101609,385.12,743,756,0
1101619,392.41,743,754,0
1101629,398.16,743,757,0
1101639,402.40,743,754,0
1101649,404.98,743,756,0
1101659,405.93,743,754,0
1101669,405.35,743,757,0
1101679,403.49,743,754,0
1101689,400.47,743,756,0
1101699,396.73,743,754,0
1101709,392.35,743,757,0
1101719,387.75,743,754,0
1101729,382.89,743,756,0
1101740,378.25,743,755,0
1101750,373.64,743,756,0
1101760,369.63,743,755,0
1101770,365.88,743,756,0
1101780,362.92,743,756,0
1101790,360.33,743,756,0
1101800,358.52,743,755,0
1101810,357.16,743,756,0
1101820,356.56,743,755,0
1101830,356.13,743,756,0
1101840,356.31,743,755,0
1101850,356.34,743,756,0
1101860,356.84,743,756,0
1101870,357.19,743,756,0
1101880,357.77,743,755,0
1101890,358.31,743,756,0
1101900,359.63,743,756,0
1101911,361.46,743,756,0
1101921,365.01,743,755,0
1101931,370.15,743,756,0
1101941,378.20,743,756,0
1101952,388.98,743,755,0
1101961,403.73,743,755,0
1101971,421.81,743,756,0
1101981,444.11,743,756,0
1101991,468.81,743,756,0
1102001,496.08,743,756,0
1102011,523.66,743,756,0
1102030,550.67,703,754,0
1102033,573.96,703,755,0
1102042,593.90,703,756,0
1102052,607.86,703,755,0
1102062,615.96,703,756,0
1102072,616.44,703,755,0
1102082,610.44,703,756,0
1102092,597.75,703,755,0
1102102,580.64,703,756,0
1102112,558.20,703,755,0
1102123,532.99,703,756,0
1102132,505.90,703,756,0
1102142,478.89,703,756,0
1102152,451.88,703,755,0
1102162,427.19,703,756,0
1102172,404.46,703,755,0
1102182,385.59,703,757,0
1102192,369.56,703,755,0
1102202,357.31,703,756,0
1102212,348.21,703,755,0
1102222,343.44,703,756,0
1102232,341.33,703,755,0
1102242,342.86,703,756,0
1102252,346.07,703,755,0
1102262,351.80,703,756,0
1102272,358.24,703,755,0
1102282,365.97,703,756,0
1102292,373.31,703,755,0
1102302,380.76,703,756,0
1102312,386.83,703,755,0
1102322,392.41,703,756,0
1102332,396.19,703,755,0
1102342,399.13,703,756,0
1102352,400.08,703,755,0
1102362,400.40,703,757,0
1102372,398.95,703,755,0
1102382,397.25,703,756,0
1102392,394.22,703,755,0
1102402,391.28,703,757,0
1102412,387.51,703,755,0
1102423,384.27,703,757,0
1102433,380.20,703,755,0
1102443,376.97,703,757,0
1102453,373.08,703,754,0
1102464,369.93,703,757,0
1102473,366.56,703,755,0
1102483,363.99,703,757,0
1102493,361.12,703,754,0
1102503,359.29,703,757,0
1102513,357.40,703,755,0
1102523,356.64,703,757,0
1102533,355.93,703,754,0
1102543,356.08,703,757,0
1102553,356.14,703,755,0
1102563,357.34,703,757,0
1102573,358.78,703,754,0
1102583,361.93,703,757,0
1102593,366.20,703,755,0
1102603,373.42,703,757,0
1102613,383.28,703,754,0
1102623,397.73,703,757,0
1102633,416.02,703,755,0
1102643,439.24,703,757,0
1102653,465.83,703,754,0
1102672,496.18,642,753,0
1102675,527.45,642,755,0
1102684,559.89,642,757,0
1102694,589.88,642,755,0
1102704,616.57,642,757,0
1102714,637.66,642,755,0
1102724,652.59,642,757,0
1102734,659.74,642,755,0
1102744,659.73,642,757,0
1102754,650.94,642,755,0
1102764,635.74,642,757,0
