Time,PPG,IBI,GSR,GSR_Event
911511,390.83,823,765,0
911521,393.15,823,763,0
911532,394.82,823,765,0
911542,395.09,823,763,0
911552,394.76,823,765,0
911562,393.16,823,763,0
911572,391.10,823,766,0
911582,390.94,823,763,0
911592,391.17,823,765,0
911602,390.48,823,763,0
911612,389.26,823,766,0
911622,386.96,823,763,0
911632,384.31,823,765,0
911642,380.92,823,763,0
911652,377.47,823,766,0
911662,373.60,823,763,0
911672,370.04,823,765,0
911682,366.30,823,763,0
911692,363.08,823,766,0
911703,360.14,823,762,0
911713,358.08,823,766,0
911723,356.52,823,761,0
911733,355.76,823,766,0
911744,355.62,823,762,0
911753,356.46,823,767,0
911763,357.69,823,762,0
911773,359.37,823,766,0
911783,361.15,823,762,0
911793,363.12,823,766,0
911803,365.14,823,761,0
911813,367.11,823,766,0
911823,368.79,823,762,0
911833,370.35,823,766,0
911843,371.45,823,761,0
911853,372.26,823,766,0
911863,372.61,823,762,0
911873,372.68,823,766,0
911883,372.26,823,761,0
911893,371.46,823,766,0
911903,370.25,823,762,0
911913,369.27,823,766,0
911923,368.59,823,761,0
911933,369.19,823,766,0
911943,372.00,823,762,0
911953,378.77,823,766,0
911963,390.80,823,761,0
911973,409.84,823,766,0
911983,436.63,823,762,0
912003,471.67,853,762,0
912006,512.01,853,764,0
912015,554.70,853,766,0
912025,596.83,853,764,0
912035,636.18,853,766,0
912045,670.33,853,764,0
912055,697.70,853,766,0
912065,717.29,853,765,0
912075,731.00,853,766,0
912086,740.60,853,764,0
912095,747.32,853,766,0
912105,749.71,853,764,0
912115,746.67,853,766,0
912125,737.73,853,764,0
912135,722.72,853,766,0
912145,701.63,853,764,0
912155,674.44,853,766,0
912165,641.65,853,764,0
912175,605.97,853,766,0
912185,569.55,853,764,0
912195,533.43,853,766,0
912205,498.80,853,764,0
912215,466.33,853,766,0
912225,437.05,853,764,0
912235,411.06,853,766,0
912245,389.01,853,764,0
912256,370.92,853,765,0
912265,357.58,853,764,0
912275,348.57,853,766,0
912285,344.16,853,764,0
912295,343.43,853,766,0
912305,346.17,853,764,0
912315,351.09,853,766,0
912325,357.96,853,764,0
912335,365.56,853,766,0
912345,373.36,853,764,0
912355,380.37,853,766,0
912365,386.43,853,764,0
912375,390.71,853,766,0
912385,393.63,853,764,0
912395,394.51,853,766,0
912405,393.89,853,764,0
912415,391.44,853,765,0
912425,387.88,853,764,0
912435,383.20,853,766,0
912445,378.17,853,764,0
912455,372.67,853,765,0
912465,367.63,853,765,0
912475,362.64,853,766,0
912485,358.55,853,764,0
912495,354.83,853,765,0
912505,352.22,853,764,0
912515,350.27,853,766,0
912525,349.20,853,764,0
912535,348.41,853,765,0
912545,348.46,853,764,0
912556,348.71,853,766,0
912566,349.70,853,765,0
912576,350.43,853,765,0
912586,351.63,853,765,0
912596,352.64,853,765,0
912606,354.03,853,764,0
912616,354.88,853,765,0
912626,356.07,853,765,0
912636,356.78,853,765,0
912646,357.87,853,765,0
912656,358.43,853,765,0
912666,359.28,853,765,0
912676,359.58,853,765,0
912686,360.35,853,765,0
912696,360.55,853,765,0
912706,360.94,853,765,0
912716,360.66,853,765,0
912727,360.63,853,765,0
912737,360.06,853,765,0
912747,359.91,853,765,0
912757,359.47,853,765,0
912768,360.23,853,766,0
912777,362.26,853,765,0
912787,367.71,853,765,0
912797,377.18,853,765,0
912807,393.28,853,766,0
912826,416.26,824,764,0
912829,448.24,824,767,0
912838,486.91,824,764,0
912848,529.62,824,766,0
912858,573.02,824,764,0
912868,614.93,824,766,0
912878,652.36,824,765,0
912888,684.01,824,766,0
912898,707.58,824,764,0
912908,724.12,824,766,0
912918,735.70,824,764,0
912928,743.85,824,766,0
912939,748.86,824,764,0
912948,750.06,824,766,0
912958,745.76,824,764,0
912968,735.93,824,766,0
912978,719.49,824,764,0
912988,697.15,824,766,0
912998,668.43,824,764,0
913008,634.87,824,766,0
913018,597.71,824,764,0
913028,560.17,824,766,0
913038,522.58,824,764,0
913048,487.22,824,766,0
913058,453.77,824,764,0
913068,424.31,824,766,0
913078,398.29,824,764,0
913088,377.20,824,766,0
913098,360.13,824,764,0
913108,348.22,824,766,0
913118,340.39,824,764,0
913128,337.45,824,766,0
913138,337.70,824,764,0
913148,341.65,824,766,0
913158,347.41,824,765,0
913168,355.26,824,766,0
913178,363.41,824,765,0
913188,372.16,824,766,0
913198,379.70,824,764,0
913208,386.34,824,766,0
913218,390.44,824,764,0
913228,393.09,824,766,0
913239,393.15,824,764,0
913249,391.73,824,766,0
913259,388.04,824,764,0
913269,383.62,824,766,0
913280,377.77,824,764,0
913289,372.18,824,766,0
913299,365.91,824,764,0
913309,360.45,824,766,0
913319,355.00,824,764,0
913329,350.89,824,766,0
913339,346.89,824,764,0
913349,344.23,824,766,0
913359,341.76,824,764,0
913369,340.50,824,766,0
913379,339.41,824,764,0
913389,339.41,824,766,0
913399,339.33,824,764,0
913409,340.22,824,766,0
913419,340.88,824,764,0
913429,342.37,824,766,0
913439,343.50,824,764,0
913449,345.15,824,766,0
913459,346.35,824,764,0
913469,348.22,824,766,0
913479,349.57,824,764,0
913489,351.41,824,766,0
913499,352.57,824,764,0
913509,354.24,824,766,0
913519,355.33,824,764,0
913529,356.77,824,766,0
913539,357.31,824,764,0
913549,357.95,824,766,0
913559,357.79,824,764,0
913569,357.90,824,766,0
913580,357.33,824,764,0
913590,357.27,824,766,0
913600,357.40,824,764,0
913610,359.64,824,766,0
913620,364.55,824,764,0
913630,374.24,824,766,0
913640,389.68,824,764,0
913659,413.18,833,763,0
913662,445.35,833,764,0
913671,484.76,833,766,0
913681,527.78,833,764,0
913691,571.86,833,767,0
913701,614.16,833,763,0
913711,652.42,833,766,0
913721,684.18,833,764,0
913731,707.83,833,766,0
913741,724.38,833,763,0
913751,735.97,833,766,0
913761,744.08,833,764,0
913771,748.21,833,766,0
913781,746.95,833,763,0
913792,739.76,833,767,0
913801,726.21,833,764,0
913811,706.39,833,766,0
913821,680.04,833,763,0
913831,647.67,833,767,0
913841,611.08,833,764,0
913851,573.13,833,766,0
913861,535.03,833,764,0
913871,498.38,833,767,0
913881,463.72,833,764,0
913891,432.52,833,766,0
913901,404.81,833,764,0
913911,381.59,833,767,0
913921,362.56,833,764,0
913931,348.68,833,766,0
913941,339.35,833,764,0
913951,335.00,833,767,0
913961,334.53,833,763,0
913971,338.06,833,766,0
913981,344.17,833,764,0
913991,352.69,833,767,0
914001,362.04,833,762,0
914011,371.97,833,766,0
914021,380.98,833,764,0
914031,389.00,833,767,0
914041,394.91,833,762,0
914051,398.97,833,766,0
914061,400.44,833,764,0
914071,399.88,833,767,0
914081,397.00,833,762,0
914092,392.71,833,767,0
914102,387.01,833,763,0
914112,380.75,833,767,0
914122,373.97,833,762,0
914132,367.42,833,767,0
914142,361.08,833,763,0
914152,355.66,833,767,0
914162,350.96,833,763,0
914172,347.37,833,767,0
914182,344.65,833,763,0
914192,342.91,833,767,0
914202,341.99,833,763,0
914212,341.91,833,767,0
914222,342.32,833,763,0
914232,343.30,833,767,0
914242,344.58,833,763,0
914252,346.21,833,767,0
914263,347.94,833,763,0
914273,349.72,833,767,0
914283,351.47,833,763,0
914293,353.13,833,766,0
914304,354.72,833,764,0
914313,356.05,833,767,0
914323,357.15,833,763,0
914333,357.87,833,767,0
914343,358.47,833,764,0
914353,358.76,833,767,0
914363,358.87,833,763,0
914373,358.91,833,766,0
914383,359.92,833,764,0
914393,362.65,833,767,0
914403,368.71,833,763,0
914413,379.55,833,767,0
914423,397.22,833,764,0
914433,422.78,833,767,0
914443,456.83,833,763,0
914462,497.00,803,762,0
914465,540.37,803,765,0
914475,583.97,803,766,0
914484,625.17,803,764,0
914494,661.33,803,766,0
914504,690.85,803,765,0
914514,712.53,803,766,0
914524,727.72,803,764,0
914534,738.30,803,766,0
914544,745.71,803,765,0
914554,750.00,803,766,0
914564,750.26,803,764,0
914574,745.12,803,766,0
914584,734.07,803,765,0
914594,716.56,803,766,0
914604,692.99,803,764,0
914614,663.25,803,766,0
914624,628.93,803,764,0
914634,591.71,803,766,0
914644,554.04,803,764,0
914654,517.04,803,765,0
914664,482.36,803,764,0
914674,450.02,803,766,0
914684,421.22,803,764,0
914694,395.74,803,766,0
914704,374.52,803,765,0
914714,357.30,803,765,0
914724,344.91,803,764,0
914734,336.54,803,765,0
914744,332.65,803,764,0
914754,332.33,803,766,0
914764,335.61,803,764,0
914775,341.22,803,765,0
914785,349.04,803,765,0
914795,357.38,803,765,0
914805,366.31,803,765,0
914816,374.27,803,765,0
914825,381.31,803,765,0
914835,386.27,803,765,0
914845,389.49,803,765,0
914855,390.07,803,765,0
914865,388.98,803,765,0
914875,385.64,803,766,0
914885,381.29,803,765,0
914895,375.33,803,765,0
914905,369.06,803,764,0
914915,362.27,803,765,0
914925,356.28,803,765,0
914935,350.36,803,765,0
914945,345.67,803,765,0
914955,341.40,803,765,0
914965,338.58,803,765,0
914975,336.35,803,765,0
914985,335.60,803,765,0
914995,335.25,803,766,0
915005,336.16,803,765,0
915015,337.18,803,765,0
915025,339.23,803,765,0
915035,341.35,803,766,0
915045,344.07,803,765,0
915055,346.11,803,765,0
915065,348.39,803,765,0
915075,349.94,803,766,0
915085,351.72,803,765,0
915095,352.66,803,765,0
915105,353.75,803,765,0
915116,354.08,803,765,0
915126,354.83,803,766,0
915136,354.92,803,764,0
915146,355.29,803,766,0
915156,354.86,803,764,0
915166,354.77,803,765,0
915176,353.94,803,764,0
915186,353.53,803,766,0
915196,352.60,803,764,0
915206,352.72,803,765,0
915216,353.66,803,764,0
915226,357.83,803,766,0
915236,365.73,803,765,0
915246,379.87,803,766,0
915256,400.99,803,765,0
915275,431.25,813,764,0
915278,469.36,813,765,0
915287,512.54,813,766,0
915297,557.16,813,764,0
915307,600.87,813,766,0
915317,640.81,813,764,0
915328,675.07,813,766,0
915337,701.40,813,765,0
915347,719.84,813,766,0
915357,732.75,813,765,0
915367,741.78,813,766,0
915377,748.10,813,764,0
915387,751.03,813,766,0
915397,748.58,813,765,0
915407,740.56,813,766,0
915417,726.08,813,764,0
915427,705.40,813,766,0
915437,678.24,813,764,0
915447,645.29,813,766,0
915457,608.22,813,764,0
915467,570.48,813,766,0
915477,532.54,813,765,0
915487,496.46,813,766,0
915497,462.34,813,764,0
915507,431.85,813,766,0
915517,404.51,813,765,0
915527,381.64,813,766,0
915537,362.51,813,764,0
915547,348.60,813,766,0
915557,338.95,813,764,0
915567,334.55,813,766,0
915577,333.78,813,765,0
915587,337.28,813,766,0
915597,343.07,813,764,0
915607,351.36,813,766,0
915617,360.17,813,764,0
915628,369.72,813,766,0
915638,377.99,813,764,0
915648,385.45,813,766,0
915658,390.59,813,764,0
915668,394.05,813,766,0
915678,394.81,813,764,0
915688,393.92,813,766,0
915698,390.60,813,764,0
915708,386.18,813,766,0
915718,380.21,813,764,0
915728,374.06,813,766,0
915738,367.19,813,764,0
915748,361.00,813,766,0
915758,354.83,813,764,0
915768,349.95,813,766,0
915778,345.38,813,764,0
915788,342.27,813,766,0
915799,339.79,813,764,0
915809,338.99,813,766,0
915819,338.65,813,764,0
915829,339.66,813,766,0
915840,340.92,813,764,0
915849,343.38,813,766,0
915859,345.71,813,764,0
915869,348.58,813,766,0
915879,351.02,813,764,0
915889,353.76,813,766,0
915899,355.76,813,764,0
915909,357.63,813,766,0
915919,358.56,813,764,0
915929,359.38,813,766,0
915939,359.13,813,764,0
915949,358.67,813,766,0
915959,357.48,813,764,0
915969,356.95,813,766,0
915979,357.14,813,764,0
915989,360.18,813,766,0
915999,366.98,813,764,0
916009,380.32,813,766,0
916019,400.49,813,764,0
916029,429.57,813,766,0
916039,466.77,813,764,0
916059,509.40,783,763,0
916062,553.85,783,763,0
916071,597.61,783,767,0
916081,637.50,783,763,0
916091,672.11,783,767,0
916101,699.20,783,763,0
916111,718.34,783,767,0
916121,731.74,783,763,0
916131,741.12,783,767,0
916141,746.44,783,763,0
916151,746.86,783,767,0
916161,741.51,783,763,0
916171,730.00,783,767,0
916182,712.17,783,763,0
916191,688.29,783,767,0
916201,658.50,783,763,0
916211,624.49,783,767,0
916221,588.17,783,763,0
916231,551.61,783,767,0
916241,515.77,783,763,0
916251,481.68,783,767,0
916261,449.76,783,763,0
916271,420.78,783,767,0
916281,394.91,783,763,0
916291,372.91,783,767,0
916301,354.81,783,763,0
916311,341.28,783,767,0
916321,332.20,783,763,0
916331,327.64,783,767,0
916341,327.15,783,763,0
916352,330.36,783,767,0
916361,336.47,783,762,0
916371,344.81,783,767,0
916381,354.30,783,763,0
916391,364.11,783,767,0
916401,373.29,783,762,0
916411,381.22,783,767,0
916421,387.24,783,763,0
916431,391.02,783,767,0
916441,392.30,783,762,0
916451,391.35,783,767,0
916461,388.38,783,763,0
916471,383.76,783,767,0
916481,377.79,783,762,0
916491,371.38,783,767,0
916501,364.80,783,763,0
916511,358.60,783,767,0
916521,352.89,783,763,0
916531,348.04,783,767,0
916541,344.17,783,763,0
916551,341.42,783,767,0
916561,339.54,783,762,0
916571,338.56,783,767,0
916581,338.26,783,763,0
916591,338.74,783,767,0
916601,339.81,783,762,0
916611,341.45,783,767,0
916621,343.41,783,763,0
916631,345.60,783,767,0
916641,347.87,783,762,0
916652,350.18,783,767,0
916662,352.22,783,763,0
916672,353.96,783,767,0
916682,355.26,783,764,0
916692,356.21,783,766,0
916702,356.87,783,763,0
916712,357.55,783,767,0
916722,359.06,783,764,0
916732,362.43,783,766,0
916742,369.16,783,763,0
916752,380.85,783,767,0
916762,399.50,783,764,0
916772,426.18,783,766,0
916782,461.31,783,764,0
916792,502.14,783,767,0
916811,545.73,753,765,0
916814,589.23,753,766,0
916823,630.04,753,765,0
916833,665.60,753,766,0
916843,694.18,753,765,0
916853,714.82,753,766,0
916864,729.28,753,765,0
916873,739.39,753,766,0
916883,746.48,753,765,0
916893,750.23,753,766,0
916903,749.61,753,765,0
916913,743.68,753,766,0
916923,732.08,753,765,0
916933,714.27,753,766,0
916943,690.57,753,765,0
916953,661.09,753,766,0
916963,627.50,753,765,0
916973,591.52,753,766,0
916983,555.24,753,765,0
916993,519.42,753,766,0
917003,485.57,753,765,0
917013,453.68,753,766,0
917023,424.81,753,765,0
917033,398.76,753,766,0
917043,376.72,753,765,0
917053,358.33,753,766,0
917063,344.52,753,765,0
917073,334.81,753,766,0
917083,329.72,753,765,0
917093,328.31,753,765,0
917103,330.83,753,765,0
917113,335.89,753,766,0
917123,343.34,753,765,0
917133,351.68,753,765,0
917143,360.65,753,765,0
917153,368.81,753,766,0
917164,376.15,753,765,0
917174,381.42,753,765,0
917184,385.15,753,765,0
917194,386.35,753,765,0
917204,385.90,753,765,0
917214,383.40,753,765,0
917224,380.07,753,765,0
917234,375.33,753,765,0
917244,370.65,753,765,0
917254,365.27,753,765,0
917264,360.56,753,765,0
917274,355.76,753,765,0
917284,351.85,753,765,0
917294,348.08,753,765,0
917304,345.44,753,765,0
917314,342.91,753,765,0
917324,341.39,753,765,0
917335,339.95,753,765,0
917345,339.53,753,765,0
917355,339.16,753,765,0
917365,339.63,753,766,0
917376,339.95,753,764,0
917385,341.08,753,765,0
917395,342.13,753,765,0
917405,344.06,753,766,0
917415,345.63,753,764,0
917425,347.88,753,765,0
917435,349.59,753,765,0
917445,351.77,753,766,0
917455,353.08,753,764,0
917465,354.60,753,766,0
917475,355.06,753,765,0
917485,355.52,753,766,0
917495,354.89,753,764,0
917505,354.37,753,765,0
917515,353.18,753,765,0
917525,352.74,753,766,0
917535,352.52,753,764,0
917545,354.81,753,766,0
917555,360.09,753,765,0
917565,371.17,753,766,0
917575,388.99,753,765,0
917585,415.91,753,766,0
917604,451.29,793,765,0
917607,493.16,793,767,0
917616,537.81,793,765,0
917626,582.91,793,766,0
917636,625.11,793,765,0
917646,662.28,793,766,0
917656,691.77,793,765,0
917666,713.18,793,766,0
917676,728.17,793,765,0
917686,738.70,793,766,0
917696,746.08,793,765,0
917706,751.28,793,766,0
917716,754.88,793,765,0
917726,756.08,793,766,0
917736,752.80,793,765,0
917746,744.63,793,766,0
917756,730.43,793,765,0
917766,710.76,793,766,0
917776,684.94,793,765,0
917786,653.55,793,766,0
917796,617.64,793,765,0
917806,580.63,793,766,0
917816,542.73,793,764,0
917826,506.38,793,766,0
917836,471.25,793,765,0
917847,439.38,793,766,0
917857,410.46,793,764,0
917867,386.15,793,766,0
917877,365.66,793,764,0
917888,350.64,793,766,0
917897,339.90,793,764,0
917907,334.45,793,766,0
917917,332.64,793,764,0
917927,334.98,793,766,0
917937,339.57,793,764,0
917947,346.60,793,766,0
917957,354.26,793,764,0
917967,362.75,793,766,0
917977,370.24,793,764,0
917987,377.28,793,766,0
917997,382.38,793,764,0
918007,386.30,793,766,0
918017,387.92,793,764,0
918027,388.29,793,766,0
918037,386.49,793,764,0
918047,383.86,793,766,0
918057,379.53,793,764,0
918067,375.13,793,766,0
918077,369.95,793,764,0
918087,365.38,793,766,0
918097,360.55,793,764,0
918107,356.91,793,766,0
918117,353.38,793,764,0
918127,351.12,793,766,0
918137,348.99,793,764,0
918147,348.01,793,766,0
918157,347.06,793,764,0
918167,347.09,793,766,0
918177,346.85,793,764,0
918188,347.36,793,766,0
918198,347.68,793,764,0
918208,348.59,793,766,0
918218,349.19,793,764,0
918228,350.12,793,766,0
918238,350.68,793,764,0
918248,351.68,793,767,0
918258,352.12,793,764,0
918268,352.85,793,766,0
918278,353.11,793,764,0
918288,353.68,793,767,0
918298,353.86,793,764,0
918308,354.33,793,766,0
918318,354.32,793,764,0
918328,354.74,793,767,0
918338,354.73,793,764,0
918348,355.15,793,766,0
918359,355.15,793,764,0
918369,355.41,793,767,0
918379,355.20,793,763,0
918389,355.14,793,767,0
918400,354.80,793,763,0
918409,355.07,793,767,0
918419,355.95,793,763,0
918429,359.27,793,767,0
918439,366.21,793,763,0
918449,378.84,793,767,0
918468,398.64,864,766,0
918471,427.89,864,767,0
918480,465.51,864,763,0
918490,508.39,864,768,0
918500,553.27,864,763,0
918510,597.46,864,767,0
918520,638.29,864,763,0
918530,673.48,864,768,0
918540,700.33,864,763,0
918550,719.13,864,767,0
918560,732.29,864,763,0
918571,741.51,864,767,0
918580,747.95,864,763,0
918590,752.47,864,767,0
918600,755.63,864,763,0
918610,757.88,864,767,0
918620,758.09,864,763,0
918630,754.59,864,767,0
918640,746.14,864,763,0
918650,731.96,864,767,0
918660,711.78,864,763,0
918670,685.49,864,767,0
918680,652.94,864,763,0
918690,615.80,864,767,0
918700,576.39,864,763,0
918710,536.67,864,767,0
918720,498.16,864,763,0
918730,461.98,864,767,0
918740,429.20,864,763,0
918750,400.86,864,767,0
918760,377.41,864,763,0
918770,359.29,864,767,0
918780,346.52,864,763,0
918790,338.90,864,767,0
918800,335.89,864,763,0
918810,337.12,864,767,0
918820,341.50,864,763,0
918830,348.25,864,767,0
918840,356.32,864,763,0
918850,364.88,864,767,0
918860,373.23,864,763,0
918871,380.75,864,767,0
918881,386.61,864,763,0
918891,390.67,864,766,0
918901,392.95,864,764,0
918912,393.31,864,766,0
918921,392.10,864,763,0
918931,389.42,864,767,0
918941,385.69,864,764,0
918951,381.11,864,766,0
918961,376.19,864,763,0
918971,370.99,864,767,0
918981,366.07,864,764,0
918991,361.29,864,766,0
919001,357.05,864,763,0
919011,353.30,864,767,0
919021,350.47,864,764,0
919031,348.19,864,766,0
919041,346.72,864,763,0
919051,345.77,864,767,0
919061,345.45,864,764,0
919071,345.49,864,766,0
919081,345.99,864,764,0
919091,346.50,864,767,0
919101,347.38,864,764,0
919111,348.21,864,766,0
919121,349.35,864,764,0
919131,350.44,864,767,0
919141,351.60,864,764,0
919151,352.40,864,766,0
919161,353.18,864,764,0
919171,353.60,864,767,0
919181,353.98,864,764,0
919191,353.90,864,766,0
919201,353.84,864,764,0
919212,353.50,864,766,0
919222,353.40,864,765,0
919232,352.98,864,766,0
919242,352.77,864,764,0
919252,352.24,864,766,0
919262,351.95,864,765,0
919272,351.41,864,766,0
919282,351.20,864,764,0
919292,350.58,864,765,0
919302,350.45,864,765,0
919312,350.06,864,766,0
919322,350.43,864,764,0
919332,351.24,864,766,0
919342,354.04,864,765,0
919352,359.64,864,766,0
919362,370.64,864,764,0
919382,388.14,913,764,0
919385,415.32,913,767,0
919394,451.61,913,765,0
919404,494.02,913,766,0
919414,539.27,913,765,0
919425,584.83,913,766,0
919435,627.61,913,765,0
919445,665.27,913,766,0
919455,694.59,913,765,0
919465,715.16,913,766,0
919475,729.55,913,765,0
919485,739.63,913,766,0
919495,746.68,913,764,0
919505,751.66,913,766,0
919515,755.15,913,765,0
919525,757.59,913,766,0
919535,757.29,913,764,0
919545,753.00,913,766,0
919555,743.19,913,764,0
919565,727.49,913,766,0
919575,704.88,913,764,0
919585,675.86,913,766,0
919596,639.86,913,764,0
919606,599.83,913,766,0
919616,557.15,913,764,0
919626,514.89,913,766,0
919636,473.78,913,764,0
919646,436.26,913,766,0
919656,402.24,913,764,0
919666,373.88,913,766,0
919676,350.52,913,764,0
919686,333.56,913,766,0
919696,321.82,913,764,0
919706,316.05,913,766,0
919716,314.70,913,764,0
919726,318.18,913,766,0
919736,324.25,913,764,0
919746,332.96,913,766,0
919756,342.32,913,764,0
919767,352.42,913,766,0
919777,361.38,913,764,0
919787,369.32,913,766,0
919797,374.88,913,764,0
919808,378.82,913,766,0
919817,380.29,913,764,0
919827,380.24,913,766,0
919837,377.77,913,764,0
919847,374.20,913,766,0
919857,369.17,913,764,0
919867,363.84,913,766,0
919877,357.81,913,764,0
919887,352.16,913,766,0
919897,346.33,913,764,0
919907,341.64,913,766,0
919917,337.38,913,764,0
919927,334.57,913,766,0
919937,332.34,913,764,0
919947,331.59,913,766,0
919957,331.33,913,764,0
919967,332.26,913,766,0
919977,333.30,913,764,0
919987,335.18,913,766,0
919997,336.75,913,764,0
920007,338.80,913,766,0
920017,340.32,913,764,0
920027,342.15,913,766,0
920037,343.56,913,764,0
920047,345.28,913,766,0
920057,346.22,913,764,0
920067,347.40,913,766,0
920077,348.01,913,764,0
920087,348.86,913,767,0
920097,349.20,913,764,0
920108,349.61,913,766,0
920118,349.30,913,764,0
920128,349.17,913,767,0
920138,348.43,913,763,0
920148,347.79,913,767,0
920158,346.69,913,764,0
920168,345.71,913,767,0
920178,344.39,913,763,0
920188,343.37,913,767,0
920198,342.14,913,764,0
920208,341.50,913,767,0
920218,341.61,913,763,0
920228,343.95,913,768,0
920238,349.24,913,764,0
920248,359.71,913,767,0
920258,376.64,913,763,0
920278,402.25,896,762,0
920281,437.45,896,766,0
920290,479.53,896,767,0
920300,524.88,896,764,0
920310,570.99,896,767,0
920321,614.75,896,764,0
920331,653.91,896,766,0
920341,685.95,896,765,0
920351,709.07,896,766,0
920361,725.25,896,765,0
920371,736.57,896,766,0
920381,744.50,896,765,0
920391,750.01,896,766,0
920401,751.21,896,765,0
920411,747.03,896,766,0
920421,736.69,896,765,0
920431,719.51,896,766,0
920441,695.66,896,765,0
920451,665.16,896,766,0
920461,628.60,896,765,0
920471,588.69,896,766,0
920481,547.73,896,765,0
920492,507.05,896,766,0
920502,468.64,896,765,0
920512,432.83,896,766,0
920522,401.08,896,765,0
920532,373.37,896,766,0
920542,350.93,896,765,0
920552,333.42,896,765,0
920562,321.85,896,765,0
920572,315.25,896,765,0
920582,314.11,896,765,0
920592,316.82,896,765,0
920602,323.30,896,765,0
920612,331.91,896,766,0
920622,342.44,896,765,0
920632,352.98,896,765,0
920642,363.53,896,765,0
920652,372.41,896,765,0
920663,379.87,896,765,0
920673,384.80,896,765,0
920683,387.56,896,766,0
920693,387.35,896,765,0
920704,385.27,896,766,0
920713,380.69,896,765,0
920723,374.95,896,766,0
920733,367.64,896,765,0
920743,360.33,896,766,0
920753,352.56,896,765,0
920763,345.88,896,766,0
920773,339.49,896,765,0
920783,334.67,896,766,0
920793,330.53,896,765,0
920803,328.01,896,766,0
920813,325.95,896,765,0
920823,325.41,896,766,0
920833,325.03,896,765,0
920843,325.88,896,765,0
920853,326.73,896,765,0
920863,328.44,896,766,0
920873,330.11,896,764,0
920883,332.56,896,765,0
920893,334.66,896,765,0
920903,337.42,896,766,0
920913,339.48,896,764,0
920923,341.91,896,765,0
920933,343.48,896,765,0
920943,345.01,896,766,0
920953,345.35,896,764,0
920963,345.71,896,765,0
920973,345.07,896,765,0
920983,344.84,896,766,0
920993,344.50,896,765,0
921004,346.24,896,766,0
921014,350.36,896,765,0
921024,359.77,896,766,0
921034,374.84,896,764,0
921044,398.24,896,766,0
921054,429.46,896,765,0
921064,468.92,896,766,0
921083,512.66,806,765,0
921086,558.10,806,767,0
921095,601.79,806,765,0
921105,641.79,806,767,0
921115,675.28,806,764,0
921125,701.68,806,766,0
921135,720.16,806,765,0
921145,733.10,806,766,0
921155,741.69,806,764,0
921165,745.29,806,766,0
921175,742.85,806,765,0
921185,734.28,806,766,0
921195,718.85,806,764,0
921205,697.13,806,766,0
921216,668.63,806,765,0
921225,635.10,806,766,0
921235,597.91,806,764,0
921245,559.84,806,766,0
921255,521.66,806,765,0
921265,485.59,806,766,0
921275,451.26,806,765,0
921285,420.45,806,766,0
921295,392.24,806,764,0
921305,368.51,806,766,0
921315,348.52,806,764,0
921325,333.53,806,766,0
921335,322.66,806,764,0
921345,317.10,806,766,0
921355,315.44,806,765,0
921365,318.18,806,766,0
921375,323.48,806,764,0
921385,331.74,806,766,0
921395,340.95,806,764,0
921405,351.21,806,766,0
921415,360.57,806,764,0
921425,369.40,806,766,0
921435,376.05,806,764,0
921445,381.22,806,766,0
921455,383.64,806,764,0
921465,384.31,806,766,0
921475,382.33,806,765,0
921485,378.97,806,766,0
921495,373.67,806,764,0
921505,367.94,806,767,0
921516,361.23,806,764,0
921526,354.86,806,766,0
921536,348.22,806,764,0
921546,342.41,806,766,0
921556,336.93,806,764,0
921566,332.79,806,766,0
921576,329.08,806,764,0
921586,326.74,806,766,0
921596,324.94,806,764,0
921606,324.53,806,766,0
921616,324.58,806,764,0
921626,325.74,806,767,0
921636,327.06,806,764,0
921646,329.31,806,766,0
921656,331.32,806,764,0
921666,333.75,806,767,0
921676,335.67,806,764,0
921687,337.78,806,766,0
921697,339.35,806,764,0
921707,341.00,806,767,0
921717,341.99,806,763,0
921728,343.36,806,767,0
921737,344.75,806,764,0
921747,347.61,806,767,0
921757,352.61,806,763,0
921767,361.77,806,767,0
921777,376.07,806,765,0
921787,397.73,806,767,0
921797,427.13,806,764,0
921807,465.02,806,767,0
921817,507.74,806,764,0
921836,552.43,753,763,0
921839,596.02,753,765,0
921848,636.38,753,767,0
921858,670.98,753,763,0
921868,698.50,753,768,0
921878,717.85,753,763,0
921888,731.40,753,767,0
921899,740.88,753,763,0
921908,747.51,753,768,0
921918,749.50,753,763,0
921928,746.14,753,767,0
921938,736.75,753,763,0
921948,721.31,753,768,0
921958,699.70,753,763,0
921968,672.24,753,767,0
921978,639.08,753,763,0
921988,603.36,753,767,0
921998,566.61,753,763,0
922008,530.34,753,767,0
922018,495.22,753,763,0
922028,462.07,753,767,0
922038,431.15,753,763,0
922048,403.16,753,767,0
922058,378.51,753,763,0
922068,357.74,753,767,0
922078,341.02,753,763,0
922088,328.80,753,767,0
922098,320.93,753,763,0
922108,317.44,753,767,0
922118,317.69,753,763,0
922128,321.13,753,768,0
922138,326.92,753,763,0
922148,334.36,753,767,0
922158,342.31,753,763,0
922168,350.27,753,767,0
922178,357.65,753,763,0
922188,363.92,753,767,0
922199,368.58,753,763,0
922209,371.40,753,767,0
922219,372.31,753,763,0
922229,371.45,753,767,0
922240,369.08,753,764,0
922249,365.24,753,767,0
922259,360.50,753,763,0
922269,355.12,753,767,0
922279,349.68,753,764,0
922289,344.47,753,767,0
922299,339.74,753,763,0
922309,335.53,753,767,0
922319,332.16,753,764,0
922329,329.41,753,767,0
922339,327.49,753,763,0
922349,325.97,753,767,0
922359,325.12,753,764,0
922369,324.79,753,767,0
922379,324.98,753,763,0
922389,325.46,753,767,0
922399,326.35,753,764,0
922409,327.36,753,766,0
922419,328.75,753,763,0
922429,330.15,753,767,0
922439,331.74,753,764,0
922449,333.19,753,766,0
922459,334.72,753,763,0
922469,336.04,753,767,0
922479,337.32,753,764,0
922489,338.29,753,766,0
922499,339.02,753,763,0
922509,339.44,753,767,0
922519,339.87,753,764,0
922529,340.21,753,767,0
922540,341.30,753,764,0
922550,343.78,753,766,0
922560,349.42,753,765,0
922570,359.54,753,766,0
922580,376.22,753,764,0
922590,400.41,753,766,0
922600,433.24,753,765,0
922619,473.46,783,764,0
922622,517.93,783,766,0
922631,563.30,783,766,0
922641,607.05,783,765,0
922651,646.25,783,766,0
922661,679.22,783,765,0
922671,704.35,783,766,0
922681,721.95,783,765,0
922691,734.26,783,766,0
922701,742.88,783,765,0
922711,748.92,783,766,0
922721,752.16,783,765,0
922731,750.78,783,766,0
922741,744.29,783,765,0
922752,731.60,783,765,0
922761,713.12,783,765,0
922771,688.36,783,766,0
922781,657.74,783,765,0
922791,622.24,783,766,0
922801,585.14,783,765,0
922811,547.34,783,766,0
922821,511.07,783,765,0
922831,476.03,783,765,0
922841,444.09,783,765,0
922851,414.97,783,766,0
922861,389.99,783,765,0
922871,368.48,783,765,0
922881,351.49,783,765,0
922891,338.44,783,766,0
922901,330.30,783,765,0
922911,325.71,783,765,0
922921,325.45,783,765,0
922931,328.02,783,766,0
922941,333.71,783,765,0
922951,340.74,783,765,0
922961,349.13,783,765,0
922971,357.24,783,766,0
922981,365.18,783,765,0
922991,371.34,783,765,0
923001,376.12,783,765,0
923011,378.40,783,766,0
923021,379.18,783,765,0
923031,377.50,783,765,0
923041,374.65,783,765,0
923052,370.04,783,765,0
923062,364.93,783,766,0
923072,358.82,783,765,0
923082,353.00,783,766,0
923092,346.87,783,765,0
923102,341.90,783,766,0
923112,337.09,783,765,0
923122,333.59,783,766,0
923132,330.50,783,765,0
923142,328.93,783,766,0
923152,327.80,783,765,0
923162,327.86,783,766,0
923172,327.90,783,765,0
923182,328.83,783,766,0
923192,329.61,783,765,0
923202,331.10,783,766,0
923212,331.97,783,765,0
923223,333.26,783,766,0
923233,333.87,783,764,0
923243,334.90,783,766,0
923253,335.31,783,765,0
923264,336.16,783,766,0
923273,336.41,783,764,0
923283,337.27,783,766,0
923293,337.62,783,765,0
923303,338.72,783,766,0
923313,339.15,783,764,0
923323,340.13,783,766,0
923333,340.39,783,765,0
923343,341.22,783,766,0
923353,341.32,783,764,0
923363,341.74,783,766,0
923373,341.43,783,765,0
923383,341.65,783,766,0
923393,341.37,783,764,0
923403,342.24,783,766,0
923413,343.80,783,765,0
923423,348.44,783,766,0
923433,356.67,783,764,0
923443,370.95,783,766,0
923462,391.97,843,765,0
923465,422.58,843,767,0
923474,461.28,843,764,0
923484,505.21,843,767,0
923494,550.70,843,765,0
923504,595.49,843,767,0
923514,636.62,843,764,0
923524,672.30,843,766,0
923534,699.55,843,765,0
923544,718.63,843,767,0
923554,731.98,843,765,0
923564,741.33,843,766,0
923574,747.88,843,765,0
923584,752.46,843,767,0
923594,754.68,843,765,0
923604,753.23,843,766,0
923614,746.56,843,765,0
923624,734.31,843,767,0
923634,715.40,843,764,0
923644,690.25,843,766,0
923654,658.72,843,765,0
923664,622.55,843,767,0
923674,583.30,843,764,0
923684,543.74,843,766,0
923694,504.69,843,765,0
923704,468.48,843,766,0
923714,434.91,843,765,0
923724,405.71,843,766,0
923735,380.21,843,764,0
923745,360.00,843,766,0
923755,344.49,843,764,0
923765,334.36,843,766,0
923776,328.51,843,764,0
923785,327.50,843,767,0
923795,329.41,843,764,0
923805,334.68,843,766,0
923815,341.59,843,765,0
923825,349.90,843,766,0
923835,357.94,843,764,0
923845,365.76,843,766,0
923855,372.05,843,765,0
923865,377.30,843,767,0
923875,380.38,843,764,0
923885,381.81,843,766,0
923895,380.88,843,764,0
923905,378.90,843,766,0
923915,375.29,843,764,0
923925,371.17,843,766,0
923935,366.06,843,764,0
923945,361.03,843,767,0
923955,355.62,843,764,0
923965,350.89,843,766,0
923975,346.08,843,764,0
923985,342.24,843,767,0
923995,338.66,843,764,0
924005,336.23,843,766,0
924015,334.19,843,764,0
924025,333.19,843,767,0
924035,332.45,843,764,0
924045,332.57,843,767,0
924055,332.66,843,764,0
924065,333.27,843,766,0
924076,333.58,843,764,0
924086,334.30,843,766,0
924096,334.86,843,764,0
924106,335.80,843,767,0
924116,336.50,843,763,0
924126,337.59,843,766,0
924136,338.53,843,764,0
924146,339.44,843,767,0
924156,339.87,843,763,0
924166,340.38,843,766,0
924176,340.48,843,764,0
924186,340.68,843,767,0
924196,340.47,843,763,0
924206,340.38,843,766,0
924216,340.18,843,764,0
924226,340.21,843,768,0
924236,339.93,843,763,0
924247,339.65,843,768,0
924257,338.94,843,763,0
924267,338.23,843,767,0
924277,337.35,843,763,0
924288,337.20,843,767,0
924297,338.04,843,763,0
924307,341.24,843,767,0
924317,348.07,843,763,0
924327,360.26,843,767,0
924346,379.00,884,767,0
924349,406.17,884,767,0
924358,441.95,884,764,0
924368,484.13,884,767,0
924378,529.35,884,764,0
924388,574.76,884,767,0
924398,617.65,884,764,0
924408,655.90,884,767,0
924418,686.96,884,763,0
924428,709.77,884,767,0
924438,725.74,884,764,0
924448,736.92,884,767,0
924459,744.74,884,764,0
924468,748.85,884,767,0
924478,747.99,884,764,0
924488,741.27,884,767,0
924498,728.24,884,764,0
924508,708.89,884,767,0
924518,683.12,884,764,0
924528,651.03,884,767,0
924538,614.68,884,764,0
924548,576.37,884,767,0
924558,537.95,884,764,0
924568,500.59,884,767,0
924578,465.23,884,764,0
924588,432.63,884,767,0
924598,403.60,884,764,0
924608,378.13,884,767,0
924618,356.79,884,764,0
924628,339.71,884,766,0
924638,327.20,884,764,0
924648,319.12,884,767,0
924658,315.53,884,764,0
924668,315.71,884,766,0
924678,319.36,884,764,0
924688,325.59,884,767,0
924698,333.90,884,764,0
924708,343.06,884,767,0
924718,352.47,884,764,0
924728,361.24,884,767,0
924738,368.97,884,764,0
924748,374.98,884,766,0
924759,379.19,884,765,0
924769,381.23,884,766,0
924779,381.72,884,764,0
924789,380.35,884,766,0
924800,377.71,884,765,0
924809,373.94,884,766,0
924819,369.67,884,765,0
924829,364.67,884,766,0
924839,359.76,884,765,0
924849,354.73,884,766,0
924859,350.31,884,764,0
924869,346.06,884,766,0
924879,342.57,884,765,0
924889,339.31,884,766,0
924899,337.12,884,765,0
924909,335.20,884,766,0
924919,334.11,884,765,0
924929,333.26,884,766,0
924939,333.14,884,765,0
924949,333.10,884,766,0
924959,333.75,884,765,0
924969,334.26,884,766,0
924979,335.29,884,765,0
924989,336.19,884,766,0
924999,337.55,884,765,0
925009,338.67,884,766,0
925019,340.18,884,765,0
925029,341.37,884,766,0
925039,342.97,884,765,0
925049,344.14,884,766,0
925059,345.43,884,765,0
925069,346.07,884,766,0
925079,346.82,884,765,0
925089,346.92,884,766,0
925100,347.16,884,765,0
925110,346.60,884,766,0
925120,346.55,884,765,0
925130,346.72,884,766,0
925140,349.12,884,765,0
925150,353.63,884,766,0
925160,362.74,884,765,0
925170,377.30,884,766,0
925180,399.67,884,766,0
925199,429.25,853,764,0
925202,467.24,853,767,0
925211,509.55,853,765,0
925221,554.04,853,767,0
925231,597.32,853,765,0
925241,637.16,853,766,0
925251,671.14,853,765,0
925261,698.57,853,766,0
925271,717.90,853,765,0
925281,731.43,853,766,0
925291,740.00,853,765,0
925301,743.30,853,766,0
925312,740.17,853,765,0
925321,730.95,853,766,0
925331,714.93,853,765,0
925341,692.71,853,766,0
925351,663.87,853,765,0
925361,630.44,853,766,0
925371,593.92,853,765,0
925381,557.30,853,766,0
925391,520.74,853,765,0
925401,486.53,853,766,0
925411,454.36,853,765,0
925421,426.01,853,766,0
925431,400.76,853,765,0
925441,379.96,853,766,0
925451,362.92,853,765,0
925461,350.86,853,766,0
925471,342.71,853,765,0
925481,339.46,853,766,0
925491,339.71,853,765,0
925501,343.87,853,766,0
925511,350.03,853,765,0
925521,358.55,853,766,0
925531,367.64,853,765,0
925541,377.48,853,766,0
925551,386.21,853,765,0
925561,394.24,853,767,0
925571,399.91,853,765,0
925581,404.14,853,766,0
925591,405.68,853,765,0
925601,405.61,853,766,0
925612,402.98,853,765,0
925622,399.13,853,766,0
925632,393.26,853,764,0
925642,387.06,853,766,0
925652,379.92,853,765,0
925662,373.13,853,766,0
925672,365.98,853,765,0
925682,359.86,853,766,0
925692,354.07,853,765,0
925702,349.94,853,766,0
925712,346.35,853,765,0
925722,344.45,853,766,0
925732,343.20,853,765,0
925742,343.57,853,766,0
925752,344.21,853,765,0
925762,346.03,853,766,0
925772,347.74,853,765,0
925783,350.26,853,767,0
925793,352.20,853,764,0
925803,354.54,853,767,0
925813,355.96,853,764,0
925824,357.60,853,767,0
925833,358.28,853,765,0
925843,359.01,853,766,0
925853,358.96,853,765,0
925863,359.27,853,767,0
925873,359.45,853,765,0
925883,361.29,853,766,0
925893,365.10,853,764,0
925903,373.60,853,767,0
925913,387.00,853,765,0
925923,407.75,853,767,0
925933,435.81,853,765,0
925943,472.04,853,767,0
925953,513.17,853,765,0
925972,556.49,773,764,0
925975,598.56,773,766,0
925984,637.78,773,767,0
925995,671.40,773,765,0
926004,698.49,773,766,0
926014,717.85,773,765,0
926024,731.39,773,767,0
926034,740.70,773,765,0
926044,745.46,773,766,0
926054,744.42,773,765,0
926064,737.48,773,767,0
926074,723.92,773,764,0
926084,704.32,773,766,0
926094,678.29,773,764,0
926104,646.71,773,767,0
926114,611.14,773,765,0
926124,574.45,773,766,0
926134,537.42,773,764,0
926144,502.15,773,767,0
926154,468.46,773,764,0
926164,437.98,773,766,0
926174,410.51,773,764,0
926184,387.30,773,767,0
926194,367.88,773,765,0
926204,353.30,773,766,0
926214,342.71,773,765,0
926224,336.97,773,767,0
926234,335.01,773,764,0
926244,337.11,773,766,0
926254,341.75,773,765,0
926264,349.02,773,767,0
926274,357.37,773,765,0
926284,366.82,773,766,0
926295,375.74,773,764,0
926305,384.09,773,767,0
926315,390.62,773,763,0
926325,395.58,773,767,0
926336,398.32,773,763,0
926345,399.42,773,767,0
926355,398.31,773,764,0
926365,395.73,773,767,0
926375,391.53,773,763,0
926385,386.70,773,767,0
926395,381.09,773,763,0
926405,375.49,773,767,0
926415,369.64,773,763,0
926425,364.44,773,767,0
926435,359.63,773,764,0
926445,355.80,773,768,0
926455,352.43,773,763,0
926465,350.16,773,767,0
926475,348.27,773,764,0
926485,347.07,773,768,0
926495,346.19,773,763,0
926505,346.14,773,768,0
926515,346.31,773,764,0
926525,347.03,773,767,0
926535,347.88,773,763,0
926545,349.24,773,768,0
926555,350.84,773,764,0
926565,352.73,773,768,0
926575,354.27,773,763,0
926585,355.90,773,768,0
926595,357.13,773,764,0
926605,358.21,773,768,0
926615,358.53,773,763,0
926625,358.54,773,768,0
926636,358.21,773,763,0
926646,358.32,773,767,0
926656,359.21,773,763,0
926666,362.23,773,768,0
926676,368.50,773,764,0
926686,379.92,773,767,0
926696,397.78,773,763,0
926706,423.43,773,768,0
926716,457.29,773,764,0
926735,497.31,763,763,0
926738,540.38,763,766,0
926747,583.59,763,767,0
926757,624.47,763,765,0
926767,660.72,763,767,0
926777,690.37,763,764,0
926787,712.20,763,767,0
926797,727.49,763,765,0
926807,738.14,763,767,0
926817,745.60,763,764,0
926827,750.35,763,767,0
926837,751.06,763,765,0
926848,746.41,763,766,0
926857,736.17,763,764,0
926867,719.92,763,767,0
926877,697.49,763,765,0
926887,668.93,763,766,0
926897,635.43,763,764,0
926907,599.22,763,767,0
926917,562.60,763,765,0
926927,526.29,763,766,0
926937,491.62,763,763,0
926947,459.37,763,767,0
926957,430.59,763,765,0
926967,405.08,763,766,0
926977,383.55,763,763,0
926987,366.11,763,767,0
926997,353.31,763,764,0
927007,344.81,763,766,0
927017,340.84,763,765,0
927027,340.46,763,767,0
927037,343.49,763,764,0
927047,349.00,763,767,0
927057,356.37,763,765,0
927067,364.66,763,767,0
927077,373.29,763,764,0
927087,381.26,763,767,0
927097,388.21,763,764,0
927107,393.46,763,767,0
927117,396.92,763,764,0
927127,398.10,763,767,0
927137,397.47,763,765,0
927148,394.93,763,766,0
927158,391.09,763,765,0
927168,385.88,763,766,0
927178,380.22,763,765,0
927188,374.02,763,766,0
927198,368.36,763,765,0
927208,362.85,763,766,0
927218,358.27,763,765,0
927228,354.07,763,766,0
927238,351.09,763,765,0
927248,348.54,763,766,0
927258,347.09,763,765,0
927268,345.91,763,766,0
927278,345.51,763,765,0
927288,345.23,763,766,0
927298,345.59,763,765,0
927308,346.01,763,766,0
927319,347.16,763,765,0
927329,348.19,763,766,0
927339,349.67,763,765,0
927349,350.89,763,766,0
927360,352.55,763,766,0
927369,353.97,763,766,0
927379,355.65,763,766,0
927389,356.66,763,766,0
927399,358.00,763,766,0
927409,358.69,763,766,0
927419,359.60,763,766,0
927429,359.76,763,766,0
927439,360.09,763,766,0
927449,359.63,763,766,0
927459,359.44,763,766,0
927469,358.54,763,766,0
927479,358.38,763,766,0
927489,358.48,763,766,0
927499,360.73,763,766,0
927509,365.40,763,766,0
927519,375.22,763,766,0
927529,391.14,763,766,0
927539,415.18,763,766,0
927558,447.23,823,764,0
927561,486.55,823,767,0
927570,529.41,823,765,0
927580,573.47,823,766,0
927590,615.46,823,765,0
927600,653.12,823,766,0
927610,684.29,823,765,0
927620,707.90,823,766,0
927630,724.43,823,765,0
927640,736.00,823,766,0
927650,744.10,823,765,0
927660,749.77,823,766,0
927670,753.74,823,765,0
927680,754.85,823,766,0
927690,751.04,823,765,0
927700,741.90,823,767,0
927710,726.58,823,765,0
927720,705.11,823,766,0
927730,676.75,823,765,0
927740,642.28,823,766,0
927750,603.54,823,765,0
927760,563.82,823,766,0
927770,523.85,823,765,0
927780,485.75,823,766,0
927790,449.78,823,765,0
927800,418.09,823,766,0
927810,390.21,823,765,0
927820,367.56,823,766,0
927831,349.39,823,765,0
927841,336.89,823,767,0
927851,328.86,823,765,0
927861,326.25,823,767,0
927872,327.20,823,764,0
927881,332.24,823,767,0
927891,339.07,823,765,0
927901,348.09,823,767,0
927911,357.24,823,765,0
927921,366.89,823,766,0
927931,374.98,823,765,0
927941,382.14,823,767,0
927951,386.73,823,764,0
927961,389.85,823,766,0
927971,390.28,823,765,0
927981,389.30,823,767,0
927991,385.87,823,764,0
928001,381.58,823,766,0
928011,375.83,823,765,0
928021,370.23,823,766,0
928031,363.77,823,765,0
928041,357.93,823,766,0
928051,351.95,823,765,0
928061,347.46,823,767,0
928071,343.25,823,765,0
928081,340.48,823,767,0
928091,337.98,823,765,0
928101,337.04,823,767,0
928111,336.47,823,765,0
928121,337.02,823,767,0
928131,337.27,823,765,0
928141,338.43,823,767,0
928151,339.24,823,765,0
928161,340.67,823,767,0
928172,341.50,823,765,0
928182,342.68,823,767,0
928192,343.37,823,764,0
928202,344.55,823,767,0
928212,345.15,823,765,0
928222,346.18,823,767,0
928232,346.51,823,764,0
928242,347.26,823,767,0
928252,347.52,823,765,0
928262,348.31,823,767,0
928272,348.52,823,764,0
928282,349.09,823,767,0
928292,348.98,823,765,0
928302,349.37,823,767,0
928312,349.04,823,765,0
928322,348.86,823,766,0
928332,348.00,823,765,0
928343,347.79,823,767,0
928353,347.98,823,764,0
928363,350.69,823,767,0
928373,356.48,823,765,0
928384,368.08,823,767,0
928393,386.01,823,765,0
928412,412.41,854,764,0
928415,447.81,854,764,0
928424,489.74,854,768,0
928434,534.56,854,764,0
928444,579.61,854,768,0
928454,621.77,854,764,0
928464,659.34,854,768,0
928474,689.88,854,765,0
928484,711.82,854,767,0
928494,727.17,854,764,0
928504,737.92,854,768,0
928514,745.44,854,765,0
928524,749.42,854,767,0
928534,748.18,854,763,0
928544,741.10,854,768,0
928555,727.57,854,763,0
928564,707.94,854,767,0
928574,681.69,854,763,0
928584,649.38,854,768,0
928594,612.67,854,763,0
928604,574.54,854,767,0
928614,536.28,854,763,0
928624,499.51,854,768,0
928634,464.64,854,763,0
928644,433.21,854,767,0
928654,405.12,854,763,0
928664,381.00,854,768,0
928674,360.77,854,763,0
928684,345.15,854,767,0
928694,333.75,854,764,0
928704,326.88,854,768,0
928714,323.87,854,763,0
928724,324.77,854,767,0
928734,328.52,854,764,0
928744,334.92,854,768,0
928754,342.79,854,763,0
928764,351.64,854,767,0
928774,360.23,854,764,0
928784,368.43,854,768,0
928794,375.38,854,763,0
928804,380.96,854,768,0
928814,384.53,854,764,0
928824,386.30,854,768,0
928834,386.21,854,763,0
928844,384.65,854,768,0
928855,381.45,854,763,0
928865,377.16,854,768,0
928875,371.97,854,763,0
928885,366.41,854,768,0
928896,360.80,854,764,0
928905,355.50,854,768,0
928915,350.64,854,764,0
928925,346.50,854,768,0
928935,343.18,854,764,0
928945,340.77,854,768,0
928955,339.08,854,764,0
928965,337.99,854,767,0
928975,337.56,854,764,0
928985,337.82,854,767,0
928995,338.52,854,764,0
929005,339.39,854,768,0
929015,340.47,854,764,0
929025,341.75,854,767,0
929035,343.11,854,764,0
929045,344.40,854,768,0
929055,345.40,854,764,0
929065,346.14,854,767,0
929075,346.82,854,764,0
929085,347.35,854,768,0
929095,347.63,854,763,0
929105,347.74,854,767,0
929115,347.78,854,764,0
929125,347.97,854,768,0
929135,348.32,854,763,0
929145,348.61,854,767,0
929155,348.86,854,764,0
929165,349.20,854,768,0
929175,349.57,854,763,0
929185,349.48,854,767,0
929196,349.04,854,764,0
929206,348.43,854,767,0
929216,348.04,854,765,0
929226,348.07,854,766,0
929236,349.64,854,765,0
929246,353.43,854,767,0
929256,361.40,854,764,0
929266,374.91,854,766,0
929286,395.68,873,765,0
929289,425.05,873,767,0
929298,463.00,873,766,0
929308,505.73,873,766,0
929318,550.64,873,766,0
929328,594.85,873,766,0
929338,635.87,873,765,0
929348,671.18,873,766,0
929358,698.72,873,766,0
929368,718.01,873,766,0
929378,731.50,873,765,0
929388,740.95,873,766,0
929398,747.57,873,766,0
929409,749.63,873,766,0
929419,746.44,873,766,0
929429,736.75,873,765,0
929439,720.71,873,767,0
929449,697.74,873,765,0
929459,668.76,873,766,0
929469,633.52,873,765,0
929479,595.52,873,766,0
929489,556.02,873,765,0
929499,518.00,873,766,0
929509,481.57,873,765,0
929519,448.74,873,766,0
929529,418.86,873,765,0
929539,393.53,873,765,0
929549,372.29,873,765,0
929559,356.30,873,767,0
929569,344.38,873,765,0
929580,337.62,873,766,0
929590,334.57,873,765,0
929600,336.11,873,766,0
929610,340.49,873,765,0
929620,347.89,873,766,0
929630,356.41,873,765,0
929640,366.23,873,767,0
929650,375.46,873,765,0
929660,384.54,873,766,0
929670,391.53,873,765,0
929680,397.16,873,767,0
929690,400.03,873,765,0
929700,401.22,873,767,0
929710,399.82,873,765,0
929720,397.13,873,767,0
929730,392.38,873,765,0
929740,386.99,873,767,0
929751,380.35,873,765,0
929761,373.95,873,767,0
929771,367.15,873,765,0
929781,361.19,873,766,0
929792,355.30,873,765,0
929801,350.76,873,767,0
929811,346.63,873,765,0
929821,343.95,873,767,0
929831,341.65,873,765,0
929841,340.69,873,767,0
929851,340.05,873,765,0
929861,340.59,873,766,0
929871,341.10,873,765,0
929881,342.53,873,767,0
929891,343.78,873,765,0
929901,345.73,873,766,0
929911,347.31,873,765,0
929921,349.41,873,767,0
929931,350.96,873,765,0
929941,352.85,873,767,0
929951,354.10,873,765,0
929961,355.48,873,767,0
929971,356.07,873,765,0
929981,356.82,873,767,0
929991,356.66,873,764,0
930001,356.68,873,767,0
930011,356.00,873,765,0
930021,355.53,873,767,0
930031,354.60,873,765,0
930041,354.51,873,767,0
930051,354.91,873,765,0
930061,358.07,873,767,0
930071,364.35,873,765,0
930081,376.29,873,767,0
930092,394.50,873,765,0
930102,421.14,873,767,0
930121,455.81,836,766,0
930124,496.88,836,769,0
930134,540.55,836,764,0
930143,584.40,836,767,0
930153,625.38,836,764,0
930163,661.69,836,768,0
930173,691.06,836,764,0
930183,712.68,836,767,0
930193,727.78,836,764,0
930203,738.34,836,768,0
930213,744.63,836,764,0
930223,745.94,836,767,0
930233,741.11,836,763,0
930243,729.98,836,768,0
930253,712.07,836,763,0
930263,687.96,836,767,0
930273,657.50,836,763,0
930283,622.60,836,768,0
930293,584.92,836,763,0
930304,547.01,836,768,0
930313,509.85,836,763,0
930323,475.14,836,768,0
930333,443.00,836,763,0
930343,414.63,836,768,0
930353,389.84,836,764,0
930363,369.62,836,768,0
930373,353.83,836,764,0
930383,342.95,836,768,0
930393,336.37,836,764,0
930403,334.29,836,768,0
930413,335.96,836,763,0
930423,341.11,836,768,0
930433,348.54,836,764,0
930443,357.80,836,768,0
930453,367.68,836,764,0
930463,377.76,836,768,0
930473,386.70,836,763,0
930483,394.34,836,768,0
930493,399.76,836,764,0
930503,403.13,836,768,0
930513,403.91,836,763,0
930523,402.65,836,768,0
930533,399.07,836,764,0
930543,393.99,836,768,0
930553,387.31,836,763,0
930563,380.06,836,767,0
930573,372.37,836,764,0
930583,365.10,836,768,0
930593,358.21,836,763,0
930604,352.36,836,767,0
930614,347.54,836,764,0
930624,344.16,836,768,0
930634,341.97,836,763,0
930644,341.17,836,767,0
930654,341.33,836,764,0
930664,342.56,836,768,0
930674,344.62,836,763,0
930684,347.35,836,767,0
930694,350.46,836,764,0
930704,353.75,836,768,0
930714,356.82,836,763,0
930724,359.53,836,767,0
930734,361.69,836,764,0
930744,363.20,836,768,0
930754,364.04,836,763,0
930764,364.20,836,767,0
930775,364.10,836,764,0
930785,364.32,836,767,0
930795,366.20,836,764,0
930805,370.85,836,766,0
930816,380.28,836,765,0
930825,395.84,836,767,0
930835,419.29,836,765,0
930845,450.96,836,766,0
930855,489.76,836,765,0
930865,532.22,836,767,0
930884,575.65,763,766,0
930887,617.03,763,767,0
930896,654.26,763,766,0
930906,685.08,763,767,0
930916,708.46,763,765,0
930926,724.82,763,766,0
930936,736.27,763,766,0
930946,744.29,763,767,0
930956,747.38,763,765,0
930966,744.61,763,766,0
930976,735.72,763,765,0
930987,720.16,763,766,0
930996,698.47,763,765,0
931006,670.34,763,766,0
931016,636.64,763,765,0
931026,599.85,763,766,0
931036,562.69,763,765,0
931046,525.93,763,766,0
931056,491.28,763,765,0
931066,458.54,763,766,0
931076,429.28,763,765,0
931086,403.09,763,766,0
931096,381.08,763,765,0
931106,362.58,763,766,0
931116,348.61,763,765,0
931126,338.74,763,766,0
931136,333.72,763,765,0
931146,332.52,763,766,0
931156,335.32,763,766,0
931166,340.79,763,766,0
931176,348.91,763,765,0
931186,358.11,763,766,0
931196,368.15,763,765,0
931206,377.40,763,766,0
931216,385.94,763,765,0
931226,392.47,763,766,0
931236,397.39,763,766,0
931246,399.67,763,766,0
931256,399.98,763,765,0
931266,397.76,763,766,0
931276,394.19,763,766,0
931287,388.69,763,766,0
931297,382.57,763,766,0
931307,375.46,763,766,0
931317,368.68,763,766,0
931328,361.83,763,765,0
931337,356.14,763,766,0
931347,351.00,763,766,0
931357,347.40,763,766,0
931367,344.45,763,765,0
931377,343.07,763,766,0
931387,342.24,763,766,0
931397,342.85,763,766,0
931407,343.62,763,766,0
931417,345.32,763,766,0
931427,346.85,763,766,0
931437,349.08,763,766,0
931447,350.90,763,766,0
931457,353.16,763,766,0
931467,354.65,763,766,0
931477,356.43,763,766,0
931487,357.33,763,765,0
931497,358.39,763,766,0
931507,358.66,763,766,0
931517,359.36,763,766,0
931527,360.15,763,766,0
931537,363.11,763,766,0
931547,368.47,763,766,0
931557,378.96,763,766,0
931567,395.43,763,766,0
931577,420.29,763,766,0
931587,452.99,763,766,0
931597,492.55,763,766,0
931607,535.33,763,766,0
931627,578.99,742,765,0
931630,620.35,742,765,0
931639,657.31,742,767,0
931649,687.39,742,765,0
931659,710.07,742,767,0
931670,725.95,742,765,0
931679,737.07,742,767,0
931689,744.85,742,765,0
931699,749.39,742,766,0
931709,749.02,742,765,0
931719,743.74,742,767,0
931729,732.33,742,765,0
931739,715.30,742,767,0
931749,691.98,742,765,0
931759,663.23,742,766,0
931769,629.69,742,765,0
931779,594.68,742,767,0
931789,558.31,742,765,0
931799,523.03,742,766,0
931809,488.52,742,765,0
931819,456.69,742,766,0
931829,426.91,742,765,0
931840,400.80,742,767,0
931849,377.76,742,765,0
931859,359.36,742,766,0
931869,344.89,742,765,0
931879,335.58,742,767,0
931889,330.22,742,765,0
931899,329.56,742,766,0
931909,331.83,742,765,0
931919,337.37,742,767,0
931929,344.50,742,765,0
931939,353.44,742,766,0
931949,362.31,742,765,0
931959,371.39,742,767,0
931969,378.77,742,765,0
931979,385.18,742,766,0
931989,389.24,742,765,0
931999,391.87,742,767,0
932009,391.78,742,765,0
932019,390.26,742,766,0
932029,386.62,742,765,0
932039,382.58,742,767,0
932049,377.39,742,765,0
932059,372.43,742,766,0
932069,366.73,742,765,0
932079,361.93,742,767,0
932089,357.06,742,765,0
932099,353.57,742,766,0
932109,350.23,742,765,0
932119,348.02,742,767,0
932129,346.00,742,765,0
932140,345.31,742,766,0
932150,344.92,742,765,0
932160,345.63,742,767,0
932170,346.17,742,765,0
932180,347.58,742,767,0
932190,348.73,742,765,0
932200,350.40,742,767,0
932210,351.48,742,765,0
932220,352.83,742,767,0
932230,353.70,742,765,0
932240,354.86,742,767,0
932250,355.50,742,765,0
932260,356.51,742,767,0
932270,356.91,742,765,0
932280,357.67,742,767,0
932290,357.72,742,765,0
932300,357.94,742,767,0
932311,357.40,742,764,0
932321,357.06,742,767,0
932331,356.66,742,765,0
932341,357.96,742,767,0
932352,361.36,742,764,0
932361,368.92,742,767,0
932371,381.55,742,765,0
932381,402.08,742,767,0
932391,430.81,742,764,0
932410,468.20,784,764,0
932413,510.35,784,764,0
932422,554.60,784,768,0
932432,598.09,784,764,0
932442,638.52,784,768,0
932452,672.91,784,764,0
932462,699.94,784,768,0
932472,718.86,784,764,0
932482,732.14,784,768,0
932492,741.44,784,764,0
932502,747.95,784,768,0
932512,752.51,784,764,0
932523,754.93,784,768,0
932532,753.66,784,764,0
932542,747.59,784,768,0
932552,735.67,784,763,0
932562,717.81,784,768,0
932572,693.83,784,764,0
932582,664.05,784,768,0
932592,629.24,784,763,0
932602,591.79,784,768,0
932612,553.46,784,764,0
932622,516.16,784,768,0
932632,480.54,784,763,0
932642,447.68,784,768,0
932652,417.90,784,764,0
932662,392.22,784,768,0
932672,370.90,784,763,0
932682,354.43,784,768,0
932692,342.68,784,764,0
932702,335.84,784,768,0
932712,333.23,784,763,0
932722,334.66,784,768,0
932732,339.13,784,764,0
932742,345.99,784,768,0
932752,354.10,784,763,0
932762,362.77,784,768,0
932772,371.02,784,764,0
932782,378.64,784,768,0
932792,384.62,784,763,0
932802,388.94,784,768,0
932812,391.18,784,764,0
932823,391.60,784,767,0
932833,390.18,784,763,0
932843,387.34,784,767,0
932853,383.25,784,764,0
932864,378.33,784,767,0
932873,373.05,784,763,0
932883,367.89,784,767,0
932893,363.12,784,764,0
932903,358.80,784,767,0
932913,355.22,784,763,0
932923,352.41,784,768,0
932933,350.70,784,764,0
932943,349.59,784,767,0
932953,349.07,784,764,0
932963,348.92,784,768,0
932973,349.16,784,764,0
932983,349.50,784,767,0
932993,349.82,784,764,0
933003,350.04,784,768,0
933013,350.29,784,764,0
933023,350.29,784,767,0
933033,350.33,784,764,0
933043,350.36,784,768,0
933053,350.38,784,764,0
933063,350.27,784,767,0
933073,350.27,784,764,0
933083,350.40,784,768,0
933093,350.80,784,764,0
933103,351.16,784,767,0
933113,351.75,784,764,0
933123,352.51,784,768,0
933133,353.47,784,764,0
933143,354.27,784,767,0
933153,354.88,784,764,0
933164,355.09,784,767,0
933174,355.19,784,765,0
933184,354.92,784,766,0
933194,354.69,784,765,0
933204,354.31,784,766,0
933214,354.34,784,765,0
933224,355.27,784,766,0
933234,358.66,784,765,0
933244,365.53,784,766,0
933263,377.84,853,766,0
933266,397.61,853,767,0
933275,426.70,853,766,0
933285,464.20,853,766,0
933295,507.04,853,766,0
933305,551.99,853,767,0
933315,596.52,853,766,0
933325,637.85,853,766,0
933335,673.08,853,766,0
933345,700.10,853,767,0
933355,719.05,853,766,0
933365,732.32,853,766,0
933376,741.66,853,766,0
933385,748.19,853,766,0
933395,752.80,853,766,0
933405,755.99,853,766,0
933415,757.28,853,766,0
933425,754.62,853,766,0
933435,747.07,853,766,0
933445,733.33,853,766,0
933455,713.39,853,766,0
933465,686.87,853,766,0
933475,654.17,853,765,0
933485,615.97,853,766,0
933495,575.53,853,766,0
933505,534.22,853,766,0
933515,494.56,853,766,0
933525,456.93,853,766,0
933535,423.05,853,766,0
933545,393.04,853,766,0
933555,368.51,853,765,0
933565,348.90,853,766,0
933575,335.17,853,766,0
933585,326.29,853,766,0
933595,322.78,853,765,0
933605,323.19,853,766,0
933615,327.63,853,766,0
933625,334.26,853,766,0
933635,342.88,853,765,0
933645,351.74,853,766,0
933655,360.86,853,766,0
933665,368.70,853,766,0
933676,375.44,853,766,0
933686,379.72,853,765,0
933696,382.55,853,766,0
933706,383.03,853,765,0
933716,382.25,853,767,0
933726,379.56,853,766,0
933736,376.26,853,766,0
933746,371.77,853,765,0
933756,367.55,853,767,0
933766,362.67,853,766,0
933776,358.49,853,766,0
933786,354.05,853,766,0
933796,350.65,853,766,0
933806,347.28,853,766,0
933816,345.10,853,766,0
933826,343.06,853,766,0
933836,342.18,853,766,0
933847,341.36,853,765,0
933857,341.55,853,767,0
933867,341.60,853,765,0
933877,342.49,853,767,0
933888,343.07,853,765,0
933897,344.34,853,767,0
933907,345.18,853,765,0
933917,346.58,853,767,0
933927,347.48,853,765,0
933937,348.79,853,767,0
933947,349.37,853,765,0
933957,350.37,853,767,0
933967,350.60,853,765,0
933977,351.19,853,767,0
933987,350.96,853,765,0
933997,351.15,853,767,0
934007,350.72,853,765,0
934017,350.89,853,767,0
934027,350.54,853,765,0
934037,350.76,853,767,0
934047,350.40,853,765,0
934057,350.63,853,767,0
934067,350.22,853,765,0
934077,350.24,853,767,0
934087,349.61,853,765,0
934097,349.39,853,767,0
934107,348.67,853,765,0
934117,348.90,853,767,0
934127,349.61,853,765,0
934137,353.03,853,767,0
934147,359.41,853,765,0
934157,371.67,853,767,0
934176,390.54,913,766,0
934179,419.01,913,767,0
934188,456.08,913,765,0
934198,499.00,913,767,0
934208,544.13,913,765,0
934218,589.35,913,767,0
934228,631.28,913,765,0
934238,668.06,913,767,0
934248,696.54,913,765,0
934258,716.52,913,767,0
934268,730.51,913,765,0
934278,740.34,913,767,0
934288,747.22,913,765,0
934298,752.04,913,767,0
934308,755.29,913,765,0
934318,755.42,913,767,0
934328,750.28,913,765,0
934338,739.44,913,767,0
934348,721.78,913,765,0
934359,697.59,913,767,0
934369,666.42,913,765,0
934379,629.18,913,767,0
934389,587.77,913,765,0
934400,545.63,913,767,0
934409,503.82,913,765,0
934419,464.79,913,767,0
934429,428.81,913,765,0
934439,397.75,913,767,0
934449,371.26,913,765,0
934459,350.82,913,767,0
934469,335.79,913,765,0
934479,326.77,913,767,0
934489,322.59,913,765,0
934499,323.53,913,767,0
934509,328.04,913,765,0
934519,336.00,913,767,0
934529,345.43,913,765,0
934539,356.23,913,767,0
934549,366.53,913,765,0
934559,376.32,913,767,0
934569,384.15,913,765,0
934579,390.32,913,767,0
934589,393.74,913,765,0
934599,395.32,913,767,0
934609,394.24,913,765,0
934619,391.72,913,767,0
934629,387.31,913,765,0
934639,382.11,913,767,0
934649,375.87,913,765,0
934659,369.86,913,767,0
934669,363.56,913,765,0
934679,358.08,913,767,0
934689,352.91,913,765,0
934700,349.00,913,767,0
934710,345.78,913,764,0
934720,343.83,913,768,0
934730,342.60,913,764,0
934740,342.55,913,768,0
934750,342.98,913,764,0
934760,344.23,913,768,0
934770,345.66,913,764,0
934780,347.56,913,768,0
934790,349.32,913,764,0
934800,351.24,913,768,0
934810,352.84,913,764,0
934820,354.52,913,768,0
934830,355.82,913,765,0
934840,357.16,913,768,0
934850,358.10,913,764,0
934860,359.05,913,768,0
934871,359.68,913,764,0
934881,360.33,913,768,0
934891,360.70,913,764,0
934901,360.96,913,768,0
934912,360.80,913,764,0
934921,360.61,913,768,0
934931,360.08,913,764,0
934941,359.59,913,768,0
934951,359.62,913,764,0
934961,361.11,913,768,0
934971,365.40,913,764,0
934981,374.33,913,768,0
934991,389.74,913,764,0
935001,413.01,913,768,0
935020,444.98,844,767,0
935023,484.11,844,767,0
935032,527.28,844,765,0
935042,571.55,844,768,0
935052,614.03,844,765,0
935062,651.99,844,767,0
935072,683.62,844,765,0
935083,707.44,844,767,0
935092,724.11,844,765,0
935102,735.77,844,767,0
935112,743.94,844,765,0
935122,749.66,844,767,0
935132,751.65,844,764,0
935142,748.45,844,767,0
935152,739.32,844,765,0
935162,723.45,844,767,0
935172,700.99,844,764,0
935182,671.81,844,767,0
935192,636.38,844,765,0
935202,596.79,844,767,0
935212,555.76,844,764,0
935222,514.86,844,767,0
935232,475.90,844,765,0
935242,439.67,844,767,0
935252,407.54,844,765,0
935262,379.69,844,767,0
935272,357.11,844,765,0
935282,339.72,844,767,0
935292,328.11,844,765,0
935302,321.86,844,767,0
935312,320.92,844,764,0
935322,324.24,844,767,0
935332,331.63,844,765,0
935342,341.68,844,767,0
935352,353.78,844,765,0
935362,366.32,844,767,0
935372,378.69,844,765,0
935383,389.50,844,767,0
935393,398.43,844,765,0
935403,404.39,844,767,0
935413,407.79,844,766,0
935424,407.98,844,766,0
935433,405.84,844,765,0
935443,401.18,844,767,0
935453,395.04,844,766,0
935463,387.40,844,766,0
935473,379.56,844,765,0
935483,371.29,844,766,0
935493,363.92,844,766,0
935503,357.04,844,766,0
935513,351.59,844,765,0
935523,347.17,844,766,0
935533,344.55,844,766,0
935543,342.80,844,766,0
935553,342.56,844,765,0
935563,342.86,844,766,0
935573,344.23,844,765,0
935583,345.79,844,766,0
935593,348.08,844,766,0
935603,349.94,844,766,0
935613,352.19,844,765,0
935623,353.93,844,766,0
935633,355.80,844,766,0
935643,357.01,844,766,0
935653,358.21,844,765,0
935663,358.53,844,766,0
935673,359.32,844,766,0
935683,360.08,844,766,0
935693,362.45,844,766,0
935703,366.99,844,767,0
935713,375.95,844,766,0
935724,390.49,844,766,0
935734,413.15,844,766,0
935744,443.96,844,766,0
935754,482.41,844,766,0
935764,524.89,844,766,0
935774,568.89,844,766,0
935793,611.27,773,765,0
935796,649.89,773,767,0
935805,681.98,773,765,0
935815,706.46,773,767,0
935825,723.55,773,766,0
935835,735.56,773,767,0
935845,743.92,773,765,0
935855,749.81,773,767,0
935865,752.01,773,766,0
935875,749.74,773,767,0
935885,741.42,773,765,0
935895,727.41,773,766,0
935905,706.80,773,766,0
935915,680.12,773,767,0
935925,646.91,773,765,0
935936,610.04,773,767,0
935945,570.85,773,765,0
935955,532.20,773,767,0
935965,494.04,773,765,0
935975,458.63,773,767,0
935985,426.00,773,766,0
935995,397.97,773,767,0
936005,373.89,773,765,0
936015,355.32,773,767,0
936025,341.43,773,766,0
936035,333.33,773,767,0
936045,329.72,773,765,0
936055,331.13,773,767,0
936065,335.68,773,766,0
936075,343.79,773,767,0
936085,353.24,773,765,0
936095,364.18,773,767,0
936105,374.58,773,766,0
936115,384.65,773,767,0
936125,392.56,773,765,0
936135,398.99,773,767,0
936145,402.46,773,765,0
936155,404.00,773,767,0
936165,402.58,773,766,0
936175,399.58,773,767,0
936185,394.35,773,765,0
936195,388.50,773,767,0
936205,381.41,773,765,0
936215,374.56,773,767,0
936225,367.28,773,765,0
936236,361.19,773,767,0
936246,355.39,773,765,0
936256,351.25,773,767,0
936266,347.66,773,765,0
936276,345.83,773,767,0
936286,344.51,773,765,0
936296,344.61,773,767,0
936306,344.77,773,765,0
936316,346.04,773,767,0
936326,347.06,773,765,0
936336,348.67,773,767,0
936346,349.67,773,765,0
936356,351.18,773,767,0
936366,352.07,773,765,0
936376,353.29,773,767,0
936386,353.72,773,765,0
936396,354.27,773,767,0
936407,354.02,773,765,0
936417,354.14,773,767,0
936427,354.23,773,765,0
936437,356.22,773,767,0
936448,360.48,773,765,0
936457,369.38,773,767,0
936467,384.01,773,765,0
936477,407.32,773,767,0
936487,439.32,773,765,0
936497,478.96,773,767,0
936507,522.43,773,765,0
936526,567.30,733,764,0
936529,610.54,733,765,0
936538,649.89,733,767,0
936548,682.28,733,765,0
936558,706.67,733,767,0
936568,723.70,733,764,0
936578,735.66,733,767,0
936588,744.03,733,765,0
936598,749.94,733,767,0
936608,754.07,733,765,0
936619,756.96,733,768,0
936628,757.45,733,765,0
936638,754.14,733,767,0
936648,745.27,733,765,0
936658,730.45,733,767,0
936668,709.18,733,765,0
936678,681.61,733,767,0
936688,647.49,733,764,0
936698,608.90,733,767,0
936708,567.79,733,765,0
936718,527.05,733,767,0
936728,487.56,733,765,0
936738,451.05,733,768,0
936748,417.95,733,765,0
936758,389.81,733,767,0
936768,366.59,733,765,0
936778,349.14,733,768,0
936788,336.93,733,764,0
936798,330.27,733,767,0
936808,328.09,733,765,0
936818,330.29,733,768,0
936828,335.47,733,763,0
936838,343.35,733,767,0
936848,352.33,733,765,0
936858,362.04,733,768,0
936868,371.16,733,764,0
936878,379.60,733,767,0
936888,386.23,733,765,0
936898,391.26,733,768,0
936908,393.80,733,764,0
936919,394.42,733,768,0
936929,392.62,733,763,0
936939,389.22,733,768,0
936949,384.18,733,764,0
936960,378.47,733,768,0
936969,372.07,733,764,0
936979,365.92,733,768,0
936989,359.99,733,764,0
936999,354.85,733,768,0
937009,350.44,733,764,0
937019,346.96,733,768,0
937029,344.27,733,764,0
937039,342.48,733,768,0
937049,341.26,733,764,0
937059,340.71,733,768,0
937069,340.54,733,764,0
937079,340.81,733,768,0
937089,341.29,733,764,0
937099,342.15,733,768,0
937109,343.09,733,764,0
937119,344.26,733,768,0
937129,345.51,733,764,0
937139,347.03,733,768,0
937149,348.52,733,764,0
937159,350.08,733,768,0
937169,351.47,733,764,0
937179,352.87,733,768,0
937189,353.90,733,764,0
937199,354.57,733,768,0
937209,354.83,733,764,0
937219,354.88,733,768,0
937229,354.70,733,764,0
937239,354.62,733,768,0
937249,355.25,733,764,0
937260,358.00,733,768,0
937270,364.43,733,764,0
937280,376.34,733,767,0
937290,395.83,733,765,0
937300,424.16,733,767,0
937319,461.31,793,766,0
937322,503.95,793,767,0
937331,549.05,793,765,0
937341,593.69,793,767,0
937351,635.18,793,765,0
937361,670.70,793,767,0
937371,698.52,793,766,0
937381,717.99,793,767,0
937391,731.67,793,765,0
937401,741.24,793,767,0
937411,747.98,793,766,0
937421,752.66,793,767,0
937431,755.97,793,765,0
937441,758.30,793,767,0
937451,759.96,793,766,0
937461,759.68,793,767,0
937472,755.57,793,765,0
937481,746.06,793,767,0
937491,730.27,793,765,0
937501,707.09,793,767,0
937511,676.59,793,765,0
937521,638.91,793,766,0
937531,596.21,793,765,0
937541,550.98,793,767,0
937551,506.03,793,765,0
937561,463.03,793,767,0
937571,424.37,793,765,0
937581,390.83,793,767,0
937591,363.54,793,765,0
937601,342.38,793,767,0
937611,327.82,793,765,0
937621,318.96,793,767,0
937631,315.84,793,765,0
937641,317.00,793,766,0
937651,321.97,793,765,0
937661,329.10,793,767,0
937671,337.98,793,765,0
937681,346.94,793,766,0
937691,355.92,793,765,0
937701,363.36,793,767,0
937711,369.46,793,765,0
937721,373.35,793,766,0
937731,375.65,793,766,0
937741,375.71,793,767,0
937751,374.43,793,765,0
937761,371.17,793,766,0
937772,367.18,793,766,0
937782,362.28,793,767,0
937792,357.48,793,766,0
937802,352.28,793,766,0
937812,347.65,793,766,0
937822,343.17,793,766,0
937832,339.82,793,766,0
937842,336.79,793,766,0
937852,334.84,793,766,0
937862,333.00,793,766,0
937872,332.19,793,766,0
937882,331.44,793,766,0
937892,331.70,793,766,0
937902,331.92,793,766,0
937912,332.97,793,766,0
937922,333.84,793,766,0
937932,335.43,793,766,0
937943,336.63,793,766,0
937953,338.37,793,767,0
937963,339.42,793,765,0
937973,340.83,793,767,0
937984,341.57,793,765,0
937993,342.60,793,766,0
938003,342.93,793,765,0
938013,343.55,793,767,0
938023,343.52,793,765,0
938033,343.92,793,766,0
938043,343.60,793,765,0
938053,343.76,793,767,0
938063,343.41,793,765,0
938073,343.54,793,766,0
938083,343.08,793,765,0
938093,343.01,793,767,0
938103,342.32,793,765,0
938113,342.27,793,766,0
938123,341.76,793,765,0
938133,342.22,793,767,0
938143,343.27,793,765,0
938153,347.17,793,767,0
938163,354.06,793,765,0
938173,366.77,793,767,0
938192,386.08,873,766,0
938195,415.07,873,768,0
938204,452.72,873,765,0
938214,496.18,873,767,0
938224,541.77,873,766,0
938234,587.48,873,767,0
938244,629.98,873,765,0
938254,667.23,873,767,0
938264,696.09,873,765,0
938274,716.33,873,767,0
938284,730.46,873,765,0
938294,740.39,873,767,0
938304,747.30,873,765,0
938314,752.18,873,767,0
938324,755.56,873,765,0
938334,757.96,873,767,0
938344,759.60,873,765,0
938354,759.29,873,767,0
938364,754.19,873,765,0
938374,743.72,873,767,0
938384,726.10,873,765,0
938394,701.26,873,767,0
938404,668.57,873,765,0
938414,629.01,873,767,0
938424,583.96,873,766,0
938434,537.60,873,767,0
938444,491.05,873,765,0
938455,447.66,873,767,0
938465,408.17,873,765,0
938475,374.82,873,767,0
938485,347.27,873,765,0
938496,326.92,873,767,0
938505,312.76,873,765,0
938515,305.46,873,767,0
938525,303.22,873,765,0
938535,306.33,873,767,0
938545,312.49,873,765,0
938555,321.60,873,767,0
938565,331.57,873,765,0
938575,342.46,873,767,0
938585,352.31,873,765,0
938595,361.56,873,767,0
938605,368.55,873,765,0
938615,374.00,873,767,0
938625,376.83,873,765,0
938635,378.12,873,767,0
938645,377.01,873,765,0
938655,374.78,873,767,0
938665,370.78,873,765,0
938675,366.34,873,767,0
938685,361.01,873,765,0
938695,355.99,873,767,0
938705,350.60,873,765,0
938715,346.09,873,767,0
938725,341.60,873,765,0
938735,338.25,873,767,0
938745,335.09,873,765,0
938755,333.09,873,767,0
938765,331.26,873,765,0
938775,330.54,873,767,0
938785,329.87,873,765,0
938796,330.12,873,767,0
938806,330.38,873,765,0
938816,331.43,873,767,0
938826,332.37,873,765,0
938836,333.84,873,768,0
938846,335.05,873,765,0
938856,336.66,873,767,0
938866,337.96,873,765,0
938876,339.35,873,768,0
938886,340.23,873,765,0
938896,341.19,873,767,0
938906,341.60,873,765,0
938916,342.02,873,768,0
938926,341.89,873,765,0
938936,341.84,873,767,0
938946,341.41,873,765,0
938956,341.20,873,768,0
938967,340.63,873,764,0
938977,340.35,873,768,0
938987,339.82,873,764,0
938997,339.49,873,768,0
939008,338.91,873,764,0
939017,338.60,873,768,0
939027,338.16,873,764,0
939037,338.33,873,768,0
939047,339.43,873,764,0
939057,342.69,873,768,0
939067,349.12,873,764,0
939077,360.49,873,768,0
939097,378.30,904,767,0
939100,404.39,904,767,0
939109,439.38,904,765,0
939119,480.96,904,767,0
939129,525.93,904,766,0
939139,571.47,904,767,0
939149,614.87,904,765,0
939159,653.61,904,767,0
939169,685.40,904,765,0
939180,708.76,904,766,0
939190,725.16,904,766,0
939200,736.64,904,767,0
939210,744.72,904,766,0
939220,750.33,904,766,0
939230,754.30,904,766,0
939240,755.84,904,767,0
939250,753.45,904,766,0
939260,745.43,904,766,0
939270,731.54,904,765,0
939280,710.72,904,767,0
939290,683.08,904,765,0
939300,648.25,904,766,0
939310,608.41,904,765,0
939320,565.56,904,767,0
939330,522.53,904,766,0
939340,480.20,904,766,0
939351,441.05,904,766,0
939361,405.64,904,766,0
939371,375.66,904,766,0
939381,350.69,904,766,0
939392,332.10,904,767,0
939401,319.13,904,766,0
939411,312.36,904,766,0
939421,310.24,904,766,0
939431,312.91,904,766,0
939441,318.46,904,766,0
939451,326.90,904,766,0
939461,335.93,904,766,0
939471,345.68,904,766,0
939481,354.30,904,766,0
939491,362.18,904,766,0
939501,367.91,904,766,0
939511,372.27,904,766,0
939521,374.07,904,766,0
939531,374.52,904,766,0
939541,372.69,904,766,0
939551,369.91,904,766,0
939561,365.44,904,765,0
939571,360.64,904,766,0
939581,354.92,904,766,0
939591,349.76,904,766,0
939601,344.39,904,766,0
939611,340.16,904,766,0
939621,336.04,904,766,0
939631,333.33,904,766,0
939641,330.96,904,766,0
939651,329.94,904,766,0
939661,329.06,904,766,0
939671,329.17,904,766,0
939681,329.12,904,766,0
939692,329.98,904,767,0
939702,330.46,904,765,0
939712,331.52,904,767,0
939722,332.05,904,765,0
939732,333.06,904,767,0
939742,333.47,904,765,0
939752,334.36,904,767,0
939762,334.72,904,765,0
939772,335.75,904,767,0
939782,336.42,904,766,0
939792,337.75,904,767,0
939802,338.60,904,765,0
939812,340.05,904,767,0
939822,340.81,904,765,0
939832,341.89,904,767,0
939842,342.05,904,765,0
939852,342.38,904,767,0
939863,341.75,904,765,0
939873,341.40,904,767,0
939883,340.29,904,765,0
939893,339.65,904,767,0
939904,338.21,904,765,0
939913,337.38,904,766,0
939923,336.02,904,765,0
939933,335.50,904,767,0
939943,334.88,904,765,0
939953,335.64,904,767,0
939963,337.34,904,765,0
939973,342.51,904,767,0
939983,351.53,904,765,0
940002,366.71,906,764,0
940005,388.91,906,765,0
940014,419.62,906,767,0
940024,457.88,906,765,0
940034,501.63,906,767,0
940044,547.08,906,765,0
940054,591.80,906,767,0
940064,632.96,906,765,0
940075,668.29,906,767,0
940084,696.14,906,765,0
940094,716.29,906,767,0
940104,730.39,906,765,0
940114,740.26,906,767,0
940124,747.12,906,765,0
940134,751.29,906,767,0
940144,750.81,906,765,0
940154,745.08,906,767,0
940164,733.06,906,765,0
940174,714.83,906,767,0
940184,689.76,906,765,0
940194,658.29,906,767,0
940204,621.22,906,765,0
940214,581.85,906,767,0
940224,541.35,906,765,0
940234,501.99,906,767,0
940244,464.32,906,765,0
940254,430.28,906,767,0
940264,399.94,906,765,0
940274,374.42,906,767,0
940284,353.29,906,765,0
940294,337.65,906,767,0
940304,326.78,906,765,0
940314,321.32,906,767,0
940324,319.89,906,765,0
940334,322.88,906,767,0
940344,328.53,906,765,0
940354,336.86,906,767,0
940364,346.12,906,765,0
940375,355.98,906,767,0
940385,364.94,906,765,0
940395,373.15,906,768,0
940405,379.27,906,764,0
940416,383.73,906,768,0
940425,385.83,906,765,0
940435,386.05,906,768,0
940445,384.11,906,764,0
940455,380.73,906,768,0
940465,375.88,906,765,0
940475,370.48,906,767,0
940485,364.29,906,763,0
940495,358.20,906,768,0
940505,352.31,906,765,0
940515,347.38,906,767,0
940525,342.94,906,763,0
940535,339.53,906,768,0
940545,336.54,906,765,0
940555,334.66,906,768,0
940565,333.31,906,764,0
940575,332.74,906,768,0
940585,332.43,906,764,0
940595,332.86,906,768,0
940605,333.16,906,764,0
940615,333.97,906,768,0
940625,334.79,906,764,0
940635,335.97,906,768,0
940645,336.96,906,764,0
940655,338.17,906,768,0
940665,339.11,906,764,0
940675,340.36,906,767,0
940685,341.20,906,764,0
940695,342.04,906,768,0
940705,342.41,906,764,0
940716,342.76,906,768,0
940726,342.62,906,764,0
940736,342.39,906,768,0
940746,341.89,906,764,0
940756,341.49,906,768,0
940766,341.09,906,764,0
940776,341.45,906,768,0
940786,343.07,906,764,0
940796,347.25,906,768,0
940806,354.97,906,764,0
940816,367.84,906,768,0
940826,387.34,906,764,0
940836,414.46,906,768,0
940855,448.99,853,767,0
940858,489.79,853,767,0
940867,533.57,853,765,0
940877,577.54,853,767,0
940887,619.04,853,764,0
940897,655.75,853,768,0
940907,686.08,853,765,0
940917,709.25,853,767,0
940928,725.46,853,765,0
940937,736.76,853,768,0
940947,744.72,853,765,0
940957,749.05,853,767,0
940967,748.65,853,765,0
940977,742.71,853,767,0
940987,730.58,853,765,0
940997,711.89,853,767,0
941007,686.55,853,765,0
941017,654.76,853,768,0
941027,618.19,853,765,0
941037,578.83,853,767,0
941047,538.73,853,765,0
941057,499.51,853,767,0
941067,462.67,853,765,0
941077,429.04,853,767,0
941087,399.50,853,765,0
941097,374.24,853,767,0
941107,354.15,853,765,0
941117,339.02,853,767,0
941127,328.94,853,765,0
941137,323.22,853,766,0
941147,321.78,853,764,0
941157,323.77,853,767,0
941167,329.07,853,765,0
941177,336.38,853,766,0
941187,345.14,853,764,0
941197,354.40,853,767,0
941207,363.75,853,765,0
941217,372.01,853,767,0
941228,378.95,853,766,0
941238,383.51,853,767,0
941248,386.01,853,765,0
941258,385.88,853,767,0
941268,383.73,853,766,0
941278,379.31,853,767,0
941288,373.86,853,766,0
941298,367.05,853,766,0
941308,360.13,853,766,0
941318,352.85,853,767,0
941328,346.34,853,766,0
941338,340.06,853,766,0
941348,335.16,853,766,0
941358,330.87,853,767,0
941368,327.99,853,766,0
941378,325.77,853,766,0
941388,324.85,853,766,0
941399,324.47,853,766,0
941409,325.27,853,766,0
941419,326.22,853,766,0
941429,328.00,853,766,0
941440,329.67,853,766,0
941449,331.91,853,766,0
941459,333.74,853,766,0
941469,335.87,853,766,0
941479,337.28,853,766,0
941489,338.83,853,766,0
941499,339.48,853,766,0
941509,340.32,853,766,0
941519,340.48,853,766,0
941529,341.32,853,766,0
941539,342.43,853,766,0
941549,345.90,853,766,0
941559,352.01,853,766,0
941569,363.02,853,766,0
941579,379.56,853,766,0
941589,403.86,853,766,0
941599,435.53,853,766,0
941609,474.97,853,767,0
941619,518.14,853,766,0
941638,562.58,783,765,0
941641,605.31,783,767,0
941650,644.34,783,767,0
941660,677.20,783,765,0
941670,703.02,783,767,0
941680,721.10,783,766,0
941690,733.80,783,767,0
941700,742.65,783,766,0
941710,748.32,783,767,0
941720,748.91,783,766,0
941730,744.10,783,767,0
941740,732.80,783,766,0
941750,715.29,783,767,0
941760,690.86,783,765,0
941770,660.21,783,767,0
941780,623.64,783,765,0
941790,585.00,783,767,0
941800,545.10,783,765,0
941810,506.46,783,767,0
941820,469.12,783,765,0
941830,435.23,783,767,0
941840,404.43,783,765,0
941850,378.16,783,767,0
941860,355.53,783,765,0
941870,338.05,783,767,0
941880,324.75,783,765,0
941890,316.68,783,767,0
941900,312.45,783,765,0
941911,312.61,783,767,0
941921,315.64,783,766,0
941931,321.88,783,767,0
941941,329.33,783,765,0
941952,338.15,783,767,0
941961,346.46,783,765,0
941971,354.64,783,767,0
941981,361.09,783,765,0
941991,366.55,783,767,0
942001,369.73,783,765,0
942011,371.52,783,767,0
942021,370.98,783,765,0
942031,369.23,783,767,0
942041,365.52,783,765,0
942051,361.16,783,767,0
942061,355.41,783,765,0
942071,349.59,783,767,0
942081,343.16,783,766,0
942091,337.54,783,767,0
942101,331.93,783,765,0
942111,327.54,783,767,0
942121,323.48,783,765,0
942131,320.81,783,767,0
942141,318.46,783,765,0
942151,317.51,783,767,0
942161,316.84,783,765,0
942171,317.49,783,767,0
942181,318.20,783,765,0
942191,319.90,783,767,0
942201,321.56,783,765,0
942211,324.13,783,767,0
942221,326.28,783,766,0
942231,328.89,783,767,0
942241,330.86,783,765,0
942252,333.17,783,767,0
942262,334.79,783,765,0
942272,336.44,783,767,0
942282,337.25,783,765,0
942292,338.20,783,767,0
942302,338.61,783,765,0
942312,339.72,783,767,0
942322,341.30,783,765,0
942332,345.54,783,767,0
942342,353.01,783,765,0
942352,365.99,783,767,0
942362,385.24,783,765,0
942372,412.77,783,767,0
942382,447.85,783,765,0
942401,489.47,763,764,0
942404,533.77,763,765,0
942413,578.32,763,768,0
942423,620.10,763,765,0
942433,657.18,763,767,0
942443,687.26,763,765,0
942453,709.98,763,768,0
942464,725.89,763,764,0
942473,737.02,763,767,0
942483,744.81,763,765,0
942493,749.28,763,768,0
942503,748.86,763,764,0
942513,743.07,763,767,0
942523,731.01,763,765,0
942533,712.58,763,768,0
942543,687.50,763,764,0
942553,656.41,763,767,0
942563,620.33,763,765,0
942573,582.22,763,768,0
942583,543.11,763,764,0
942593,505.15,763,767,0
942603,468.89,763,765,0
942613,435.71,763,768,0
942623,405.45,763,764,0
942633,379.13,763,768,0
942643,356.51,763,765,0
942653,338.53,763,768,0
942663,324.70,763,764,0
942673,315.53,763,768,0
942683,310.23,763,765,0
942693,309.00,763,768,0
942703,310.80,763,764,0
942713,315.58,763,768,0
942723,322.05,763,765,0
942733,330.00,763,768,0
942743,338.15,763,764,0
942753,346.29,763,768,0
942764,353.32,763,764,0
942774,359.18,763,768,0
942784,363.11,763,764,0
942794,365.26,763,768,0
942804,365.36,763,764,0
942814,363.96,763,768,0
942824,360.93,763,764,0
942834,356.97,763,768,0
942844,352.13,763,764,0
942854,347.12,763,768,0
942864,342.03,763,764,0
942874,337.13,763,768,0
942884,332.64,763,764,0
942894,328.85,763,768,0
942904,325.68,763,764,0
942914,323.29,763,768,0
942924,321.57,763,764,0
942935,320.54,763,768,0
942945,320.25,763,765,0
942955,320.35,763,767,0
942965,320.97,763,765,0
942976,321.84,763,767,0
942985,323.13,763,764,0
942995,324.50,763,767,0
943005,326.07,763,765,0
943015,327.33,763,767,0
943025,328.73,763,764,0
943035,329.97,763,767,0
943045,331.48,763,765,0
943055,332.75,763,767,0
943065,334.15,763,764,0
943075,335.39,763,767,0
943085,336.86,763,765,0
943095,337.93,763,767,0
943105,338.94,763,764,0
943115,339.51,763,768,0
943125,340.00,763,765,0
943135,340.00,763,767,0
943145,340.00,763,765,0
943155,339.66,763,767,0
943165,340.02,763,765,0
943175,341.26,763,767,0
943185,344.82,763,766,0
943195,351.60,763,768,0
943205,363.38,763,764,0
943224,381.57,823,764,0
943227,408.91,823,767,0
943236,444.72,823,767,0
943246,486.85,823,766,0
943256,531.81,823,767,0
943266,577.08,823,766,0
943276,620.04,823,767,0
943286,658.26,823,766,0
943296,688.69,823,767,0
943306,710.99,823,766,0
943316,726.59,823,767,0
943326,737.51,823,766,0
943336,745.16,823,767,0
943346,750.51,823,766,0
943356,753.70,823,767,0
943366,753.53,823,766,0
943376,748.27,823,767,0
943386,737.35,823,766,0
943396,719.80,823,767,0
943406,695.99,823,766,0
943416,665.52,823,767,0
943426,629.62,823,766,0
943436,589.96,823,766,0
943447,549.52,823,766,0
943457,509.21,823,766,0
943467,471.34,823,766,0
943477,436.01,823,766,0
943488,404.98,823,766,0
943497,378.03,823,766,0
943507,356.38,823,766,0
943517,339.42,823,766,0
943527,328.11,823,767,0
943537,321.18,823,766,0
943547,319.15,823,766,0
943557,320.39,823,766,0
943567,325.12,823,766,0
943577,331.51,823,766,0
943587,339.63,823,766,0
943597,347.71,823,766,0
943607,356.03,823,767,0
943617,362.96,823,766,0
943627,369.02,823,766,0
943637,372.83,823,766,0
943647,375.23,823,766,0
943657,375.25,823,766,0
943667,374.02,823,766,0
943677,370.88,823,766,0
943687,367.02,823,766,0
943697,361.91,823,765,0
943707,356.92,823,766,0
943717,351.38,823,766,0
943727,346.59,823,766,0
943737,341.79,823,766,0
943747,338.08,823,766,0
943757,334.71,823,766,0
943767,332.70,823,766,0
943777,330.86,823,766,0
943788,330.30,823,767,0
943798,329.83,823,766,0
943808,330.35,823,767,0
943818,330.67,823,765,0
943828,331.84,823,767,0
943838,332.53,823,766,0
943848,333.87,823,767,0
943858,334.73,823,765,0
943868,336.18,823,767,0
943878,337.15,823,766,0
943888,338.74,823,767,0
943898,339.63,823,765,0
943908,341.03,823,767,0
943918,341.88,823,766,0
943928,343.16,823,767,0
943938,343.67,823,765,0
943948,344.58,823,767,0
943959,344.79,823,766,0
943969,345.37,823,767,0
943979,345.26,823,765,0
943989,345.48,823,767,0
944000,345.08,823,765,0
944009,345.10,823,767,0
944019,344.43,823,765,0
944029,344.30,823,767,0
944039,343.61,823,765,0
944049,343.60,823,767,0
944059,343.29,823,765,0
944069,344.23,823,767,0
944079,346.26,823,765,0
944089,351.33,823,767,0
944099,359.63,823,765,0
944118,374.05,894,764,0
944121,395.90,894,765,0
944130,426.70,894,767,0
944140,465.23,894,765,0
944150,508.70,894,767,0
944160,553.79,894,765,0
944171,598.34,894,767,0
944180,639.21,894,765,0
944190,673.78,894,767,0
944200,700.50,894,765,0
944210,719.25,894,767,0
944220,732.38,894,765,0
944230,741.56,894,767,0
944240,747.99,894,765,0
944250,752.50,894,767,0
944260,755.35,894,765,0
944270,754.90,894,767,0
944280,749.19,894,765,0
944290,737.60,894,767,0
944300,719.42,894,765,0
944310,694.78,894,767,0
944320,663.26,894,765,0
944330,625.90,894,767,0
944340,584.83,894,765,0
944350,543.35,894,767,0
944360,502.36,894,765,0
944370,464.02,894,767,0
944380,428.83,894,765,0
944390,398.54,894,767,0
944400,372.83,894,765,0
944410,353.04,894,767,0
944420,338.29,894,765,0
944430,329.46,894,767,0
944440,325.12,894,765,0
944450,325.47,894,767,0
944460,328.93,894,765,0
944471,335.55,894,767,0
944481,343.40,894,765,0
944491,352.45,894,767,0
944501,361.06,894,764,0
944512,369.31,894,768,0
944521,375.86,894,765,0
944531,381.05,894,767,0
944541,383.90,894,764,0
944551,385.00,894,768,0
944561,383.89,894,765,0
944571,381.35,894,767,0
944581,377.22,894,764,0
944591,372.44,894,768,0
944601,366.95,894,765,0
944611,361.69,894,767,0
944621,356.39,894,764,0
944631,351.73,894,768,0
944641,347.44,894,765,0
944651,344.22,894,767,0
944661,341.50,894,765,0
944671,339.63,894,768,0
944681,338.07,894,764,0
944691,337.45,894,767,0
944701,337.10,894,765,0
944711,337.46,894,768,0
944721,337.88,894,764,0
944731,338.86,894,767,0
944741,339.80,894,765,0
944751,341.10,894,768,0
944761,342.19,894,764,0
944771,343.50,894,767,0
944781,344.51,894,765,0
944791,345.60,894,768,0
944801,346.36,894,764,0
944812,347.20,894,768,0
944822,347.69,894,764,0
944832,348.09,894,768,0
944842,348.19,894,764,0
944852,348.35,894,768,0
944862,348.37,894,764,0
944872,348.43,894,768,0
944882,348.26,894,764,0
944892,348.10,894,768,0
944902,347.64,894,764,0
944912,347.23,894,768,0
944922,346.78,894,764,0
944932,346.24,894,768,0
944942,345.74,894,764,0
944952,345.65,894,768,0
944962,346.40,894,764,0
944972,349.19,894,768,0
944983,355.09,894,764,0
944993,365.65,894,768,0
945012,382.77,894,767,0
945015,408.25,894,767,0
945025,442.81,894,766,0
945035,483.96,894,767,0
945045,528.63,894,766,0
945055,573.87,894,767,0
945065,617.07,894,766,0
945075,655.53,894,767,0
945085,686.83,894,766,0
945095,709.64,894,767,0
945105,725.65,894,766,0
945115,736.85,894,767,0
945125,744.70,894,766,0
945135,750.19,894,767,0
945145,752.49,894,766,0
945155,749.81,894,767,0
945165,741.43,894,766,0
945175,726.21,894,767,0
945185,704.33,894,766,0
945196,675.31,894,766,0
945206,639.99,894,766,0
945216,599.83,894,766,0
945226,558.27,894,767,0
945236,516.53,894,766,0
945246,477.33,894,766,0
945256,441.02,894,766,0
945266,409.55,894,767,0
945276,382.52,894,766,0
945286,361.32,894,766,0
945296,345.19,894,766,0
945306,335.11,894,767,0
945316,329.72,894,766,0
945326,329.59,894,766,0
945336,333.01,894,766,0
945346,340.25,894,767,0
945356,349.35,894,766,0
945367,360.30,894,767,0
945377,371.10,894,766,0
945387,381.87,894,767,0
945397,390.74,894,766,0
945408,398.23,894,767,0
945417,402.83,894,766,0
945427,405.50,894,767,0
945437,405.05,894,766,0
945447,402.85,894,767,0
945457,398.18,894,766,0
945467,392.55,894,767,0
945477,385.40,894,766,0
945487,378.30,894,767,0
945497,370.66,894,766,0
945507,363.99,894,767,0
945517,357.48,894,766,0
945527,352.49,894,767,0
945537,348.06,894,766,0
945547,345.30,894,767,0
945557,343.07,894,766,0
945567,342.36,894,767,0
945577,342.00,894,766,0
945587,342.94,894,767,0
945597,343.77,894,766,0
945607,345.47,894,767,0
945617,346.74,894,765,0
945627,348.62,894,767,0
945637,349.81,894,766,0
945647,351.41,894,767,0
945657,352.31,894,765,0
945667,353.68,894,767,0
945677,354.42,894,766,0
945687,355.53,894,767,0
945697,355.93,894,766,0
945708,356.68,894,767,0
945718,356.60,894,765,0
945728,356.72,894,767,0
945738,356.08,894,765,0
945748,355.67,894,767,0
945758,354.87,894,765,0
945768,355.08,894,767,0
945778,356.21,894,765,0
945788,360.73,894,767,0
945798,369.00,894,765,0
945808,383.83,894,767,0
945818,405.91,894,765,0
945828,437.09,894,767,0
945847,475.77,835,766,0
945850,519.08,835,769,0
945859,563.45,835,765,0
945869,606.82,835,767,0
945879,645.96,835,765,0
945889,679.14,835,767,0
945899,704.30,835,765,0
945909,721.91,835,767,0
945920,734.24,835,765,0
945929,742.87,835,767,0
945939,748.91,835,765,0
945949,753.13,835,767,0
945959,753.61,835,766,0
945969,749.48,835,767,0
945979,739.14,835,765,0
945989,722.47,835,767,0
945999,698.84,835,765,0
946009,668.98,835,767,0
946019,632.64,835,765,0
946029,593.02,835,767,0
946039,551.48,835,765,0
946049,511.31,835,767,0
946059,472.99,835,765,0
946069,438.45,835,767,0
946079,407.59,835,765,0
946089,381.82,835,767,0
946099,361.01,835,765,0
946109,346.09,835,767,0
946119,335.99,835,765,0
946129,331.32,835,767,0
946139,330.80,835,765,0
946149,334.50,835,767,0
946159,340.91,835,765,0
946169,349.81,835,767,0
946179,359.42,835,765,0
946189,369.67,835,767,0
946199,378.90,835,765,0
946209,387.24,835,767,0
946220,393.38,835,764,0
946230,397.64,835,768,0
946240,399.12,835,764,0
946250,398.65,835,768,0
946260,395.84,835,764,0
946270,391.78,835,768,0
946280,386.27,835,764,0
946290,380.32,835,768,0
946300,373.92,835,764,0
946310,367.99,835,768,0
946320,362.29,835,764,0
946330,357.36,835,768,0
946340,352.97,835,764,0
946350,349.46,835,768,0
946360,346.50,835,764,0
946370,344.46,835,768,0
946380,342.95,835,764,0
946391,342.28,835,768,0
946401,341.98,835,764,0
946411,342.12,835,768,0
946421,342.51,835,764,0
946432,343.26,835,768,0
946441,344.17,835,764,0
946451,345.32,835,768,0
946461,346.76,835,764,0
946471,348.46,835,768,0
946481,350.25,835,764,0
946491,352.06,835,768,0
946501,353.72,835,764,0
946511,355.04,835,768,0
946521,356.02,835,764,0
946531,356.35,835,768,0
946541,356.21,835,764,0
946551,355.54,835,768,0
946561,354.61,835,764,0
946571,353.57,835,768,0
946581,352.76,835,764,0
946591,352.74,835,768,0
946601,354.79,835,765,0
946611,360.21,835,768,0
946621,370.86,835,764,0
946631,388.65,835,768,0
946641,415.24,835,765,0
946660,451.04,813,763,0
946663,493.11,813,767,0
946672,538.08,813,767,0
946682,583.27,813,766,0
946692,625.87,813,767,0
946702,663.11,813,765,0
946712,692.82,813,767,0
946722,714.00,813,766,0
946732,728.79,813,768,0
946742,739.14,813,765,0
946752,746.34,813,767,0
946762,751.42,813,766,0
946772,754.98,813,767,0
946782,757.47,813,765,0
946792,758.27,813,767,0
946802,755.45,813,766,0
946812,747.09,813,767,0
946822,732.75,813,765,0
946832,711.52,813,767,0
946842,683.38,813,766,0
946852,648.29,813,767,0
946862,608.01,813,765,0
946872,564.98,813,767,0
946882,522.17,813,766,0
946892,480.80,813,767,0
946903,443.06,813,766,0
946913,409.74,813,766,0
946923,382.22,813,766,0
946933,360.17,813,767,0
946944,344.52,813,766,0
946953,334.59,813,766,0
946963,330.56,813,766,0
946973,330.99,813,767,0
946983,335.79,813,766,0
946993,343.14,813,767,0
947003,352.78,813,766,0
947013,362.83,813,767,0
947023,373.21,813,766,0
947033,382.28,813,766,0
947043,390.21,813,766,0
947053,395.72,813,767,0
947063,399.40,813,766,0
947073,400.48,813,767,0
947083,399.82,813,766,0
947093,396.83,813,767,0
947103,392.68,813,766,0
947113,386.99,813,766,0
947123,381.04,813,766,0
947133,374.38,813,767,0
947143,368.18,813,766,0
947153,361.91,813,766,0
947163,356.71,813,766,0
947173,351.87,813,767,0
947183,348.44,813,766,0
947193,345.43,813,766,0
947203,343.76,813,766,0
947213,342.46,813,767,0
947223,342.41,813,766,0
947233,342.37,813,766,0
947244,343.25,813,766,0
947254,343.90,813,766,0
947264,345.22,813,767,0
947274,346.09,813,766,0
947284,347.35,813,767,0
947294,347.93,813,766,0
947304,348.90,813,766,0
947314,349.23,813,766,0
947324,350.02,813,767,0
947334,350.31,813,766,0
947344,351.12,813,767,0
947354,351.38,813,766,0
947364,352.17,813,767,0
947374,352.50,813,766,0
947384,353.25,813,767,0
947394,353.18,813,766,0
947404,353.30,813,767,0
947415,352.61,813,766,0
947425,352.25,813,767,0
947435,351.23,813,765,0
947445,350.95,813,767,0
947456,351.05,813,766,0
947465,353.65,813,767,0
947475,359.20,813,766,0
947485,370.58,813,767,0
947495,388.66,813,766,0
947514,415.81,854,765,0
947517,452.08,854,766,0
947526,494.53,854,767,0
947536,539.63,854,766,0
947546,585.04,854,767,0
947556,627.37,854,766,0
947566,664.50,854,767,0
947576,694.09,854,766,0
947586,714.85,854,767,0
947596,729.38,854,765,0
947606,739.60,854,767,0
947616,746.70,854,766,0
947627,751.68,854,767,0
947636,755.16,854,766,0
947646,757.60,854,767,0
947656,757.85,854,766,0
947666,754.38,854,767,0
947676,745.31,854,766,0
947686,730.22,854,767,0
947696,707.99,854,765,0
947706,678.94,854,767,0
947716,642.91,854,765,0
947726,602.31,854,767,0
947736,558.93,854,766,0
947746,515.97,854,767,0
947756,474.49,854,766,0
947766,437.06,854,767,0
947776,403.87,854,765,0
947786,376.57,854,767,0
947796,354.67,854,765,0
947806,339.25,854,767,0
947816,329.28,854,765,0
947826,325.25,854,767,0
947836,325.60,854,765,0
947846,330.44,854,767,0
947856,337.68,854,765,0
947866,347.25,854,767,0
947876,357.24,854,765,0
947886,367.71,854,767,0
947896,376.71,854,765,0
947906,384.56,854,767,0
947916,389.83,854,765,0
947927,393.35,854,767,0
947937,394.11,854,765,0
947947,393.17,854,767,0
947957,389.95,854,765,0
947968,385.68,854,767,0
947977,380.03,854,765,0
947987,374.28,854,767,0
947997,368.02,854,765,0
948007,362.27,854,767,0
948017,356.66,854,765,0
948027,352.14,854,767,0
948037,348.11,854,765,0
948047,345.25,854,767,0
948057,342.90,854,765,0
948067,341.69,854,767,0
948077,340.88,854,765,0
948087,341.00,854,767,0
948097,341.17,854,765,0
948107,342.11,854,767,0
948117,342.93,854,765,0
948127,344.24,854,767,0
948137,345.28,854,765,0
948147,346.70,854,767,0
948157,347.73,854,765,0
948167,348.97,854,767,0
948177,349.66,854,765,0
948187,350.54,854,767,0
948197,350.89,854,765,0
948207,351.31,854,767,0
948217,351.22,854,765,0
948227,351.24,854,767,0
948237,350.78,854,765,0
948247,350.55,854,767,0
948257,349.91,854,765,0
948268,349.59,854,768,0
948278,348.99,854,764,0
948288,348.56,854,768,0
948298,347.84,854,764,0
948308,347.37,854,768,0
948318,346.70,854,764,0
948328,346.45,854,768,0
948338,346.19,854,764,0
948348,346.86,854,768,0
948358,348.96,854,764,0
948368,354.24,854,768,0
948378,364.11,854,764,0
948398,380.71,883,763,0
948401,406.30,883,766,0
948410,441.69,883,767,0
948420,483.57,883,766,0
948430,529.08,883,767,0
948440,575.17,883,765,0
948450,619.18,883,767,0
948460,658.30,883,765,0
948470,689.45,883,767,0
948481,711.52,883,766,0
948491,726.96,883,767,0
948501,737.77,883,766,0
948511,745.34,883,767,0
948521,750.64,883,766,0
948531,754.35,883,767,0
948541,756.99,883,766,0
948551,756.78,883,767,0
948561,752.17,883,766,0
948571,741.58,883,767,0
948581,724.39,883,765,0
948591,699.84,883,767,0
948601,668.22,883,766,0
948611,629.71,883,767,0
948621,587.11,883,765,0
948631,542.51,883,767,0
948641,498.81,883,766,0
948652,457.34,883,767,0
948662,420.38,883,766,0
948672,388.25,883,766,0
948682,362.42,883,766,0
948692,342.71,883,766,0
948702,329.77,883,766,0
948712,322.51,883,766,0
948722,321.24,883,766,0
948732,324.21,883,766,0
948742,331.43,883,766,0
948752,340.52,883,766,0
948762,351.33,883,767,0
948772,362.03,883,766,0
948782,372.74,883,766,0
948792,381.60,883,766,0
948802,388.92,883,766,0
948812,393.40,883,766,0
948823,396.02,883,766,0
948833,395.80,883,766,0
948843,394.06,883,767,0
948853,390.01,883,766,0
948864,385.17,883,767,0
948873,379.12,883,766,0
948883,373.25,883,767,0
948893,366.88,883,766,0
948903,361.30,883,767,0
948913,355.77,883,766,0
948923,351.51,883,767,0
948933,347.50,883,766,0
948943,344.86,883,767,0
948953,342.46,883,766,0
948963,341.38,883,767,0
948973,340.45,883,766,0
948983,340.62,883,767,0
948993,340.69,883,766,0
949003,341.68,883,767,0
949013,342.38,883,766,0
949023,343.76,883,767,0
949033,344.65,883,766,0
949043,346.13,883,767,0
949053,346.99,883,766,0
949063,348.32,883,767,0
949073,349.04,883,766,0
949083,350.06,883,767,0
949093,350.38,883,766,0
949103,351.04,883,767,0
949113,350.94,883,766,0
949123,351.26,883,767,0
949133,350.75,883,766,0
949143,350.53,883,767,0
949153,349.77,883,766,0
949164,349.62,883,767,0
949174,348.92,883,766,0
949184,348.65,883,767,0
949194,347.68,883,766,0
949204,347.26,883,767,0
949214,346.28,883,766,0
949224,345.81,883,767,0
949234,344.71,883,766,0
949244,344.76,883,767,0
949254,345.64,883,765,0
949264,349.78,883,767,0
949274,357.86,883,765,0
949284,372.86,883,767,0
949303,395.19,906,766,0
949306,427.92,906,768,0
949315,468.10,906,765,0
949325,513.07,906,768,0
949335,559.25,906,766,0
949345,604.22,906,767,0
949355,644.69,906,765,0
949365,679.07,906,768,0
949376,704.29,906,765,0
949385,721.99,906,767,0
949395,734.38,906,765,0
949405,743.09,906,768,0
949415,749.19,906,766,0
949425,753.51,906,767,0
949435,756.48,906,765,0
949445,757.92,906,768,0
949455,754.95,906,766,0
949465,746.78,906,767,0
949475,731.76,906,765,0
949485,709.67,906,767,0
949495,680.07,906,765,0
949505,643.79,906,767,0
949515,601.51,906,765,0
949525,557.34,906,767,0
949535,512.67,906,765,0
949545,470.51,906,767,0
949555,431.92,906,765,0
949565,398.73,906,768,0
949575,370.69,906,765,0
949585,349.14,906,767,0
949595,333.33,906,765,0
949605,324.10,906,767,0
949615,320.21,906,765,0
949625,321.56,906,767,0
949635,326.49,906,765,0
949645,334.96,906,767,0
949655,345.04,906,765,0
949665,356.43,906,767,0
949676,367.27,906,765,0
949686,377.48,906,768,0
949696,385.73,906,764,0
949706,392.20,906,768,0
949716,395.91,906,763,0
949726,397.48,906,767,0
949736,396.56,906,764,0
949746,393.87,906,768,0
949756,389.28,906,764,0
949766,383.79,906,767,0
949776,377.38,906,764,0
949786,370.97,906,768,0
949796,364.42,906,764,0
949806,358.55,906,767,0
949816,353.16,906,764,0
949826,348.82,906,768,0
949836,345.19,906,764,0
949847,342.69,906,768,0
949857,340.90,906,764,0
949867,340.03,906,768,0
949877,339.68,906,764,0
949888,340.07,906,768,0
949897,340.82,906,764,0
949907,342.08,906,768,0
949917,343.30,906,764,0
949927,344.79,906,768,0
949937,346.36,906,764,0
949947,348.01,906,768,0
949957,349.59,906,764,0
949967,350.96,906,768,0
949977,352.17,906,764,0
949987,353.49,906,768,0
949997,354.33,906,764,0
950007,354.92,906,768,0
950017,355.20,906,764,0
950027,355.40,906,768,0
950037,355.49,906,764,0
950047,355.34,906,768,0
950057,354.90,906,765,0
950067,354.41,906,768,0
950077,353.73,906,764,0
950087,352.91,906,768,0
950097,352.25,906,764,0
950107,352.43,906,768,0
950117,354.53,906,764,0
950127,360.29,906,768,0
950137,371.56,906,764,0
950147,389.86,906,768,0
950166,416.73,863,767,0
950169,452.98,863,767,0
950178,495.25,863,766,0
950188,540.43,863,768,0
950198,585.43,863,765,0
950208,627.43,863,767,0
950218,664.24,863,766,0
950228,693.83,863,767,0
950238,714.58,863,765,0
950248,729.11,863,767,0
950258,739.27,863,766,0
950268,746.39,863,767,0
950278,751.42,863,765,0
950288,752.53,863,767,0
950298,748.22,863,766,0
950308,737.22,863,767,0
950318,719.37,863,765,0
950328,694.27,863,767,0
950338,662.35,863,766,0
950348,623.63,863,767,0
950359,581.44,863,766,0
950369,538.07,863,766,0
950379,496.26,863,766,0
950389,456.84,863,767,0
950400,421.79,863,766,0
950409,391.25,863,766,0
950419,366.58,863,766,0
950429,347.29,863,767,0
950439,334.39,863,766,0
950449,326.69,863,767,0
950459,324.72,863,766,0
950469,326.99,863,767,0
950479,333.55,863,766,0
950489,342.56,863,767,0
950499,353.75,863,766,0
950509,365.31,863,767,0
950519,377.34,863,766,0
950529,388.13,863,767,0
950539,397.60,863,766,0
950549,404.54,863,767,0
950559,409.48,863,766,0
950569,411.48,863,766,0
950579,411.33,863,766,0
950589,408.40,863,767,0
950599,403.74,863,766,0
950609,397.09,863,766,0
950619,389.69,863,766,0
950629,381.21,863,767,0
950639,373.13,863,766,0
950649,364.91,863,767,0
950659,357.78,863,766,0
950669,351.29,863,767,0
950679,346.40,863,766,0
950689,342.30,863,766,0
950700,339.89,863,766,0
950710,338.21,863,767,0
950720,338.02,863,767,0
950730,338.10,863,766,0
950740,339.27,863,767,0
950750,340.52,863,766,0
950760,342.76,863,767,0
950770,344.68,863,766,0
950780,347.09,863,767,0
950790,349.03,863,766,0
950800,351.55,863,767,0
950810,353.31,863,766,0
950820,355.19,863,767,0
950830,355.95,863,766,0
950840,356.78,863,767,0
950850,356.80,863,766,0
950860,357.38,863,767,0
950871,358.21,863,765,0
950881,361.83,863,767,0
950891,368.87,863,766,0
950901,382.36,863,767,0
950912,402.87,863,766,0
950921,432.44,863,767,0
950931,470.06,863,766,0
950941,512.94,863,767,0
950961,557.45,794,766,0
950964,601.24,794,769,0
950973,641.03,794,766,0
950983,675.13,794,767,0
950993,701.49,794,765,0
951003,719.99,794,767,0
951013,732.93,794,766,0
951023,742.00,794,767,0
951033,748.34,794,765,0
951043,752.22,794,767,0
951053,751.34,794,765,0
951063,744.94,794,767,0
951073,731.80,794,765,0
951084,712.06,794,767,0
951094,685.30,794,765,0
951104,652.08,794,767,0
951114,613.06,794,764,0
951124,571.90,794,768,0
951134,530.23,794,766,0
951144,490.52,794,767,0
951154,453.33,794,764,0
951164,420.32,794,768,0
951174,391.59,794,765,0
951184,368.32,794,767,0
951194,350.22,794,764,0
951204,337.90,794,769,0
951214,330.51,794,765,0
951224,328.47,794,767,0
951234,330.69,794,765,0
951244,336.95,794,768,0
951255,345.84,794,764,0
951265,356.77,794,768,0
951275,368.33,794,764,0
951285,379.93,794,768,0
951296,390.28,794,764,0
951305,399.02,794,768,0
951315,405.27,794,764,0
951325,408.92,794,768,0
951335,409.76,794,764,0
951345,408.07,794,768,0
951355,404.02,794,764,0
951365,398.14,794,768,0
951375,390.73,794,764,0
951385,382.54,794,768,0
951395,374.02,794,764,0
951405,365.91,794,768,0
951415,358.40,794,764,0
951425,351.98,794,768,0
951435,346.67,794,764,0
951445,342.78,794,768,0
951455,340.23,794,764,0
951465,339.01,794,768,0
951475,338.75,794,764,0
951485,339.47,794,768,0
951495,340.91,794,764,0
951505,342.91,794,768,0
951515,345.21,794,764,0
951525,347.63,794,768,0
951535,349.93,794,764,0
951545,351.88,794,768,0
951555,353.41,794,764,0
951565,354.66,794,768,0
951575,355.79,794,764,0
951585,357.44,794,768,0
951596,360.65,794,765,0
951606,367.06,794,768,0
951616,378.65,794,765,0
951626,397.27,794,767,0
951636,424.40,794,766,0
951646,460.45,794,768,0
951656,502.23,794,765,0
951666,546.69,794,767,0
951676,591.06,794,766,0
951695,632.48,735,764,0
951698,668.47,735,767,0
951707,696.87,735,767,0
951717,716.92,735,766,0
951727,730.92,735,767,0
951737,740.76,735,766,0
951747,747.60,735,767,0
951757,752.39,735,766,0
951767,755.23,735,767,0
951777,754.43,735,766,0
951787,748.35,735,767,0
951797,736.41,735,766,0
951808,717.82,735,767,0
951817,693.10,735,766,0
951827,661.91,735,767,0
951837,625.38,735,766,0
951847,585.67,735,767,0
951857,545.61,735,766,0
951867,506.21,735,767,0
951877,469.42,735,766,0
951887,435.27,735,767,0
951897,405.31,735,766,0
951907,379.55,735,767,0
951917,359.11,735,765,0
951927,343.48,735,767,0
951937,333.44,735,766,0
951947,328.16,735,767,0
951957,327.98,735,765,0
951967,331.42,735,767,0
951977,338.41,735,766,0
951987,347.28,735,767,0
951997,357.61,735,765,0
952007,367.72,735,767,0
952017,377.49,735,766,0
952027,385.44,735,767,0
952037,391.78,735,766,0
952047,395.23,735,767,0
952057,396.58,735,766,0
952067,395.29,735,767,0
952077,392.37,735,766,0
952087,387.16,735,767,0
952097,380.86,735,766,0
952108,373.31,735,767,0
952118,365.93,735,766,0
952128,358.15,735,766,0
952138,351.42,735,767,0
952148,345.04,735,766,0
952158,340.31,735,766,0
952168,336.40,735,766,0
952178,334.18,735,767,0
952188,332.59,735,766,0
952198,332.54,735,766,0
952208,332.76,735,766,0
952218,334.08,735,767,0
952228,335.34,735,766,0
952238,337.47,735,766,0
952248,339.25,735,766,0
952258,341.62,735,767,0
952268,343.36,735,766,0
952279,345.35,735,767,0
952289,346.58,735,766,0
952299,347.86,735,767,0
952309,348.07,735,766,0
952320,348.39,735,766,0
952329,348.10,735,766,0
952339,349.14,735,767,0
952349,351.37,735,766,0
952359,357.39,735,767,0
952369,367.86,735,766,0
952379,385.94,735,767,0
952389,412.15,735,766,0
952399,448.23,735,767,0
952409,490.12,735,766,0
952419,535.43,735,767,0
952438,580.64,743,766,0
952441,623.69,743,768,0
952450,661.24,743,766,0
952460,691.73,743,767,0
952470,713.24,743,766,0
952480,728.29,743,767,0
952491,738.79,743,766,0
952500,746.18,743,767,0
952510,751.31,743,766,0
952520,754.95,743,767,0
952530,755.95,743,766,0
952540,753.35,743,767,0
952550,745.36,743,766,0
952560,731.75,743,767,0
952570,711.47,743,765,0
952580,685.14,743,767,0
952590,652.31,743,766,0
952600,615.41,743,768,0
952610,575.38,743,765,0
952620,535.41,743,767,0
952630,495.95,743,766,0
952640,459.32,743,767,0
952650,425.24,743,765,0
952660,395.59,743,767,0
952670,369.79,743,766,0
952680,349.62,743,767,0
952690,334.22,743,765,0
952700,324.64,743,767,0
952710,319.56,743,766,0
952720,319.57,743,767,0
952730,322.74,743,765,0
952740,329.46,743,767,0
952750,337.68,743,766,0
952760,347.50,743,767,0
952770,356.87,743,765,0
952780,366.12,743,767,0
952791,373.58,743,766,0
952801,379.71,743,767,0
952811,383.14,743,765,0
952821,384.81,743,767,0
952832,383.93,743,765,0
952841,381.80,743,768,0
952851,377.62,743,765,0
952861,372.81,743,767,0
952871,367.04,743,766,0
952881,361.50,743,767,0
952891,355.48,743,765,0
952901,350.02,743,767,0
952911,344.66,743,765,0
952921,340.56,743,767,0
952931,336.79,743,765,0
952941,334.28,743,767,0
952951,332.31,743,765,0
952961,331.66,743,767,0
952971,331.33,743,765,0
952981,331.79,743,767,0
952991,332.11,743,765,0
953001,333.19,743,767,0
953011,333.95,743,765,0
953021,335.04,743,767,0
953031,335.75,743,765,0
953041,336.98,743,767,0
953051,337.89,743,765,0
953061,339.21,743,767,0
953071,340.09,743,765,0
953081,341.30,743,767,0
953091,342.07,743,765,0
953101,343.12,743,767,0
953111,343.60,743,765,0
953121,344.19,743,767,0
953132,344.18,743,764,0
953142,344.29,743,768,0
953152,344.21,743,764,0
953162,344.66,743,768,0
953172,345.79,743,764,0
953182,349.11,743,768,0
953192,355.89,743,764,0
953202,368.57,743,768,0
953212,388.45,743,764,0
953222,417.07,743,768,0
953241,454.64,803,768,0
953244,497.86,803,768,0
953253,543.63,803,765,0
953263,589.08,803,768,0
953273,631.15,803,764,0
953283,667.44,803,768,0
953293,696.07,803,765,0
953303,716.19,803,768,0
953313,730.32,803,764,0
953323,740.25,803,768,0
953333,747.20,803,765,0
953344,752.07,803,768,0
953353,754.58,803,764,0
953363,752.95,803,768,0
953373,745.89,803,765,0
953383,732.64,803,768,0
953393,713.12,803,764,0
953403,687.20,803,768,0
953413,655.00,803,765,0
953423,617.67,803,768,0
953433,577.95,803,764,0
953443,537.77,803,768,0
953453,498.71,803,765,0
953463,461.68,803,768,0
953473,427.79,803,764,0
953483,397.85,803,768,0
953493,372.48,803,765,0
953503,351.90,803,767,0
953513,336.54,803,765,0
953523,326.22,803,768,0
953533,320.71,803,765,0
953543,319.56,803,767,0
953553,322.13,803,765,0
953563,327.54,803,768,0
953573,334.96,803,764,0
953583,343.46,803,767,0
953593,352.41,803,765,0
953603,360.94,803,768,0
953613,368.42,803,764,0
953623,374.21,803,767,0
953633,378.13,803,765,0
953644,379.93,803,767,0
953654,379.91,803,766,0
953664,377.97,803,766,0
953674,374.80,803,766,0
953684,370.36,803,767,0
953694,365.37,803,766,0
953704,359.99,803,767,0
953714,354.85,803,766,0
953724,349.62,803,767,0
953734,345.02,803,766,0
953744,340.51,803,767,0
953754,336.89,803,766,0
953764,333.58,803,767,0
953774,331.13,803,766,0
953784,328.99,803,767,0
953794,327.80,803,766,0
953804,326.83,803,767,0
953815,326.75,803,766,0
953825,326.74,803,766,0
953835,327.59,803,766,0
953845,328.36,803,767,0
953856,329.83,803,766,0
953865,331.00,803,767,0
953875,332.67,803,766,0
953885,333.97,803,767,0
953895,335.69,803,766,0
953905,336.77,803,767,0
953915,338.04,803,766,0
953925,338.67,803,767,0
953935,339.67,803,766,0
953945,340.07,803,767,0
953955,340.73,803,766,0
953965,340.73,803,767,0
953975,341.02,803,766,0
953985,340.93,803,767,0
953995,341.17,803,766,0
954005,340.77,803,767,0
954015,340.80,803,766,0
954025,340.17,803,766,0
954035,339.95,803,766,0
954045,339.32,803,767,0
954055,339.31,803,767,0
954065,339.43,803,766,0
954075,341.36,803,766,0
954085,345.32,803,767,0
954095,354.18,803,767,0
954115,368.70,873,765,0
954118,392.19,873,769,0
954127,424.66,873,766,0
954137,465.18,873,767,0
954147,510.08,873,766,0
954157,556.86,873,767,0
954167,602.03,873,766,0
954177,643.46,873,767,0
954187,677.57,873,766,0
954198,703.28,873,767,0
954207,721.28,873,766,0
954217,733.93,873,767,0
954227,742.73,873,766,0
954237,748.94,873,767,0
954247,752.99,873,766,0
954257,753.42,873,767,0
954267,748.15,873,766,0
954277,736.83,873,767,0
954287,718.67,873,766,0
954297,694.08,873,767,0
954307,662.56,873,766,0
954317,625.32,873,767,0
954327,584.38,873,766,0
954337,543.21,873,767,0
954347,502.56,873,766,0
954357,464.59,873,767,0
954368,429.31,873,765,0
954377,398.79,873,767,0
954387,372.50,873,766,0
954397,351.82,873,767,0
954407,336.06,873,765,0
954417,326.14,873,767,0
954427,320.78,873,766,0
954437,320.81,873,767,0
954447,324.25,873,765,0
954457,331.46,873,767,0
954467,340.28,873,766,0
954477,350.74,873,767,0
954487,360.93,873,766,0
954497,371.15,873,767,0
954507,379.38,873,766,0
954517,386.21,873,767,0
954527,390.22,873,766,0
954537,392.42,873,767,0
954547,391.78,873,766,0
954557,389.58,873,767,0
954567,384.99,873,766,0
954577,379.64,873,767,0
954587,373.02,873,766,0
954597,366.63,873,767,0
954607,359.75,873,766,0
954617,353.91,873,767,0
954627,348.37,873,766,0
954637,344.44,873,767,0
954647,341.01,873,766,0
954657,339.08,873,767,0
954668,337.43,873,766,0
954678,337.13,873,767,0
954688,336.87,873,765,0
954698,337.56,873,767,0
954708,337.90,873,765,0
954718,338.87,873,767,0
954728,339.38,873,765,0
954738,340.55,873,767,0
954748,341.42,873,765,0
954758,342.96,873,767,0
954768,344.22,873,765,0
954778,346.04,873,767,0
954788,347.57,873,765,0
954798,349.50,873,767,0
954808,350.72,873,765,0
954818,352.13,873,767,0
954828,352.69,873,765,0
954839,353.21,873,767,0
954849,352.98,873,765,0
954859,352.73,873,768,0
954869,351.78,873,764,0
954880,350.95,873,768,0
954889,349.51,873,765,0
954899,348.63,873,768,0
954909,348.09,873,764,0
954919,349.48,873,768,0
954929,353.32,873,765,0
954939,361.97,873,768,0
954949,376.72,873,765,0
954969,399.78,854,763,0
954972,432.07,854,767,0
954981,472.12,854,768,0
954991,516.31,854,765,0
955001,562.03,854,768,0
955011,606.17,854,764,0
955021,646.27,854,768,0
955031,679.83,854,765,0
955041,704.83,854,768,0
955052,722.32,854,765,0
955062,734.57,854,767,0
955072,743.18,854,766,0
955082,748.36,854,767,0
955092,748.85,854,766,0
955102,743.62,854,767,0
955112,732.25,854,766,0
955122,714.09,854,767,0
955132,689.42,854,766,0
955142,658.27,854,767,0
955152,622.10,854,766,0
955162,583.07,854,767,0
955172,543.53,854,765,0
955182,504.80,854,767,0
955192,468.65,854,766,0
955202,435.37,854,767,0
955212,406.11,854,765,0
955223,380.84,854,767,0
955233,360.66,854,766,0
955243,345.12,854,767,0
955253,334.97,854,766,0
955264,329.53,854,767,0
955273,329.12,854,766,0
955283,332.42,854,767,0
955293,339.50,854,766,0
955303,348.56,854,767,0
955313,359.41,854,766,0
955323,370.04,854,767,0
955333,380.44,854,766,0
955343,389.05,854,766,0
955353,396.19,854,766,0
955363,400.55,854,767,0
955373,402.91,854,766,0
955383,402.47,854,767,0
955393,400.40,854,766,0
955403,396.04,854,767,0
955413,390.75,854,766,0
955423,384.01,854,766,0
955433,377.32,854,767,0
955443,370.07,854,767,0
955453,363.45,854,766,0
955463,356.80,854,766,0
955473,351.37,854,767,0
955483,346.55,854,767,0
955493,343.17,854,766,0
955503,340.29,854,767,0
955513,338.96,854,766,0
955523,338.29,854,767,0
955533,338.97,854,766,0
955543,339.84,854,766,0
955553,341.51,854,767,0
955564,343.07,854,766,0
955574,345.32,854,767,0
955584,347.03,854,766,0
955594,349.08,854,767,0
955604,350.42,854,766,0
955614,352.05,854,767,0
955624,352.85,854,766,0
955634,353.75,854,767,0
955644,353.66,854,766,0
955654,353.63,854,767,0
955664,352.80,854,766,0
955674,352.43,854,767,0
955684,351.83,854,766,0
955694,352.78,854,767,0
955704,355.59,854,766,0
955714,363.00,854,767,0
955724,375.68,854,766,0
955735,396.39,854,767,0
955745,425.33,854,766,0
955755,463.20,854,767,0
955774,506.09,806,766,0
955778,551.36,806,768,0
955787,595.57,806,766,0
955797,636.63,806,768,0
955807,671.54,806,766,0
955817,699.02,806,768,0
955827,718.21,806,766,0
955837,731.69,806,768,0
955847,741.13,806,766,0
955857,747.73,806,768,0
955867,750.90,806,766,0
955877,749.60,806,768,0
955887,742.56,806,766,0
955897,729.62,806,768,0
955907,710.32,806,765,0
955917,685.11,806,767,0
955927,653.75,806,765,0
955937,618.47,806,768,0
955948,580.78,806,765,0
955958,543.13,806,768,0
955968,506.28,806,764,0
955978,471.74,806,769,0
955988,439.67,806,764,0
955998,411.36,806,768,0
956008,386.65,806,764,0
956018,366.70,806,768,0
956028,351.45,806,764,0
956038,341.41,806,769,0
956048,335.97,806,764,0
956058,335.25,806,768,0
956068,338.26,806,764,0
956078,344.70,806,768,0
956088,353.02,806,764,0
956098,362.48,806,768,0
956108,371.85,806,764,0
956119,380.73,806,768,0
956129,388.05,806,764,0
956139,393.65,806,768,0
956149,396.88,806,764,0
956160,398.03,806,768,0
956169,396.99,806,764,0
956179,394.21,806,768,0
956189,389.65,806,764,0
956199,383.88,806,768,0
956209,377.27,806,764,0
956219,370.29,806,768,0
956229,363.43,806,764,0
956239,356.96,806,768,0
956249,351.19,806,764,0
956259,346.33,806,768,0
956269,342.55,806,764,0
956279,339.68,806,768,0
956289,337.76,806,764,0
956299,336.63,806,768,0
956309,336.40,806,764,0
956319,336.62,806,768,0
956329,337.38,806,765,0
956339,338.42,806,768,0
956349,339.80,806,764,0
956359,341.31,806,768,0
956369,342.93,806,765,0
956379,344.37,806,768,0
956389,345.67,806,764,0
956399,346.58,806,768,0
956409,347.35,806,765,0
956419,347.98,806,768,0
956429,348.58,806,764,0
956439,348.96,806,768,0
956449,349.28,806,765,0
956460,349.41,806,767,0
956470,349.67,806,765,0
956480,349.56,806,767,0
956490,349.47,806,766,0
956500,349.16,806,767,0
956510,349.58,806,765,0
956520,351.47,806,767,0
956530,356.81,806,766,0
956540,366.94,806,767,0
956550,384.01,806,765,0
956560,409.21,806,767,0
956579,444.12,805,766,0
956582,485.61,805,766,0
956591,530.73,805,766,0
956601,576.11,805,767,0
956611,619.23,805,766,0
956621,657.44,805,767,0
956631,688.59,805,766,0
956641,710.96,805,767,0
956651,726.65,805,766,0
956661,737.64,805,767,0
956672,745.34,805,766,0
956681,750.68,805,767,0
956691,754.46,805,766,0
956701,756.04,805,767,0
956711,754.01,805,766,0
956721,746.85,805,767,0
956731,734.21,805,766,0
956741,715.12,805,767,0
956751,689.97,805,766,0
956761,658.44,805,767,0
956771,622.26,805,766,0
956781,583.10,805,767,0
956791,543.60,805,767,0
956801,504.59,805,767,0
956811,468.20,805,767,0
956821,434.28,805,767,0
956831,404.50,805,766,0
956841,378.76,805,766,0
956851,358.43,805,766,0
956861,342.79,805,767,0
956871,332.70,805,766,0
956881,327.09,805,766,0
956891,326.55,805,766,0
956901,329.43,805,767,0
956911,335.73,805,767,0
956921,343.52,805,766,0
956931,352.88,805,766,0
956941,361.92,805,767,0
956951,370.77,805,766,0
956961,377.91,805,766,0
956972,383.77,805,767,0
956982,386.96,805,766,0
956992,388.52,805,767,0
957002,387.46,805,765,0
957012,384.97,805,767,0
957022,380.48,805,766,0
957032,375.28,805,767,0
957042,368.89,805,766,0
957052,362.88,805,767,0
957062,356.49,805,766,0
957072,351.11,805,767,0
957082,345.85,805,765,0
957092,341.87,805,767,0
957102,338.26,805,766,0
957112,336.00,805,767,0
957122,333.90,805,765,0
957132,333.07,805,767,0
957143,332.28,805,766,0
957153,332.67,805,767,0
957163,332.90,805,765,0
957173,333.96,805,767,0
957184,334.65,805,766,0
957193,336.13,805,767,0
957203,337.08,805,765,0
957213,338.55,805,767,0
957223,339.37,805,766,0
957233,340.63,805,767,0
957243,341.13,805,765,0
957253,341.99,805,767,0
957263,342.08,805,766,0
957273,342.53,805,767,0
957283,342.24,805,765,0
957293,342.38,805,768,0
957303,341.92,805,766,0
957313,342.08,805,767,0
957323,341.67,805,765,0
957333,341.85,805,767,0
957343,341.51,805,766,0
957353,341.74,805,767,0
957363,341.35,805,766,0
957373,341.42,805,767,0
957383,340.86,805,766,0
957393,341.03,805,767,0
957403,341.24,805,765,0
957413,343.52,805,767,0
957423,348.21,805,766,0
957433,358.09,805,767,0
957452,373.75,873,766,0
957455,398.77,873,768,0
957464,433.21,873,765,0
957474,475.02,873,768,0
957484,520.44,873,766,0
957494,567.07,873,768,0
957504,611.49,873,766,0
957514,651.84,873,768,0
957524,684.42,873,766,0
957534,708.12,873,768,0
957544,724.71,873,766,0
957554,736.37,873,768,0
957564,744.49,873,766,0
957574,750.17,873,768,0
957584,754.10,873,766,0
957594,756.90,873,768,0
957604,757.10,873,766,0
957614,753.60,873,767,0
957624,744.59,873,765,0
957634,729.76,873,768,0
957644,708.19,873,766,0
957655,680.06,873,767,0
957665,645.20,873,766,0
957675,606.01,873,768,0
957685,564.18,873,764,0
957696,522.38,873,768,0
957705,481.72,873,765,0
957715,444.26,873,768,0
957725,410.54,873,764,0
957735,381.88,873,769,0
957745,358.34,873,765,0
957755,340.67,873,768,0
957765,328.47,873,764,0
957775,321.81,873,768,0
957785,319.68,873,766,0
957795,322.01,873,768,0
957805,327.32,873,764,0
957815,335.07,873,768,0
957825,343.79,873,766,0
957835,353.20,873,768,0
957845,362.05,873,764,0
957855,370.09,873,768,0
957865,376.24,873,764,0
957875,380.67,873,768,0
957885,382.78,873,764,0
957895,383.15,873,768,0
957905,381.47,873,764,0
957915,378.50,873,768,0
957925,374.19,873,764,0
957935,369.29,873,768,0
957945,363.89,873,764,0
957955,358.78,873,768,0
957965,353.70,873,764,0
957975,349.25,873,768,0
957985,345.15,873,764,0
957996,341.93,873,768,0
958006,339.34,873,764,0
958016,337.52,873,768,0
958026,336.21,873,765,0
958036,335.67,873,768,0
958046,335.47,873,764,0
958056,335.67,873,768,0
958066,336.16,873,765,0
958076,336.84,873,768,0
958086,337.70,873,765,0
958096,338.69,873,768,0
958106,339.73,873,765,0
958116,340.71,873,768,0
958126,341.61,873,764,0
958136,342.20,873,768,0
958146,342.78,873,765,0
958156,343.15,873,768,0
958167,343.36,873,765,0
958177,343.25,873,767,0
958187,343.09,873,766,0
958197,342.72,873,767,0
958208,342.63,873,766,0
958217,342.40,873,767,0
958227,342.28,873,766,0
958237,341.98,873,767,0
958247,341.90,873,766,0
958257,341.72,873,767,0
958267,341.84,873,766,0
958277,341.55,873,767,0
958287,341.47,873,766,0
958297,341.11,873,768,0
958307,340.91,873,766,0
958317,340.34,873,767,0
958327,340.06,873,766,0
958337,339.62,873,767,0
958347,339.90,873,766,0
958357,340.70,873,767,0
958367,343.71,873,766,0
958377,349.84,873,767,0
958387,361.07,873,766,0
958406,378.75,954,765,0
958409,406.00,954,768,0
958418,442.64,954,767,0
958428,485.69,954,766,0
958438,531.64,954,767,0
958448,577.95,954,767,0
958458,621.81,954,767,0
958468,660.78,954,766,0
958478,691.45,954,767,0
958488,713.08,954,766,0
958498,728.19,954,767,0
958508,738.80,954,766,0
958518,746.19,954,767,0
958528,751.40,954,767,0
958538,755.01,954,767,0
958548,757.58,954,766,0
958558,757.75,954,767,0
958568,753.97,954,766,0
958578,744.25,954,767,0
958588,728.32,954,766,0
958598,705.42,954,767,0
958608,675.81,954,766,0
958618,639.22,954,767,0
958628,598.14,954,766,0
958638,554.47,954,767,0
958648,511.47,954,766,0
958658,469.97,954,767,0
958668,432.22,954,766,0
958679,398.51,954,766,0
958689,370.72,954,767,0
958699,348.34,954,766,0
958709,332.60,954,767,0
958720,322.48,954,766,0
958729,318.35,954,767,0
958739,318.54,954,766,0
958749,323.48,954,767,0
958759,330.88,954,766,0
958769,340.77,954,767,0
958779,351.04,954,766,0
958789,361.74,954,767,0
958799,371.21,954,766,0
958809,379.84,954,767,0
958819,385.89,954,766,0
958829,390.21,954,767,0
958839,391.60,954,766,0
958849,391.34,954,767,0
958859,388.62,954,766,0
958869,384.79,954,767,0
958879,379.15,954,766,0
958889,373.28,954,767,0
958899,366.55,954,766,0
958909,360.52,954,767,0
958919,354.28,954,766,0
958929,349.22,954,767,0
958939,344.48,954,766,0
958949,341.25,954,767,0
958959,338.35,954,766,0
958969,336.87,954,767,0
958979,335.50,954,766,0
958989,335.30,954,767,0
958999,335.13,954,766,0
959009,336.07,954,767,0
959020,336.82,954,766,0
959030,338.46,954,767,0
959040,339.70,954,766,0
959050,341.63,954,768,0
959060,343.07,954,766,0
959070,344.81,954,767,0
959080,345.59,954,766,0
959090,346.53,954,767,0
959100,346.54,954,766,0
959110,346.68,954,767,0
959120,345.96,954,766,0
959130,345.59,954,768,0
959140,344.55,954,766,0
959150,344.00,954,767,0
959160,342.89,954,766,0
959170,342.54,954,768,0
959180,341.90,954,766,0
959191,342.02,954,768,0
959201,341.76,954,765,0
959211,342.17,954,768,0
959221,342.21,954,765,0
959232,342.92,954,768,0
959241,342.90,954,766,0
959251,343.31,954,768,0
959261,343.26,954,765,0
959271,343.91,954,768,0
959281,344.84,954,766,0
959291,347.93,954,768,0
959301,353.57,954,766,0
959311,364.50,954,768,0
959321,381.23,954,766,0
959340,406.32,934,765,0
959343,440.60,934,764,0
959352,481.86,934,769,0
959362,526.47,934,765,0
959372,571.97,934,768,0
959382,615.10,934,766,0
959392,653.98,934,769,0
959403,685.92,934,764,0
959412,709.04,934,768,0
959422,725.23,934,765,0
959432,736.56,934,769,0
959442,744.49,934,764,0
959452,750.04,934,768,0
959462,753.93,934,765,0
959472,754.89,934,769,0
959482,750.94,934,764,0
959492,741.49,934,768,0
959502,725.36,934,765,0
959512,702.41,934,768,0
959522,672.41,934,764,0
959532,636.12,934,768,0
959542,595.37,934,765,0
959552,553.21,934,768,0
959562,511.06,934,764,0
959572,471.36,934,769,0
959582,435.08,934,765,0
959592,403.73,934,768,0
959602,377.20,934,764,0
959612,356.44,934,769,0
959622,341.22,934,765,0
959632,331.98,934,769,0
959642,327.74,934,764,0
959652,328.29,934,768,0
959662,332.41,934,765,0
959672,339.78,934,768,0
959682,349.15,934,764,0
959692,359.99,934,769,0
959703,370.88,934,764,0
959713,381.37,934,768,0
959723,390.43,934,764,0
959733,397.63,934,768,0
959744,402.41,934,765,0
959753,404.77,934,768,0
959763,404.37,934,764,0
959773,401.52,934,768,0
959783,396.65,934,765,0
959793,390.37,934,768,0
959803,383.23,934,764,0
959813,375.70,934,768,0
959823,368.25,934,765,0
959833,361.36,934,768,0
959843,355.25,934,764,0
959853,350.08,934,768,0
959863,345.90,934,765,0
959873,342.76,934,768,0
959883,340.51,934,765,0
959893,338.99,934,768,0
959903,338.22,934,765,0
959913,338.03,934,768,0
959923,338.32,934,764,0
959933,338.87,934,768,0
959943,339.59,934,765,0
959953,340.36,934,768,0
959963,341.41,934,764,0
959973,342.48,934,768,0
959983,343.71,934,765,0
959993,344.83,934,768,0
960003,345.91,934,764,0
960013,346.96,934,768,0
960023,348.17,934,765,0
960033,349.06,934,768,0
960044,349.86,934,765,0
960054,350.33,934,767,0
960064,350.79,934,766,0
960074,350.89,934,767,0
960084,350.88,934,766,0
960094,350.40,934,767,0
960104,349.90,934,766,0
960114,349.16,934,767,0
960124,349.07,934,766,0
960134,349.90,934,767,0
960144,353.32,934,766,0
960154,360.21,934,767,0
960164,373.00,934,766,0
960174,392.76,934,767,0
960193,421.42,853,766,0
960196,458.79,853,768,0
960205,501.63,853,767,0
960215,546.70,853,767,0
960225,591.49,853,766,0
960235,632.83,853,767,0
960245,668.84,853,767,0
960256,697.17,853,767,0
960265,717.05,853,766,0
960275,730.96,853,767,0
960285,740.75,853,767,0
960295,747.55,853,767,0
960305,752.36,853,766,0
960315,755.68,853,767,0
960325,758.05,853,767,0
960335,757.05,853,766,0
960345,751.72,853,766,0
960355,740.32,853,767,0
960365,722.61,853,767,0
960375,697.65,853,766,0
960385,666.21,853,766,0
960395,628.05,853,767,0
960405,586.64,853,767,0
960415,543.33,853,767,0
960425,501.32,853,767,0
960435,461.32,853,767,0
960445,425.78,853,766,0
960455,394.52,853,766,0
960465,369.25,853,767,0
960475,349.50,853,767,0
960485,336.24,853,766,0
960495,328.32,853,767,0
960505,326.34,853,767,0
960515,328.55,853,767,0
960525,335.03,853,767,0
960535,343.59,853,767,0
960545,354.21,853,767,0
960556,364.99,853,766,0
960566,375.84,853,767,0
960576,384.80,853,766,0
960586,392.36,853,767,0
960596,396.97,853,766,0
960606,399.63,853,767,0
960616,399.27,853,766,0
960626,397.22,853,767,0
960636,392.65,853,766,0
960646,387.31,853,767,0
960656,380.45,853,766,0
960666,373.76,853,767,0
960676,366.42,853,766,0
960686,359.99,853,767,0
960696,353.74,853,766,0
960706,348.97,853,767,0
960716,344.52,853,766,0
960727,341.62,853,767,0
960737,339.21,853,766,0
960747,338.42,853,767,0
960757,337.91,853,766,0
960768,338.45,853,768,0
960777,338.91,853,766,0
960787,340.31,853,767,0
960797,341.29,853,766,0
960807,342.75,853,768,0
960817,343.46,853,766,0
960827,344.53,853,767,0
960837,344.71,853,766,0
960847,345.27,853,767,0
960857,345.10,853,766,0
960867,345.46,853,767,0
960877,345.32,853,766,0
960887,345.65,853,768,0
960897,345.50,853,766,0
960907,345.91,853,767,0
960917,345.63,853,766,0
960927,345.83,853,768,0
960937,345.45,853,766,0
960947,345.62,853,767,0
960957,345.56,853,766,0
960967,346.46,853,768,0
960977,348.17,853,766,0
960987,352.62,853,767,0
960997,360.15,853,766,0
961007,373.73,853,768,0
961017,394.21,853,766,0
961036,423.76,843,764,0
961039,461.55,843,766,0
961048,504.67,843,768,0
961058,549.81,843,766,0
961068,594.74,843,767,0
961078,636.00,843,766,0
961088,671.53,843,768,0
961098,699.01,843,766,0
961108,718.25,843,767,0
961118,731.72,843,766,0
961128,741.15,843,768,0
961138,747.75,843,766,0
961148,752.36,843,767,0
961158,755.56,843,766,0
961168,757.83,843,768,0
961178,758.91,843,766,0
961188,756.84,843,768,0
961198,749.77,843,766,0
961208,736.94,843,768,0
961218,717.07,843,766,0
961228,690.31,843,768,0
961239,656.32,843,766,0
961249,616.32,843,768,0
961259,572.68,843,765,0
961269,528.46,843,768,0
961280,485.12,843,764,0
961289,445.32,843,768,0
961299,409.69,843,765,0
961309,379.87,843,768,0
961319,355.82,843,764,0
961329,338.48,843,768,0
961339,327.15,843,765,0
961349,321.92,843,768,0
961359,321.69,843,764,0
961369,325.94,843,768,0
961379,333.11,843,765,0
961389,342.64,843,769,0
961399,352.99,843,764,0
961409,363.58,843,768,0
961419,373.09,843,765,0
961429,381.21,843,769,0
961439,387.06,843,764,0
961449,390.86,843,768,0
961459,392.10,843,764,0
961469,391.30,843,769,0
961479,388.29,843,764,0
961489,384.01,843,768,0
961499,378.35,843,764,0
961509,372.24,843,769,0
961519,365.74,843,764,0
961529,359.52,843,768,0
961539,353.53,843,765,0
961549,348.49,843,769,0
961559,344.14,843,764,0
961569,340.80,843,768,0
961580,338.25,843,765,0
961590,336.54,843,769,0
961600,335.52,843,764,0
961610,335.15,843,768,0
961620,335.23,843,765,0
961630,335.64,843,768,0
961640,336.22,843,764,0
961650,336.97,843,768,0
961660,337.88,843,765,0
961670,338.86,843,768,0
961680,339.84,843,764,0
961690,340.66,843,768,0
961700,341.49,843,765,0
