Time,PPG,IBI,GSR,GSR_Event
3819,303.00,0,765,0
3829,308.70,0,767,0
3840,314.83,0,765,0
3849,320.76,0,767,0
3859,326.06,0,766,0
3869,330.41,0,767,0
3879,333.59,0,765,0
3889,337.57,0,767,0
3899,341.60,0,766,0
3909,344.42,0,767,0
3919,345.84,0,765,0
3929,345.76,0,767,0
3939,344.33,0,765,0
3949,341.62,0,767,0
3959,338.17,0,765,0
3969,334.18,0,767,0
3979,330.23,0,766,0
3989,326.30,0,767,0
3999,322.82,0,765,0
4009,319.79,0,767,0
4019,317.54,0,765,0
4029,315.88,0,766,0
4039,314.93,0,765,0
4049,314.39,0,766,0
4059,314.49,0,765,0
4069,314.99,0,767,0
4079,316.06,0,765,0
4089,317.41,0,766,0
4099,319.18,0,765,0
4109,321.14,0,767,0
4119,323.37,0,765,0
4129,325.44,0,767,0
4140,327.41,0,766,0
4150,328.87,0,766,0
4160,330.20,0,765,0
4170,330.95,0,766,0
4180,331.65,0,766,0
4190,331.89,0,766,0
4200,332.22,0,766,0
4210,332.03,0,766,0
4220,332.10,0,766,0
4230,331.82,0,766,0
4240,331.87,0,765,0
4250,331.52,0,766,0
4260,331.45,0,766,0
4270,331.06,0,766,0
4280,331.13,0,766,0
4290,330.79,0,766,0
4300,330.81,0,766,0
4311,330.82,0,766,0
4321,332.29,0,766,0
4331,335.72,0,766,0
4341,343.60,0,766,0
4352,357.52,0,766,0
4370,380.08,792,766,0
4373,414.17,792,767,0
4382,456.33,792,768,0
4392,503.03,792,767,0
4402,551.67,792,767,0
4412,598.78,792,767,0
4422,641.75,792,768,0
4432,677.74,792,767,0
4442,703.02,792,767,0
4452,720.71,792,767,0
4462,733.14,792,768,0
4472,741.84,792,767,0
4482,747.93,792,767,0
4492,752.20,792,767,0
4502,755.22,792,768,0
4512,757.34,792,767,0
4523,758.82,792,768,0
4532,759.82,792,767,0
4542,760.56,792,768,0
4552,761.08,792,767,0
4562,761.44,792,768,0
4572,758.22,792,766,0
4582,749.76,792,768,0
4592,733.80,792,766,0
4602,710.20,792,768,0
4612,678.51,792,766,0
4622,639.57,792,767,0
4632,593.46,792,767,0
4642,545.15,792,768,0
4652,496.85,792,766,0
4662,452.71,792,767,0
4672,413.37,792,767,0
4682,381.16,792,767,0
4692,355.48,792,766,0
4702,337.64,792,767,0
4712,325.96,792,767,0
4722,320.96,792,767,0
4732,320.33,792,766,0
4742,324.09,792,767,0
4752,329.59,792,767,0
4762,337.08,792,768,0
4772,344.22,792,766,0
4782,351.39,792,767,0
4792,356.85,792,767,0
4802,361.44,792,767,0
4812,363.79,792,766,0
4823,365.10,792,767,0
4833,364.08,792,766,0
4843,362.39,792,768,0
4853,359.14,792,766,0
4864,355.84,792,768,0
4873,351.48,792,767,0
4883,347.65,792,768,0
4893,343.34,792,766,0
4903,340.15,792,768,0
4913,336.89,792,767,0
4923,334.82,792,768,0
4933,332.78,792,766,0
4943,331.94,792,768,0
4953,331.06,792,766,0
4963,331.30,792,768,0
4973,331.38,792,766,0
4983,332.38,792,768,0
4993,333.12,792,767,0
5003,334.67,792,768,0
5013,335.76,792,766,0
5023,337.50,792,768,0
5033,338.64,792,766,0
5043,340.29,792,768,0
5053,341.23,792,766,0
5063,342.53,792,768,0
5073,342.93,792,766,0
5083,343.77,792,768,0
5093,343.75,792,767,0
5103,344.13,792,768,0
5113,343.74,792,766,0
5123,343.78,792,768,0
5133,343.03,792,767,0
5143,342.85,792,767,0
5153,342.08,792,766,0
5164,341.97,792,768,0
5174,341.38,792,766,0
5184,341.22,792,768,0
5194,340.56,792,766,0
5204,340.39,792,768,0
5214,339.54,792,766,0
5224,338.95,792,768,0
5234,337.77,792,766,0
5244,337.62,792,768,0
5254,338.46,792,766,0
5264,342.91,792,768,0
5274,351.89,792,766,0
5284,368.60,792,768,0
5303,393.70,933,767,0
5305,429.84,933,768,0
5315,472.70,933,766,0
5325,519.72,933,768,0
5335,567.16,933,766,0
5345,612.58,933,767,0
5355,652.57,933,766,0
5365,685.40,933,768,0
5376,708.38,933,766,0
5385,724.46,933,767,0
5395,735.72,933,766,0
5405,743.65,933,768,0
5415,749.20,933,766,0
5425,753.08,933,767,0
5435,755.80,933,766,0
5445,757.75,933,768,0
5455,759.11,933,766,0
5465,760.06,933,768,0
5475,758.59,933,766,0
5485,752.62,933,768,0
5495,740.05,933,766,0
5505,720.36,933,768,0
5515,692.57,933,766,0
5525,657.17,933,768,0
5535,614.35,933,766,0
5545,567.14,933,768,0
5555,518.59,933,766,0
5565,472.21,933,768,0
5575,429.46,933,766,0
5585,392.72,933,768,0
5595,362.38,933,766,0
5605,339.42,933,768,0
5615,323.35,933,766,0
5625,314.08,933,768,0
5635,310.24,933,766,0
5645,311.45,933,768,0
5655,315.90,933,766,0
5665,322.92,933,768,0
5676,330.83,933,766,0
5686,339.07,933,768,0
5696,346.37,933,766,0
5706,352.52,933,768,0
5716,356.65,933,766,0
5726,359.07,933,768,0
5736,359.26,933,766,0
5746,357.77,933,768,0
5756,354.54,933,766,0
5766,350.31,933,768,0
5776,345.24,933,766,0
5786,339.86,933,768,0
5796,334.41,933,766,0
5806,329.36,933,768,0
5816,324.80,933,766,0
5826,321.13,933,768,0
5836,318.22,933,766,0
5847,316.22,933,768,0
5857,315.17,933,766,0
5867,314.82,933,768,0
5877,315.39,933,766,0
5888,316.43,933,767,0
5897,317.97,933,766,0
5907,319.87,933,768,0
5917,322.05,933,766,0
5927,324.13,933,767,0
5937,326.28,933,766,0
5947,328.08,933,768,0
5957,329.81,933,766,0
5967,331.07,933,767,0
5977,332.08,933,766,0
5987,332.74,933,767,0
5997,333.42,933,766,0
6007,333.76,933,767,0
6017,334.09,933,766,0
6027,334.24,933,768,0
6037,334.55,933,766,0
6047,334.64,933,767,0
6057,334.88,933,767,0
6067,334.79,933,768,0
6077,334.76,933,766,0
6087,334.45,933,767,0
6097,334.23,933,767,0
6107,333.73,933,768,0
6117,333.26,933,766,0
6127,332.54,933,767,0
6137,332.59,933,767,0
6147,334.04,933,768,0
6157,338.57,933,766,0
6167,347.74,933,767,0
6177,363.98,933,767,0
6197,388.97,894,766,0
6199,424.98,894,768,0
6209,468.06,894,767,0
6219,515.14,894,767,0
6230,563.10,894,767,0
6239,609.05,894,767,0
6249,649.97,894,767,0
6259,683.53,894,767,0
6269,707.07,894,767,0
6279,723.55,894,767,0
6289,735.09,894,767,0
6299,743.16,894,767,0
6309,748.81,894,767,0
6319,752.77,894,767,0
6329,755.54,894,767,0
6339,757.52,894,767,0
6349,758.26,894,767,0
6359,755.83,894,767,0
6369,747.74,894,767,0
6379,733.20,894,767,0
6389,710.94,894,767,0
6400,681.22,894,767,0
6409,643.99,894,767,0
6419,600.88,894,767,0
6429,554.12,894,767,0
6439,507.84,894,767,0
6449,463.57,894,767,0
6459,424.44,894,767,0
6469,390.75,894,767,0
6479,364.17,894,767,0
6489,343.89,894,767,0
6499,331.15,894,767,0
6509,324.46,894,767,0
6519,324.07,894,767,0
6529,327.60,894,767,0
6539,335.01,894,767,0
6549,343.88,894,767,0
6559,354.37,894,767,0
6569,364.20,894,766,0
6579,373.40,894,767,0
6589,380.18,894,767,0
6599,385.27,894,767,0
6609,387.29,894,767,0
6619,387.42,894,767,0
6629,384.68,894,767,0
6639,380.57,894,767,0
6649,374.40,894,767,0
6659,367.81,894,767,0
6669,360.20,894,767,0
6679,353.19,894,767,0
6689,345.85,894,766,0
6700,339.81,894,768,0
6710,334.00,894,767,0
6720,329.88,894,768,0
6730,326.19,894,766,0
6740,324.20,894,768,0
6750,322.64,894,767,0
6760,322.79,894,768,0
6770,323.11,894,766,0
6780,324.79,894,768,0
6790,326.40,894,767,0
6800,329.02,894,768,0
6810,331.16,894,766,0
6820,333.98,894,768,0
6830,336.09,894,767,0
6840,338.68,894,768,0
6850,340.32,894,766,0
6860,342.19,894,768,0
6871,342.99,894,767,0
6881,344.02,894,768,0
6891,343.97,894,766,0
6901,344.15,894,768,0
6912,343.64,894,766,0
6921,344.43,894,768,0
6931,346.40,894,766,0
6941,352.50,894,768,0
6951,363.32,894,766,0
6961,381.91,894,768,0
6971,408.76,894,766,0
6981,445.69,894,768,0
6991,488.47,894,767,0
7010,534.61,813,766,0
7012,580.46,813,767,0
7022,623.74,813,768,0
7032,661.36,813,767,0
7042,691.68,813,768,0
7052,712.90,813,766,0
7062,727.76,813,768,0
7072,738.12,813,767,0
7083,745.33,813,768,0
7092,750.33,813,766,0
7102,753.87,813,768,0
7112,756.35,813,766,0
7122,756.80,813,768,0
7132,752.88,813,767,0
7142,743.61,813,768,0
7152,727.49,813,766,0
7162,704.50,813,768,0
7172,674.09,813,766,0
7182,637.12,813,768,0
7192,594.74,813,766,0
7202,550.59,813,768,0
7212,506.36,813,766,0
7222,464.94,813,768,0
7232,426.94,813,766,0
7242,394.43,813,768,0
7252,367.17,813,766,0
7262,346.55,813,768,0
7272,331.81,813,766,0
7282,323.51,813,768,0
7292,320.32,813,767,0
7302,322.32,813,767,0
7312,327.58,813,766,0
7322,335.98,813,768,0
7332,345.59,813,766,0
7342,356.30,813,767,0
7352,366.06,813,766,0
7362,375.09,813,768,0
7372,381.88,813,766,0
7383,386.97,813,767,0
7393,389.25,813,766,0
7403,389.52,813,768,0
7413,387.09,813,766,0
7424,383.04,813,768,0
7433,376.98,813,766,0
7443,370.22,813,768,0
7453,362.48,813,766,0
7463,354.84,813,767,0
7473,347.17,813,766,0
7483,340.43,813,768,0
7493,334.43,813,766,0
7503,329.72,813,767,0
7513,325.82,813,766,0
7523,323.34,813,768,0
7533,321.70,813,766,0
7543,321.15,813,767,0
7553,321.02,813,766,0
7563,321.87,813,768,0
7573,323.15,813,766,0
7583,325.08,813,767,0
7593,327.07,813,766,0
7603,329.66,813,768,0
7613,332.12,813,766,0
7623,334.78,813,768,0
7633,336.91,813,766,0
7643,338.95,813,768,0
7653,340.59,813,766,0
7663,342.51,813,768,0
7673,345.23,813,766,0
7683,350.61,813,768,0
7693,360.02,813,766,0
7703,376.09,813,768,0
7713,400.23,813,766,0
7724,434.28,813,768,0
7734,475.42,813,766,0
7744,520.55,813,768,0
7754,566.72,813,766,0
7774,611.20,763,766,0
7776,650.91,763,767,0
7786,683.60,763,767,0
7796,707.25,763,767,0
7806,723.80,763,767,0
7816,735.43,763,767,0
7826,743.53,763,767,0
7836,749.24,763,767,0
7846,753.20,763,767,0
7856,756.01,763,767,0
7866,757.94,763,767,0
7876,759.33,763,767,0
7886,758.29,763,767,0
7896,753.27,763,767,0
7906,742.39,763,767,0
7916,725.00,763,767,0
7926,700.06,763,767,0
7937,667.94,763,767,0
7947,628.36,763,767,0
7957,584.37,763,767,0
7967,537.80,763,767,0
7977,492.13,763,767,0
7987,448.59,763,767,0
7997,409.80,763,767,0
8007,375.96,763,767,0
8017,348.93,763,767,0
8027,327.86,763,767,0
8037,313.85,763,767,0
8047,305.41,763,767,0
8057,302.80,763,767,0
8067,304.10,763,767,0
8077,309.17,763,767,0
8087,315.76,763,767,0
8097,323.93,763,767,0
8108,331.71,763,767,0
8118,339.17,763,767,0
8128,344.65,763,767,0
8138,348.78,763,768,0
8148,350.48,763,767,0
8158,350.80,763,767,0
8168,348.93,763,767,0
8178,346.17,763,768,0
8188,341.79,763,767,0
8198,337.44,763,767,0
8208,332.25,763,767,0
8218,327.59,763,768,0
8228,322.53,763,767,0
8238,318.51,763,767,0
8248,314.54,763,767,0
8258,311.89,763,768,0
8268,309.36,763,767,0
8279,308.26,763,767,0
8289,307.33,763,767,0
8299,307.74,763,768,0
8309,307.95,763,767,0
8320,309.08,763,768,0
8329,309.83,763,767,0
8339,311.29,763,768,0
8349,312.15,763,767,0
8359,313.65,763,767,0
8369,314.52,763,767,0
8379,316.12,763,768,0
8389,317.16,763,766,0
8399,318.87,763,767,0
8409,320.15,763,767,0
8419,322.12,763,768,0
8429,323.41,763,767,0
8439,325.22,763,767,0
8449,326.18,763,767,0
8459,327.63,763,768,0
8469,328.12,763,766,0
8479,328.82,763,767,0
8489,328.66,763,767,0
8499,329.23,763,768,0
8509,329.72,763,766,0
8519,332.42,763,767,0
8529,337.65,763,766,0
8539,348.38,763,768,0
8549,365.63,763,767,0
8568,392.48,795,765,0
8570,429.36,795,767,0
8580,473.36,795,768,0
8590,520.61,795,767,0
8600,568.55,795,768,0
8610,613.94,795,767,0
8620,654.42,795,768,0
8630,686.78,795,767,0
8640,709.43,795,768,0
8650,725.24,795,766,0
8660,736.31,795,768,0
8670,744.06,795,767,0
8680,749.49,795,768,0
8690,753.24,795,767,0
8700,755.91,795,768,0
8710,757.78,795,767,0
8720,759.09,795,768,0
8730,760.01,795,766,0
8740,759.10,795,768,0
8750,753.67,795,767,0
8760,742.29,795,768,0
8770,723.13,795,766,0
8780,696.18,795,768,0
8791,661.02,795,767,0
8801,618.46,795,768,0
8811,570.32,795,766,0
8821,520.68,795,768,0
8832,471.79,795,766,0
8841,426.98,795,768,0
8851,387.22,795,766,0
8861,354.45,795,768,0
8871,328.52,795,766,0
8881,310.23,795,768,0
8891,298.51,795,766,0
8901,293.38,795,768,0
8911,293.14,795,766,0
8921,297.34,795,768,0
8931,303.88,795,766,0
8941,312.32,795,768,0
8951,320.92,795,766,0
8961,329.52,795,768,0
8971,336.60,795,766,0
8981,342.42,795,768,0
8991,345.94,795,767,0
9001,347.80,795,768,0
9011,347.43,795,766,0
9021,345.76,795,768,0
9031,342.45,795,766,0
9041,338.54,795,768,0
9051,333.75,795,766,0
9061,329.15,795,768,0
9071,324.35,795,766,0
9081,320.26,795,768,0
9091,316.37,795,766,0
9101,313.51,795,768,0
9111,311.09,795,766,0
9121,309.73,795,768,0
9132,308.74,795,766,0
9142,308.82,795,768,0
9152,309.22,795,766,0
9162,310.35,795,768,0
9172,311.62,795,766,0
9182,313.40,795,768,0
9192,315.04,795,766,0
9202,316.91,795,768,0
9212,318.44,795,766,0
9222,319.98,795,768,0
9232,321.23,795,766,0
9242,322.36,795,768,0
9252,323.15,795,766,0
9262,323.96,795,768,0
9272,324.49,795,766,0
9282,325.03,795,768,0
9292,325.36,795,766,0
9303,325.73,795,768,0
9313,326.06,795,767,0
9323,326.43,795,768,0
9333,326.73,795,766,0
9344,327.07,795,768,0
9353,327.39,795,766,0
9363,327.74,795,768,0
9373,327.99,795,766,0
9383,328.04,795,768,0
9393,328.03,795,766,0
9403,328.23,795,768,0
9413,329.49,795,766,0
9423,332.82,795,767,0
9433,339.86,795,766,0
9443,352.50,795,768,0
9462,373.09,894,767,0
9464,403.71,894,769,0
9474,443.48,894,767,0
9484,488.81,894,768,0
9494,536.65,894,767,0
9504,584.03,894,767,0
9515,628.12,894,767,0
9524,665.93,894,768,0
9534,694.79,894,767,0
9544,715.00,894,767,0
9554,729.18,894,767,0
9564,739.11,894,768,0
9574,746.07,894,767,0
9584,750.89,894,767,0
9594,754.31,894,767,0
9604,756.70,894,768,0
9614,758.38,894,767,0
9624,756.25,894,767,0
9634,748.89,894,767,0
9644,735.08,894,768,0
9654,714.27,894,767,0
9664,685.69,894,767,0
9674,650.00,894,767,0
9684,607.10,894,767,0
9694,561.38,894,767,0
9704,514.90,894,767,0
9714,470.14,894,767,0
9724,428.40,894,767,0
9734,391.81,894,767,0
9744,360.54,894,767,0
9754,335.99,894,767,0
9764,317.48,894,767,0
9774,305.38,894,767,0
9784,298.75,894,767,0
9794,297.67,894,767,0
9804,300.47,894,767,0
9815,306.80,894,767,0
9825,314.74,894,767,0
9835,324.12,894,767,0
9845,333.38,894,767,0
9856,342.44,894,767,0
9865,349.68,894,767,0
9875,355.60,894,767,0
9885,358.98,894,767,0
9895,360.79,894,767,0
9905,360.04,894,767,0
9915,358.01,894,767,0
9925,353.98,894,767,0
9935,349.49,894,767,0
9945,343.77,894,767,0
9955,338.31,894,767,0
9965,332.43,894,768,0
9975,327.54,894,767,0
9985,322.88,894,767,0
9995,319.57,894,767,0
10005,316.70,894,767,0
10015,315.38,894,767,0
10025,314.45,894,767,0
10035,314.79,894,767,0
10045,315.24,894,767,0
10055,316.67,894,767,0
10065,317.84,894,767,0
10075,319.60,894,767,0
10085,320.83,894,767,0
10095,322.64,894,767,0
10105,323.91,894,767,0
10115,325.73,894,767,0
10125,326.97,894,767,0
10135,328.82,894,767,0
10145,330.16,894,767,0
10156,332.00,894,767,0
10166,333.24,894,767,0
10176,334.93,894,768,0
10186,335.85,894,767,0
10196,337.05,894,768,0
10206,337.38,894,767,0
10216,337.91,894,768,0
10226,337.59,894,767,0
10236,337.71,894,768,0
10246,337.76,894,767,0
10256,339.80,894,768,0
10266,343.98,894,767,0
10276,353.45,894,768,0
10286,368.79,894,767,0
10296,393.15,894,768,0
10315,426.36,853,767,0
10318,467.57,853,769,0
10327,512.74,853,767,0
10337,559.58,853,768,0
10347,604.27,853,767,0
10357,644.95,853,768,0
10368,678.39,853,767,0
10377,703.65,853,768,0
10387,721.28,853,767,0
10397,733.67,853,767,0
10407,742.30,853,767,0
10417,748.38,853,768,0
10427,752.59,853,767,0
10437,753.23,853,767,0
10447,748.19,853,767,0
10457,737.29,853,768,0
10467,719.20,853,767,0
10477,694.54,853,767,0
10487,662.62,853,767,0
10497,624.64,853,768,0
10507,582.44,853,767,0
10517,539.84,853,767,0
10527,497.42,853,767,0
10537,458.21,853,768,0
10547,422.02,853,767,0
10557,391.07,853,767,0
10567,364.48,853,767,0
10577,344.15,853,768,0
10587,328.89,853,767,0
10597,319.88,853,768,0
10607,315.42,853,767,0
10617,316.06,853,768,0
10627,319.77,853,767,0
10637,326.87,853,768,0
10647,335.09,853,767,0
10657,344.58,853,768,0
10668,353.11,853,766,0
10678,360.96,853,768,0
10688,366.50,853,767,0
10698,370.42,853,768,0
10708,371.50,853,767,0
10718,370.92,853,768,0
10728,367.81,853,766,0
10738,363.67,853,768,0
10748,357.85,853,766,0
10758,351.98,853,768,0
10768,345.35,853,767,0
10778,339.37,853,768,0
10788,333.26,853,767,0
10798,328.30,853,768,0
10808,323.49,853,767,0
10818,320.05,853,768,0
10828,316.86,853,766,0
10839,315.06,853,768,0
10849,313.67,853,767,0
10859,313.55,853,768,0
10869,313.77,853,766,0
10880,315.04,853,768,0
10889,316.32,853,766,0
10899,318.32,853,768,0
10909,320.24,853,767,0
10919,322.65,853,768,0
10929,324.73,853,766,0
10939,327.04,853,768,0
10949,328.87,853,767,0
10959,330.97,853,768,0
10969,332.48,853,766,0
10979,334.05,853,768,0
10989,335.02,853,767,0
10999,336.13,853,768,0
11009,336.56,853,766,0
11019,337.21,853,768,0
11029,337.27,853,767,0
11039,337.45,853,768,0
11049,337.19,853,766,0
11059,337.22,853,768,0
11069,337.49,853,766,0
11079,339.79,853,768,0
11089,344.91,853,766,0
11099,355.18,853,768,0
11109,372.01,853,767,0
11119,397.89,853,768,0
11139,433.28,823,767,0
11142,475.80,823,768,0
11151,521.84,823,767,0
11161,568.61,823,768,0
11171,613.04,823,767,0
11181,652.71,823,768,0
11191,684.77,823,767,0
11201,707.98,823,768,0
11211,724.19,823,766,0
11222,735.53,823,768,0
11231,743.47,823,767,0
11241,749.03,823,768,0
11251,752.92,823,766,0
11261,755.64,823,768,0
11271,754.98,823,767,0
11281,749.33,823,768,0
11291,737.62,823,766,0
11301,719.13,823,768,0
11311,693.81,823,767,0
11321,661.59,823,768,0
11331,622.84,823,766,0
11341,580.42,823,768,0
11351,537.05,823,767,0
11361,494.61,823,768,0
11371,454.74,823,766,0
11381,418.47,823,768,0
11392,387.00,823,767,0
11401,360.82,823,768,0
11411,340.51,823,766,0
11421,325.92,823,768,0
11431,317.07,823,767,0
11441,313.45,823,768,0
11451,314.43,823,766,0
11461,318.80,823,768,0
11471,325.93,823,767,0
11481,334.57,823,768,0
11491,343.78,823,766,0
11501,352.46,823,768,0
11511,360.17,823,767,0
11521,366.12,823,768,0
11531,370.24,823,766,0
11541,372.01,823,768,0
11551,371.79,823,767,0
11561,369.50,823,768,0
11571,365.79,823,767,0
11581,360.63,823,768,0
11591,354.74,823,767,0
11601,348.26,823,768,0
11611,341.84,823,767,0
11621,335.63,823,768,0
11631,330.17,823,767,0
11641,325.28,823,768,0
11651,321.42,823,767,0
11661,318.42,823,768,0
11671,316.67,823,767,0
11681,315.65,823,768,0
11692,315.63,823,767,0
11702,316.08,823,767,0
11712,317.34,823,767,0
11722,318.74,823,768,0
11732,320.70,823,767,0
11742,322.42,823,767,0
11752,324.48,823,767,0
11762,326.09,823,767,0
11772,327.99,823,767,0
11782,329.45,823,767,0
11792,331.07,823,767,0
11802,332.12,823,767,0
11812,333.41,823,767,0
11822,334.19,823,767,0
11832,335.12,823,767,0
11842,335.43,823,767,0
11852,335.77,823,767,0
11863,335.50,823,767,0
11873,335.43,823,767,0
11883,335.05,823,767,0
11893,335.80,823,767,0
11904,338.05,823,767,0
11913,343.95,823,767,0
11923,354.59,823,767,0
11933,372.93,823,767,0
11943,399.61,823,767,0
11962,436.28,824,767,0
11965,479.27,824,767,0
11974,525.77,824,768,0
11984,572.43,824,767,0
11994,616.78,824,767,0
12004,655.59,824,767,0
12014,687.13,824,768,0
12024,709.59,824,766,0
12034,725.31,824,767,0
12044,736.32,824,767,0
12054,744.02,824,768,0
12064,749.42,824,767,0
12075,753.19,824,768,0
12084,753.52,824,767,0
12094,749.34,824,768,0
12104,738.91,824,766,0
12114,722.09,824,768,0
12124,698.28,824,767,0
12134,667.98,824,767,0
12144,630.79,824,767,0
12154,590.09,824,768,0
12164,547.38,824,767,0
12174,505.91,824,768,0
12184,466.04,824,767,0
12194,430.03,824,768,0
12204,397.62,824,767,0
12214,370.69,824,767,0
12224,348.45,824,767,0
12234,332.38,824,768,0
12244,321.16,824,767,0
12254,315.71,824,767,0
12264,314.26,824,767,0
12274,317.31,824,768,0
12284,322.83,824,767,0
12294,331.07,824,768,0
12304,339.45,824,767,0
12314,348.36,824,768,0
12324,355.96,824,767,0
12334,362.92,824,768,0
12344,367.48,824,767,0
12354,370.77,824,768,0
12364,371.31,824,767,0
12375,370.62,824,768,0
12385,367.56,824,767,0
12395,363.66,824,768,0
12405,357.85,824,767,0
12416,351.94,824,768,0
12425,344.89,824,767,0
12435,338.58,824,768,0
12445,331.98,824,767,0
12455,326.71,824,768,0
12465,321.65,824,767,0
12475,318.20,824,768,0
12485,315.23,824,767,0
12495,313.96,824,768,0
12505,312.94,824,767,0
12515,313.39,824,768,0
12525,313.87,824,767,0
12535,315.58,824,768,0
12545,317.21,824,767,0
12555,319.76,824,767,0
12565,321.89,824,767,0
12575,324.75,824,768,0
12585,326.97,824,767,0
12595,329.81,824,767,0
12605,331.96,824,767,0
12615,334.63,824,768,0
12625,336.33,824,766,0
12635,338.37,824,767,0
12645,339.38,824,767,0
12655,340.59,824,768,0
12665,340.80,824,767,0
12675,341.25,824,767,0
12685,340.87,824,767,0
12695,341.60,824,768,0
12705,343.22,824,767,0
12716,348.59,824,767,0
12726,358.45,824,767,0
12736,375.80,824,768,0
12746,401.14,824,767,0
12756,436.46,824,768,0
12775,478.41,813,767,0
12778,524.36,813,768,0
12787,570.58,813,767,0
12797,614.76,813,768,0
12807,653.62,813,767,0
12817,685.49,813,768,0
12827,708.49,813,767,0
12837,724.58,813,768,0
12847,735.81,813,767,0
12857,743.67,813,768,0
12867,748.22,813,767,0
12877,748.16,813,768,0
12887,742.11,813,767,0
12897,729.73,813,768,0
12907,710.27,813,767,0
12917,684.09,813,768,0
12928,651.19,813,766,0
12937,613.29,813,768,0
12947,572.53,813,767,0
12957,531.70,813,768,0
12967,491.93,813,766,0
12977,455.40,813,768,0
12987,422.32,813,767,0
12997,394.07,813,768,0
13007,370.39,813,766,0
13017,352.32,813,768,0
13027,339.19,813,766,0
13037,331.51,813,768,0
13047,328.27,813,766,0
13057,329.65,813,768,0
13067,334.08,813,767,0
13077,341.38,813,768,0
13087,349.97,813,766,0
13097,359.58,813,768,0
13107,368.66,813,767,0
13117,376.95,813,768,0
13127,383.14,813,766,0
13137,387.47,813,768,0
13147,389.13,813,767,0
13157,388.70,813,768,0
13167,385.79,813,766,0
13177,381.27,813,768,0
13187,374.89,813,767,0
13197,367.76,813,768,0
13207,359.65,813,766,0
13217,351.61,813,768,0
13228,343.50,813,766,0
13238,336.19,813,768,0
13248,329.41,813,766,0
13258,323.97,813,768,0
13268,319.52,813,767,0
13278,316.67,813,768,0
13288,314.79,813,766,0
13298,314.26,813,768,0
13308,314.74,813,767,0
13318,316.40,813,768,0
13328,318.60,813,766,0
13338,321.37,813,768,0
13348,324.39,813,767,0
13358,327.79,813,768,0
13368,331.11,813,766,0
13378,334.20,813,768,0
13388,336.84,813,767,0
13399,339.12,813,768,0
13409,340.88,813,766,0
13419,342.08,813,768,0
13429,342.82,813,767,0
13440,343.35,813,768,0
13449,344.36,813,766,0
13459,347.04,813,768,0
13469,353.07,813,767,0
13479,364.19,813,768,0
13489,382.18,813,766,0
13499,408.61,813,768,0
13509,444.43,813,767,0
13519,486.64,813,768,0
13529,532.05,813,767,0
13548,577.55,773,766,0
13551,620.46,773,768,0
13560,658.33,773,768,0
13570,688.92,773,767,0
13580,710.89,773,768,0
13590,726.26,773,767,0
13600,737.03,773,768,0
13611,744.56,773,767,0
13620,749.79,773,768,0
13630,750.97,773,767,0
13640,746.56,773,768,0
13650,736.20,773,767,0
13660,719.38,773,768,0
13670,696.17,773,767,0
13680,666.42,773,767,0
13690,630.85,773,767,0
13700,592.19,773,767,0
13710,553.05,773,767,0
13720,514.42,773,767,0
13730,477.91,773,767,0
13740,444.12,773,768,0
13750,414.26,773,767,0
13760,388.12,773,767,0
13770,366.70,773,767,0
13780,349.73,773,767,0
13790,337.94,773,767,0
13800,330.54,773,768,0
13810,327.98,773,767,0
13820,328.97,773,767,0
13830,333.48,773,767,0
13840,339.85,773,768,0
13850,347.95,773,767,0
13860,356.20,773,767,0
13870,364.54,773,767,0
13880,371.40,773,768,0
13890,377.07,773,767,0
13900,380.43,773,767,0
13911,382.10,773,767,0
13921,381.30,773,767,0
13931,378.90,773,767,0
13941,374.34,773,767,0
13952,368.84,773,767,0
13961,362.12,773,767,0
13971,355.40,773,767,0
13981,348.12,773,767,0
13991,341.70,773,767,0
14001,335.53,773,767,0
14011,330.79,773,767,0
14021,326.44,773,767,0
14031,323.65,773,767,0
14041,321.35,773,767,0
14051,320.60,773,767,0
14061,320.17,773,767,0
14071,320.84,773,767,0
14081,321.53,773,767,0
14091,323.26,773,767,0
14101,324.68,773,767,0
14111,326.75,773,767,0
14121,328.28,773,767,0
14131,330.21,773,767,0
14141,331.52,773,767,0
14151,333.16,773,767,0
14161,334.06,773,767,0
14171,335.20,773,767,0
14181,335.52,773,767,0
14191,336.22,773,767,0
14201,336.16,773,767,0
14211,336.41,773,767,0
14221,335.86,773,767,0
14231,335.69,773,767,0
14241,334.84,773,767,0
14252,334.76,773,767,0
14262,334.92,773,767,0
14272,337.86,773,768,0
14282,344.07,773,767,0
14292,356.73,773,768,0
14302,376.19,773,767,0
14312,405.19,773,768,0
14331,443.36,783,767,0
14334,487.91,783,768,0
14343,534.78,783,767,0
14353,581.56,783,768,0
14363,624.68,783,767,0
14373,662.45,783,768,0
14383,692.18,783,767,0
14393,713.13,783,768,0
14403,727.75,783,767,0
14413,738.02,783,768,0
14423,745.17,783,767,0
14433,750.18,783,768,0
14443,751.37,783,767,0
14453,748.00,783,768,0
14464,738.44,783,767,0
14473,723.05,783,768,0
14483,700.92,783,767,0
14493,672.83,783,768,0
14503,638.34,783,767,0
14513,600.99,783,768,0
14523,561.70,783,767,0
14533,523.56,783,768,0
14543,486.49,783,767,0
14553,452.92,783,768,0
14563,422.38,783,767,0
14573,396.68,783,768,0
14583,374.84,783,767,0
14593,358.38,783,768,0
14603,346.23,783,767,0
14613,339.52,783,768,0
14623,336.53,783,767,0
14633,337.92,783,768,0
14643,341.71,783,767,0
14653,348.23,783,768,0
14663,355.40,783,767,0
14673,363.68,783,768,0
14683,370.93,783,767,0
14693,377.81,783,768,0
14703,382.54,783,767,0
14713,386.02,783,768,0
14723,386.96,783,767,0
14733,386.63,783,768,0
14743,383.82,783,767,0
14753,379.93,783,767,0
14764,374.17,783,767,0
14774,368.03,783,768,0
14784,360.95,783,767,0
14794,354.32,783,768,0
14804,347.45,783,766,0
14814,341.70,783,768,0
14824,336.26,783,767,0
14834,332.37,783,768,0
14844,329.09,783,767,0
14854,327.43,783,768,0
14864,326.27,783,767,0
14874,326.54,783,768,0
14884,327.06,783,767,0
14894,328.80,783,768,0
14904,330.45,783,767,0
14914,332.88,783,768,0
14924,334.89,783,767,0
14935,337.45,783,768,0
14945,339.46,783,767,0
14955,341.72,783,767,0
14965,343.30,783,767,0
14976,344.97,783,768,0
14985,345.84,783,767,0
14995,346.61,783,768,0
15005,346.52,783,767,0
15015,346.36,783,768,0
15025,345.74,783,767,0
15035,345.95,783,768,0
15045,347.59,783,767,0
15055,352.81,783,768,0
15065,362.60,783,767,0
15075,379.60,783,768,0
15085,404.67,783,767,0
15095,439.27,783,768,0
15105,480.63,783,767,0
15124,525.70,793,766,0
15126,571.17,793,767,0
15136,614.71,793,768,0
15147,653.20,793,767,0
15156,684.89,793,768,0
15166,708.07,793,766,0
15176,724.29,793,768,0
15186,735.65,793,767,0
15196,742.82,793,768,0
15206,744.46,793,766,0
15216,739.95,793,768,0
15226,728.74,793,767,0
15236,711.12,793,768,0
15246,686.87,793,766,0
15256,656.39,793,768,0
15266,620.83,793,767,0
15276,583.34,793,768,0
15286,545.44,793,766,0
15296,508.92,793,768,0
15306,474.27,793,767,0
15316,442.78,793,768,0
15326,414.82,793,766,0
15336,390.96,793,768,0
15346,371.13,793,766,0
15356,356.05,793,768,0
15366,345.49,793,766,0
15376,339.69,793,768,0
15386,337.98,793,766,0
15396,340.04,793,768,0
15406,344.83,793,766,0
15416,351.87,793,768,0
15426,360.01,793,767,0
15436,368.49,793,768,0
15447,376.36,793,766,0
15457,383.06,793,768,0
15467,388.06,793,767,0
15477,391.08,793,768,0
15488,392.00,793,767,0
15497,390.84,793,768,0
15507,387.81,793,767,0
15517,383.06,793,768,0
15527,377.13,793,766,0
15537,370.32,793,768,0
15547,363.15,793,767,0
15557,355.82,793,768,0
15567,348.85,793,766,0
15577,342.46,793,768,0
15587,337.01,793,767,0
15597,332.38,793,768,0
15607,328.79,793,766,0
15617,326.20,793,768,0
15627,324.68,793,767,0
15637,323.92,793,768,0
15647,323.99,793,766,0
15657,324.51,793,768,0
15667,325.73,793,767,0
15677,327.26,793,768,0
15687,329.20,793,766,0
15697,331.28,793,768,0
15707,333.60,793,767,0
15717,335.90,793,768,0
15727,338.38,793,766,0
15737,340.62,793,768,0
15747,342.79,793,767,0
15757,344.70,793,768,0
15767,346.42,793,767,0
15777,347.83,793,768,0
15788,349.51,793,767,0
15798,351.84,793,768,0
15808,356.48,793,767,0
15818,364.69,793,767,0
15828,378.88,793,767,0
15838,400.13,793,768,0
15848,430.14,793,767,0
15858,468.15,793,768,0
15868,511.22,793,767,0
15887,556.03,763,766,0
15890,600.08,763,768,0
15899,640.08,763,767,0
15909,674.30,763,767,0
15919,700.70,763,768,0
15929,719.17,763,767,0
15939,732.11,763,767,0
15949,741.16,763,767,0
15959,747.41,763,768,0
15969,751.79,763,767,0
15979,752.28,763,767,0
15989,748.04,763,767,0
16000,737.87,763,767,0
16009,722.18,763,767,0
16019,700.27,763,767,0
16029,672.67,763,767,0
16039,639.30,763,767,0
16049,603.64,763,767,0
16059,566.76,763,767,0
16069,531.18,763,767,0
16079,496.58,763,767,0
16089,465.03,763,767,0
16099,436.27,763,767,0
16109,411.72,763,767,0
16119,390.54,763,767,0
16129,374.22,763,767,0
16139,361.73,763,767,0
16149,354.14,763,767,0
16159,350.15,763,767,0
16169,350.28,763,767,0
16179,352.85,763,767,0
16189,358.13,763,767,0
16199,364.17,763,767,0
16209,371.24,763,767,0
16219,377.59,763,767,0
16229,383.37,763,767,0
16239,387.03,763,767,0
16249,389.25,763,767,0
16259,388.96,763,767,0
16269,387.22,763,767,0
16279,383.12,763,767,0
16289,377.94,763,767,0
16300,371.15,763,767,0
16310,364.37,763,768,0
16320,356.80,763,767,0
16330,350.09,763,768,0
16340,343.25,763,766,0
16350,337.86,763,768,0
16360,332.85,763,767,0
16370,329.42,763,768,0
16380,326.17,763,766,0
16390,324.40,763,767,0
16400,322.95,763,767,0
16410,323.05,763,768,0
16420,323.17,763,767,0
16430,324.49,763,767,0
16440,325.67,763,767,0
16450,328.00,763,768,0
16460,329.84,763,767,0
16471,332.16,763,768,0
16481,333.65,763,767,0
16491,335.69,763,768,0
16501,336.85,763,767,0
16512,338.40,763,768,0
16521,339.05,763,767,0
16531,340.28,763,768,0
16541,340.58,763,767,0
16551,341.35,763,768,0
16561,340.99,763,767,0
16571,340.95,763,768,0
16581,339.98,763,767,0
16591,339.34,763,768,0
16601,337.82,763,767,0
16611,336.93,763,768,0
16621,335.58,763,767,0
16631,335.88,763,768,0
16641,337.42,763,767,0
16651,343.08,763,768,0
16661,353.64,763,767,0
16671,372.48,763,768,0
16691,399.98,803,767,0
16694,437.74,803,769,0
16703,481.45,803,767,0
16713,528.76,803,768,0
16723,575.93,803,767,0
16733,620.52,803,768,0
16743,659.02,803,767,0
16753,689.87,803,768,0
16763,711.47,803,767,0
16773,726.63,803,768,0
16783,737.24,803,767,0
16793,744.67,803,768,0
16803,749.87,803,767,0
16813,753.55,803,768,0
16823,755.31,803,767,0
16833,753.81,803,768,0
16843,747.35,803,767,0
16854,735.50,803,768,0
16863,717.61,803,767,0
16873,693.90,803,768,0
16883,663.89,803,767,0
16893,629.16,803,768,0
16903,591.57,803,767,0
16913,553.99,803,768,0
16923,517.13,803,767,0
16933,482.85,803,768,0
16943,451.35,803,767,0
16953,424.29,803,768,0
16963,401.27,803,767,0
16973,383.28,803,768,0
16983,369.35,803,767,0
16993,360.33,803,768,0
17003,355.09,803,767,0
17013,353.82,803,768,0
17024,355.03,803,767,0
17033,358.75,803,768,0
17043,363.28,803,767,0
17053,368.77,803,768,0
17063,373.64,803,767,0
17073,378.08,803,768,0
17083,380.84,803,767,0
17093,382.43,803,768,0
17103,381.96,803,767,0
17113,380.17,803,768,0
17123,376.43,803,767,0
17133,371.85,803,768,0
17143,365.85,803,767,0
17153,359.72,803,768,0
17163,352.91,803,767,0
17173,346.55,803,768,0
17183,340.17,803,767,0
17193,334.85,803,768,0
17203,329.84,803,767,0
17213,326.16,803,768,0
17223,322.94,803,767,0
17233,320.99,803,768,0
17243,319.49,803,767,0
17253,319.17,803,768,0
17263,319.08,803,767,0
17273,319.83,803,768,0
17283,320.52,803,767,0
17293,321.82,803,768,0
17303,322.90,803,767,0
17313,324.39,803,768,0
17324,325.43,803,766,0
17334,326.76,803,768,0
17344,327.69,803,766,0
17354,328.72,803,768,0
17364,329.32,803,766,0
17374,330.17,803,768,0
17384,330.50,803,766,0
17394,330.95,803,768,0
17404,331.01,803,766,0
17414,331.35,803,768,0
17424,331.54,803,766,0
17434,331.85,803,768,0
17444,331.85,803,767,0
17454,331.94,803,768,0
17464,331.70,803,767,0
17474,331.36,803,768,0
17484,330.57,803,766,0
17495,330.05,803,768,0
17505,330.60,803,767,0
17515,333.89,803,768,0
17525,341.76,803,767,0
17536,356.49,803,768,0
17554,379.57,864,767,0
17557,413.04,864,769,0
17566,454.86,864,767,0
17576,501.57,864,768,0
17586,549.83,864,767,0
17596,596.51,864,768,0
17606,638.70,864,767,0
17616,674.19,864,768,0
17626,700.53,864,767,0
17636,718.97,864,768,0
17646,731.88,864,767,0
17656,740.92,864,768,0
17666,747.24,864,767,0
17676,751.67,864,768,0
17686,752.41,864,767,0
17696,747.75,864,768,0
17707,736.94,864,767,0
17716,719.47,864,768,0
17726,695.20,864,767,0
17736,663.94,864,768,0
17746,626.42,864,767,0
17756,585.23,864,768,0
17766,543.29,864,767,0
17776,501.89,864,768,0
17786,462.75,864,767,0
17796,426.70,864,768,0
17806,394.86,864,767,0
17816,367.17,864,767,0
17826,344.41,864,767,0
17836,326.28,864,768,0
17846,313.26,864,767,0
17856,304.57,864,768,0
17866,300.24,864,767,0
17876,299.31,864,768,0
17886,301.40,864,767,0
17896,305.22,864,768,0
17906,310.43,864,767,0
17916,315.74,864,768,0
17926,321.05,864,767,0
17936,325.23,864,768,0
17946,328.51,864,767,0
17956,330.11,864,768,0
17966,330.59,864,767,0
17976,329.60,864,768,0
17986,327.92,864,767,0
17996,325.16,864,768,0
18007,322.24,864,767,0
18017,318.82,864,768,0
18027,316.05,864,767,0
18037,313.38,864,767,0
18048,311.59,864,767,0
18057,310.17,864,767,0
18067,309.82,864,767,0
18077,309.87,864,768,0
18087,310.98,864,767,0
18097,312.19,864,768,0
18107,314.19,864,767,0
18117,315.98,864,768,0
18127,318.43,864,767,0
18137,320.57,864,768,0
18147,323.18,864,767,0
18157,325.31,864,767,0
18167,327.83,864,767,0
18177,329.77,864,767,0
18187,332.02,864,767,0
18197,333.52,864,767,0
18207,335.16,864,767,0
18217,336.01,864,767,0
18227,337.08,864,767,0
18237,337.40,864,768,0
18247,337.97,864,767,0
18257,337.85,864,767,0
18267,337.94,864,767,0
18277,337.36,864,768,0
18287,337.08,864,767,0
18297,336.28,864,767,0
18307,336.37,864,767,0
18317,337.37,864,767,0
18327,341.68,864,767,0
18337,350.09,864,767,0
18348,365.66,864,768,0
18367,389.21,813,767,0
18370,423.47,813,768,0
18379,465.16,813,767,0
18390,511.40,813,768,0
18399,558.59,813,767,0
18409,604.36,813,768,0
18419,645.31,813,767,0
18429,679.54,813,768,0
18439,704.28,813,767,0
18449,721.60,813,768,0
18459,733.72,813,767,0
18469,742.20,813,768,0
18479,748.14,813,767,0
18489,750.76,813,768,0
18499,748.00,813,767,0
18509,739.51,813,768,0
18519,724.49,813,767,0
18529,703.34,813,768,0
18539,675.55,813,766,0
18549,642.04,813,768,0
18560,604.19,813,767,0
18569,565.77,813,768,0
18579,527.49,813,767,0
18589,491.64,813,768,0
18599,458.15,813,767,0
18609,429.17,813,768,0
18619,403.92,813,767,0
18629,384.06,813,768,0
18639,368.31,813,767,0
18649,357.93,813,768,0
18659,351.61,813,767,0
18669,350.14,813,768,0
18679,351.51,813,767,0
18689,356.33,813,768,0
18699,362.49,813,767,0
18709,370.44,813,768,0
18719,378.07,813,767,0
18729,385.59,813,768,0
18739,391.20,813,767,0
18749,395.68,813,768,0
18759,397.32,813,767,0
18769,397.14,813,768,0
18779,393.97,813,767,0
18789,389.13,813,768,0
18799,381.68,813,767,0
18809,373.03,813,768,0
18819,362.22,813,767,0
18829,350.97,813,768,0
18839,338.21,813,767,0
18849,325.33,813,768,0
18860,311.43,813,767,0
18870,298.10,813,768,0
18880,284.57,813,767,0
18890,272.49,813,768,0
18900,260.98,813,767,0
18910,251.73,813,768,0
18920,243.93,813,767,0
18930,239.11,813,768,0
18940,236.29,813,767,0
18950,236.37,813,768,0
18960,237.98,813,767,0
18970,241.84,813,768,0
18980,246.26,813,767,0
18990,251.88,813,768,0
19000,256.89,813,767,0
19010,262.06,813,768,0
19020,266.03,813,767,0
19031,269.66,813,768,0
19041,271.87,813,767,0
19051,274.01,813,768,0
19061,275.33,813,767,0
19072,277.50,813,768,0
19081,280.14,813,767,0
19091,285.84,813,768,0
19101,295.62,813,767,0
19111,312.70,813,768,0
19121,337.99,813,767,0
19131,374.47,813,768,0
19141,419.80,813,767,0
19151,470.86,813,768,0
19161,523.70,813,767,0
19171,575.43,813,768,0
19190,622.40,823,767,0
19192,662.40,823,768,0
19202,692.28,823,767,0
19212,713.19,823,768,0
19222,727.84,823,767,0
19232,738.09,823,768,0
19243,745.26,823,767,0
19252,750.28,823,768,0
19262,753.80,823,767,0
19272,756.26,823,768,0
19282,757.98,823,767,0
19292,759.19,823,768,0
19302,760.03,823,767,0
19312,760.62,823,768,0
19322,761.03,823,767,0
19332,760.81,823,768,0
19342,756.32,823,767,0
19352,745.68,823,768,0
19362,727.39,823,767,0
19372,701.48,823,768,0
19382,667.73,823,767,0
19392,626.93,823,768,0
19402,580.28,823,767,0
19412,532.79,823,768,0
19422,487.30,823,767,0
19432,446.84,823,768,0
19442,412.26,823,767,0
19452,384.97,823,768,0
19462,364.62,823,767,0
19472,351.45,823,768,0
19482,344.11,823,767,0
19492,342.11,823,768,0
19502,343.58,823,767,0
19512,347.95,823,768,0
19522,353.58,823,766,0
19532,360.13,823,768,0
19543,366.18,823,767,0
19553,371.52,823,768,0
19563,375.40,823,767,0
19573,377.85,823,768,0
19584,378.41,823,767,0
19593,377.56,823,768,0
19603,375.25,823,767,0
19613,372.04,823,768,0
19623,368.39,823,766,0
19633,364.89,823,768,0
19643,361.88,823,766,0
19653,359.81,823,768,0
19663,358.71,823,767,0
19673,358.71,823,768,0
19683,359.53,823,766,0
19693,360.91,823,768,0
19703,362.48,823,767,0
19713,364.22,823,768,0
19723,365.66,823,767,0
19733,366.74,823,768,0
19743,367.21,823,767,0
19753,367.23,823,768,0
19763,366.73,823,766,0
19773,366.04,823,768,0
19783,365.21,823,767,0
19793,364.51,823,768,0
19803,363.97,823,766,0
19813,364.02,823,768,0
19823,364.83,823,767,0
19833,366.51,823,768,0
19843,368.76,823,766,0
19853,371.83,823,768,0
19863,376.04,823,767,0
19873,382.41,823,768,0
19884,392.27,823,766,0
19894,407.53,823,768,0
19904,430.17,823,767,0
19923,461.88,733,766,0
19927,499.67,733,769,0
19935,541.13,733,768,0
19945,583.69,733,767,0
19955,624.71,733,768,0
19965,661.44,733,767,0
19975,691.35,733,768,0
19985,712.59,733,767,0
19995,727.46,733,768,0
20005,737.86,733,767,0
20015,745.15,733,768,0
20025,750.29,733,767,0
20035,753.89,733,768,0
20045,756.41,733,767,0
20055,758.13,733,768,0
20065,759.33,733,767,0
20075,760.18,733,768,0
20085,760.77,733,767,0
20096,761.14,733,768,0
20105,761.44,733,767,0
20115,761.65,733,768,0
20125,761.80,733,767,0
20135,759.72,733,768,0
20145,753.54,733,767,0
20155,741.34,733,768,0
20165,722.55,733,767,0
20175,696.41,733,767,0
20185,663.80,733,767,0
20195,624.78,733,768,0
20205,582.67,733,767,0
20215,539.87,733,767,0
20225,499.84,733,767,0
20235,463.84,733,768,0
20245,433.85,733,767,0
20255,409.34,733,768,0
20265,391.36,733,768,0
20275,378.70,733,768,0
20285,371.37,733,767,0
20295,367.75,733,767,0
20305,367.44,733,767,0
20315,368.81,733,768,0
20325,371.65,733,767,0
20335,374.07,733,767,0
20345,376.15,733,767,0
20355,376.62,733,768,0
20365,375.49,733,767,0
20375,371.66,733,767,0
20385,365.85,733,767,0
20396,357.49,733,768,0
20406,348.13,733,767,0
20416,337.55,733,767,0
20426,327.53,733,767,0
20436,318.03,733,767,0
20446,310.78,733,767,0
20456,305.27,733,767,0
20466,303.05,733,767,0
20476,303.33,733,767,0
20486,307.22,733,768,0
20496,313.62,733,767,0
20506,323.59,733,768,0
20516,335.72,733,767,0
20526,350.50,733,767,0
20536,366.08,733,767,0
20546,382.56,733,768,0
20556,397.99,733,767,0
20567,412.39,733,768,0
20577,423.76,733,767,0
20587,432.70,733,768,0
20597,437.85,733,767,0
20608,440.17,733,768,0
20617,438.74,733,767,0
20627,435.18,733,768,0
20637,429.04,733,767,0
20647,422.77,733,768,0
20657,416.71,733,767,0
20667,414.40,733,768,0
20677,417.36,733,767,0
20687,429.64,733,768,0
20697,451.99,733,767,0
20707,484.14,733,768,0
20717,522.24,733,767,0
20737,564.12,813,766,0
20740,606.09,813,767,0
20749,645.58,813,768,0
20759,678.79,813,767,0
20769,704.01,813,768,0
20780,721.62,813,767,0
20790,733.99,813,768,0
20800,742.65,813,767,0
20810,748.71,813,768,0
20820,752.91,813,767,0
20830,755.85,813,768,0
20840,757.91,813,767,0
20850,759.40,813,768,0
20870,760.39,0,767,0
20872,761.09,0,768,0
20882,761.58,0,767,0
20892,761.96,0,768,0
20902,762.23,0,766,0
20912,762.42,0,768,0
20922,762.55,0,767,0
20932,762.68,0,768,0
20942,759.99,0,766,0
20952,752.24,0,768,0
20962,737.38,0,767,0
20972,714.72,0,768,0
20982,684.25,0,766,0
20993,646.50,0,768,0
21003,602.42,0,767,0
21013,555.80,0,768,0
21023,510.09,0,767,0
21033,468.27,0,768,0
21043,432.24,0,767,0
21053,402.72,0,768,0
21063,379.92,0,767,0
21073,363.19,0,768,0
21083,351.94,0,767,0
21093,345.32,0,768,0
21103,342.52,0,767,0
21113,342.28,0,768,0
21123,343.82,0,767,0
21133,346.32,0,768,0
21143,349.48,0,767,0
21153,352.64,0,768,0
21164,355.49,0,767,0
21174,357.53,0,768,0
21184,359.08,0,767,0
21194,359.87,0,768,0
21204,360.34,0,767,0
21214,360.15,0,768,0
21224,359.85,0,767,0
21234,359.08,0,768,0
21244,358.67,0,767,0
21254,358.08,0,768,0
21264,357.97,0,767,0
21274,357.64,0,768,0
21284,357.75,0,767,0
21294,357.74,0,768,0
21304,358.07,0,767,0
21314,358.05,0,768,0
21324,358.34,0,767,0
21335,358.28,0,768,0
21345,358.58,0,767,0
21355,358.58,0,767,0
21365,359.22,0,768,0
21376,360.57,0,767,0
21385,364.30,0,767,0
21395,371.37,0,768,0
21405,384.54,0,768,0
21415,405.42,0,768,0
21434,436.24,565,767,0
21437,474.61,565,768,0
21446,517.84,565,768,0
21456,562.80,565,767,0
21466,607.00,565,768,0
21476,647.16,565,767,0
21486,680.76,565,768,0
21496,705.47,565,767,0
21506,722.73,565,768,0
21516,734.81,565,767,0
21526,743.31,565,768,0
21536,749.26,565,767,0
21547,753.47,565,768,0
21556,756.41,565,767,0
21566,758.47,565,768,0
21576,759.92,565,767,0
21586,760.97,565,768,0
21596,761.67,565,767,0
21606,762.15,565,768,0
21616,762.45,565,767,0
21626,762.70,565,768,0
21636,762.88,565,767,0
21646,763.04,565,768,0
21656,759.47,565,767,0
21666,749.94,565,768,0
21676,732.39,565,767,0
21686,706.52,565,768,0
21696,671.78,565,767,0
21706,629.59,565,768,0
21716,580.21,565,767,0
21726,529.40,565,768,0
21736,480.08,565,767,0
21746,436.13,565,768,0
21756,398.42,565,767,0
21766,368.98,565,768,0
21776,346.66,565,767,0
21786,332.27,565,768,0
21796,323.49,565,767,0
21806,320.34,565,768,0
21816,320.46,565,767,0
21826,323.70,565,768,0
21836,327.74,565,767,0
21847,332.66,565,768,0
21857,336.40,565,767,0
21867,339.80,565,768,0
21877,341.40,565,767,0
21888,342.31,565,768,0
21897,341.36,565,767,0
21907,340.09,565,768,0
21917,337.45,565,767,0
21927,335.13,565,768,0
21937,331.83,565,767,0
21947,329.10,565,768,0
21957,325.77,565,767,0
21967,323.35,565,768,0
21977,320.55,565,767,0
21987,318.80,565,768,0
21997,316.80,565,767,0
22007,315.96,565,768,0
22017,314.86,565,767,0
22027,314.94,565,768,0
22037,314.96,565,767,0
22047,316.17,565,768,0
22057,317.19,565,767,0
22067,319.15,565,768,0
22077,320.69,565,767,0
22087,323.14,565,768,0
22097,324.90,565,767,0
22107,327.03,565,768,0
22117,328.18,565,767,0
22127,329.80,565,768,0
22137,331.01,565,767,0
22147,334.01,565,768,0
22157,338.85,565,767,0
22167,348.79,565,768,0
22177,364.93,565,767,0
22188,390.66,565,768,0
22207,426.34,773,767,0
22210,469.48,773,769,0
22219,516.31,773,767,0
22230,564.47,773,768,0
22239,610.36,773,767,0
22249,651.48,773,768,0
22259,684.55,773,767,0
22269,708.09,773,769,0
22279,724.56,773,767,0
22289,736.09,773,768,0
22299,744.16,773,767,0
22309,749.81,773,768,0
22319,753.77,773,767,0
22329,756.54,773,768,0
22339,758.48,773,767,0
22349,759.88,773,768,0
22359,760.86,773,767,0
22369,761.54,773,768,0
22379,761.34,773,767,0
22389,757.42,773,768,0
22400,746.80,773,767,0
22409,728.81,773,768,0
22419,702.00,773,767,0
22429,666.81,773,768,0
22439,623.37,773,767,0
22449,573.67,773,768,0
22459,521.14,773,767,0
22469,470.49,773,768,0
22479,423.33,773,767,0
22489,382.73,773,768,0
22499,348.74,773,767,0
22509,322.80,773,768,0
22519,304.00,773,767,0
22529,292.77,773,768,0
22539,287.23,773,767,0
22549,287.25,773,768,0
22559,290.64,773,767,0
22569,297.18,773,768,0
22579,304.58,773,767,0
22589,312.68,773,768,0
22599,319.76,773,767,0
22609,326.18,773,768,0
22619,330.41,773,767,0
22629,333.29,773,768,0
22639,333.97,773,767,0
22649,333.47,773,768,0
22659,331.14,773,767,0
22669,328.18,773,768,0
22679,324.01,773,767,0
22689,319.85,773,768,0
22700,315.18,773,767,0
22710,311.06,773,768,0
22720,307.01,773,766,0
22730,303.92,773,768,0
22740,301.07,773,767,0
22750,299.29,773,768,0
22760,297.79,773,767,0
22770,297.30,773,768,0
22780,297.29,773,767,0
22790,298.28,773,768,0
22800,299.44,773,767,0
22810,301.45,773,768,0
22820,303.63,773,767,0
22830,306.48,773,768,0
22840,309.17,773,767,0
22850,311.99,773,768,0
22860,314.43,773,766,0
22871,316.75,773,768,0
22881,318.45,773,767,0
22891,319.82,773,768,0
22901,320.60,773,767,0
22912,321.32,773,768,0
22921,322.30,773,767,0
22931,324.78,773,768,0
22941,330.33,773,767,0
22951,340.95,773,768,0
22961,358.36,773,767,0
22971,384.78,773,768,0
22981,421.45,773,767,0
23001,465.37,793,766,0
23004,513.17,793,768,0
23013,561.68,793,768,0
23023,607.85,793,767,0
23033,649.12,793,768,0
23043,682.77,793,767,0
23053,706.97,793,768,0
23063,723.91,793,767,0
23073,735.72,793,768,0
23084,744.03,793,768,0
23094,749.81,793,768,0
23104,753.89,793,767,0
23114,756.71,793,768,0
23124,758.73,793,768,0
23134,760.14,793,768,0
23144,759.97,793,767,0
23154,755.22,793,768,0
23164,744.44,793,768,0
23174,726.09,793,767,0
23184,699.92,793,767,0
23194,665.36,793,767,0
23204,623.42,793,768,0
23214,575.64,793,768,0
23224,526.42,793,767,0
23234,477.86,793,768,0
23244,433.38,793,768,0
23255,393.88,793,767,0
23265,361.60,793,767,0
23275,336.09,793,767,0
23285,318.45,793,768,0
23296,307.34,793,767,0
23305,303.25,793,767,0
23315,303.95,793,767,0
23325,309.32,793,768,0
23335,317.03,793,767,0
23345,326.87,793,768,0
23355,336.68,793,767,0
23365,346.59,793,768,0
23375,354.69,793,767,0
23385,361.47,793,768,0
23395,365.65,793,767,0
23405,368.24,793,768,0
23415,368.09,793,767,0
23425,366.39,793,768,0
23435,362.33,793,767,0
23445,357.47,793,768,0
23455,351.12,793,767,0
23465,344.87,793,768,0
23475,337.92,793,767,0
23485,331.90,793,768,0
23495,325.97,793,767,0
23505,321.52,793,768,0
23515,317.51,793,767,0
23525,315.17,793,768,0
23535,313.23,793,767,0
23545,312.82,793,768,0
23555,312.79,793,767,0
23565,313.97,793,768,0
23575,315.09,793,767,0
23585,317.12,793,768,0
23596,318.67,793,767,0
23606,320.83,793,768,0
23616,322.34,793,767,0
23626,324.46,793,768,0
23636,326.68,793,767,0
23646,331.23,793,768,0
23656,338.58,793,767,0
23666,352.03,793,768,0
23676,372.59,793,767,0
23686,402.93,793,768,0
23696,442.17,793,767,0
23706,487.46,793,768,0
23726,535.11,725,767,0
23729,582.73,725,768,0
23738,626.70,725,767,0
23748,664.72,725,769,0
23758,694.25,725,767,0
23768,714.96,725,769,0
23778,729.46,725,767,0
23788,739.65,725,768,0
23798,746.78,725,767,0
23809,751.82,725,769,0
23819,755.34,725,767,0
23829,757.81,725,769,0
23839,759.50,725,766,0
23849,760.72,725,769,0
23859,759.05,725,767,0
23869,752.18,725,769,0
23879,737.98,725,766,0
23889,715.49,725,768,0
23899,684.31,725,766,0
23909,644.79,725,768,0
23919,596.98,725,766,0
23929,544.49,725,768,0
23939,490.68,725,767,0
23949,439.26,725,769,0
23959,392.04,725,766,0
23969,351.19,725,768,0
23980,317.49,725,766,0
23990,292.14,725,768,0
24000,274.66,725,766,0
24010,264.86,725,768,0
24020,261.39,725,767,0
24030,263.67,725,768,0
24040,269.68,725,766,0
24050,278.26,725,768,0
24060,287.79,725,766,0
24070,297.49,725,768,0
24080,306.22,725,766,0
24090,313.52,725,768,0
24100,318.94,725,767,0
24110,322.47,725,768,0
24120,323.83,725,766,0
24130,323.32,725,768,0
24140,321.08,725,767,0
24151,317.50,725,768,0
24161,313.11,725,766,0
24171,308.10,725,768,0
24181,302.89,725,767,0
24192,297.74,725,768,0
24201,293.10,725,766,0
24211,289.17,725,768,0
24221,286.12,725,767,0
24231,283.60,725,768,0
24241,281.88,725,766,0
24251,280.97,725,768,0
24261,281.15,725,767,0
24271,281.96,725,768,0
24281,283.43,725,767,0
24291,285.32,725,768,0
24301,287.88,725,767,0
24311,290.70,725,768,0
24321,293.70,725,767,0
24331,296.58,725,768,0
24341,299.49,725,767,0
24351,302.17,725,768,0
24361,305.38,725,767,0
24371,309.55,725,768,0
24381,316.54,725,767,0
24391,328.08,725,768,0
24401,346.66,725,767,0
24411,373.93,725,768,0
24421,411.75,725,767,0
24440,456.70,715,766,0
24443,505.82,715,769,0
24452,555.76,715,768,0
24462,603.57,715,767,0
24472,646.00,715,768,0
24482,680.67,715,767,0
24492,705.46,715,768,0
24502,722.85,715,768,0
24512,734.98,715,768,0
24522,743.51,715,768,0
24532,749.45,715,768,0
24542,753.64,715,767,0
24552,756.58,715,768,0
24562,758.68,715,767,0
24572,760.10,715,768,0
24582,761.14,715,767,0
24592,761.83,715,768,0
24602,761.28,715,768,0
24612,755.67,715,768,0
24622,743.34,715,768,0
24632,722.24,715,768,0
24642,691.99,715,768,0
24652,652.22,715,768,0
24663,603.99,715,768,0
24673,548.83,715,768,0
24683,492.35,715,768,0
24693,437.22,715,767,0
24704,387.44,715,768,0
24713,344.24,715,768,0
24723,309.75,715,768,0
24733,283.47,715,767,0
24743,266.14,715,768,0
24753,256.03,715,768,0
24763,253.02,715,768,0
24773,254.73,715,767,0
24783,260.94,715,768,0
24793,269.06,715,768,0
24803,278.85,715,768,0
24813,288.24,715,767,0
24823,297.38,715,768,0
24833,304.64,715,768,0
24843,310.58,715,768,0
24853,313.92,715,767,0
24863,315.83,715,768,0
24873,315.45,715,767,0
24883,313.99,715,768,0
24893,310.86,715,767,0
24903,307.35,715,768,0
24913,302.87,715,767,0
24923,298.80,715,768,0
24933,294.36,715,767,0
24943,290.86,715,768,0
24953,287.35,715,767,0
24963,285.06,715,768,0
24973,283.11,715,767,0
24983,282.61,715,768,0
24993,282.30,715,767,0
25004,283.32,715,768,0
25014,284.30,715,767,0
25024,286.48,715,768,0
25034,288.35,715,767,0
25044,290.99,715,768,0
25054,293.01,715,767,0
25064,295.62,715,768,0
25074,297.49,715,767,0
25084,299.83,715,768,0
25094,301.34,715,767,0
25104,303.25,715,768,0
25114,304.29,715,767,0
25124,305.70,715,768,0
25134,306.31,715,767,0
25144,307.33,715,768,0
25154,308.00,715,767,0
25164,310.49,715,768,0
25175,314.97,715,767,0
25185,324.66,715,768,0
25195,340.58,715,767,0
25205,366.21,715,768,0
25216,402.06,715,767,0
25234,446.44,794,766,0
25236,495.25,794,768,0
25246,545.88,794,768,0
25256,594.47,794,767,0
25266,638.60,794,768,0
25276,674.72,794,767,0
25286,701.29,794,768,0
25296,719.89,794,767,0
25306,732.91,794,768,0
25316,742.02,794,767,0
25326,748.40,794,769,0
25336,752.87,794,767,0
25346,755.99,794,768,0
25356,758.14,794,767,0
25366,759.64,794,768,0
25376,760.65,794,767,0
25387,760.71,794,768,0
25396,756.51,794,767,0
25406,746.33,794,768,0
25416,728.02,794,767,0
25426,701.23,794,768,0
25436,665.67,794,767,0
25446,622.14,794,768,0
25456,571.40,794,767,0
25466,518.39,794,768,0
25476,465.73,794,767,0
25486,417.51,794,768,0
25496,374.72,794,767,0
25506,339.49,794,768,0
25516,311.44,794,767,0
25526,291.72,794,768,0
25536,278.99,794,767,0
25546,273.42,794,768,0
25556,272.87,794,767,0
25566,277.24,794,768,0
25576,284.15,794,767,0
25586,293.41,794,768,0
25596,302.97,794,767,0
25606,312.84,794,769,0
25616,321.07,794,767,0
25626,328.08,794,768,0
25636,332.47,794,767,0
25646,335.11,794,768,0
25656,335.12,794,767,0
25666,333.80,794,768,0
25676,330.39,794,767,0
25687,326.33,794,769,0
25697,321.04,794,767,0
25707,315.93,794,768,0
25717,310.38,794,767,0
25728,305.59,794,769,0
25737,300.79,794,767,0
25747,297.17,794,768,0
25757,294.03,794,767,0
25767,292.18,794,769,0
25777,290.84,794,767,0
25787,290.80,794,768,0
25797,291.33,794,767,0
25807,292.99,794,769,0
25817,294.79,794,767,0
25827,297.30,794,768,0
25837,299.74,794,767,0
25847,302.69,794,769,0
25857,305.22,794,767,0
25867,308.03,794,768,0
25877,310.29,794,767,0
25887,312.73,794,768,0
25897,314.61,794,766,0
25907,316.70,794,768,0
25917,318.20,794,767,0
25927,319.73,794,769,0
25937,320.54,794,766,0
25947,321.36,794,768,0
25957,321.38,794,767,0
25967,321.27,794,768,0
25977,320.42,794,767,0
25987,319.99,794,768,0
25997,320.12,794,767,0
26007,322.70,794,768,0
26017,328.79,794,767,0
26028,341.20,794,768,0
26038,361.49,794,766,0
26057,391.99,823,766,0
26060,432.15,823,767,0
26070,478.60,823,768,0
26079,527.67,823,767,0
26089,576.58,823,768,0
26099,621.96,823,767,0
26109,661.23,823,768,0
26119,691.80,823,767,0
26129,713.16,823,768,0
26139,728.11,823,767,0
26149,738.58,823,768,0
26159,745.91,823,766,0
26169,751.03,823,769,0
26179,754.62,823,767,0
26189,757.14,823,768,0
26199,758.90,823,766,0
26209,760.13,823,769,0
26219,758.16,823,767,0
26229,750.61,823,768,0
26240,735.90,823,767,0
26249,713.26,823,768,0
26259,682.28,823,767,0
26269,643.07,823,768,0
26279,596.16,823,766,0
26289,545.37,823,768,0
26299,494.22,823,767,0
26309,445.51,823,768,0
26319,401.47,823,766,0
26329,363.74,823,768,0
26339,333.31,823,767,0
26349,310.54,823,768,0
26359,295.25,823,766,0
26369,286.90,823,769,0
26379,284.62,823,767,0
26389,287.13,823,768,0
26399,293.31,823,767,0
26409,301.79,823,768,0
26419,311.45,823,767,0
26429,321.17,823,768,0
26439,330.16,823,767,0
26449,337.53,823,768,0
26459,342.98,823,767,0
26469,346.20,823,768,0
26479,347.39,823,767,0
26489,346.41,823,768,0
26499,343.72,823,767,0
26509,339.60,823,768,0
26519,334.79,823,767,0
26529,329.41,823,768,0
26540,324.02,823,767,0
26550,318.61,823,768,0
26560,313.89,823,767,0
26570,309.72,823,768,0
26580,306.59,823,767,0
26590,304.10,823,768,0
26600,302.61,823,767,0
26610,301.74,823,768,0
26620,301.99,823,767,0
26630,302.72,823,768,0
26640,304.39,823,767,0
26650,306.16,823,768,0
26660,308.68,823,767,0
26670,311.26,823,768,0
26680,314.10,823,767,0
26690,316.51,823,768,0
26700,319.23,823,767,0
26711,321.43,823,768,0
26721,323.70,823,767,0
26731,325.25,823,768,0
26741,326.72,823,768,0
26752,327.49,823,768,0
26761,328.20,823,768,0
26771,328.01,823,768,0
26781,327.75,823,768,0
26791,327.27,823,768,0
26801,328.13,823,767,0
26811,330.92,823,768,0
26821,338.36,823,768,0
26831,351.45,823,768,0
26841,372.62,823,767,0
26851,402.56,823,768,0
26870,442.16,813,767,0
26873,487.41,813,768,0
26882,535.33,813,768,0
26892,582.29,813,767,0
26902,625.96,813,768,0
26912,663.56,813,767,0
26923,693.48,813,768,0
26932,714.42,813,767,0
26942,729.04,813,768,0
26952,739.27,813,767,0
26962,746.43,813,768,0
26972,751.40,813,767,0
26982,754.88,813,768,0
26992,754.53,813,767,0
27002,749.14,813,768,0
27012,737.31,813,767,0
27022,718.88,813,768,0
27032,692.81,813,767,0
27042,659.78,813,768,0
27052,619.61,813,767,0
27062,576.10,813,768,0
27072,530.90,813,767,0
27082,487.13,813,768,0
27092,445.35,813,767,0
27102,408.43,813,768,0
27112,376.16,813,767,0
27122,350.22,813,768,0
27132,329.93,813,766,0
27142,316.36,813,768,0
27152,308.07,813,767,0
27162,305.61,813,768,0
27172,306.84,813,767,0
27182,312.03,813,768,0
27192,319.09,813,767,0
27202,328.06,813,768,0
27212,336.83,813,767,0
27223,345.58,813,768,0
27233,352.56,813,767,0
27243,358.48,813,768,0
27253,361.72,813,767,0
27264,363.26,813,768,0
27273,362.07,813,767,0
27283,359.48,813,768,0
27293,354.53,813,767,0
27303,348.93,813,768,0
27313,341.84,813,767,0
27323,335.03,813,768,0
27333,327.65,813,767,0
27343,321.20,813,768,0
27353,314.84,813,767,0
27363,310.04,813,768,0
27373,305.70,813,767,0
27383,302.96,813,768,0
27393,300.62,813,767,0
27403,299.96,813,768,0
27413,299.67,813,767,0
27423,300.76,813,768,0
27433,301.94,813,767,0
27443,304.19,813,768,0
27453,306.19,813,767,0
27463,309.00,813,768,0
27473,311.15,813,767,0
27483,313.76,813,768,0
27493,315.50,813,767,0
27503,317.49,813,768,0
27513,318.50,813,767,0
27523,320.07,813,768,0
27533,321.38,813,767,0
27543,324.65,813,768,0
27553,330.11,813,767,0
27564,340.83,813,768,0
27574,357.43,813,767,0
27584,382.93,813,768,0
27594,417.15,813,767,0
27604,459.53,813,769,0
27614,506.00,813,767,0
27633,553.92,763,766,0
27636,599.76,763,767,0
27645,641.40,763,768,0
27655,675.87,763,767,0
27665,702.05,763,768,0
27675,720.38,763,767,0
27685,733.21,763,769,0
27695,742.19,763,767,0
27705,748.43,763,768,0
27715,752.80,763,767,0
27725,755.86,763,769,0
27735,755.77,763,767,0
27745,751.13,763,768,0
27755,739.99,763,767,0
27765,722.08,763,768,0
27776,696.51,763,767,0
27785,664.13,763,768,0
27795,624.58,763,767,0
27805,580.95,763,768,0
27815,535.19,763,767,0
27825,490.69,763,768,0
27835,448.27,763,767,0
27845,410.17,763,769,0
27855,376.26,763,767,0
27865,348.29,763,768,0
27875,325.74,763,767,0
27885,309.58,763,768,0
27895,298.73,763,767,0
27905,293.54,763,768,0
27915,292.56,763,767,0
27925,295.70,763,769,0
27935,301.10,763,767,0
27945,308.61,763,768,0
27955,316.36,763,767,0
27965,324.31,763,768,0
27975,331.03,763,767,0
27985,336.72,763,768,0
27995,340.28,763,767,0
28005,342.29,763,768,0
28015,342.08,763,767,0
28025,340.51,763,768,0
28035,337.06,763,767,0
28045,332.84,763,768,0
28055,327.49,763,767,0
28065,322.07,763,768,0
28076,316.26,763,767,0
28086,311.00,763,768,0
28096,305.98,763,767,0
28106,301.92,763,768,0
28116,298.34,763,767,0
28126,295.97,763,769,0
28136,294.09,763,767,0
28146,293.29,763,768,0
28156,293.03,763,767,0
28166,293.80,763,769,0
28176,295.01,763,767,0
28186,296.98,763,769,0
28196,299.09,763,767,0
28206,301.80,763,769,0
28216,304.43,763,767,0
28226,307.26,763,769,0
28236,309.67,763,767,0
28247,311.95,763,768,0
28257,313.77,763,767,0
28267,315.25,763,768,0
28277,316.20,763,767,0
28288,317.34,763,768,0
28297,319.08,763,767,0
28307,322.70,763,768,0
28317,329.69,763,767,0
28327,341.87,763,768,0
28337,360.94,763,767,0
28347,388.64,763,768,0
28357,425.56,763,767,0
28367,469.41,763,768,0
28386,516.77,753,768,0
28389,564.50,753,768,0
28398,609.65,753,767,0
28408,649.83,753,768,0
28418,682.66,753,767,0
28428,706.81,753,768,0
28438,723.71,753,767,0
28448,735.54,753,768,0
28459,743.78,753,768,0
28468,749.54,753,768,0
28478,753.58,753,767,0
28488,754.95,753,768,0
28498,751.92,753,767,0
28508,743.25,753,768,0
28518,728.04,753,767,0
28528,705.57,753,768,0
28538,676.00,753,767,0
28548,639.44,753,768,0
28558,597.82,753,767,0
28568,553.52,753,768,0
28578,508.84,753,767,0
28588,465.64,753,768,0
28598,425.76,753,767,0
28608,389.88,753,768,0
28618,358.93,753,767,0
28628,333.02,753,768,0
28638,312.91,753,767,0
28648,298.33,753,768,0
28658,289.19,753,767,0
28668,284.59,753,768,0
28678,284.24,753,767,0
28688,287.04,753,768,0
28698,292.60,753,767,0
28708,299.40,753,768,0
28718,306.95,753,767,0
28728,314.08,753,768,0
28738,320.66,753,767,0
28748,325.73,753,768,0
28759,329.37,753,767,0
28769,330.89,753,768,0
28779,331.05,753,768,0
28789,329.32,753,768,0
28800,326.61,753,768,0
28809,322.61,753,768,0
28819,318.27,753,767,0
28829,313.35,753,768,0
28839,308.87,753,768,0
28849,304.28,753,768,0
28859,300.64,753,767,0
28869,297.15,753,768,0
28879,294.79,753,767,0
28889,292.80,753,768,0
28899,291.96,753,767,0
28909,291.28,753,768,0
28919,291.67,753,768,0
28929,292.15,753,768,0
28939,293.57,753,768,0
28949,294.85,753,768,0
28959,296.83,753,768,0
28969,298.38,753,767,0
28979,300.49,753,767,0
28989,302.10,753,768,0
28999,304.04,753,768,0
29009,305.27,753,767,0
29019,306.69,753,767,0
29029,307.38,753,768,0
29039,308.30,753,768,0
29049,308.55,753,767,0
29059,308.94,753,767,0
29069,308.70,753,768,0
29079,309.05,753,768,0
29089,309.55,753,767,0
29100,312.04,753,768,0
29110,317.04,753,768,0
29120,327.23,753,768,0
29130,343.53,753,767,0
29140,368.74,753,768,0
29159,402.46,773,767,0
29162,445.10,773,768,0
29171,492.38,773,767,0
29181,541.51,773,768,0
29191,588.84,773,767,0
29201,632.18,773,768,0
29211,668.42,773,767,0
29221,696.84,773,768,0
29231,716.69,773,767,0
29241,730.58,773,768,0
29251,740.31,773,767,0
29261,747.11,773,768,0
29271,751.88,773,767,0
29281,754.83,773,768,0
29291,753.38,773,767,0
29301,746.67,773,768,0
29312,733.22,773,767,0
29321,713.23,773,768,0
29331,685.77,773,767,0
29341,651.64,773,768,0
29351,610.82,773,767,0
29361,567.67,773,768,0
29371,523.33,773,767,0
29381,480.93,773,768,0
29391,440.62,773,767,0
29401,405.08,773,768,0
29411,373.68,773,767,0
29421,348.32,773,768,0
29431,327.83,773,767,0
29441,313.39,773,768,0
29451,303.46,773,767,0
29461,298.78,773,768,0
29471,297.26,773,767,0
29481,299.45,773,768,0
29491,303.26,773,767,0
29501,309.01,773,768,0
29511,314.71,773,767,0
29521,320.80,773,768,0
29531,325.57,773,767,0
29541,329.81,773,768,0
29551,332.01,773,767,0
29561,333.34,773,768,0
29571,332.55,773,767,0
29581,331.10,773,768,0
29591,328.03,773,767,0
29601,324.76,773,768,0
29612,320.46,773,767,0
29622,316.68,773,768,0
29632,312.32,773,767,0
29642,308.97,773,768,0
29652,305.80,773,767,0
29662,304.02,773,768,0
29672,302.47,773,767,0
29682,302.24,773,768,0
29692,302.13,773,767,0
29702,303.25,773,768,0
29712,304.16,773,767,0
29722,305.70,773,768,0
29732,306.69,773,767,0
29742,308.24,773,768,0
29752,309.11,773,767,0
29762,310.36,773,768,0
29772,310.94,773,767,0
29783,312.11,773,768,0
29793,312.55,773,767,0
29803,313.50,773,768,0
29813,313.91,773,767,0
29824,314.88,773,768,0
29833,315.34,773,767,0
29843,316.35,773,768,0
29853,316.68,773,767,0
29863,317.46,773,768,0
29873,317.58,773,767,0
29883,318.18,773,768,0
29893,318.85,773,767,0
29903,321.64,773,768,0
29913,326.85,773,767,0
29923,337.22,773,768,0
29933,353.66,773,767,0
29953,378.66,793,766,0
29956,412.79,793,767,0
29965,455.24,793,769,0
29975,501.88,793,767,0
29985,550.05,793,768,0
29996,596.27,793,767,0
30006,638.36,793,769,0
30016,673.65,793,767,0
30026,700.46,793,768,0
30036,719.22,793,767,0
30046,732.35,793,769,0
30056,741.55,793,767,0
30066,746.23,793,768,0
30076,745.43,793,767,0
30086,738.49,793,768,0
30096,724.80,793,767,0
30106,704.16,793,768,0
30116,676.60,793,767,0
30126,642.65,793,768,0
30136,604.31,793,767,0
30146,563.76,793,768,0
30156,522.82,793,767,0
30167,483.19,793,768,0
30177,446.19,793,767,0
30187,412.57,793,767,0
30197,383.09,793,767,0
30208,358.08,793,768,0
30217,338.21,793,767,0
30227,323.40,793,768,0
30237,313.85,793,767,0
30247,308.76,793,768,0
30257,308.01,793,767,0
30267,310.41,793,768,0
30277,315.82,793,767,0
30287,322.77,793,768,0
30297,330.90,793,767,0
30307,338.81,793,768,0
30317,346.41,793,767,0
30327,352.63,793,768,0
30337,357.50,793,767,0
30347,360.22,793,768,0
30357,361.31,793,767,0
30367,360.28,793,768,0
30377,357.75,793,767,0
30387,353.62,793,768,0
30397,348.68,793,767,0
30407,342.73,793,768,0
30417,336.73,793,767,0
30427,330.47,793,768,0
30437,324.84,793,767,0
30447,319.53,793,768,0
30457,315.30,793,768,0
30467,311.82,793,768,0
30477,309.73,793,767,0
30487,308.36,793,768,0
30497,308.25,793,767,0
30508,308.65,793,768,0
30518,310.17,793,767,0
30528,311.87,793,768,0
30538,314.35,793,768,0
30548,316.69,793,768,0
30558,319.40,793,767,0
30568,321.55,793,768,0
30578,323.87,793,768,0
30588,325.45,793,768,0
30598,327.03,793,767,0
30608,327.79,793,768,0
30618,329.01,793,768,0
30628,330.47,793,768,0
30638,333.97,793,767,0
30648,340.02,793,768,0
30658,351.16,793,768,0
30668,368.12,793,768,0
30679,393.20,793,768,0
30689,426.18,793,767,0
30699,467.01,793,768,0
30718,511.80,766,767,0
30722,557.84,766,769,0
30731,601.90,766,767,0
30741,642.00,766,769,0
30751,675.56,766,767,0
30761,701.66,766,768,0
30771,719.89,766,767,0
30781,732.70,766,769,0
30791,739.39,766,767,0
30801,739.96,766,768,0
30811,733.63,766,767,0
30821,720.80,766,768,0
30831,700.63,766,767,0
30841,673.95,766,768,0
30851,640.75,766,767,0
30861,604.40,766,768,0
30871,565.75,766,767,0
30881,527.34,766,768,0
30892,489.40,766,767,0
30902,454.31,766,769,0
30912,421.73,766,767,0
30922,392.92,766,768,0
30932,367.32,766,767,0
30942,346.44,766,768,0
30952,329.63,766,767,0
30962,317.96,766,768,0
30972,310.34,766,767,0
30982,307.28,766,768,0
30992,307.41,766,767,0
31002,311.10,766,768,0
31012,316.64,766,767,0
31022,324.16,766,768,0
31032,331.87,766,767,0
31042,339.88,766,768,0
31052,346.82,766,767,0
31063,353.13,766,768,0
31073,357.29,766,767,0
31083,360.07,766,768,0
31093,360.57,766,767,0
31104,359.71,766,769,0
31113,356.93,766,767,0
31123,353.26,766,768,0
31133,348.30,766,767,0
31143,343.24,766,769,0
31153,337.64,766,767,0
31163,332.43,766,768,0
31173,327.33,766,767,0
31183,323.12,766,768,0
31193,319.31,766,767,0
31203,316.60,766,768,0
31213,314.41,766,767,0
31223,313.26,766,769,0
31233,312.49,766,767,0
31243,312.73,766,768,0
31253,313.20,766,767,0
31263,314.42,766,768,0
31273,315.67,766,767,0
31283,317.48,766,768,0
31293,319.14,766,767,0
31303,321.15,766,769,0
31313,322.82,766,767,0
31323,324.76,766,768,0
31333,326.16,766,767,0
31343,327.57,766,769,0
31353,328.38,766,767,0
31363,329.26,766,768,0
31373,329.78,766,767,0
31383,330.92,766,769,0
31393,332.96,766,767,0
31404,337.90,766,769,0
31414,346.80,766,767,0
31424,361.86,766,768,0
31434,384.32,766,767,0
31444,415.51,766,768,0
31454,454.70,766,767,0
31473,499.15,755,766,0
31476,545.39,755,768,0
31485,590.70,755,768,0
31495,632.23,755,767,0
31505,667.78,755,769,0
31515,695.74,755,767,0
31525,715.75,755,768,0
31535,729.80,755,767,0
31545,739.63,755,768,0
31555,745.31,755,767,0
31565,745.65,755,768,0
31575,740.10,755,767,0
31585,727.98,755,768,0
31595,709.22,755,767,0
31605,683.61,755,768,0
31616,651.67,755,767,0
31625,615.17,755,768,0
31635,576.59,755,767,0
31645,537.41,755,768,0
31655,499.45,755,767,0
31665,463.65,755,768,0
31675,431.02,755,767,0
31685,401.78,755,768,0
31695,376.35,755,767,0
31705,354.94,755,768,0
31715,338.03,755,767,0
31725,325.38,755,768,0
31735,317.04,755,767,0
31745,312.65,755,768,0
31755,311.90,755,767,0
31765,313.95,755,768,0
31775,318.20,755,767,0
31785,323.76,755,768,0
31795,330.17,755,767,0
31805,336.46,755,768,0
31815,342.37,755,767,0
31825,347.14,755,768,0
31835,350.83,755,767,0
31845,353.02,755,768,0
31855,353.96,755,767,0
31865,353.33,755,768,0
31875,351.64,755,767,0
31885,348.88,755,768,0
31895,345.62,755,767,0
31905,341.75,755,768,0
31916,337.96,755,767,0
31926,334.12,755,768,0
31936,330.78,755,767,0
31946,327.63,755,768,0
31956,325.13,755,768,0
31966,322.90,755,768,0
31976,321.35,755,768,0
31986,319.83,755,768,0
31996,319.07,755,767,0
32006,318.27,755,768,0
32016,318.19,755,767,0
32026,318.09,755,768,0
32036,318.75,755,768,0
32046,319.47,755,768,0
32056,320.96,755,767,0
32066,322.38,755,768,0
32076,324.50,755,768,0
32087,326.32,755,768,0
32097,328.54,755,768,0
32107,330.05,755,768,0
32117,331.70,755,768,0
32128,332.52,755,767,0
32137,333.31,755,768,0
32147,333.26,755,768,0
32157,333.31,755,768,0
32167,332.66,755,767,0
32177,332.63,755,768,0
32187,332.87,755,768,0
32197,335.44,755,768,0
32207,340.66,755,767,0
32217,351.05,755,768,0
32227,367.36,755,768,0
32237,392.03,755,768,0
32257,424.63,783,767,0
32260,465.37,783,769,0
32269,510.13,783,767,0
32279,556.29,783,768,0
32289,600.56,783,767,0
32300,640.89,783,769,0
32310,674.61,783,767,0
32320,701.00,783,769,0
32330,719.43,783,767,0
32340,732.37,783,769,0
32350,740.66,783,767,0
32360,743.93,783,769,0
32370,740.87,783,767,0
32380,731.82,783,769,0
32390,716.10,783,766,0
32400,694.34,783,769,0
32410,666.08,783,767,0
32420,633.02,783,769,0
32430,596.71,783,766,0
32440,560.20,783,769,0
32450,523.67,783,767,0
32460,489.18,783,769,0
32471,456.56,783,766,0
32481,427.46,783,769,0
32491,401.44,783,767,0
32501,379.62,783,768,0
32512,361.43,783,766,0
32521,348.02,783,769,0
32531,338.50,783,767,0
32541,333.51,783,768,0
32551,331.85,783,766,0
32561,333.78,783,769,0
32571,337.79,783,767,0
32581,343.98,783,768,0
32591,350.72,783,766,0
32601,358.09,783,769,0
32611,364.62,783,767,0
32621,370.60,783,769,0
32631,374.79,783,766,0
32641,378.03,783,768,0
32651,379.13,783,767,0
32661,379.01,783,768,0
32671,376.95,783,766,0
32681,374.14,783,768,0
32691,370.02,783,767,0
32701,365.60,783,768,0
32711,360.28,783,766,0
32721,355.35,783,768,0
32731,350.40,783,767,0
32741,346.38,783,768,0
32751,342.50,783,767,0
32761,339.65,783,768,0
32771,337.22,783,767,0
32781,336.13,783,769,0
32791,335.28,783,767,0
32801,335.28,783,769,0
32812,335.28,783,767,0
32822,336.05,783,768,0
32832,336.68,783,766,0
32842,337.80,783,769,0
32852,338.46,783,767,0
32862,339.48,783,768,0
32872,340.07,783,767,0
32882,340.82,783,768,0
32892,341.13,783,767,0
32902,341.65,783,769,0
32912,341.88,783,766,0
32922,342.22,783,769,0
32932,342.28,783,767,0
32942,342.71,783,769,0
32952,343.01,783,767,0
32962,343.61,783,769,0
32972,344.07,783,767,0
32983,344.73,783,769,0
32993,345.46,783,767,0
33003,346.99,783,768,0
33013,349.87,783,767,0
33024,355.73,783,769,0
33033,365.71,783,767,0
33043,381.87,783,769,0
33053,405.48,783,767,0
33073,437.69,816,766,0
33076,477.30,816,769,0
33085,520.92,816,768,0
33095,565.56,816,768,0
33105,608.64,816,768,0
33115,647.45,816,768,0
33125,679.97,816,768,0
33135,704.75,816,768,0
33145,722.01,816,768,0
33155,734.14,816,768,0
33165,742.58,816,768,0
33175,748.54,816,768,0
33185,751.16,816,768,0
33196,749.57,816,768,0
33206,742.41,816,768,0
33216,729.73,816,768,0
33226,710.83,816,768,0
33236,686.19,816,768,0
33246,655.66,816,768,0
33256,621.56,816,768,0
33266,585.18,816,768,0
33276,549.26,816,768,0
33286,514.12,816,768,0
33296,481.73,816,768,0
33306,451.98,816,768,0
33316,426.27,816,768,0
33326,404.12,816,767,0
33336,386.77,816,768,0
33346,373.30,816,768,0
33356,364.68,816,768,0
33367,359.59,816,767,0
33377,358.56,816,768,0
33387,359.93,816,767,0
33397,364.07,816,768,0
33408,369.15,816,767,0
33417,375.49,816,768,0
33427,381.30,816,767,0
33437,387.04,816,768,0
33447,391.10,816,767,0
33457,394.24,816,768,0
33467,395.11,816,767,0
33477,394.91,816,768,0
33487,392.45,816,767,0
33497,389.19,816,768,0
33507,384.29,816,767,0
33517,379.36,816,768,0
33527,373.51,816,767,0
33537,368.30,816,768,0
33547,362.89,816,767,0
33557,358.68,816,768,0
33567,354.49,816,767,0
33577,351.64,816,768,0
33587,348.92,816,767,0
33597,347.57,816,768,0
33607,346.37,816,767,0
33617,346.30,816,768,0
33627,346.26,816,767,0
33637,347.25,816,768,0
33647,347.90,816,767,0
33657,349.43,816,768,0
33667,350.50,816,768,0
33677,352.24,816,768,0
33687,353.41,816,767,0
33697,355.13,816,768,0
33708,356.03,816,767,0
33718,357.44,816,768,0
33728,357.95,816,767,0
33738,358.91,816,768,0
33748,358.98,816,767,0
33758,359.41,816,768,0
33768,358.99,816,767,0
33778,359.42,816,768,0
33788,360.15,816,767,0
33798,363.32,816,768,0
33808,369.18,816,767,0
33818,380.70,816,768,0
33828,398.53,816,767,0
33838,424.86,816,768,0
33848,459.14,816,767,0
33867,499.73,795,766,0
33870,543.05,795,767,0
33879,586.75,795,769,0
33889,627.50,795,767,0
33899,663.35,795,769,0
33909,692.17,795,767,0
33920,713.33,795,769,0
33929,728.11,795,767,0
33939,738.45,795,769,0
33949,745.64,795,767,0
33959,750.72,795,769,0
33969,752.39,795,767,0
33979,749.83,795,769,0
33989,741.44,795,767,0
33999,727.21,795,769,0
34009,706.53,795,767,0
34019,679.97,795,768,0
34029,647.15,795,767,0
34039,610.85,795,769,0
34049,572.49,795,767,0
34059,535.06,795,768,0
34069,498.87,795,767,0
34079,465.91,795,768,0
34089,436.07,795,767,0
34099,410.93,795,768,0
34109,389.82,795,767,0
34119,373.89,795,769,0
34129,362.01,795,767,0
34139,355.11,795,768,0
34149,351.56,795,767,0
34159,351.86,795,769,0
34169,354.30,795,767,0
34179,359.14,795,768,0
34189,364.41,795,767,0
34199,370.42,795,768,0
34209,375.44,795,767,0
34220,380.06,795,768,0
34230,382.79,795,767,0
34240,384.22,795,768,0
34250,383.47,795,767,0
34260,381.57,795,768,0
34270,377.93,795,767,0
34280,373.75,795,768,0
34290,368.47,795,767,0
34300,363.27,795,768,0
34310,357.83,795,767,0
34320,353.04,795,768,0
34330,348.31,795,767,0
34340,344.53,795,768,0
34350,340.99,795,767,0
34360,338.55,795,769,0
34370,336.37,795,767,0
34380,335.10,795,768,0
34391,334.04,795,767,0
34401,333.99,795,769,0
34411,334.12,795,767,0
34421,334.94,795,768,0
34432,335.73,795,767,0
34441,337.18,795,769,0
34451,338.58,795,767,0
34461,340.38,795,768,0
34471,341.85,795,767,0
34481,343.44,795,769,0
34491,344.68,795,767,0
34501,345.80,795,768,0
34511,346.42,795,767,0
34521,346.89,795,769,0
34531,346.84,795,767,0
34541,346.67,795,768,0
34551,346.09,795,767,0
34561,345.80,795,769,0
34571,346.16,795,767,0
34581,348.68,795,768,0
34591,354.48,795,767,0
34601,365.74,795,769,0
34611,383.51,795,767,0
34621,409.85,795,769,0
34631,444.99,795,767,0
34651,486.78,783,766,0
34654,531.63,783,768,0
34663,576.79,783,768,0
34673,619.28,783,767,0
34683,657.04,783,768,0
34693,687.71,783,767,0
34703,710.13,783,768,0
34713,725.86,783,767,0
34723,736.83,783,768,0
34733,744.55,783,767,0
34743,749.92,783,768,0
34753,752.68,783,767,0
34763,751.06,783,768,0
34774,744.27,783,767,0
34783,731.38,783,768,0
34793,712.15,783,767,0
34803,686.30,783,768,0
34813,654.24,783,767,0
34823,617.36,783,768,0
34833,578.29,783,767,0
34843,538.56,783,768,0
34853,500.16,783,767,0
34863,464.20,783,768,0
34873,432.00,783,767,0
34883,403.71,783,768,0
34893,380.18,783,767,0
34903,361.36,783,768,0
34913,347.71,783,767,0
34923,338.54,783,768,0
34933,333.79,783,767,0
34944,332.48,783,768,0
34953,334.52,783,767,0
34963,338.48,783,768,0
34973,344.16,783,767,0
34983,350.16,783,768,0
34993,356.37,783,767,0
35003,361.66,783,768,0
35013,366.05,783,767,0
35023,368.69,783,768,0
35033,369.85,783,767,0
35043,369.17,783,768,0
35053,367.32,783,767,0
35063,364.01,783,768,0
35073,359.98,783,767,0
35083,354.97,783,768,0
35093,349.84,783,767,0
35103,344.49,783,768,0
35113,339.58,783,767,0
35123,334.91,783,768,0
35133,330.95,783,767,0
35143,327.45,783,768,0
35153,325.13,783,767,0
35163,323.38,783,768,0
35173,322.53,783,767,0
35183,321.99,783,768,0
35193,322.33,783,768,0
35203,323.01,783,768,0
35213,324.20,783,767,0
35223,325.21,783,768,0
35233,326.48,783,767,0
35244,327.49,783,768,0
35254,328.72,783,768,0
35264,329.36,783,768,0
35274,330.11,783,768,0
35284,330.42,783,768,0
35294,330.85,783,768,0
35304,330.85,783,768,0
35314,331.03,783,768,0
35324,330.59,783,768,0
35334,330.50,783,767,0
35344,329.96,783,768,0
35354,329.93,783,768,0
35364,329.61,783,768,0
35374,330.20,783,768,0
35384,331.64,783,768,0
35394,336.08,783,768,0
35404,344.07,783,768,0
35415,358.23,783,768,0
35425,379.42,783,768,0
35435,409.85,783,768,0
35454,448.85,804,767,0
35458,493.60,804,769,0
35467,540.35,804,767,0
35477,586.61,804,769,0
35487,629.16,804,767,0
35497,665.97,804,769,0
35507,694.78,804,767,0
35517,715.16,804,769,0
35527,729.34,804,767,0
35537,739.31,804,769,0
35547,746.25,804,767,0
35557,750.54,804,769,0
35567,749.99,804,767,0
35577,744.12,804,769,0
35587,731.96,804,767,0
35597,713.76,804,768,0
35607,688.72,804,767,0
35617,657.64,804,768,0
35628,620.94,804,767,0
35638,582.34,804,768,0
35648,542.77,804,767,0
35658,504.61,804,769,0
35668,468.04,804,767,0
35678,435.24,804,768,0
35688,405.77,804,767,0
35698,381.07,804,769,0
35708,360.39,804,767,0
35718,344.97,804,769,0
35728,333.62,804,766,0
35738,327.09,804,769,0
35748,323.89,804,767,0
35758,324.35,804,769,0
35768,326.78,804,767,0
35778,331.39,804,769,0
35788,336.50,804,767,0
35799,342.31,804,769,0
35809,347.23,804,766,0
35819,351.62,804,769,0
35829,354.39,804,767,0
35840,356.16,804,769,0
35849,356.15,804,766,0
35859,355.12,804,769,0
35869,352.47,804,767,0
35879,349.20,804,769,0
35889,345.03,804,767,0
35899,340.82,804,768,0
35909,336.12,804,767,0
35919,331.92,804,769,0
35929,327.75,804,766,0
35939,324.61,804,769,0
35949,321.85,804,767,0
35959,320.10,804,769,0
35969,318.65,804,767,0
35979,318.29,804,769,0
35989,318.11,804,767,0
35999,318.68,804,769,0
36009,319.20,804,767,0
36019,320.26,804,769,0
36029,321.17,804,767,0
36039,322.57,804,769,0
36049,323.73,804,767,0
36059,325.27,804,769,0
36069,326.52,804,767,0
36079,328.08,804,769,0
36089,329.34,804,767,0
36099,330.91,804,768,0
36109,332.14,804,767,0
36119,333.55,804,769,0
36129,334.42,804,767,0
36140,335.45,804,769,0
36150,335.87,804,767,0
36160,336.25,804,769,0
36170,336.09,804,767,0
36180,336.06,804,768,0
36190,336.22,804,767,0
36200,338.04,804,769,0
36210,342.53,804,767,0
36220,351.75,804,768,0
36230,366.87,804,767,0
36240,389.92,804,769,0
36259,421.58,805,768,0
36262,461.65,805,768,0
36271,506.37,805,767,0
36281,552.58,805,769,0
36291,597.28,805,767,0
36301,638.25,805,768,0
36311,672.93,805,767,0
36321,699.91,805,769,0
36331,718.75,805,767,0
36341,731.90,805,768,0
36352,741.10,805,767,0
36361,747.54,805,769,0
36371,749.48,805,767,0
36381,745.78,805,768,0
36391,735.77,805,767,0
36401,719.38,805,769,0
36411,696.51,805,767,0
36421,667.04,805,768,0
36431,631.55,805,767,0
36441,593.07,805,768,0
36451,553.83,805,767,0
36461,515.48,805,768,0
36471,479.21,805,767,0
36481,445.98,805,768,0
36491,416.80,805,767,0
36501,391.91,805,768,0
36511,371.71,805,767,0
36521,356.28,805,768,0
36531,345.61,805,767,0
36541,339.30,805,768,0
36551,337.07,805,767,0
36561,338.20,805,768,0
36571,342.13,805,767,0
36581,347.83,805,768,0
36591,354.74,805,767,0
36601,361.89,805,768,0
36611,368.78,805,767,0
36621,374.67,805,768,0
36631,379.23,805,767,0
36641,381.86,805,768,0
36652,382.80,805,767,0
36662,381.66,805,768,0
36672,379.23,805,767,0
36682,375.14,805,768,0
36692,370.17,805,768,0
36702,364.29,805,768,0
36712,358.50,805,767,0
36722,352.52,805,768,0
36732,347.27,805,768,0
36742,342.17,805,768,0
36752,338.13,805,767,0
36762,334.62,805,768,0
36772,332.34,805,768,0
36782,330.56,805,768,0
36792,329.71,805,767,0
36802,329.15,805,768,0
36812,329.62,805,767,0
36823,330.42,805,768,0
36833,332.01,805,768,0
36843,333.63,805,768,0
36853,335.89,805,768,0
36864,337.89,805,768,0
36873,340.28,805,768,0
36883,342.00,805,768,0
36893,343.84,805,768,0
36903,344.75,805,768,0
36913,345.68,805,768,0
36923,345.90,805,768,0
36933,347.05,805,768,0
36943,349.00,805,768,0
36953,354.02,805,768,0
36963,362.76,805,768,0
36973,378.04,805,768,0
36983,400.40,805,768,0
36993,431.44,805,768,0
37003,470.18,805,768,0
37013,513.71,805,768,0
37032,558.50,773,767,0
37036,602.19,773,769,0
37044,641.73,773,768,0
37054,675.41,773,768,0
37064,701.52,773,767,0
37074,719.83,773,769,0
37084,732.61,773,768,0
37094,741.60,773,768,0
37104,747.16,773,767,0
37114,748.57,773,768,0
37124,744.59,773,768,0
37134,735.11,773,768,0
37144,719.13,773,767,0
37154,697.28,773,768,0
37164,669.17,773,768,0
37174,636.29,773,768,0
37184,600.03,773,767,0
37194,563.04,773,768,0
37204,525.74,773,767,0
37214,490.63,773,768,0
37224,457.40,773,767,0
37234,427.71,773,768,0
37244,401.14,773,767,0
37254,379.24,773,768,0
37264,361.34,773,767,0
37274,348.77,773,768,0
37284,340.18,773,767,0
37294,336.48,773,768,0
37304,336.12,773,767,0
37314,339.56,773,768,0
37324,344.83,773,767,0
37335,352.30,773,769,0
37345,359.84,773,767,0
37355,367.90,773,768,0
37365,374.49,773,767,0
37376,380.26,773,768,0
37385,383.65,773,767,0
37395,385.77,773,768,0
37405,385.32,773,767,0
37415,383.68,773,768,0
37425,380.05,773,767,0
37435,375.96,773,768,0
37445,370.57,773,767,0
37455,365.35,773,768,0
37465,359.50,773,767,0
37475,354.46,773,768,0
37485,349.31,773,767,0
37495,345.32,773,769,0
37505,341.41,773,767,0
37515,338.93,773,768,0
37525,336.72,773,767,0
37535,335.69,773,768,0
37545,334.67,773,767,0
37555,334.85,773,768,0
37565,334.94,773,767,0
37575,336.20,773,769,0
37585,337.13,773,767,0
37595,338.93,773,768,0
37605,340.37,773,767,0
37615,342.44,773,768,0
37625,343.90,773,767,0
37635,345.68,773,768,0
37645,346.51,773,767,0
37655,347.56,773,769,0
37665,347.65,773,767,0
37676,348.14,773,769,0
37686,348.44,773,767,0
37696,350.58,773,769,0
37706,354.95,773,767,0
37716,364.44,773,768,0
37726,379.60,773,767,0
37736,403.38,773,769,0
37746,435.84,773,767,0
37756,476.09,773,769,0
37775,520.20,743,768,0
37778,565.74,743,769,0
37787,609.19,743,767,0
37797,648.65,743,769,0
37807,681.15,743,767,0
37817,705.62,743,769,0
37827,722.75,743,767,0
37837,734.78,743,769,0
37847,743.12,743,766,0
37857,748.95,743,769,0
37867,753.04,743,767,0
37877,755.94,743,769,0
37888,756.69,743,767,0
37897,754.00,743,769,0
37907,746.15,743,767,0
37917,732.65,743,769,0
37927,712.61,743,766,0
37937,686.46,743,769,0
37947,653.79,743,767,0
37957,616.61,743,769,0
37967,576.53,743,766,0
37977,536.64,743,769,0
37987,497.75,743,767,0
37997,462.00,743,768,0
38007,429.47,743,766,0
38017,401.94,743,769,0
38027,379.07,743,767,0
38037,361.91,743,769,0
38047,349.46,743,767,0
38057,342.34,743,769,0
38067,339.24,743,767,0
38077,340.19,743,768,0
38087,343.44,743,767,0
38097,348.88,743,769,0
38107,354.87,743,767,0
38117,361.34,743,769,0
38127,366.85,743,767,0
38137,371.61,743,769,0
38147,374.51,743,767,0
38157,376.20,743,769,0
38167,375.80,743,767,0
38177,374.14,743,769,0
38188,370.76,743,767,0
38198,366.67,743,769,0
38208,361.59,743,767,0
38218,356.48,743,769,0
38228,351.07,743,767,0
38238,346.33,743,769,0
38248,341.86,743,767,0
38258,338.30,743,769,0
38268,335.34,743,767,0
38278,333.40,743,769,0
38288,332.12,743,767,0
38298,331.61,743,769,0
38308,331.51,743,767,0
38318,332.13,743,769,0
38328,332.91,743,766,0
38338,334.18,743,769,0
38348,335.41,743,767,0
38359,336.83,743,769,0
38369,338.42,743,767,0
38379,340.23,743,768,0
38389,342.00,743,767,0
38400,343.89,743,768,0
38409,345.59,743,767,0
38419,347.34,743,768,0
38429,348.83,743,767,0
38439,349.99,743,768,0
38449,350.72,743,767,0
38459,351.06,743,769,0
38469,351.04,743,767,0
38479,350.69,743,768,0
38489,350.35,743,767,0
38499,350.72,743,768,0
38509,352.99,743,767,0
38519,358.69,743,768,0
38529,369.54,743,767,0
38539,387.81,743,769,0
38549,415.12,743,767,0
38568,451.81,793,766,0
38572,494.56,793,768,0
38580,540.07,793,769,0
38590,585.52,793,767,0
38600,628.22,793,768,0
38610,665.31,793,768,0
38620,694.62,793,768,0
38630,715.18,793,768,0
38640,729.52,793,768,0
38650,739.57,793,768,0
38660,746.60,793,768,0
38670,751.52,793,767,0
38680,754.96,793,768,0
38690,757.37,793,767,0
38700,759.06,793,768,0
38710,760.24,793,768,0
38720,758.58,793,768,0
38730,752.41,793,768,0
38740,740.16,793,768,0
38750,721.64,793,767,0
38760,696.08,793,768,0
38770,663.70,793,768,0
38780,624.44,793,767,0
38790,581.88,793,767,0
38800,538.25,793,768,0
38810,496.17,793,767,0
38820,456.65,793,768,0
38830,421.48,793,767,0
38840,391.42,793,768,0
38850,367.73,793,767,0
38860,349.81,793,768,0
38871,338.17,793,767,0
38881,331.90,793,768,0
38891,330.90,793,768,0
38901,333.80,793,768,0
38912,339.91,793,768,0
38921,347.43,793,768,0
38931,355.96,793,768,0
38941,363.77,793,768,0
38951,370.91,793,768,0
38961,376.00,793,768,0
38971,379.60,793,768,0
38981,380.70,793,768,0
38991,380.15,793,768,0
39001,377.45,793,768,0
39011,373.88,793,768,0
39021,368.95,793,768,0
39031,363.78,793,768,0
39041,357.97,793,768,0
39051,352.67,793,768,0
39061,347.41,793,768,0
39071,343.17,793,768,0
39081,339.09,793,768,0
39091,336.11,793,768,0
39101,333.50,793,768,0
39111,332.11,793,768,0
39121,331.05,793,768,0
39131,331.08,793,768,0
39141,331.14,793,768,0
39151,332.13,793,768,0
39161,332.86,793,768,0
39171,334.19,793,768,0
39181,335.07,793,768,0
39191,336.47,793,768,0
39201,337.44,793,768,0
39212,339.02,793,768,0
39222,340.17,793,768,0
39232,341.92,793,768,0
39242,343.14,793,768,0
39252,344.73,793,768,0
39262,345.58,793,768,0
39272,346.52,793,768,0
39282,346.49,793,767,0
39292,346.65,793,768,0
39302,346.37,793,768,0
39312,347.50,793,768,0
39322,350.31,793,767,0
39332,357.63,793,768,0
39342,370.08,793,768,0
39352,390.72,793,768,0
39362,419.86,793,768,0
39382,458.13,813,766,0
39385,501.55,813,769,0
39394,547.45,813,769,0
39404,592.28,813,767,0
39414,634.06,813,769,0
39425,669.66,813,767,0
39435,697.62,813,768,0
39445,717.19,813,767,0
39455,730.89,813,769,0
39465,740.48,813,767,0
39475,747.24,813,768,0
39485,751.97,813,767,0
39495,755.28,813,769,0
39505,756.22,813,767,0
39515,753.71,813,768,0
39525,745.83,813,767,0
39535,732.21,813,769,0
39545,711.79,813,767,0
39555,685.07,813,768,0
39565,651.57,813,767,0
39575,613.52,813,769,0
39585,572.13,813,767,0
39596,530.69,813,768,0
39606,490.29,813,767,0
39616,453.34,813,769,0
39626,420.07,813,767,0
39636,392.19,813,768,0
39646,369.42,813,767,0
39656,353.01,813,769,0
39666,342.03,813,767,0
39676,336.58,813,768,0
39686,335.34,813,767,0
39696,338.15,813,769,0
39706,343.33,813,767,0
39716,350.56,813,768,0
39726,358.15,813,767,0
39736,365.95,813,769,0
39746,372.56,813,767,0
39756,378.09,813,768,0
39767,381.41,813,767,0
39777,382.91,813,768,0
39787,382.04,813,767,0
39797,379.54,813,768,0
39808,375.31,813,767,0
39817,370.29,813,769,0
39827,364.24,813,767,0
39837,358.09,813,768,0
39847,351.93,813,767,0
39857,346.47,813,769,0
39867,341.57,813,767,0
39877,337.46,813,768,0
39887,334.02,813,767,0
39897,331.66,813,769,0
39907,330.00,813,767,0
39917,329.27,813,768,0
39927,328.98,813,767,0
39937,329.33,813,769,0
39947,330.00,813,767,0
39957,331.11,813,768,0
39967,332.37,813,767,0
39977,334.06,813,768,0
39987,335.67,813,767,0
39997,337.57,813,768,0
40007,339.33,813,767,0
40017,341.03,813,769,0
40027,342.35,813,767,0
40037,343.49,813,769,0
40047,344.20,813,767,0
40057,345.21,813,769,0
40067,346.73,813,767,0
40077,350.37,813,769,0
40087,357.72,813,767,0
40097,370.92,813,768,0
40108,391.68,813,767,0
40118,421.52,813,769,0
40128,459.85,813,767,0
40138,503.61,813,769,0
40158,549.50,776,767,0
40161,594.69,776,768,0
40170,636.23,776,768,0
40180,671.64,776,768,0
40190,699.05,776,768,0
40200,718.19,776,768,0
40210,731.59,776,767,0
40220,740.97,776,768,0
40230,747.54,776,768,0
40240,752.13,776,768,0
40250,753.46,776,768,0
40260,749.64,776,768,0
40270,740.06,776,768,0
40280,723.97,776,768,0
40290,701.39,776,767,0
40300,671.88,776,768,0
40310,636.04,776,768,0
40321,595.70,776,768,0
40331,554.13,776,768,0
40341,512.44,776,768,0
40351,472.83,776,768,0
40361,435.77,776,767,0
40371,403.27,776,767,0
40381,375.07,776,768,0
40391,352.77,776,768,0
40401,335.52,776,767,0
40411,324.31,776,767,0
40421,317.79,776,768,0
40431,316.48,776,768,0
40441,318.48,776,767,0
40451,324.03,776,767,0
40461,331.01,776,768,0
40471,339.54,776,768,0
40481,347.60,776,767,0
40492,355.57,776,768,0
40502,361.78,776,767,0
40512,366.86,776,768,0
40522,369.30,776,767,0
40532,370.20,776,768,0
40542,368.72,776,767,0
40552,366.19,776,768,0
40562,361.59,776,767,0
40572,356.44,776,768,0
40582,350.14,776,767,0
40592,344.27,776,768,0
40602,337.89,776,767,0
40612,332.52,776,768,0
40622,327.27,776,767,0
40632,323.63,776,769,0
40642,320.31,776,767,0
40652,318.50,776,768,0
40663,316.94,776,767,0
40673,316.96,776,768,0
40683,316.93,776,767,0
40693,318.06,776,768,0
40704,318.82,776,767,0
40713,320.50,776,768,0
40723,321.68,776,767,0
40733,323.49,776,768,0
40743,324.67,776,767,0
40753,326.40,776,768,0
40763,327.44,776,767,0
40773,329.11,776,768,0
40783,330.10,776,767,0
40793,331.57,776,768,0
40803,332.47,776,767,0
40813,333.79,776,768,0
40823,334.41,776,767,0
40833,335.53,776,768,0
40843,336.23,776,767,0
40853,338.39,776,768,0
40863,341.87,776,767,0
40873,349.54,776,768,0
40883,361.98,776,767,0
40893,382.38,776,768,0
40903,411.20,776,767,0
40913,449.50,776,769,0
40932,493.10,775,767,0
40935,539.74,775,769,0
40944,585.64,775,767,0
40954,628.69,775,769,0
40964,665.64,775,767,0
40974,694.89,775,769,0
40984,715.37,775,767,0
40994,729.70,775,769,0
41004,739.69,775,767,0
41014,746.68,775,769,0
41024,751.58,775,767,0
41034,755.00,775,769,0
41044,755.39,775,767,0
41054,751.63,775,769,0
41064,741.71,775,767,0
41074,725.34,775,769,0
41084,701.58,775,767,0
41094,671.11,775,768,0
41104,633.66,775,767,0
41114,592.15,775,769,0
41124,548.00,775,767,0
41134,504.72,775,769,0
41144,462.93,775,767,0
41154,425.02,775,769,0
41164,390.86,775,767,0
41175,362.06,775,768,0
41185,338.26,775,767,0
41195,320.61,775,769,0
41205,308.25,775,767,0
41216,301.75,775,769,0
41225,299.81,775,767,0
41235,302.52,775,769,0
41245,308.15,775,767,0
41255,316.38,775,769,0
41265,325.48,775,767,0
41275,335.15,775,769,0
41285,343.80,775,767,0
41295,351.41,775,769,0
41305,356.77,775,766,0
41315,360.48,775,769,0
41325,361.79,775,767,0
41335,361.47,775,769,0
41345,358.97,775,767,0
41355,355.59,775,769,0
41365,351.00,775,767,0
41375,346.20,775,769,0
41385,340.91,775,767,0
41395,336.05,775,769,0
41405,331.24,775,767,0
41415,327.35,775,769,0
41425,323.77,775,767,0
41435,321.19,775,769,0
41445,318.90,775,767,0
41455,317.52,775,769,0
41465,316.46,775,767,0
41475,316.37,775,768,0
41485,316.38,775,767,0
41495,317.04,775,769,0
41505,317.63,775,767,0
41516,318.73,775,769,0
41526,319.62,775,767,0
41536,320.76,775,769,0
41546,321.52,775,767,0
41556,322.44,775,769,0
41566,322.95,775,767,0
41576,323.56,775,768,0
41586,323.87,775,767,0
41596,324.12,775,768,0
41606,324.04,775,767,0
41616,323.94,775,769,0
41626,323.57,775,767,0
41636,323.27,775,768,0
41646,323.15,775,767,0
41656,324.00,775,769,0
41666,326.66,775,767,0
41676,332.76,775,768,0
41687,343.89,775,767,0
41697,362.14,775,769,0
41707,389.05,775,767,0
41726,425.47,794,766,0
41730,468.91,794,768,0
41739,516.12,794,768,0
41749,563.87,794,768,0
41759,609.25,794,768,0
41769,649.55,794,768,0
41779,682.51,794,768,0
41789,706.66,794,768,0
41799,723.48,794,768,0
41809,735.25,794,768,0
41819,743.49,794,768,0
41829,749.30,794,768,0
41839,752.12,794,768,0
41849,750.59,794,768,0
41859,743.47,794,768,0
41869,730.43,794,768,0
41879,710.58,794,768,0
41889,684.18,794,768,0
41900,651.13,794,768,0
41910,613.50,794,768,0
41920,573.02,794,767,0
41930,532.35,794,768,0
41940,492.21,794,767,0
41950,454.91,794,768,0
41960,420.43,794,767,0
41970,390.52,794,768,0
41980,364.48,794,767,0
41990,344.02,794,768,0
42000,328.03,794,767,0
42010,317.65,794,768,0
42020,311.58,794,767,0
42030,310.68,794,768,0
42040,312.96,794,767,0
42050,318.80,794,768,0
42060,326.06,794,767,0
42071,335.13,794,768,0
42081,343.92,794,767,0
42091,352.69,794,768,0
42101,359.51,794,767,0
42112,365.06,794,768,0
42121,368.08,794,767,0
42131,369.60,794,769,0
42141,368.56,794,767,0
42151,366.29,794,768,0
42161,362.05,794,767,0
42171,357.49,794,768,0
42181,351.77,794,767,0
42191,346.48,794,768,0
42201,340.72,794,767,0
42211,336.01,794,768,0
42221,331.42,794,767,0
42231,328.25,794,768,0
42241,325.26,794,767,0
42251,323.81,794,768,0
42261,322.58,794,767,0
42271,322.79,794,768,0
42281,323.03,794,767,0
42291,324.39,794,768,0
42301,325.56,794,767,0
42311,327.66,794,768,0
42321,329.39,794,767,0
42331,331.85,794,768,0
42341,333.69,794,767,0
42351,336.18,794,769,0
42361,337.89,794,767,0
42371,340.02,794,768,0
42381,341.26,794,767,0
42391,342.81,794,768,0
42401,343.29,794,767,0
42412,344.11,794,768,0
42422,344.25,794,767,0
42432,345.80,794,769,0
42442,348.65,794,767,0
42452,355.61,794,768,0
42462,366.91,794,767,0
42472,385.97,794,768,0
42482,413.06,794,767,0
42492,449.90,794,769,0
42511,492.40,785,768,0
42514,538.01,785,770,0
42523,583.09,785,767,0
42533,625.84,785,769,0
42543,662.91,785,767,0
42553,692.81,785,769,0
42563,713.87,785,767,0
42573,728.61,785,769,0
42583,738.88,785,767,0
42593,746.12,785,769,0
42603,749.17,785,767,0
42613,747.15,785,769,0
42624,738.62,785,767,0
42633,723.82,785,769,0
42643,701.89,785,767,0
42653,673.42,785,768,0
42663,638.28,785,767,0
42673,599.62,785,769,0
42683,558.77,785,767,0
42693,518.55,785,768,0
42703,479.34,785,767,0
42713,443.45,785,769,0
42723,410.75,785,767,0
42733,382.71,785,768,0
42743,358.62,785,767,0
42753,340.01,785,769,0
42763,326.12,785,767,0
42773,317.77,785,768,0
42783,313.68,785,767,0
42793,314.16,785,769,0
42803,317.59,785,767,0
42813,324.01,785,768,0
42823,331.55,785,767,0
42833,340.26,785,769,0
42843,348.24,785,767,0
42853,355.75,785,768,0
42863,361.31,785,767,0
42873,365.50,785,769,0
42883,367.15,785,767,0
42893,367.19,785,768,0
42903,364.69,785,767,0
42913,360.93,785,769,0
42924,355.46,785,767,0
42934,349.62,785,768,0
42944,343.09,785,767,0
42954,337.07,785,769,0
42964,331.26,785,767,0
42974,326.73,785,768,0
42984,322.86,785,767,0
42994,320.25,785,769,0
43004,318.33,785,767,0
43014,317.55,785,768,0
43024,317.21,785,767,0
43034,317.79,785,769,0
43044,318.62,785,767,0
43054,320.19,785,768,0
43064,321.76,785,767,0
43074,323.85,785,769,0
43084,325.82,785,767,0
43095,328.10,785,768,0
43105,330.09,785,767,0
43115,332.25,785,769,0
43125,334.02,785,767,0
43136,335.85,785,768,0
43145,337.35,785,767,0
43155,339.09,785,769,0
43165,341.04,785,767,0
43175,343.94,785,768,0
43185,348.54,785,767,0
43195,356.57,785,769,0
43205,369.64,785,767,0
43215,389.46,785,768,0
43225,416.92,785,767,0
43235,453.07,785,769,0
43254,495.01,743,768,0
43257,539.75,743,769,0
43266,584.35,743,767,0
43276,626.12,743,769,0
43286,662.64,743,767,0
43296,692.23,743,768,0
43307,713.42,743,767,0
43316,728.25,743,769,0
43326,738.63,743,767,0
43336,745.90,743,768,0
43346,749.53,743,767,0
43356,748.43,743,769,0
43366,741.53,743,767,0
43376,728.04,743,768,0
43386,707.84,743,767,0
43396,681.06,743,768,0
43406,648.04,743,767,0
43416,610.44,743,768,0
43426,570.54,743,767,0
43436,530.44,743,769,0
43446,491.69,743,767,0
43456,455.27,743,768,0
43466,421.97,743,767,0
43476,392.15,743,768,0
43486,366.56,743,767,0
43496,345.44,743,768,0
43506,329.06,743,767,0
43516,317.43,743,768,0
43526,310.49,743,767,0
43536,307.73,743,768,0
43546,308.97,743,767,0
43556,313.13,743,768,0
43566,319.56,743,767,0
43576,327.20,743,768,0
43586,335.45,743,767,0
43596,343.24,743,768,0
43607,350.24,743,767,0
43617,355.48,743,768,0
43627,359.15,743,767,0
43637,360.61,743,768,0
43648,360.38,743,768,0
43657,358.17,743,768,0
43667,354.86,743,767,0
43677,350.23,743,768,0
43687,345.32,743,768,0
43697,339.87,743,768,0
43707,334.85,743,767,0
43717,329.92,743,768,0
43727,325.96,743,768,0
43737,322.46,743,768,0
43747,320.13,743,767,0
43757,318.25,743,768,0
43767,317.49,743,768,0
43777,317.26,743,768,0
43787,317.87,743,768,0
43797,318.59,743,768,0
43807,320.00,743,768,0
43817,321.24,743,768,0
43827,323.06,743,768,0
43837,324.67,743,768,0
43847,326.65,743,768,0
43857,328.34,743,768,0
43867,330.43,743,768,0
43877,332.14,743,768,0
43887,334.20,743,768,0
43897,335.77,743,768,0
43907,337.47,743,768,0
43917,338.57,743,768,0
43927,339.77,743,768,0
43937,340.44,743,768,0
43948,341.46,743,768,0
43958,342.61,743,768,0
43968,345.73,743,768,0
43978,351.55,743,768,0
43988,362.70,743,768,0
43998,380.02,743,768,0
44008,405.81,743,768,0
44027,440.28,773,767,0
44030,481.90,773,769,0
44039,526.80,773,768,0
44049,572.46,773,768,0
44059,615.48,773,767,0
44069,654.04,773,769,0
44079,685.44,773,767,0
44089,708.62,773,768,0
44099,724.76,773,767,0
44109,736.11,773,769,0
44119,744.00,773,768,0
44129,749.57,773,768,0
44139,753.43,773,768,0
44149,755.70,773,768,0
44160,753.90,773,767,0
44169,747.68,773,768,0
44179,735.60,773,767,0
44189,717.72,773,768,0
44199,693.29,773,767,0
44209,663.07,773,768,0
44219,627.10,773,767,0
44229,589.10,773,768,0
44239,549.60,773,767,0
44249,511.62,773,768,0
44259,475.35,773,767,0
44269,442.97,773,768,0
44279,414.01,773,767,0
44289,390.31,773,768,0
44299,371.06,773,768,0
44309,357.63,773,768,0
44319,348.48,773,767,0
44329,344.57,773,768,0
44339,344.05,773,768,0
44349,347.38,773,768,0
44359,352.54,773,767,0
44369,359.79,773,768,0
44379,367.10,773,768,0
44389,374.74,773,768,0
44399,380.77,773,767,0
44409,385.90,773,768,0
44419,388.67,773,768,0
44429,390.06,773,768,0
44439,388.88,773,767,0
44449,386.60,773,768,0
44460,382.27,773,767,0
44470,377.56,773,768,0
44480,371.65,773,767,0
44490,366.18,773,768,0
44500,360.26,773,767,0
44510,355.42,773,768,0
44520,350.58,773,767,0
44530,347.19,773,768,0
44540,343.96,773,767,0
44550,342.22,773,768,0
44560,340.52,773,767,0
44570,340.07,773,768,0
44580,339.49,773,767,0
44590,339.94,773,768,0
44600,340.13,773,767,0
44610,341.12,773,768,0
44620,341.64,773,767,0
44631,342.99,773,769,0
44641,344.02,773,767,0
44651,345.90,773,769,0
44661,347.43,773,767,0
44672,349.62,773,769,0
44681,351.40,773,767,0
44691,353.81,773,769,0
44701,355.50,773,767,0
44711,357.40,773,769,0
44721,358.31,773,767,0
44731,359.29,773,769,0
44741,359.25,773,767,0
44751,359.34,773,769,0
44761,358.60,773,767,0
44771,358.68,773,769,0
44781,359.50,773,767,0
44791,363.68,773,769,0
44801,371.79,773,767,0
44811,386.94,773,769,0
44821,410.01,773,767,0
44840,443.31,813,766,0
44844,483.46,813,767,0
44852,527.81,813,769,0
44862,572.82,813,767,0
44872,616.29,813,769,0
44882,654.99,813,767,0
44892,686.88,813,768,0
44902,709.76,813,767,0
44912,725.73,813,769,0
44922,736.91,813,767,0
44932,744.74,813,768,0
44942,750.22,813,767,0
44952,754.05,813,769,0
44962,756.74,813,767,0
44972,758.62,813,768,0
44982,759.93,813,767,0
44992,759.14,813,769,0
45002,753.95,813,767,0
45012,743.34,813,768,0
45022,726.27,813,767,0
45032,702.53,813,769,0
45042,671.68,813,767,0
45052,634.41,813,768,0
45062,592.67,813,767,0
45072,550.00,813,769,0
45082,507.91,813,767,0
45092,468.94,813,768,0
45102,433.90,813,767,0
45112,404.79,813,769,0
45122,381.24,813,767,0
45132,364.24,813,768,0
45143,352.81,813,767,0
45153,347.34,813,769,0
45163,346.25,813,767,0
45173,349.26,813,768,0
45184,354.50,813,767,0
45193,361.72,813,769,0
45203,369.13,813,767,0
45213,376.42,813,769,0
45223,382.38,813,767,0
45233,387.02,813,769,0
45243,389.59,813,767,0
45253,390.31,813,768,0
45263,388.85,813,767,0
45273,385.89,813,769,0
45283,381.34,813,767,0
45293,375.88,813,768,0
45303,369.44,813,767,0
45313,363.10,813,769,0
45323,356.68,813,767,0
45333,350.91,813,768,0
45343,345.58,813,767,0
45353,341.38,813,769,0
45363,337.83,813,767,0
45373,335.57,813,768,0
45383,333.94,813,767,0
45393,333.53,813,769,0
45403,333.71,813,767,0
45413,334.87,813,769,0
45423,336.50,813,767,0
45433,338.83,813,769,0
45443,341.24,813,767,0
45453,343.95,813,769,0
45463,346.28,813,767,0
45473,348.60,813,769,0
45484,350.35,813,767,0
45494,351.70,813,769,0
45504,352.90,813,767,0
45514,354.69,813,768,0
45524,358.08,813,767,0
45534,364.70,813,769,0
45544,375.98,813,767,0
45554,394.07,813,769,0
45564,420.28,813,767,0
45574,455.12,813,769,0
45584,496.14,813,767,0
45594,540.03,813,769,0
45614,584.08,773,768,0
45616,625.67,773,768,0
45626,662.15,773,768,0
45636,691.68,773,768,0
45646,713.08,773,768,0
45656,728.05,773,768,0
45666,738.54,773,767,0
45676,745.88,773,768,0
45686,751.01,773,768,0
45697,753.58,773,768,0
45707,752.29,773,768,0
45717,745.65,773,768,0
45727,733.28,773,768,0
45737,714.30,773,768,0
45747,689.14,773,767,0
45757,657.34,773,768,0
45767,620.77,773,768,0
45777,580.89,773,768,0
45787,540.81,773,767,0
45797,501.14,773,768,0
45807,464.20,773,768,0
45817,429.94,773,768,0
45827,400.34,773,767,0
45837,374.91,773,768,0
45847,355.18,773,768,0
45857,340.08,773,768,0
45868,330.67,773,768,0
45878,325.54,773,768,0
45888,325.17,773,768,0
45898,327.60,773,767,0
45908,333.08,773,768,0
45918,339.61,773,767,0
45928,347.23,773,768,0
45938,354.06,773,767,0
45948,360.47,773,768,0
45958,365.00,773,768,0
45968,368.26,773,768,0
45978,368.91,773,767,0
45988,368.38,773,768,0
45998,365.82,773,768,0
46008,362.53,773,768,0
46018,357.74,773,767,0
46028,352.81,773,768,0
46039,347.08,773,767,0
46049,342.17,773,769,0
46059,336.89,773,767,0
46069,332.68,773,768,0
46080,328.49,773,767,0
46089,325.69,773,768,0
46099,323.08,773,767,0
46109,321.81,773,768,0
46119,320.67,773,767,0
46129,320.73,773,769,0
46139,320.64,773,767,0
46149,321.60,773,768,0
46159,322.28,773,767,0
46169,323.78,773,769,0
46179,324.88,773,767,0
46189,326.67,773,768,0
46199,328.01,773,767,0
46209,330.02,773,768,0
46219,331.34,773,767,0
46229,333.13,773,768,0
46239,334.07,773,767,0
46249,335.38,773,769,0
46259,335.87,773,767,0
46269,336.81,773,768,0
46279,337.64,773,767,0
46289,340.75,773,769,0
46299,346.26,773,767,0
46309,357.20,773,768,0
46319,374.33,773,767,0
46329,400.37,773,769,0
46339,434.93,773,767,0
46358,476.87,745,766,0
46361,522.16,745,767,0
46370,568.44,745,769,0
46380,612.28,745,767,0
46390,651.54,745,769,0
46400,683.44,745,767,0
46410,707.30,745,769,0
46420,724.01,745,767,0
46430,735.71,745,769,0
46440,743.90,745,767,0
46450,749.63,745,769,0
46460,753.64,745,767,0
46470,756.45,745,769,0
46480,756.87,745,767,0
46490,753.70,745,769,0
46500,745.13,745,767,0
46510,731.12,745,769,0
46520,710.38,745,767,0
46530,683.10,745,769,0
46540,648.95,745,767,0
46551,610.31,745,769,0
46561,568.56,745,767,0
46571,526.86,745,769,0
46581,485.80,745,767,0
46592,447.93,745,769,0
46601,413.71,745,766,0
46611,384.70,745,769,0
46621,360.53,745,767,0
46631,342.37,745,769,0
46641,329.19,745,767,0
46651,321.46,745,769,0
46661,317.81,745,767,0
46671,318.25,745,769,0
46681,321.05,745,766,0
46691,326.26,745,769,0
46701,332.18,745,767,0
46711,338.86,745,769,0
46721,344.64,745,767,0
46731,349.98,745,769,0
46741,353.54,745,767,0
46751,355.99,745,769,0
46761,356.34,745,767,0
46771,355.51,745,769,0
46781,352.87,745,767,0
46791,349.69,745,769,0
46801,345.29,745,767,0
46811,340.87,745,769,0
46821,335.94,745,767,0
46831,331.63,745,769,0
46841,327.33,745,767,0
46851,324.06,745,769,0
46861,320.95,745,767,0
46871,319.00,745,769,0
46881,317.37,745,767,0
46892,316.92,745,769,0
46902,316.68,745,767,0
46912,317.29,745,769,0
46922,317.93,745,767,0
46932,319.15,745,769,0
46942,320.18,745,767,0
46952,321.67,745,769,0
46962,322.92,745,767,0
46972,324.45,745,769,0
46982,325.64,745,767,0
46992,326.95,745,769,0
47002,328.04,745,767,0
47012,329.31,745,769,0
47022,330.25,745,767,0
47032,331.33,745,769,0
47042,332.17,745,767,0
47052,333.15,745,769,0
47063,333.79,745,767,0
47073,334.37,745,769,0
47083,334.90,745,767,0
47093,336.17,745,769,0
47104,338.95,745,767,0
47113,344.75,745,769,0
47123,355.11,745,767,0
47133,372.26,745,769,0
47143,397.73,745,767,0
47162,432.27,804,766,0
47165,474.01,804,769,0
47174,519.52,804,768,0
47184,565.82,804,768,0
47194,610.15,804,769,0
47204,649.70,804,767,0
47214,682.28,804,768,0
47224,706.54,804,768,0
47234,723.48,804,769,0
47244,735.33,804,767,0
47254,743.63,804,768,0
47264,749.44,804,768,0
47275,753.51,804,768,0
47284,756.36,804,767,0
47294,757.19,804,768,0
47304,754.22,804,768,0
47314,745.97,804,768,0
47324,731.84,804,767,0
47334,711.10,804,768,0
47344,683.68,804,768,0
47354,649.58,804,768,0
47364,610.49,804,767,0
47374,568.81,804,768,0
47384,526.83,804,767,0
47394,485.91,804,768,0
47404,447.88,804,767,0
47414,413.63,804,768,0
47424,384.25,804,767,0
47434,359.88,804,768,0
47444,341.14,804,768,0
47454,327.73,804,768,0
47464,319.67,804,767,0
47474,316.00,804,768,0
47484,316.38,804,768,0
47494,319.48,804,768,0
47504,324.69,804,767,0
47514,330.74,804,768,0
47524,337.29,804,768,0
47534,343.29,804,768,0
47544,348.47,804,767,0
47554,352.06,804,768,0
47564,354.40,804,768,0
47575,355.09,804,768,0
47585,354.68,804,768,0
47595,352.72,804,768,0
47605,349.93,804,768,0
47616,346.27,804,768,0
47625,342.63,804,767,0
47635,338.75,804,768,0
47645,335.44,804,768,0
47655,332.10,804,768,0
47665,329.75,804,768,0
47675,327.64,804,768,0
47685,326.59,804,768,0
47695,325.60,804,768,0
47705,325.42,804,767,0
47715,325.21,804,768,0
47725,325.70,804,768,0
47735,326.01,804,768,0
47745,326.86,804,768,0
47755,327.50,804,768,0
47765,328.72,804,768,0
47775,329.54,804,768,0
47785,330.79,804,768,0
47795,331.84,804,768,0
47805,333.43,804,768,0
47815,334.76,804,768,0
47825,336.46,804,768,0
47835,337.69,804,768,0
47845,339.33,804,768,0
47855,340.47,804,768,0
47865,341.74,804,768,0
47875,342.29,804,768,0
47885,342.93,804,768,0
47895,342.78,804,768,0
47905,342.76,804,768,0
47916,342.23,804,768,0
47926,342.85,804,768,0
47936,344.61,804,768,0
47946,349.87,804,768,0
47956,359.47,804,768,0
47966,375.87,804,768,0
47985,399.91,823,767,0
47988,433.96,823,769,0
47997,474.90,823,767,0
48007,520.02,823,768,0
48017,565.74,823,768,0
48027,609.75,823,768,0
48037,649.21,823,767,0
48047,682.32,823,768,0
48057,706.52,823,768,0
48067,723.47,823,768,0
48077,735.33,823,767,0
48087,743.63,823,768,0
48097,749.44,823,768,0
48107,753.51,823,768,0
48117,756.36,823,767,0
48128,757.11,823,769,0
48137,753.69,823,768,0
48147,745.47,823,768,0
48157,731.01,823,767,0
48167,710.39,823,769,0
48177,683.02,823,767,0
48187,649.50,823,768,0
48197,610.74,823,767,0
48207,570.10,823,769,0
48217,528.63,823,767,0
48227,489.18,823,768,0
48237,452.06,823,767,0
48247,419.42,823,769,0
48257,391.05,823,767,0
48267,368.67,823,768,0
48277,351.24,823,767,0
48287,339.85,823,769,0
48297,332.95,823,767,0
48307,331.08,823,768,0
48317,332.17,823,767,0
48327,336.49,823,769,0
48337,341.87,823,767,0
48347,348.64,823,768,0
48357,354.66,823,767,0
48367,360.46,823,769,0
48377,364.40,823,767,0
48387,367.36,823,768,0
48397,368.07,823,767,0
48407,367.66,823,769,0
48417,365.23,823,767,0
48428,362.16,823,768,0
48438,357.57,823,767,0
48448,352.99,823,769,0
48458,347.63,823,767,0
48468,342.81,823,768,0
48478,337.77,823,767,0
48488,333.85,823,769,0
48498,330.04,823,767,0
48508,327.67,823,769,0
48518,325.50,823,767,0
48528,324.62,823,768,0
48538,324.05,823,767,0
48548,324.89,823,768,0
48558,325.74,823,767,0
48568,327.75,823,769,0
48578,329.62,823,767,0
48588,332.44,823,769,0
48599,334.88,823,767,0
48609,337.78,823,769,0
48619,339.86,823,767,0
48629,342.13,823,769,0
48640,343.42,823,767,0
48649,344.75,823,769,0
48659,345.08,823,767,0
48669,345.44,823,769,0
48679,345.01,823,767,0
48689,345.09,823,769,0
48699,345.49,823,767,0
48709,348.47,823,769,0
48719,354.72,823,767,0
48729,366.72,823,769,0
48739,385.27,823,767,0
48749,412.79,823,769,0
48759,448.77,823,767,0
48778,491.27,793,766,0
48781,536.44,793,768,0
48790,581.61,793,769,0
48800,623.77,793,767,0
48811,661.00,793,769,0
48820,690.74,793,767,0
48830,712.46,793,769,0
48840,727.67,793,767,0
48850,738.27,793,769,0
48860,745.69,793,767,0
48870,750.88,793,769,0
48880,752.67,793,767,0
48890,749.99,793,769,0
48900,741.68,793,767,0
48910,727.46,793,769,0
48920,706.58,793,767,0
48930,679.36,793,769,0
48940,645.74,793,767,0
48950,608.23,793,769,0
48960,568.35,793,767,0
48970,528.51,793,769,0
48980,489.53,793,767,0
48990,453.46,793,769,0
49000,420.41,793,767,0
49010,391.78,793,769,0
49020,367.25,793,767,0
49030,348.02,793,769,0
49040,333.40,793,767,0
49050,323.98,793,768,0
49060,318.76,793,767,0
49070,317.97,793,769,0
49080,320.04,793,767,0
49090,324.96,793,769,0
49100,331.14,793,767,0
49111,338.30,793,769,0
49121,345.02,793,767,0
49131,351.10,793,769,0
49141,355.53,793,767,0
49152,358.46,793,769,0
49161,359.30,793,767,0
49171,358.61,793,769,0
49181,356.11,793,767,0
49191,352.52,793,769,0
49201,347.78,793,767,0
49211,342.70,793,769,0
49221,337.35,793,767,0
49231,332.32,793,768,0
49241,327.34,793,767,0
49251,323.16,793,768,0
49261,319.64,793,767,0
49271,317.14,793,769,0
49281,315.21,793,767,0
49291,314.25,793,769,0
49301,313.83,793,767,0
49311,314.22,793,769,0
49321,314.97,793,767,0
49331,316.14,793,769,0
49341,317.25,793,767,0
49351,318.63,793,769,0
49361,319.86,793,767,0
49371,321.19,793,768,0
49381,322.29,793,767,0
49391,323.36,793,769,0
49401,324.15,793,767,0
49411,325.09,793,768,0
49421,325.66,793,767,0
49431,326.19,793,769,0
49441,326.44,793,767,0
49452,326.86,793,768,0
49462,327.63,793,767,0
49472,329.63,793,769,0
49482,334.03,793,767,0
49492,342.50,793,768,0
49502,356.45,793,767,0
49512,377.79,793,769,0
49522,407.59,793,767,0
49532,446.20,793,768,0
49551,490.50,773,768,0
49554,537.11,773,769,0
49563,583.10,773,768,0
49573,625.93,773,768,0
49583,663.06,773,768,0
49593,692.70,773,768,0
49603,713.83,773,768,0
49613,728.63,773,768,0
49623,738.94,773,767,0
49633,746.16,773,768,0
49643,750.57,773,768,0
49653,750.44,773,768,0
49664,744.87,773,768,0
49673,733.21,773,768,0
49683,715.14,773,768,0
49693,690.33,773,768,0
49703,659.16,773,768,0
49713,622.60,773,768,0
49723,583.46,773,768,0
49733,543.25,773,768,0
49743,503.79,773,768,0
49753,465.97,773,768,0
49763,431.18,773,768,0
49773,399.62,773,768,0
49783,372.14,773,768,0
49793,348.70,773,768,0
49803,330.14,773,767,0
49813,316.04,773,768,0
49823,306.69,773,768,0
49833,301.34,773,768,0
49843,299.99,773,767,0
49853,301.62,773,768,0
49863,306.02,773,768,0
49873,311.84,773,768,0
49883,318.71,773,768,0
49893,325.44,773,768,0
49903,331.91,773,768,0
49913,336.95,773,768,0
49923,340.65,773,768,0
49933,342.38,773,768,0
49943,342.74,773,768,0
49953,341.23,773,768,0
49964,338.76,773,768,0
49974,334.93,773,768,0
49984,330.97,773,768,0
49994,326.35,773,768,0
50004,322.17,773,768,0
50014,317.84,773,768,0
50024,314.41,773,768,0
50034,311.46,773,768,0
50044,309.91,773,768,0
50054,308.74,773,768,0
50064,308.73,773,768,0
50074,309.02,773,768,0
50084,310.47,773,768,0
50094,312.05,773,768,0
50104,314.18,773,768,0
50114,315.84,773,768,0
50124,318.07,773,768,0
50135,319.94,773,768,0
50145,322.18,773,768,0
50155,323.76,773,768,0
50165,325.67,773,768,0
50176,326.93,773,767,0
50185,328.62,773,768,0
50195,329.63,773,768,0
50205,331.03,773,768,0
50215,331.62,773,768,0
50225,332.59,773,768,0
50235,332.71,773,768,0
50245,333.23,773,768,0
50255,333.16,773,768,0
50265,334.01,773,768,0
50275,335.72,773,768,0
50285,340.91,773,768,0
50295,350.11,773,768,0
50305,365.85,773,768,0
50315,388.69,773,768,0
50334,420.58,783,767,0
50337,460.61,783,767,0
50347,505.60,783,768,0
50356,551.75,783,768,0
50366,596.65,783,769,0
50376,637.51,783,767,0
50386,672.54,783,768,0
50396,699.72,783,768,0
50406,718.71,783,769,0
50416,731.95,783,767,0
50426,740.24,783,769,0
50436,742.40,783,767,0
50446,738.42,783,769,0
50456,727.32,783,767,0
50466,709.57,783,768,0
50476,684.93,783,767,0
50486,654.26,783,769,0
50496,618.44,783,767,0
50506,580.81,783,768,0
50516,542.12,783,767,0
50526,505.19,783,769,0
50536,469.82,783,767,0
50546,437.69,783,768,0
50556,408.17,783,767,0
50566,382.70,783,769,0
50576,360.38,783,767,0
50586,342.61,783,768,0
50596,328.24,783,767,0
50606,318.52,783,769,0
50616,312.11,783,767,0
50626,310.02,783,769,0
50636,310.49,783,767,0
50647,314.24,783,769,0
50657,319.35,783,767,0
50667,326.23,783,769,0
50677,332.93,783,767,0
50688,340.03,783,769,0
50697,345.55,783,767,0
50707,350.44,783,769,0
50717,353.22,783,767,0
50727,354.96,783,769,0
50737,354.45,783,767,0
50747,352.99,783,769,0
50757,349.65,783,767,0
50767,346.07,783,769,0
50777,341.33,783,767,0
50787,337.08,783,769,0
50797,332.34,783,767,0
50807,328.64,783,769,0
50817,324.97,783,767,0
50827,322.71,783,769,0
50837,320.53,783,767,0
50847,319.60,783,769,0
50857,318.52,783,767,0
50867,318.49,783,769,0
50877,318.22,783,767,0
50887,318.88,783,769,0
50897,319.22,783,767,0
50907,320.39,783,769,0
50917,321.05,783,767,0
50927,322.32,783,769,0
50937,323.17,783,767,0
50947,324.79,783,769,0
50957,325.88,783,767,0
50967,327.42,783,769,0
50977,328.28,783,767,0
50988,329.65,783,769,0
50998,330.36,783,767,0
51008,331.32,783,769,0
51018,331.35,783,767,0
51028,331.68,783,769,0
51038,331.60,783,767,0
51048,332.84,783,769,0
51058,335.24,783,767,0
51068,341.34,783,769,0
51078,351.52,783,767,0
51088,368.55,783,769,0
51098,392.64,783,767,0
51118,425.28,783,766,0
51121,465.44,783,768,0
51130,510.22,783,769,0
51140,555.88,783,767,0
51150,600.23,783,769,0
51160,640.11,783,767,0
51170,674.19,783,769,0
51180,700.75,783,767,0
51190,718.48,783,769,0
51201,727.76,783,767,0
51211,728.99,783,769,0
51221,722.35,783,767,0
51231,708.10,783,769,0
51241,686.64,783,767,0
51251,658.64,783,768,0
51261,625.66,783,767,0
51271,590.19,783,769,0
51281,554.18,783,767,0
51291,519.07,783,769,0
51301,485.83,783,767,0
51311,455.11,783,769,0
51321,427.09,783,767,0
51331,401.95,783,769,0
51341,379.85,783,767,0
51351,360.87,783,769,0
51361,345.22,783,767,0
51372,333.20,783,768,0
51382,324.91,783,768,0
51392,320.22,783,768,0
51402,319.04,783,768,0
51412,320.70,783,768,0
51422,324.95,783,767,0
51432,331.09,783,768,0
51442,338.61,783,768,0
51452,346.40,783,768,0
51462,354.08,783,768,0
51472,360.70,783,768,0
51482,366.40,783,768,0
51492,370.31,783,768,0
51502,372.62,783,768,0
51512,372.86,783,768,0
51522,371.66,783,768,0
51532,368.85,783,768,0
51543,365.21,783,768,0
51553,360.52,783,768,0
51563,355.86,783,768,0
51573,350.76,783,768,0
51584,346.20,783,768,0
51593,341.77,783,768,0
51603,338.24,783,768,0
51613,335.00,783,768,0
51623,332.94,783,768,0
51633,331.16,783,768,0
51643,330.47,783,768,0
51653,329.94,783,768,0
51663,330.39,783,768,0
51673,331.00,783,768,0
51683,332.46,783,768,0
51693,333.69,783,768,0
51703,335.58,783,768,0
51713,337.25,783,768,0
51723,339.45,783,768,0
51733,341.11,783,768,0
51743,342.97,783,768,0
51753,344.00,783,768,0
51763,345.25,783,768,0
51773,345.90,783,768,0
51783,347.47,783,768,0
51793,350.12,783,768,0
51803,355.87,783,768,0
51813,365.51,783,767,0
51823,381.73,783,768,0
51833,404.95,783,768,0
51843,436.29,783,768,0
51853,474.56,783,768,0
51872,517.34,755,767,0
51875,561.34,755,768,0
51884,604.09,755,768,0
51894,642.64,755,767,0
51904,675.40,755,768,0
51914,701.08,755,768,0
51924,719.57,755,769,0
51934,730.76,755,767,0
51944,735.20,755,768,0
51954,732.36,755,768,0
51964,722.95,755,768,0
51974,706.72,755,768,0
51984,684.52,755,768,0
51994,656.21,755,768,0
52004,624.60,755,768,0
52014,590.95,755,768,0
52024,557.88,755,768,0
52034,525.34,755,768,0
52044,495.07,755,768,0
52055,466.51,755,767,0
52065,441.07,755,769,0
52075,417.69,755,767,0
52085,397.55,755,769,0
52096,379.90,755,767,0
52105,366.09,755,768,0
52115,355.09,755,767,0
52125,348.16,755,769,0
52135,344.04,755,767,0
52145,343.77,755,768,0
52155,345.60,755,767,0
52165,350.05,755,769,0
52175,355.22,755,767,0
52185,361.75,755,768,0
52195,367.70,755,767,0
52205,373.57,755,769,0
52215,377.73,755,767,0
52225,381.15,755,768,0
52235,382.52,755,767,0
52245,382.92,755,769,0
52255,381.06,755,767,0
52265,378.34,755,768,0
52275,374.08,755,767,0
52285,369.73,755,769,0
52295,364.28,755,767,0
52305,359.18,755,768,0
52315,353.64,755,767,0
52325,349.16,755,769,0
52335,344.79,755,767,0
52345,341.68,755,768,0
52355,338.65,755,767,0
52365,337.00,755,769,0
52375,335.50,755,767,0
52385,335.30,755,769,0
52396,335.08,755,767,0
52406,335.92,755,769,0
52416,336.41,755,767,0
52426,337.83,755,769,0
52436,338.87,755,767,0
52446,340.62,755,769,0
52456,341.85,755,767,0
52466,343.65,755,769,0
52476,344.83,755,767,0
52486,346.51,755,769,0
52496,347.38,755,767,0
52506,348.55,755,769,0
52516,348.86,755,767,0
52526,349.42,755,769,0
52536,349.25,755,767,0
52546,349.99,755,768,0
52556,351.36,755,767,0
52567,355.84,755,769,0
52577,363.99,755,767,0
52587,378.69,755,769,0
52597,400.47,755,767,0
52608,431.36,755,769,0
52617,469.78,755,767,0
52636,513.22,764,766,0
52639,558.02,764,768,0
52648,601.86,764,769,0
52658,641.54,764,767,0
52668,675.41,764,768,0
52678,701.43,764,767,0
52688,719.86,764,769,0
52698,732.71,764,767,0
52708,741.67,764,768,0
52718,745.28,764,767,0
52728,743.23,764,769,0
52738,735.06,764,767,0
52748,720.98,764,768,0
52758,700.72,764,767,0
52768,674.83,764,769,0
52779,643.34,764,767,0
52788,609.77,764,768,0
52798,575.25,764,767,0
52808,541.66,764,769,0
52818,509.19,764,767,0
52828,479.18,764,768,0
52838,451.31,764,767,0
52848,426.62,764,769,0
52858,404.53,764,767,0
52868,386.03,764,768,0
52878,370.38,764,767,0
52888,358.52,764,769,0
52898,349.84,764,767,0
52908,344.91,764,769,0
52918,342.75,764,767,0
52928,343.56,764,769,0
52938,346.18,764,767,0
52948,350.71,764,769,0
52958,355.85,764,767,0
52968,361.47,764,769,0
52978,366.34,764,767,0
52988,370.78,764,769,0
52998,373.76,764,767,0
53008,375.68,764,769,0
53018,375.94,764,767,0
53028,375.15,764,769,0
53038,372.83,764,767,0
53048,369.88,764,769,0
53058,365.76,764,767,0
53068,361.38,764,769,0
53079,356.38,764,767,0
53089,351.59,764,769,0
53099,346.79,764,767,0
53109,342.39,764,768,0
53120,338.25,764,767,0
53129,335.04,764,769,0
53139,332.29,764,767,0
53149,330.40,764,769,0
53159,329.04,764,767,0
53169,328.43,764,769,0
53179,328.47,764,767,0
53189,329.10,764,769,0
53199,329.84,764,767,0
53209,331.00,764,769,0
53219,332.12,764,767,0
53229,333.24,764,769,0
53239,334.15,764,767,0
53249,335.09,764,769,0
53259,335.88,764,767,0
53269,336.69,764,769,0
53279,337.25,764,767,0
53289,337.91,764,769,0
53299,338.36,764,767,0
53309,338.81,764,769,0
53319,338.95,764,767,0
53329,338.97,764,769,0
53339,338.89,764,767,0
53349,339.40,764,769,0
53359,341.12,764,767,0
53369,345.41,764,769,0
53379,353.56,764,767,0
53389,367.62,764,769,0
53399,388.99,764,767,0
53409,418.91,764,769,0
53429,457.21,793,768,0
53432,500.69,793,769,0
53441,546.25,793,767,0
53451,591.13,793,768,0
53462,632.45,793,768,0
53471,668.06,793,768,0
53481,696.20,793,768,0
53491,716.11,793,768,0
53501,730.09,793,768,0
53511,739.84,793,769,0
53521,744.34,793,768,0
53531,742.87,793,768,0
53541,735.32,793,768,0
53551,721.60,793,768,0
53561,701.87,793,768,0
53571,676.11,793,768,0
53581,645.09,793,768,0
53591,611.38,793,768,0
53601,577.24,793,768,0
53611,543.48,793,768,0
53621,511.36,793,768,0
53632,481.04,793,768,0
53641,453.64,793,768,0
53651,428.81,793,768,0
53661,407.14,793,768,0
53671,388.32,793,768,0
53681,373.23,793,768,0
53691,361.37,793,768,0
53701,353.46,793,768,0
53711,348.65,793,768,0
53721,347.26,793,768,0
53731,348.29,793,768,0
53741,351.81,793,768,0
53751,356.54,793,768,0
53761,362.29,793,768,0
53771,367.99,793,768,0
53781,373.56,793,768,0
53791,377.85,793,768,0
53801,381.20,793,768,0
53811,382.72,793,768,0
53821,382.81,793,768,0
53831,380.98,793,768,0
53841,378.11,793,768,0
53851,374.05,793,768,0
53861,369.58,793,768,0
53871,364.26,793,768,0
53881,359.08,793,768,0
53891,354.00,793,768,0
53901,349.89,793,768,0
53911,346.11,793,768,0
53921,343.33,793,768,0
53932,341.05,793,768,0
53942,340.05,793,768,0
53952,339.56,793,768,0
53962,340.21,793,768,0
53972,341.00,793,768,0
53982,342.63,793,768,0
53992,344.03,793,768,0
54002,346.08,793,768,0
54012,347.68,793,768,0
54022,349.71,793,768,0
54032,350.99,793,768,0
54042,352.50,793,768,0
54052,353.08,793,767,0
54062,353.74,793,768,0
54072,353.60,793,768,0
54082,353.68,793,768,0
54092,353.18,793,767,0
54103,353.64,793,768,0
54113,354.99,793,768,0
54123,359.79,793,768,0
54133,368.68,793,767,0
54144,384.21,793,768,0
54153,406.64,793,768,0
54163,437.99,793,768,0
54173,476.74,793,767,0
54193,520.10,763,767,0
54195,564.43,763,767,0
54205,607.41,763,769,0
54215,645.99,763,767,0
54225,678.91,763,769,0
54235,704.01,763,768,0
54245,721.62,763,769,0
54255,733.90,763,767,0
54265,741.39,763,769,0
54275,743.12,763,767,0
54285,739.18,763,769,0
54295,728.58,763,767,0
54305,711.91,763,769,0
54316,688.79,763,767,0
54326,660.23,763,769,0
54336,627.16,763,767,0
54346,592.61,763,769,0
54356,557.24,763,767,0
54366,523.61,763,769,0
54376,491.46,763,767,0
54386,462.52,763,769,0
54396,436.18,763,767,0
54406,413.88,763,769,0
54416,394.97,763,767,0
54426,380.67,763,769,0
54436,370.05,763,767,0
54446,364.12,763,769,0
54456,361.51,763,767,0
54466,362.90,763,769,0
54476,366.62,763,767,0
54487,372.86,763,769,0
54497,380.02,763,767,0
54507,388.11,763,769,0
54517,395.58,763,767,0
54528,402.48,763,769,0
54537,407.43,763,767,0
54547,410.86,763,769,0
54557,411.72,763,767,0
54567,410.60,763,769,0
54577,407.08,763,767,0
54587,402.21,763,768,0
54597,395.85,763,767,0
54607,389.08,763,769,0
54617,381.73,763,767,0
54627,374.91,763,769,0
54637,368.34,763,767,0
54647,362.79,763,769,0
54657,357.75,763,767,0
54667,354.01,763,769,0
54677,350.80,763,767,0
54687,348.76,763,769,0
54697,347.24,763,767,0
54707,346.83,763,768,0
54717,346.71,763,767,0
54727,347.48,763,769,0
54737,348.41,763,767,0
54747,350.00,763,769,0
54757,351.41,763,767,0
54767,353.18,763,769,0
54777,354.49,763,767,0
54787,356.06,763,769,0
54797,356.99,763,767,0
54807,358.02,763,769,0
54817,358.91,763,767,0
54828,361.21,763,769,0
54838,365.65,763,767,0
54848,374.50,763,769,0
54858,389.18,763,767,0
54868,411.97,763,769,0
54878,443.09,763,767,0
54888,481.85,763,769,0
54898,524.75,763,767,0
54908,569.05,763,769,0
54927,611.77,735,768,0
54929,650.32,735,769,0
54939,682.28,735,767,0
54949,706.54,735,768,0
54959,723.52,735,767,0
54969,735.41,735,769,0
54979,743.73,735,768,0
54989,749.55,735,768,0
54999,753.59,735,767,0
55009,755.17,735,769,0
55019,752.67,735,767,0
55029,745.02,735,768,0
55040,731.60,735,768,0
55049,712.35,735,769,0
55059,687.00,735,767,0
55069,655.59,735,768,0
55079,619.62,735,767,0
55089,581.47,735,769,0
55099,543.01,735,767,0
55109,505.59,735,768,0
55119,470.40,735,767,0
55129,438.57,735,769,0
55139,410.97,735,767,0
55149,388.13,735,768,0
55159,370.61,735,767,0
55169,358.47,735,769,0
55179,351.60,735,767,0
55189,349.32,735,768,0
55199,351.07,735,767,0
55209,355.80,735,768,0
55219,362.76,735,767,0
55229,370.76,735,768,0
55239,378.89,735,767,0
55249,386.30,735,768,0
55259,392.46,735,767,0
55269,396.74,735,768,0
55279,399.13,735,767,0
55289,399.31,735,768,0
55299,397.59,735,767,0
55309,394.15,735,768,0
55319,389.56,735,767,0
55329,383.87,735,769,0
55340,377.86,735,768,0
55350,371.52,735,768,0
55360,365.62,735,768,0
55370,359.86,735,768,0
55380,354.93,735,768,0
55390,350.58,735,768,0
55400,347.32,735,768,0
55410,344.65,735,768,0
55420,343.17,735,768,0
55430,342.22,735,768,0
55440,342.41,735,768,0
55450,342.93,735,768,0
55460,344.11,735,768,0
55470,345.36,735,768,0
55480,347.05,735,768,0
55490,348.37,735,768,0
55500,349.84,735,768,0
55511,350.83,735,768,0
55521,351.95,735,768,0
55531,352.57,735,768,0
55541,353.30,735,768,0
55552,353.34,735,768,0
55561,353.58,735,768,0
55571,353.36,735,768,0
55581,354.02,735,768,0
55591,355.69,735,768,0
55601,360.50,735,768,0
55611,369.48,735,768,0
55621,385.58,735,768,0
55631,409.66,735,768,0
55641,443.28,735,767,0
55651,483.65,735,768,0
55670,528.03,743,767,0
55673,573.10,743,768,0
55682,616.36,743,768,0
55692,654.65,743,768,0
55702,686.13,743,768,0
55712,709.19,743,768,0
55723,725.33,743,768,0
55732,736.63,743,768,0
55742,744.54,743,768,0
55752,750.04,743,768,0
55762,753.88,743,768,0
55772,756.58,743,768,0
55782,757.26,743,768,0
55792,753.58,743,768,0
55802,744.88,743,768,0
55812,730.04,743,768,0
55822,709.12,743,768,0
55832,681.27,743,768,0
55842,647.16,743,768,0
55852,607.94,743,768,0
55862,567.11,743,768,0
55872,525.59,743,768,0
55882,485.94,743,768,0
55892,448.50,743,768,0
55902,415.61,743,768,0
55912,387.06,743,768,0
55922,364.41,743,768,0
55932,347.06,743,768,0
55942,335.98,743,768,0
55952,329.82,743,768,0
55962,329.01,743,768,0
55972,331.62,743,768,0
55982,337.82,743,768,0
55992,345.25,743,768,0
56002,354.00,743,768,0
56012,362.10,743,768,0
56023,369.87,743,769,0
56033,375.74,743,767,0
56043,380.36,743,768,0
56053,382.27,743,767,0
56064,382.79,743,769,0
56073,380.88,743,768,0
56083,378.04,743,769,0
56093,373.44,743,767,0
56103,368.51,743,769,0
56113,362.62,743,767,0
56123,357.33,743,769,0
56133,351.96,743,767,0
56143,347.69,743,769,0
56153,343.41,743,767,0
56163,340.41,743,769,0
56173,337.55,743,767,0
56183,335.93,743,769,0
56193,334.23,743,767,0
56203,333.44,743,769,0
56213,332.40,743,767,0
56223,332.24,743,769,0
56233,331.53,743,767,0
56243,331.54,743,769,0
56253,331.21,743,767,0
56263,331.66,743,769,0
56273,331.55,743,767,0
56283,332.07,743,769,0
56293,332.05,743,767,0
56303,332.80,743,769,0
56313,333.08,743,767,0
56323,333.83,743,769,0
56333,333.88,743,767,0
56343,334.56,743,769,0
56353,334.48,743,767,0
56364,334.85,743,769,0
56374,334.38,743,767,0
56384,334.31,743,769,0
56394,333.70,743,767,0
56404,334.18,743,769,0
56414,335.20,743,767,0
56424,339.64,743,769,0
56434,348.15,743,767,0
56444,363.87,743,769,0
56454,387.10,743,767,0
56464,420.11,743,769,0
56483,460.92,813,768,0
56486,506.84,813,769,0
56495,553.95,813,767,0
56505,599.74,813,769,0
56515,640.83,813,768,0
56525,675.68,813,769,0
56535,701.88,813,767,0
56545,720.21,813,769,0
56555,733.01,813,767,0
56565,741.96,813,769,0
56576,748.19,813,767,0
