Time,PPG,IBI,GSR,GSR_Event
224897,359.49,863,763,0
224907,362.56,863,765,0
224917,372.42,863,764,0
224927,390.38,863,765,0
224937,418.51,863,764,0
224947,455.26,863,765,0
224966,497.56,813,765,0
224969,544.75,813,765,0
224978,591.93,813,766,0
224988,635.06,813,765,0
224998,671.77,813,766,0
225008,699.70,813,765,0
225018,719.29,813,765,0
225028,733.04,813,766,0
225038,742.63,813,766,0
225048,747.84,813,765,0
225058,747.68,813,765,0
225068,740.96,813,765,0
225078,727.47,813,765,0
225088,706.50,813,765,0
225098,678.58,813,765,0
225108,643.61,813,765,0
225118,604.21,813,765,0
225128,562.19,813,765,0
225138,520.39,813,765,0
225148,479.64,813,765,0
225158,442.42,813,765,0
225168,408.74,813,765,0
225178,380.23,813,765,0
225188,356.42,813,765,0
225198,338.68,813,765,0
225208,326.26,813,765,0
225218,320.10,813,765,0
225228,318.61,813,765,0
225239,322.28,813,766,0
225249,329.23,813,764,0
225259,339.27,813,766,0
225269,350.38,813,764,0
225280,362.48,813,766,0
225289,373.56,813,765,0
225299,383.85,813,766,0
225309,391.65,813,765,0
225319,397.50,813,766,0
225329,400.26,813,765,0
225339,400.96,813,766,0
225349,398.61,813,765,0
225359,394.61,813,766,0
225369,388.39,813,765,0
225379,381.50,813,766,0
225389,373.51,813,765,0
225399,365.85,813,766,0
225409,357.97,813,765,0
225419,351.46,813,766,0
225429,345.58,813,764,0
225439,341.51,813,766,0
225449,338.27,813,765,0
225459,337.07,813,766,0
225469,336.84,813,765,0
225479,338.39,813,766,0
225489,340.33,813,765,0
225499,343.36,813,766,0
225509,346.16,813,764,0
225519,349.50,813,766,0
225529,351.97,813,764,0
225539,354.50,813,766,0
225549,356.11,813,764,0
225559,357.66,813,766,0
225569,358.11,813,764,0
225580,358.63,813,766,0
225590,358.06,813,764,0
225600,357.70,813,766,0
225610,357.06,813,764,0
225620,358.24,813,766,0
225630,361.73,813,764,0
225640,370.55,813,766,0
225650,385.77,813,764,0
225660,410.27,813,766,0
225670,443.70,813,764,0
225680,484.55,813,766,0
225690,529.00,813,764,0
225710,574.64,743,763,0
225713,617.99,743,764,0
225722,656.65,743,766,0
225732,687.91,743,764,0
225742,711.04,743,767,0
225752,727.23,743,764,0
225762,738.56,743,766,0
225772,746.49,743,764,0
225782,752.04,743,767,0
225793,754.47,743,764,0
225803,752.27,743,766,0
225813,744.18,743,764,0
225823,729.60,743,766,0
225833,708.25,743,764,0
225843,680.36,743,766,0
225853,645.96,743,764,0
225863,606.93,743,766,0
225873,565.60,743,764,0
225883,524.49,743,767,0
225893,484.87,743,764,0
225903,448.14,743,766,0
225913,414.97,743,764,0
225923,386.48,743,766,0
225933,363.02,743,764,0
225943,345.27,743,766,0
225953,332.93,743,764,0
225964,326.27,743,766,0
225974,324.69,743,764,0
225984,327.57,743,766,0
225994,333.87,743,764,0
226004,342.65,743,766,0
226014,352.74,743,764,0
226024,363.10,743,766,0
226034,372.80,743,764,0
226044,380.88,743,766,0
226054,386.91,743,764,0
226064,390.45,743,766,0
226074,391.47,743,764,0
226084,389.92,743,766,0
226094,386.26,743,764,0
226104,380.78,743,766,0
226114,374.12,743,764,0
226124,366.50,743,766,0
226135,358.76,743,764,0
226145,351.12,743,766,0
226155,344.18,743,764,0
226165,338.04,743,766,0
226176,333.02,743,765,0
226185,329.03,743,766,0
226195,326.40,743,765,0
226205,324.61,743,766,0
226215,324.08,743,765,0
226225,324.32,743,766,0
226235,325.42,743,765,0
226245,326.84,743,766,0
226255,328.99,743,765,0
226265,331.18,743,766,0
226275,333.78,743,764,0
226285,336.16,743,765,0
226295,338.81,743,765,0
226305,341.18,743,766,0
226315,343.53,743,765,0
226325,345.34,743,765,0
226335,347.04,743,765,0
226345,348.01,743,766,0
226355,348.74,743,765,0
226365,348.73,743,766,0
226375,348.81,743,765,0
226385,349.34,743,766,0
226395,351.77,743,765,0
226405,357.49,743,766,0
226415,369.17,743,765,0
226425,388.28,743,766,0
226435,416.40,743,765,0
226445,453.69,743,766,0
226455,496.98,743,765,0
226475,542.97,765,764,0
226478,588.84,765,766,0
226487,631.32,765,765,0
226497,668.04,765,766,0
226507,697.08,765,765,0
226518,717.46,765,766,0
226527,731.72,765,765,0
226537,741.70,765,766,0
226547,748.69,765,765,0
226557,752.81,765,766,0
226567,752.18,765,765,0
226577,746.00,765,766,0
226587,733.14,765,765,0
226597,713.77,765,766,0
226607,687.65,765,765,0
226617,655.40,765,765,0
226627,617.74,765,765,0
226637,578.04,765,766,0
226647,537.75,765,765,0
226657,499.25,765,765,0
226667,462.75,765,765,0
226677,429.87,765,766,0
226688,400.33,765,764,0
226697,375.63,765,765,0
226707,355.26,765,765,0
226717,340.18,765,765,0
226727,329.54,765,764,0
226737,324.32,765,765,0
226747,323.15,765,765,0
226757,326.41,765,765,0
226767,332.24,765,765,0
226777,340.61,765,765,0
226787,349.64,765,765,0
226797,359.35,765,765,0
226807,367.73,765,765,0
226817,375.10,765,765,0
226827,380.00,765,765,0
226837,383.17,765,765,0
226847,383.46,765,764,0
226857,382.08,765,766,0
226867,378.37,765,765,0
226877,373.80,765,765,0
226887,367.69,765,765,0
226897,361.57,765,766,0
226907,354.84,765,765,0
226917,349.02,765,765,0
226927,343.23,765,765,0
226937,338.62,765,765,0
226947,334.23,765,765,0
226957,331.08,765,765,0
226967,328.10,765,764,0
226977,326.31,765,765,0
226988,324.72,765,765,0
226998,324.29,765,766,0
227008,323.99,765,764,0
227018,324.72,765,766,0
227028,325.45,765,764,0
227038,327.11,765,766,0
227048,328.62,765,764,0
227058,330.88,765,766,0
227068,332.84,765,764,0
227078,335.42,765,766,0
227088,337.35,765,764,0
227098,339.69,765,766,0
227108,341.15,765,764,0
227118,342.65,765,766,0
227128,343.01,765,764,0
227138,343.27,765,765,0
227148,342.50,765,764,0
227159,342.35,765,766,0
227169,342.59,765,764,0
227179,345.84,765,766,0
227189,352.87,765,764,0
227200,366.84,765,766,0
227209,388.23,765,764,0
227219,419.45,765,766,0
227229,459.08,765,764,0
227249,504.19,774,763,0
227252,550.97,774,764,0
227261,596.88,774,766,0
227271,638.49,774,764,0
227281,674.13,774,766,0
227291,701.39,774,764,0
227301,720.47,774,766,0
227311,733.83,774,764,0
227321,743.18,774,766,0
227331,749.08,774,764,0
227341,750.26,774,766,0
227351,745.30,774,764,0
227361,733.76,774,766,0
227372,714.98,774,763,0
227382,689.18,774,765,0
227392,656.69,774,763,0
227402,618.72,774,766,0
227412,577.88,774,763,0
227422,536.77,774,765,0
227432,496.60,774,763,0
227442,459.18,774,766,0
227452,425.18,774,763,0
227462,395.51,774,765,0
227472,370.16,774,763,0
227482,349.75,774,766,0
227492,334.44,774,763,0
227502,324.58,774,765,0
227512,319.74,774,763,0
227522,319.64,774,766,0
227532,323.39,774,763,0
227543,330.48,774,765,0
227553,339.68,774,763,0
227563,349.89,774,766,0
227573,360.16,774,764,0
227584,369.63,774,765,0
227593,377.58,774,763,0
227603,383.45,774,766,0
227613,387.00,774,764,0
227623,387.99,774,765,0
227633,386.88,774,763,0
227643,383.57,774,766,0
227653,378.56,774,763,0
227663,372.22,774,765,0
227673,365.08,774,763,0
227683,357.69,774,766,0
227693,350.58,774,763,0
227703,343.81,774,765,0
227713,337.86,774,763,0
227723,333.02,774,766,0
227733,329.37,774,763,0
227743,326.86,774,765,0
227753,325.44,774,764,0
227763,325.01,774,766,0
227773,325.56,774,763,0
227783,326.90,774,765,0
227793,328.77,774,763,0
227803,330.94,774,766,0
227813,333.36,774,763,0
227823,335.52,774,765,0
227833,337.51,774,763,0
227843,339.24,774,766,0
227853,340.84,774,763,0
227863,342.17,774,765,0
227873,343.24,774,763,0
227884,343.89,774,765,0
227894,344.53,774,764,0
227904,344.80,774,765,0
227914,344.81,774,764,0
227924,344.27,774,765,0
227934,343.50,774,764,0
227944,342.41,774,765,0
227954,341.69,774,764,0
227964,341.65,774,765,0
227974,343.86,774,764,0
227984,349.56,774,765,0
227994,361.26,774,764,0
228004,380.60,774,765,0
228014,409.18,774,764,0
228033,447.14,785,763,0
228036,491.24,785,764,0
228045,538.10,785,765,0
228055,584.87,785,764,0
228065,628.32,785,765,0
228075,665.90,785,764,0
228085,695.63,785,765,0
228096,716.52,785,764,0
228105,731.11,785,765,0
228115,741.32,785,764,0
228125,748.47,785,765,0
228135,753.51,785,764,0
228145,754.82,785,765,0
228155,751.10,785,764,0
228165,741.00,785,765,0
228175,724.28,785,764,0
228185,700.63,785,765,0
228195,670.27,785,764,0
228205,633.12,785,765,0
228215,592.28,785,764,0
228225,549.73,785,765,0
228235,508.11,785,764,0
228245,468.26,785,765,0
228255,432.01,785,764,0
228265,399.69,785,764,0
228275,372.74,785,764,0
228285,350.88,785,765,0
228295,335.10,785,764,0
228305,324.66,785,764,0
228315,320.00,785,764,0
228325,319.92,785,765,0
228335,324.40,785,764,0
228345,331.78,785,765,0
228355,341.62,785,764,0
228365,352.19,785,765,0
228375,363.23,785,764,0
228385,373.11,785,765,0
228396,381.65,785,764,0
228406,387.45,785,764,0
228416,390.96,785,765,0
228426,391.36,785,764,0
228436,389.66,785,765,0
228446,385.22,785,764,0
228456,379.46,785,765,0
228466,371.78,785,764,0
228476,363.87,785,764,0
228486,355.51,785,764,0
228496,348.03,785,764,0
228506,340.69,785,764,0
228516,334.87,785,764,0
228526,329.77,785,764,0
228536,326.58,785,764,0
228546,324.22,785,764,0
228556,323.38,785,765,0
228567,323.05,785,764,0
228577,324.07,785,765,0
228587,325.29,785,764,0
228597,327.47,785,765,0
228608,329.60,785,764,0
228617,332.51,785,765,0
228627,335.01,785,764,0
228637,338.09,785,765,0
228647,340.51,785,764,0
228657,343.27,785,765,0
228667,345.16,785,764,0
228677,347.08,785,765,0
228687,347.92,785,764,0
228697,348.88,785,765,0
228707,348.75,785,764,0
228717,348.78,785,765,0
228727,348.16,785,764,0
228737,348.71,785,765,0
228747,350.64,785,764,0
228757,356.62,785,765,0
228767,367.53,785,764,0
228777,386.75,785,765,0
228787,414.29,785,764,0
228797,451.62,785,765,0
228816,494.72,783,764,0
228819,540.96,783,766,0
228828,586.83,783,764,0
228838,629.87,783,766,0
228848,666.72,783,763,0
228858,696.25,783,765,0
228868,716.92,783,764,0
228878,731.38,783,765,0
228888,741.47,783,763,0
228898,748.53,783,765,0
228908,751.54,783,764,0
228918,749.49,783,765,0
228928,740.77,783,763,0
228938,725.37,783,765,0
228948,702.63,783,763,0
228958,673.38,783,765,0
228968,637.35,783,763,0
228978,597.39,783,765,0
228988,555.32,783,763,0
228998,514.42,783,765,0
229008,475.38,783,763,0
229018,440.38,783,765,0
229028,409.24,783,763,0
229038,383.62,783,765,0
229048,363.12,783,763,0
229058,349.03,783,765,0
229068,340.19,783,763,0
229079,337.22,783,765,0
229089,338.61,783,763,0
229099,344.34,783,765,0
229109,352.64,783,763,0
229120,363.20,783,765,0
229129,373.86,783,763,0
229139,384.61,783,766,0
229149,393.60,783,763,0
229159,400.92,783,765,0
229169,405.27,783,763,0
229179,407.25,783,766,0
229189,406.02,783,763,0
229199,402.50,783,766,0
229209,396.26,783,763,0
229219,388.56,783,765,0
229229,379.30,783,763,0
229239,369.95,783,765,0
229249,360.07,783,763,0
229259,351.05,783,765,0
229269,342.55,783,763,0
229279,335.74,783,765,0
229289,330.08,783,763,0
229299,326.32,783,765,0
229309,323.53,783,763,0
229319,322.60,783,766,0
229329,322.46,783,763,0
229339,323.78,783,765,0
229349,325.39,783,763,0
229359,327.89,783,765,0
229369,330.32,783,763,0
229379,333.40,783,766,0
229389,336.19,783,763,0
229399,339.26,783,766,0
229409,341.80,783,763,0
229420,344.34,783,765,0
229430,346.17,783,763,0
229440,347.75,783,766,0
229450,348.51,783,763,0
229460,349.04,783,766,0
229470,349.24,783,763,0
229480,350.28,783,766,0
229490,352.86,783,763,0
229500,359.29,783,766,0
229510,370.86,783,763,0
229520,390.31,783,766,0
229530,418.81,783,763,0
229540,456.49,783,766,0
229550,499.76,783,764,0
229560,545.77,783,766,0
229579,591.23,763,765,0
229582,633.80,763,765,0
229591,670.25,763,763,0
229601,698.72,763,766,0
229611,718.64,763,763,0
229621,732.59,763,766,0
229632,742.36,763,763,0
229641,749.24,763,766,0
229651,754.01,763,763,0
229661,757.35,763,766,0
229671,756.56,763,763,0
229681,750.56,763,766,0
229691,738.27,763,763,0
229701,719.20,763,765,0
229711,693.17,763,763,0
229721,660.72,763,766,0
229731,621.97,763,763,0
229741,580.62,763,765,0
229751,538.61,763,763,0
229761,498.23,763,766,0
229771,460.79,763,763,0
229781,427.42,763,765,0
229791,398.54,763,763,0
229801,375.11,763,766,0
229811,357.25,763,763,0
229821,345.13,763,765,0
229831,338.32,763,763,0
229841,336.42,763,766,0
229851,338.65,763,763,0
229861,344.33,763,766,0
229871,352.03,763,763,0
229881,360.94,763,766,0
229891,369.91,763,763,0
229901,378.30,763,766,0
229911,385.24,763,763,0
229921,390.35,763,766,0
229932,392.99,763,763,0
229942,393.25,763,765,0
229952,391.25,763,763,0
229962,387.27,763,765,0
229972,381.53,763,764,0
229982,374.64,763,765,0
229992,367.08,763,763,0
230002,359.51,763,766,0
230012,352.46,763,764,0
230022,346.11,763,766,0
230032,340.80,763,763,0
230042,336.45,763,765,0
230052,333.36,763,764,0
230062,331.28,763,765,0
230072,330.21,763,763,0
230082,329.89,763,766,0
230092,330.48,763,764,0
230103,331.62,763,765,0
230113,333.53,763,764,0
230123,335.52,763,765,0
230133,337.98,763,764,0
230144,340.30,763,765,0
230153,342.82,763,764,0
230163,344.98,763,765,0
230173,347.04,763,764,0
230183,348.44,763,765,0
230193,349.72,763,764,0
230203,350.28,763,765,0
230213,350.67,763,764,0
230223,350.34,763,765,0
230233,349.89,763,764,0
230243,349.24,763,765,0
230253,349.77,763,764,0
230263,352.19,763,765,0
230273,358.61,763,764,0
230283,370.81,763,765,0
230293,391.44,763,764,0
230303,421.52,763,765,0
230313,460.45,763,764,0
230332,504.54,753,763,0
230335,551.05,753,766,0
230344,596.81,753,765,0
230354,639.04,753,764,0
230364,674.64,753,765,0
230374,701.83,753,764,0
230384,720.87,753,765,0
230394,734.24,753,764,0
230404,743.55,753,765,0
230414,750.11,753,764,0
230424,754.67,753,765,0
230434,757.77,753,764,0
230444,757.02,753,765,0
230454,751.14,753,764,0
230464,738.76,753,765,0
230474,719.80,753,764,0
230484,693.63,753,765,0
230494,661.04,753,764,0
230504,621.90,753,765,0
230514,579.97,753,764,0
230524,536.95,753,765,0
230534,495.65,753,764,0
230544,456.84,753,765,0
230554,422.65,753,764,0
230564,392.88,753,765,0
230574,369.17,753,764,0
230584,350.95,753,765,0
230594,339.18,753,764,0
230604,332.74,753,765,0
230615,331.92,753,764,0
230625,334.99,753,764,0
230635,341.85,753,765,0
230645,350.46,753,764,0
230656,360.61,753,765,0
230665,370.37,753,765,0
230675,379.64,753,765,0
230685,386.74,753,764,0
230695,392.00,753,765,0
230705,394.32,753,765,0
230715,394.48,753,764,0
230725,391.63,753,764,0
230735,387.16,753,765,0
230745,380.55,753,765,0
230755,373.32,753,765,0
230765,364.99,753,764,0
230775,357.02,753,765,0
230785,348.92,753,765,0
230795,342.00,753,764,0
230805,335.48,753,764,0
230815,330.63,753,765,0
230825,326.54,753,764,0
230835,324.28,753,764,0
230845,322.91,753,764,0
230855,323.28,753,765,0
230865,324.31,753,764,0
230875,326.66,753,764,0
230885,329.03,753,764,0
230895,332.19,753,765,0
230905,334.88,753,764,0
230915,337.79,753,765,0
230925,339.86,753,764,0
230935,342.01,753,765,0
230945,343.29,753,764,0
230956,344.66,753,765,0
230966,344.93,753,764,0
230976,345.25,753,765,0
230986,344.49,753,764,0
230996,343.87,753,765,0
231006,342.41,753,764,0
231016,341.34,753,765,0
231026,340.04,753,764,0
231036,340.63,753,765,0
231046,343.23,753,764,0
231056,350.79,753,765,0
231066,364.22,753,764,0
231076,386.57,753,765,0
231086,417.73,753,764,0
231096,457.88,753,766,0
231115,502.87,783,764,0
231118,550.23,783,766,0
231127,596.27,783,764,0
231137,638.58,783,766,0
231147,673.97,783,764,0
231157,701.41,783,766,0
231168,720.57,783,763,0
231177,734.03,783,766,0
231187,743.41,783,764,0
231197,750.01,783,766,0
231207,752.54,783,763,0
231217,750.32,783,765,0
231227,741.69,783,764,0
231237,726.49,783,766,0
231247,703.97,783,763,0
231257,674.88,783,765,0
231267,639.00,783,764,0
231277,599.36,783,765,0
231287,557.34,783,763,0
231297,516.14,783,765,0
231307,476.45,783,763,0
231317,440.66,783,765,0
231327,408.58,783,763,0
231337,381.79,783,765,0
231347,359.87,783,764,0
231357,344.09,783,765,0
231367,333.44,783,763,0
231377,328.68,783,765,0
231387,328.09,783,764,0
231397,331.96,783,765,0
231407,338.49,783,763,0
231417,347.60,783,765,0
231427,357.23,783,764,0
231437,367.36,783,765,0
231447,376.17,783,764,0
231457,383.92,783,765,0
231468,389.13,783,764,0
231478,392.22,783,766,0
231488,392.20,783,763,0
231498,390.04,783,766,0
231508,385.40,783,764,0
231518,379.45,783,766,0
231528,371.81,783,763,0
231538,363.81,783,766,0
231548,355.38,783,764,0
231558,347.73,783,766,0
231568,340.35,783,763,0
231578,334.20,783,766,0
231588,328.74,783,763,0
231598,324.96,783,766,0
231608,321.97,783,763,0
231618,320.52,783,765,0
231628,319.90,783,763,0
231639,320.74,783,766,0
231649,322.10,783,763,0
231659,324.60,783,766,0
231669,327.29,783,763,0
231680,330.76,783,766,0
231689,334.05,783,763,0
231699,337.55,783,766,0
231709,340.55,783,763,0
231719,343.52,783,766,0
231729,345.68,783,763,0
231739,347.44,783,765,0
231749,348.38,783,763,0
231759,348.91,783,766,0
231769,348.64,783,764,0
231779,348.23,783,765,0
231789,347.82,783,763,0
231799,349.03,783,766,0
231809,352.75,783,763,0
231819,361.44,783,765,0
231829,376.74,783,763,0
231839,400.82,783,766,0
231849,434.26,783,763,0
231859,475.37,783,765,0
231878,520.47,763,765,0
231881,566.96,763,766,0
231890,611.41,763,763,0
231900,651.32,763,766,0
231910,684.09,763,763,0
231920,708.41,763,766,0
231930,725.43,763,763,0
231940,737.34,763,765,0
231950,745.30,763,763,0
231960,748.08,763,766,0
231970,744.63,763,763,0
231980,734.62,763,765,0
231990,717.64,763,763,0
232000,693.83,763,766,0
232010,663.20,763,763,0
232020,626.54,763,765,0
232030,586.69,763,763,0
232040,546.03,763,766,0
232050,505.95,763,763,0
232060,467.99,763,765,0
232070,433.07,763,763,0
232080,402.40,763,766,0
232090,376.52,763,763,0
232100,355.80,763,765,0
232110,340.43,763,763,0
232120,330.70,763,766,0
232130,326.50,763,763,0
232140,327.38,763,765,0
232151,332.45,763,763,0
232161,340.67,763,765,0
232171,351.14,763,763,0
232181,362.67,763,765,0
232192,374.13,763,764,0
232201,384.37,763,765,0
232211,392.79,763,764,0
232221,398.55,763,765,0
232231,401.60,763,764,0
232241,401.72,763,766,0
232251,399.23,763,764,0
232261,394.23,763,765,0
232271,387.44,763,764,0
232281,379.16,763,766,0
232291,370.28,763,764,0
232301,361.11,763,765,0
232311,352.29,763,764,0
232321,344.23,763,766,0
232331,337.39,763,764,0
232341,331.66,763,766,0
232351,327.35,763,764,0
232361,324.16,763,765,0
232371,322.35,763,763,0
232381,321.60,763,765,0
232391,321.94,763,764,0
232401,322.98,763,765,0
232411,324.88,763,764,0
232421,327.14,763,766,0
232431,329.93,763,764,0
232441,332.73,763,765,0
232451,335.64,763,764,0
232461,338.24,763,765,0
232471,340.52,763,763,0
232481,341.99,763,765,0
232492,343.02,763,764,0
232502,343.40,763,765,0
232512,343.84,763,764,0
232522,344.57,763,765,0
232532,347.14,763,764,0
232542,352.63,763,765,0
232552,363.50,763,764,0
232562,381.26,763,765,0
232572,408.06,763,764,0
232582,443.61,763,765,0
232592,485.90,763,764,0
232602,531.31,763,765,0
232622,577.42,743,764,0
232625,620.92,743,765,0
232634,659.30,743,765,0
232644,690.07,743,765,0
232654,712.63,743,765,0
232664,728.43,743,765,0
232674,739.49,743,765,0
232684,747.18,743,765,0
232694,750.64,743,765,0
232705,748.01,743,764,0
232715,739.09,743,765,0
232725,722.91,743,764,0
232735,700.05,743,765,0
232745,670.16,743,764,0
232755,634.46,743,765,0
232765,594.68,743,764,0
232775,554.36,743,765,0
232785,514.27,743,764,0
232795,476.86,743,765,0
232805,442.10,743,764,0
232815,411.77,743,765,0
232825,385.10,743,764,0
232835,363.47,743,765,0
232845,346.18,743,764,0
232855,334.64,743,765,0
232865,327.64,743,764,0
232876,325.90,743,765,0
232886,327.95,743,764,0
232896,334.05,743,765,0
232906,342.43,743,764,0
232916,353.15,743,765,0
232926,363.82,743,764,0
232936,374.76,743,766,0
232946,383.92,743,764,0
232956,391.66,743,765,0
232966,396.52,743,764,0
232976,399.32,743,765,0
232986,399.14,743,764,0
232996,397.17,743,765,0
233006,392.66,743,764,0
233016,387.23,743,766,0
233026,380.35,743,764,0
233036,373.39,743,765,0
233047,365.90,743,764,0
233057,359.20,743,765,0
233067,352.76,743,764,0
233077,347.56,743,765,0
233088,342.85,743,764,0
233097,339.59,743,765,0
233107,336.97,743,764,0
233117,335.74,743,765,0
233127,334.92,743,764,0
233137,335.20,743,766,0
233147,335.61,743,764,0
233157,336.84,743,765,0
233167,337.96,743,764,0
233177,339.69,743,766,0
233187,341.02,743,764,0
233197,342.69,743,765,0
233207,343.81,743,764,0
233217,345.24,743,766,0
233227,345.98,743,764,0
233237,346.72,743,765,0
233247,346.80,743,764,0
233257,347.59,743,766,0
233267,349.04,743,764,0
233277,353.36,743,766,0
233287,361.56,743,764,0
233297,376.44,743,766,0
233307,398.85,743,764,0
233317,430.87,743,766,0
233327,470.59,743,764,0
233337,515.16,743,766,0
233356,561.05,735,765,0
233359,605.65,735,766,0
233368,645.83,735,764,0
233378,679.86,735,766,0
233388,705.45,735,764,0
233398,723.36,735,766,0
233408,735.89,735,763,0
233418,744.71,735,766,0
233428,750.11,735,763,0
233438,751.02,735,766,0
233448,745.79,735,763,0
233458,733.98,735,766,0
233468,715.04,735,763,0
233478,689.44,735,766,0
233488,657.00,735,763,0
233498,619.20,735,766,0
233508,578.17,735,763,0
233518,536.97,735,765,0
233528,496.65,735,763,0
233538,459.17,735,766,0
233548,424.83,735,763,0
233559,394.97,735,766,0
233569,369.52,735,763,0
233579,349.27,735,766,0
233589,333.89,735,763,0
233600,323.89,735,766,0
233609,318.40,735,763,0
233619,317.33,735,766,0
233629,319.68,735,764,0
233639,325.00,735,766,0
233649,332.12,735,763,0
233659,340.40,735,766,0
233669,348.89,735,763,0
233679,356.98,735,766,0
233689,363.80,735,763,0
233699,369.00,735,766,0
233709,371.96,735,763,0
233719,372.70,735,766,0
233729,371.16,735,763,0
233739,367.77,735,766,0
233749,362.70,735,763,0
233759,356.40,735,766,0
233769,349.21,735,763,0
233779,341.95,735,766,0
233789,334.81,735,764,0
233799,328.22,735,766,0
233809,322.15,735,763,0
233819,317.22,735,766,0
233829,313.26,735,763,0
233839,310.52,735,766,0
233849,308.99,735,763,0
233859,308.74,735,766,0
233869,309.55,735,763,0
233879,311.57,735,766,0
233889,314.40,735,763,0
233900,317.96,735,766,0
233910,322.00,735,763,0
233920,325.99,735,766,0
233930,329.89,735,764,0
233940,333.31,735,765,0
233950,336.13,735,763,0
233960,338.28,735,766,0
233970,340.47,735,763,0
233980,343.33,735,765,0
233990,348.37,735,763,0
234000,357.13,735,766,0
234010,371.66,735,764,0
234020,393.49,735,765,0
234030,423.56,735,764,0
234040,461.83,735,766,0
234050,505.30,735,764,0
234060,550.77,735,766,0
234080,595.32,724,765,0
234083,636.33,724,766,0
234092,671.41,724,765,0
234102,699.28,724,765,0
234113,719.08,724,765,0
234123,731.01,724,765,0
234133,735.25,724,765,0
234143,731.19,724,764,0
234153,719.22,724,765,0
234163,699.48,724,765,0
234173,672.81,724,765,0
234183,639.31,724,764,0
234193,602.10,724,765,0
234203,563.16,724,765,0
234213,525.18,724,765,0
234223,488.66,724,764,0
234233,455.24,724,765,0
234243,424.61,724,765,0
234253,398.12,724,765,0
234263,374.94,724,764,0
234273,356.14,724,765,0
234284,341.06,724,764,0
234294,330.93,724,765,0
234304,324.60,724,764,0
234314,323.05,724,766,0
234324,324.71,724,764,0
234334,330.11,724,765,0
234344,337.41,724,763,0
234354,346.97,724,765,0
234364,356.79,724,764,0
234374,367.06,724,765,0
234384,375.87,724,764,0
234394,383.58,724,765,0
234404,388.72,724,764,0
234414,392.10,724,765,0
234424,392.50,724,763,0
234434,390.98,724,765,0
234444,386.87,724,764,0
234455,381.64,724,765,0
234465,374.76,724,763,0
234475,367.46,724,765,0
234485,359.39,724,764,0
234496,351.99,724,766,0
234505,344.84,724,763,0
234515,339.10,724,766,0
234525,333.80,724,764,0
234535,330.22,724,766,0
234545,327.49,724,763,0
234555,326.36,724,766,0
234565,325.74,724,764,0
234575,326.25,724,766,0
234585,326.77,724,763,0
234595,328.17,724,766,0
234605,329.23,724,764,0
234615,330.92,724,766,0
234625,332.19,724,763,0
234635,334.23,724,766,0
234645,336.65,724,764,0
234655,341.47,724,766,0
234665,349.26,724,763,0
234675,362.42,724,765,0
234685,381.80,724,764,0
234695,409.71,724,766,0
234705,445.63,724,763,0
234715,488.08,724,766,0
234725,533.31,724,764,0
234735,578.78,724,766,0
234755,621.44,674,764,0
234758,659.28,674,766,0
234767,689.80,674,764,0
234777,712.40,674,766,0
234787,728.22,674,763,0
234797,737.54,674,766,0
234807,739.44,674,764,0
234817,733.95,674,766,0
234827,720.55,674,763,0
234838,699.73,674,766,0
234847,671.70,674,763,0
234857,637.29,674,766,0
234867,598.50,674,763,0
234877,558.36,674,766,0
234887,518.40,674,763,0
234897,480.78,674,766,0
234907,445.96,674,763,0
234917,414.99,674,766,0
234927,387.78,674,764,0
234937,365.34,674,766,0
234947,347.63,674,763,0
234957,335.14,674,766,0
234967,327.13,674,764,0
234977,324.00,674,766,0
234987,324.99,674,763,0
234997,329.96,674,766,0
235008,337.65,674,763,0
235017,347.69,674,766,0
235027,358.46,674,763,0
235037,369.68,674,766,0
235047,379.93,674,763,0
235057,388.95,674,766,0
235067,395.57,674,764,0
235077,399.77,674,766,0
235087,400.87,674,763,0
235097,399.58,674,766,0
235107,395.59,674,764,0
235117,389.80,674,765,0
235127,382.14,674,763,0
235137,373.87,674,766,0
235147,365.00,674,763,0
235157,356.55,674,765,0
235167,348.50,674,763,0
235177,341.62,674,766,0
235187,335.69,674,764,0
235197,331.37,674,765,0
235207,328.09,674,763,0
235217,326.26,674,766,0
235227,325.20,674,763,0
235237,325.31,674,765,0
235247,325.90,674,763,0
235257,327.09,674,766,0
235267,328.22,674,764,0
235277,329.74,674,765,0
235287,331.53,674,763,0
235297,334.84,674,766,0
235308,340.08,674,763,0
235318,349.48,674,766,0
235328,364.59,674,763,0
235338,387.64,674,766,0
235348,419.42,674,763,0
235358,459.62,674,766,0
235368,504.52,674,763,0
235378,551.42,674,766,0
235398,597.07,643,765,0
235401,638.88,643,766,0
235410,674.18,643,764,0
235420,701.43,643,765,0
235430,720.50,643,764,0
235440,733.85,643,765,0
235450,743.20,643,764,0
235460,748.62,643,765,0
235470,748.95,643,764,0
235480,743.39,643,765,0
235490,731.36,643,764,0
235500,712.44,643,765,0
235510,686.85,643,764,0
235521,654.58,643,765,0
235531,617.51,643,764,0
235541,577.71,643,765,0
235551,537.56,643,765,0
235561,498.26,643,765,0
235571,461.71,643,764,0
235581,428.28,643,765,0
235591,399.36,643,764,0
235601,374.65,643,764,0
235611,355.38,643,764,0
235621,340.91,643,765,0
235631,332.11,643,764,0
235641,327.83,643,765,0
235651,328.35,643,764,0
235661,332.11,643,765,0
235671,338.97,643,764,0
235681,347.21,643,765,0
235692,356.66,643,764,0
235702,365.59,643,765,0
235712,373.86,643,765,0
235722,380.03,643,764,0
235732,384.65,643,765,0
235742,386.77,643,765,0
235752,387.05,643,765,0
235762,384.85,643,764,0
235772,381.25,643,765,0
235782,376.08,643,765,0
235792,370.40,643,765,0
235802,363.63,643,764,0
235812,357.27,643,765,0
235822,350.76,643,765,0
235832,345.22,643,765,0
235842,339.93,643,764,0
235852,335.88,643,765,0
235863,332.36,643,764,0
235873,330.41,643,765,0
235883,328.78,643,764,0
235893,328.46,643,765,0
235904,328.37,643,764,0
235913,329.37,643,765,0
235923,330.16,643,764,0
235933,331.61,643,765,0
235943,332.59,643,764,0
235953,334.30,643,765,0
235963,336.52,643,764,0
235973,341.25,643,765,0
235983,349.06,643,764,0
235993,362.54,643,765,0
236003,382.78,643,764,0
236013,412.33,643,766,0
236023,450.72,643,764,0
236033,494.86,643,765,0
236052,541.23,655,764,0
236055,587.28,655,766,0
236064,630.05,655,764,0
236075,667.32,655,766,0
236084,696.54,655,764,0
236094,717.12,655,765,0
236104,731.53,655,764,0
236114,741.61,655,766,0
236124,748.67,655,764,0
236134,752.24,655,765,0
236144,750.33,655,764,0
236154,742.51,655,766,0
236164,728.00,655,764,0
236174,707.00,655,765,0
236184,679.06,655,764,0
236194,644.84,655,766,0
236204,605.85,655,764,0
236214,565.43,655,765,0
236224,524.50,655,764,0
236234,485.31,655,766,0
236244,448.23,655,764,0
236254,415.20,655,765,0
236264,386.00,655,764,0
236274,362.00,655,766,0
236284,342.84,655,764,0
236294,329.69,655,765,0
236304,321.43,655,764,0
236314,318.68,655,766,0
236324,319.94,655,764,0
236334,325.31,655,765,0
236344,332.76,655,764,0
236354,342.26,655,766,0
236364,351.91,655,764,0
236375,361.71,655,766,0
236385,369.77,655,763,0
236395,376.27,655,766,0
236405,380.04,655,763,0
236416,381.87,655,765,0
236425,380.93,655,763,0
236435,378.21,655,766,0
236445,373.26,655,764,0
236455,367.39,655,766,0
236465,360.38,655,764,0
236475,353.49,655,766,0
236485,346.32,655,764,0
236495,339.92,655,766,0
236505,333.82,655,764,0
236515,329.07,655,766,0
236525,325.02,655,764,0
236535,322.49,655,766,0
236545,320.54,655,763,0
236555,319.95,655,766,0
236565,319.79,655,764,0
236575,320.76,655,766,0
236585,321.94,655,763,0
236595,324.10,655,766,0
236605,326.26,655,763,0
236615,329.09,655,766,0
236625,331.59,655,763,0
236635,334.42,655,766,0
236645,336.61,655,764,0
236655,338.78,655,766,0
236665,340.18,655,763,0
236675,342.05,655,766,0
236685,344.52,655,764,0
236695,349.98,655,766,0
236705,359.50,655,763,0
236716,376.15,655,766,0
236726,400.96,655,764,0
236736,435.90,655,766,0
236746,477.72,655,763,0
236756,523.66,655,766,0
236775,570.26,723,765,0
236778,615.05,723,768,0
236787,654.68,723,763,0
236797,687.18,723,766,0
236807,710.52,723,763,0
236817,726.87,723,766,0
236827,738.31,723,763,0
236837,746.36,723,766,0
236847,751.52,723,763,0
236857,752.01,723,766,0
236867,746.39,723,763,0
236877,733.97,723,766,0
236887,714.52,723,763,0
236897,688.05,723,766,0
236907,654.52,723,763,0
236917,615.02,723,766,0
236928,572.33,723,763,0
236937,529.16,723,766,0
236947,487.07,723,763,0
236957,447.58,723,766,0
236967,411.70,723,763,0
236977,380.68,723,766,0
236987,354.80,723,763,0
236997,334.85,723,766,0
237007,320.71,723,763,0
237017,312.48,723,766,0
237027,309.47,723,763,0
237037,311.21,723,766,0
237047,316.63,723,763,0
237057,324.89,723,766,0
237067,334.69,723,763,0
237077,345.24,723,766,0
237087,355.37,723,763,0
237097,364.47,723,766,0
237107,371.62,723,763,0
237117,376.57,723,766,0
237127,378.93,723,763,0
237137,378.87,723,766,0
237147,376.29,723,763,0
237157,371.96,723,766,0
237167,366.06,723,763,0
237177,359.23,723,766,0
237187,351.74,723,763,0
237197,344.45,723,766,0
237207,337.54,723,763,0
237217,331.51,723,766,0
237228,326.34,723,763,0
237238,322.17,723,766,0
237248,319.16,723,764,0
237258,317.27,723,766,0
237268,316.42,723,764,0
237278,316.46,723,766,0
237288,317.31,723,764,0
237298,318.80,723,766,0
237308,320.96,723,764,0
237318,323.54,723,766,0
237328,326.42,723,764,0
237338,329.30,723,766,0
237348,332.25,723,764,0
237358,335.05,723,766,0
237368,337.56,723,763,0
237378,339.71,723,766,0
237388,341.38,723,764,0
237399,342.55,723,766,0
237409,343.33,723,764,0
237419,343.66,723,765,0
237429,344.15,723,764,0
237440,345.39,723,765,0
237449,348.83,723,764,0
237459,356.08,723,766,0
237469,369.64,723,764,0
237479,391.18,723,765,0
237489,422.11,723,764,0
237499,461.42,723,766,0
237518,505.99,743,765,0
237521,552.58,743,765,0
237530,598.39,743,764,0
237540,640.10,743,765,0
237550,675.34,743,765,0
237560,702.28,743,765,0
237570,721.14,743,764,0
237580,734.34,743,765,0
237590,743.58,743,765,0
237600,750.01,743,765,0
237611,753.18,743,765,0
237620,751.24,743,765,0
237630,743.20,743,765,0
237640,727.92,743,765,0
237650,705.53,743,765,0
237660,675.93,743,765,0
237670,639.69,743,765,0
237680,598.13,743,765,0
237690,554.55,743,765,0
237700,510.84,743,765,0
237710,469.70,743,765,0
237720,431.65,743,765,0
237730,398.37,743,765,0
237740,369.89,743,765,0
237750,347.63,743,764,0
237760,331.24,743,765,0
237770,321.27,743,765,0
237780,316.56,743,765,0
237790,317.25,743,764,0
237800,321.67,743,765,0
237810,329.62,743,765,0
237820,339.16,743,765,0
237830,349.87,743,764,0
237840,359.98,743,765,0
237850,369.37,743,765,0
237860,376.63,743,765,0
237870,382.10,743,764,0
237880,384.68,743,765,0
237890,385.12,743,765,0
237900,382.77,743,765,0
237911,378.73,743,765,0
237921,372.51,743,765,0
237931,365.63,743,765,0
237941,357.51,743,764,0
237952,349.56,743,765,0
237961,341.46,743,764,0
237971,334.72,743,765,0
237981,328.63,743,764,0
237991,324.37,743,765,0
238001,320.83,743,764,0
238011,319.08,743,765,0
238021,318.24,743,764,0
238031,319.07,743,765,0
238041,320.12,743,765,0
238051,322.27,743,765,0
238061,324.37,743,765,0
238071,327.35,743,765,0
238081,330.07,743,765,0
238091,333.26,743,765,0
238101,335.76,743,765,0
238111,338.49,743,765,0
238121,340.27,743,764,0
238131,342.03,743,765,0
238141,342.79,743,765,0
238151,343.58,743,765,0
238161,343.84,743,764,0
238171,345.26,743,765,0
238181,348.27,743,765,0
238191,355.64,743,765,0
238201,368.56,743,765,0
238211,389.57,743,765,0
238221,419.57,743,765,0
238231,458.57,743,765,0
238241,502.71,743,764,0
238261,549.30,743,763,0
238264,594.94,743,765,0
238273,637.00,743,766,0
238283,672.83,743,764,0
238294,700.52,743,766,0
238303,719.91,743,764,0
238313,733.48,743,766,0
238323,742.98,743,764,0
238333,749.58,743,766,0
238343,753.44,743,764,0
238353,752.96,743,766,0
238363,746.20,743,764,0
238373,732.77,743,766,0
238383,711.97,743,764,0
238393,684.16,743,766,0
238403,649.01,743,764,0
238413,608.17,743,766,0
238423,563.97,743,764,0
238433,519.97,743,766,0
238443,477.21,743,764,0
238453,437.97,743,765,0
238464,402.54,743,764,0
238473,372.85,743,766,0
238483,348.59,743,764,0
238493,331.02,743,765,0
238503,319.27,743,764,0
238513,313.87,743,766,0
238523,313.23,743,764,0
238533,317.66,743,765,0
238543,325.22,743,764,0
238553,335.70,743,766,0
238563,346.84,743,764,0
238573,358.46,743,766,0
238583,368.74,743,764,0
238593,378.03,743,766,0
238603,384.54,743,764,0
238613,388.83,743,766,0
238623,389.74,743,764,0
238633,388.49,743,766,0
238643,384.61,743,764,0
238653,379.42,743,766,0
238663,372.31,743,764,0
238673,364.84,743,766,0
238683,356.58,743,764,0
238693,349.16,743,766,0
238703,341.87,743,764,0
238713,335.74,743,766,0
238723,330.03,743,764,0
238733,325.91,743,766,0
238743,322.46,743,764,0
238753,320.61,743,766,0
238764,319.23,743,764,0
238774,319.24,743,766,0
238784,319.69,743,763,0
238794,321.37,743,766,0
238804,323.18,743,764,0
238814,325.79,743,766,0
238824,328.21,743,763,0
238834,331.23,743,766,0
238844,333.99,743,764,0
238854,336.99,743,766,0
238864,339.35,743,763,0
238874,341.69,743,766,0
238884,343.28,743,764,0
238894,344.83,743,766,0
238904,345.39,743,763,0
238914,345.83,743,766,0
238924,345.84,743,764,0
238935,346.83,743,766,0
238945,349.32,743,763,0
238955,355.74,743,766,0
238965,367.48,743,763,0
238976,387.48,743,766,0
238985,416.39,743,764,0
238995,454.59,743,766,0
239005,498.30,743,763,0
239025,544.84,763,762,0
239028,590.83,763,765,0
239037,633.61,763,766,0
239047,670.07,763,764,0
239057,698.55,763,766,0
239067,718.48,763,763,0
239077,732.44,763,766,0
239087,742.21,763,764,0
239097,749.04,763,766,0
239107,753.83,763,763,0
239117,757.18,763,766,0
239127,756.70,763,764,0
239137,750.75,763,766,0
239148,738.35,763,763,0
239158,718.70,763,765,0
239168,691.62,763,764,0
239178,657.11,763,765,0
239188,615.80,763,764,0
239198,570.99,763,765,0
239208,525.56,763,764,0
239218,481.42,763,765,0
239228,440.88,763,764,0
239238,405.05,763,765,0
239248,375.29,763,764,0
239258,351.76,763,765,0
239268,335.16,763,764,0
239278,324.91,763,765,0
239288,321.00,763,764,0
239298,322.15,763,765,0
239308,327.72,763,764,0
239319,336.08,763,765,0
239329,346.60,763,764,0
239339,357.47,763,765,0
239349,368.22,763,764,0
239360,377.28,763,765,0
239369,384.48,763,764,0
239379,389.05,763,765,0
239389,391.27,763,764,0
239399,390.37,763,765,0
239409,387.35,763,764,0
239419,381.93,763,765,0
239429,375.48,763,764,0
239439,367.75,763,765,0
239449,360.02,763,764,0
239459,352.05,763,765,0
239469,345.13,763,764,0
239479,338.66,763,765,0
239489,333.71,763,764,0
239499,329.64,763,765,0
239509,327.13,763,764,0
239519,325.29,763,765,0
239529,324.95,763,765,0
239539,325.05,763,765,0
239549,326.32,763,764,0
239559,327.72,763,765,0
239569,329.74,763,765,0
239579,331.61,763,765,0
239589,333.83,763,764,0
239599,335.38,763,765,0
239609,337.11,763,765,0
239619,338.02,763,765,0
239629,339.00,763,764,0
239639,339.26,763,765,0
239649,339.61,763,765,0
239660,339.30,763,765,0
239670,339.25,763,765,0
239680,338.40,763,764,0
239690,337.94,763,765,0
239700,336.89,763,764,0
239710,336.53,763,765,0
239720,336.55,763,765,0
239730,339.12,763,765,0
239740,344.96,763,764,0
239750,356.84,763,765,0
239760,375.96,763,765,0
239770,405.07,763,765,0
239780,443.49,763,764,0
239799,488.22,775,764,0
239802,535.55,775,764,0
239811,582.91,775,766,0
239821,627.04,775,764,0
239831,665.47,775,765,0
239841,695.42,775,764,0
239851,716.38,775,766,0
239861,731.05,775,764,0
239872,741.32,775,765,0
239881,748.47,775,764,0
239891,753.51,775,765,0
239901,757.04,775,764,0
239911,756.95,775,765,0
239921,751.13,775,764,0
239931,738.88,775,765,0
239941,718.82,775,764,0
239951,691.27,775,765,0
239961,655.96,775,764,0
239971,613.76,775,765,0
239981,567.37,775,764,0
239991,520.46,775,766,0
240001,474.64,775,764,0
240011,433.00,775,765,0
240021,396.02,775,764,0
240031,365.67,775,766,0
240041,341.68,775,764,0
240051,325.32,775,765,0
240061,315.45,775,764,0
240071,312.57,775,766,0
240081,314.76,775,764,0
240091,322.03,775,765,0
240101,331.92,775,764,0
240111,344.25,775,766,0
240121,356.51,775,764,0
240131,368.79,775,765,0
240141,378.97,775,764,0
240151,387.42,775,765,0
240161,392.52,775,764,0
240172,395.19,775,765,0
240182,394.36,775,764,0
240192,391.60,775,766,0
240202,386.10,775,763,0
240212,379.34,775,766,0
240222,371.10,775,764,0
240232,362.88,775,766,0
240242,354.30,775,763,0
240252,346.84,775,766,0
240262,339.82,775,764,0
240272,334.56,775,766,0
240282,330.23,775,764,0
240292,327.76,775,766,0
240302,326.08,775,764,0
240312,326.18,775,766,0
240322,326.81,775,764,0
240332,328.80,775,766,0
240343,330.83,775,764,0
240353,333.71,775,766,0
240363,336.20,775,764,0
240373,339.22,775,766,0
240384,341.51,775,764,0
240393,344.06,775,766,0
240403,345.63,775,764,0
240413,347.15,775,766,0
240423,347.54,775,764,0
240433,347.68,775,766,0
240443,346.79,775,763,0
240453,345.95,775,766,0
240463,344.51,775,764,0
240473,343.80,775,766,0
240483,343.86,775,764,0
240493,347.03,775,766,0
240503,354.09,775,764,0
240513,367.48,775,766,0
240523,388.08,775,764,0
240533,418.18,775,766,0
240543,456.96,775,764,0
240553,501.28,775,766,0
240572,547.53,773,765,0
240575,593.18,773,767,0
240584,635.26,773,764,0
240594,671.65,773,766,0
240604,699.78,773,764,0
240614,719.48,773,766,0
240624,733.26,773,764,0
240634,742.91,773,766,0
240644,749.62,773,764,0
240654,752.74,773,766,0
240664,750.12,773,764,0
240674,740.87,773,766,0
240684,724.45,773,764,0
240694,700.79,773,765,0
240704,669.56,773,764,0
240714,631.38,773,766,0
240724,588.02,773,763,0
240734,543.36,773,765,0
240744,499.24,773,764,0
240754,457.72,773,766,0
240764,419.83,773,763,0
240774,387.44,773,765,0
240784,360.78,773,764,0
240794,341.05,773,766,0
240804,327.58,773,763,0
240814,320.76,773,765,0
240824,319.42,773,764,0
240834,323.32,773,766,0
240844,330.90,773,763,0
240855,341.17,773,765,0
240865,352.39,773,763,0
240875,363.89,773,766,0
240885,374.29,773,764,0
240896,383.08,773,765,0
240905,389.31,773,764,0
240915,392.86,773,766,0
240925,393.50,773,764,0
240935,391.38,773,765,0
240945,386.51,773,764,0
240955,379.46,773,766,0
240965,370.75,773,764,0
240975,361.01,773,765,0
240985,350.85,773,763,0
240995,341.21,773,766,0
241005,332.32,773,763,0
241015,324.72,773,765,0
241025,318.55,773,764,0
241035,314.18,773,766,0
241045,311.60,773,764,0
241055,310.65,773,766,0
241065,310.97,773,764,0
241075,312.52,773,766,0
241085,314.94,773,764,0
241095,318.00,773,766,0
241105,321.21,773,764,0
241115,324.41,773,766,0
241125,327.16,773,764,0
241135,329.38,773,766,0
241145,330.98,773,764,0
241155,332.10,773,766,0
241165,332.67,773,764,0
241175,332.86,773,766,0
241185,332.90,773,764,0
241196,333.74,773,766,0
241206,336.52,773,764,0
241216,342.92,773,765,0
241226,354.99,773,764,0
241236,374.83,773,765,0
241246,403.86,773,764,0
241256,442.56,773,766,0
241266,487.30,773,764,0
241276,534.87,773,765,0
241286,582.27,773,764,0
241305,626.37,733,763,0
241308,664.53,733,766,0
241317,694.72,733,765,0
241327,715.84,733,764,0
241337,730.63,733,765,0
241347,741.03,733,764,0
241357,748.31,733,765,0
241367,753.40,733,764,0
241377,755.64,733,765,0
241387,753.22,733,764,0
241397,744.45,733,765,0
241408,728.80,733,764,0
241417,705.89,733,765,0
241427,675.84,733,764,0
241437,638.69,733,765,0
241447,596.48,733,765,0
241457,552.02,733,765,0
241467,508.26,733,764,0
241477,466.52,733,765,0
241487,428.70,733,765,0
241497,395.53,733,765,0
241507,368.37,733,764,0
241517,347.13,733,765,0
241527,332.61,733,764,0
241537,324.02,733,765,0
241547,321.66,733,764,0
241557,324.08,733,765,0
241567,331.00,733,764,0
241577,340.81,733,765,0
241587,352.83,733,764,0
241597,365.18,733,765,0
241607,377.51,733,764,0
241617,388.16,733,765,0
241627,396.90,733,764,0
241637,402.58,733,765,0
241647,405.49,733,764,0
241657,405.05,733,765,0
241667,402.03,733,764,0
241677,396.24,733,765,0
241687,388.84,733,764,0
241697,379.80,733,765,0
241708,370.39,733,764,0
241718,360.29,733,765,0
241728,350.94,733,765,0
241738,341.87,733,764,0
241748,334.33,733,764,0
241758,327.84,733,765,0
241768,323.43,733,765,0
241778,320.22,733,765,0
241788,319.04,733,765,0
241798,318.68,733,765,0
241808,319.81,733,765,0
241818,321.15,733,765,0
241828,323.21,733,765,0
241838,324.94,733,765,0
241848,327.06,733,765,0
241858,328.50,733,765,0
241868,330.02,733,765,0
241879,330.74,733,764,0
241889,331.51,733,765,0
241899,331.53,733,764,0
241909,331.84,733,765,0
241920,332.10,733,764,0
241929,334.26,733,765,0
241939,338.85,733,764,0
241949,348.80,733,765,0
241959,365.19,733,764,0
241969,390.33,733,765,0
241979,424.43,733,764,0
241989,466.47,733,765,0
241999,512.57,733,764,0
242009,560.14,733,765,0
242028,605.53,723,764,0
242031,646.39,723,766,0
242040,680.21,723,764,0
242050,705.69,723,766,0
242060,723.53,723,764,0
242070,736.01,723,765,0
242080,744.71,723,764,0
242091,750.84,723,766,0
242100,752.64,723,764,0
242110,749.11,723,765,0
242120,738.75,723,764,0
242130,721.47,723,766,0
242140,696.85,723,764,0
242150,665.48,723,765,0
242160,627.15,723,764,0
242170,585.36,723,766,0
242180,541.93,723,764,0
242190,499.99,723,765,0
242200,460.18,723,764,0
242210,424.64,723,766,0
242220,393.38,723,764,0
242230,368.11,723,765,0
242240,348.32,723,763,0
242250,335.07,723,766,0
242260,327.25,723,764,0
242270,325.41,723,765,0
242280,327.82,723,763,0
242290,334.56,723,766,0
242300,343.52,723,764,0
242310,354.51,723,765,0
242320,365.37,723,763,0
242330,376.10,723,765,0
242340,384.86,723,764,0
242350,391.97,723,765,0
242360,396.01,723,763,0
242370,397.89,723,766,0
242380,396.72,723,764,0
242391,393.64,723,766,0
242401,387.92,723,763,0
242411,381.13,723,766,0
242421,372.77,723,763,0
242432,364.36,723,766,0
242441,355.42,723,763,0
242451,347.45,723,766,0
242461,339.94,723,763,0
242471,334.13,723,766,0
242481,329.34,723,763,0
242491,326.71,723,766,0
242501,325.25,723,763,0
242511,325.65,723,766,0
242521,326.82,723,763,0
242531,329.49,723,766,0
242541,332.43,723,764,0
242551,336.12,723,766,0
242561,339.29,723,763,0
242571,342.72,723,766,0
242581,345.50,723,763,0
242591,348.78,723,766,0
242601,352.23,723,763,0
242611,357.86,723,766,0
242621,366.52,723,764,0
242631,380.98,723,766,0
242641,402.03,723,763,0
242651,431.59,723,766,0
242661,469.08,723,764,0
242671,511.79,723,766,0
242681,556.34,723,763,0
242691,600.34,723,766,0
242710,640.52,682,765,0
242713,675.12,682,768,0
242722,702.17,682,764,0
242732,721.15,682,766,0
242742,734.39,682,764,0
242752,743.70,682,766,0
242762,750.18,682,764,0
242772,753.51,682,766,0
242782,751.99,682,764,0
242792,744.58,682,766,0
242802,730.00,682,764,0
242812,708.27,682,766,0
242822,679.09,682,763,0
242832,643.11,682,766,0
242842,601.50,682,763,0
242852,557.55,682,766,0
242862,513.29,682,764,0
242872,471.37,682,766,0
242882,432.86,682,763,0
242892,399.52,682,765,0
242903,371.63,682,763,0
242913,350.44,682,766,0
242923,335.70,682,763,0
242933,327.52,682,765,0
242944,325.13,682,763,0
242953,328.05,682,766,0
242963,334.85,682,763,0
242973,344.67,682,766,0
242983,355.99,682,763,0
242993,367.91,682,766,0
243003,379.12,682,763,0
243013,388.90,682,765,0
243023,396.26,682,763,0
243033,401.02,682,766,0
243043,402.69,682,763,0
243053,401.58,682,765,0
243063,397.72,682,763,0
243073,391.98,682,766,0
243083,384.48,682,763,0
243093,376.28,682,765,0
243103,367.63,682,763,0
243113,359.38,682,766,0
243123,351.81,682,763,0
243133,345.31,682,765,0
243143,339.77,682,763,0
243153,335.51,682,766,0
243163,332.32,682,763,0
243173,330.34,682,766,0
243183,329.21,682,763,0
243193,328.84,682,766,0
243203,328.93,682,763,0
243213,329.51,682,766,0
243223,330.39,682,763,0
243233,331.77,682,766,0
243244,333.77,682,763,0
243254,337.44,682,765,0
243264,344.12,682,763,0
243274,355.78,682,766,0
243284,374.11,682,764,0
243294,400.52,682,766,0
243304,435.72,682,764,0
243314,477.93,682,766,0
243324,523.90,682,764,0
243334,570.43,682,766,0
243353,614.61,643,765,0
243356,653.73,643,766,0
243365,685.95,643,764,0
243375,709.80,643,765,0
243385,726.53,643,764,0
243395,738.20,643,765,0
243405,746.41,643,764,0
243415,752.12,643,766,0
243425,755.42,643,764,0
243435,754.18,643,765,0
243445,747.23,643,764,0
243456,733.36,643,765,0
243465,712.68,643,764,0
243475,684.66,643,765,0
243485,649.75,643,764,0
243495,608.90,643,765,0
243505,565.43,643,764,0
243515,521.58,643,765,0
243525,479.79,643,764,0
243535,440.81,643,765,0
243545,406.50,643,764,0
243555,377.21,643,765,0
243565,354.00,643,764,0
243575,336.56,643,765,0
243585,325.16,643,764,0
243595,319.37,643,765,0
243605,319.17,643,764,0
243615,323.15,643,765,0
243625,330.86,643,764,0
243635,340.42,643,765,0
243645,351.48,643,764,0
243655,362.48,643,765,0
243665,372.62,643,764,0
243675,380.79,643,765,0
243685,386.81,643,764,0
243695,389.91,643,765,0
243705,390.62,643,764,0
243715,388.68,643,765,0
243725,384.79,643,764,0
243735,378.90,643,765,0
243745,371.94,643,764,0
243756,364.03,643,765,0
243766,356.26,643,764,0
243776,348.60,643,765,0
243786,341.86,643,764,0
243796,335.86,643,765,0
243806,331.53,643,764,0
243816,328.07,643,765,0
243826,326.34,643,764,0
243836,325.34,643,765,0
243846,325.71,643,764,0
243856,326.48,643,765,0
243866,328.14,643,764,0
243876,329.72,643,765,0
243886,332.12,643,764,0
243896,334.87,643,765,0
243906,339.67,643,764,0
243916,346.92,643,765,0
243927,358.99,643,764,0
243937,376.99,643,764,0
243947,403.31,643,765,0
243957,438.14,643,764,0
243968,479.97,643,765,0
243977,525.15,643,764,0
243996,571.14,643,763,0
243999,614.89,643,765,0
244008,654.14,643,766,0
244018,686.20,643,764,0
244028,710.01,643,765,0
244038,726.64,643,764,0
244048,738.32,643,765,0
244058,746.49,643,764,0
244068,752.17,643,765,0
244078,755.08,643,764,0
244088,753.94,643,766,0
244098,747.10,643,764,0
244108,734.17,643,765,0
244118,713.98,643,764,0
244128,686.90,643,765,0
244139,652.60,643,764,0
244148,613.03,643,765,0
244158,570.00,643,764,0
244168,526.54,643,765,0
244178,483.73,643,764,0
244188,444.30,643,765,0
244198,408.51,643,764,0
244208,378.19,643,765,0
244218,352.93,643,764,0
244228,334.18,643,765,0
244238,320.97,643,764,0
244248,314.08,643,765,0
244258,311.95,643,764,0
244268,314.80,643,765,0
244278,320.73,643,764,0
244288,329.68,643,766,0
244298,339.46,643,764,0
244308,350.21,643,766,0
244318,359.79,643,763,0
244328,368.42,643,765,0
244338,374.55,643,764,0
244348,378.72,643,765,0
244358,379.83,643,763,0
244368,379.07,643,765,0
244378,375.62,643,764,0
244388,370.98,643,765,0
244398,364.64,643,763,0
244408,358.11,643,766,0
244418,350.87,643,764,0
244428,344.40,643,766,0
244439,338.06,643,764,0
244449,333.12,643,766,0
244459,328.80,643,763,0
244469,326.16,643,766,0
244480,324.18,643,763,0
244489,323.87,643,766,0
244499,323.95,643,763,0
244509,325.25,643,766,0
244519,326.50,643,763,0
244529,328.54,643,766,0
244539,330.13,643,764,0
244549,332.28,643,766,0
244559,334.47,643,763,0
244569,338.27,643,766,0
244579,343.97,643,764,0
244589,354.23,643,766,0
244599,369.76,643,763,0
244609,393.10,643,766,0
244619,424.44,643,764,0
244629,464.12,643,766,0
244639,508.36,643,763,0
244659,554.49,662,762,0
244662,599.17,662,764,0
244671,640.18,662,766,0
244681,674.88,662,763,0
244691,702.13,662,766,0
244701,721.16,662,763,0
244711,734.53,662,766,0
244721,743.88,662,763,0
244731,750.43,662,766,0
244741,755.02,662,763,0
244751,756.26,662,766,0
244761,752.15,662,763,0
244771,741.99,662,766,0
244781,725.19,662,763,0
244791,701.61,662,766,0
244801,670.82,662,763,0
244811,633.33,662,766,0
244822,591.41,662,763,0
244831,548.30,662,766,0
244841,505.61,662,763,0
244851,465.14,662,766,0
244861,428.11,662,763,0
244871,396.19,662,766,0
244881,369.65,662,763,0
244891,349.53,662,766,0
244901,335.44,662,763,0
244911,327.68,662,766,0
244921,325.25,662,763,0
244931,327.70,662,766,0
244941,333.83,662,763,0
244951,343.10,662,766,0
244961,353.70,662,763,0
244971,364.89,662,766,0
244981,375.21,662,763,0
244992,384.36,662,766,0
245001,391.37,662,763,0
245011,396.14,662,766,0
245021,398.07,662,763,0
245031,397.62,662,766,0
245041,394.82,662,763,0
245051,390.50,662,766,0
245061,384.82,662,763,0
245071,378.45,662,766,0
245081,371.46,662,763,0
245091,364.59,662,766,0
245101,357.94,662,763,0
245111,352.30,662,766,0
245121,347.41,662,763,0
245131,343.82,662,766,0
245141,341.13,662,763,0
245151,339.68,662,766,0
245161,339.22,662,763,0
245171,339.92,662,765,0
245181,340.97,662,763,0
245191,342.57,662,766,0
245201,344.03,662,763,0
245211,345.69,662,765,0
245221,347.03,662,763,0
245231,348.18,662,766,0
245241,348.89,662,763,0
245251,349.70,662,765,0
245261,350.77,662,763,0
245271,353.41,662,766,0
245281,358.73,662,763,0
245292,368.88,662,765,0
245302,385.59,662,763,0
245312,410.70,662,766,0
245322,445.16,662,763,0
245332,486.47,662,765,0
245342,531.33,662,763,0
245361,576.96,703,762,0
245364,620.39,703,765,0
245373,658.97,703,765,0
245383,690.39,703,763,0
245393,713.08,703,765,0
245403,728.95,703,764,0
245413,740.07,703,765,0
245423,747.85,703,763,0
245433,753.29,703,765,0
245443,757.10,703,764,0
245453,759.73,703,765,0
245463,761.57,703,763,0
245473,762.86,703,765,0
245483,760.54,703,764,0
245493,752.49,703,765,0
245504,737.39,703,764,0
245513,714.64,703,765,0
245523,684.06,703,763,0
245533,645.73,703,764,0
245543,600.73,703,764,0
245553,553.24,703,765,0
245563,506.54,703,764,0
245573,463.05,703,765,0
245583,424.72,703,764,0
245593,392.83,703,765,0
245603,368.41,703,764,0
245613,351.02,703,765,0
245623,340.51,703,764,0
245633,336.03,703,765,0
245643,336.96,703,763,0
245653,341.82,703,765,0
245663,349.67,703,764,0
245673,358.77,703,765,0
245683,368.40,703,763,0
245693,377.19,703,765,0
245703,384.76,703,764,0
245713,390.19,703,765,0
245723,393.56,703,763,0
245733,394.42,703,765,0
245743,393.48,703,764,0
245753,390.55,703,765,0
245763,386.40,703,763,0
245773,381.27,703,765,0
245783,375.83,703,764,0
245793,370.14,703,765,0
245804,365.00,703,764,0
245814,360.15,703,765,0
245824,356.38,703,764,0
245834,353.14,703,764,0
245844,351.00,703,764,0
245854,349.50,703,765,0
245864,349.09,703,764,0
245874,348.94,703,764,0
245884,349.73,703,764,0
245894,350.49,703,765,0
245904,351.93,703,764,0
245914,353.07,703,764,0
245924,354.55,703,764,0
245934,355.50,703,765,0
245944,356.63,703,763,0
245954,357.30,703,764,0
245964,358.84,703,764,0
245975,361.46,703,764,0
245985,367.32,703,764,0
245995,377.47,703,764,0
246005,394.81,703,765,0
246016,420.28,703,764,0
246025,455.30,703,764,0
246035,496.39,703,764,0
246054,540.89,693,763,0
246057,585.58,693,764,0
246066,628.05,693,765,0
246076,665.15,693,764,0
246086,695.15,693,765,0
246096,716.40,693,764,0
246106,731.28,693,765,0
246116,741.70,693,764,0
246126,748.99,693,765,0
246136,754.09,693,763,0
246146,757.66,693,764,0
246156,760.16,693,764,0
246166,761.92,693,765,0
246176,763.14,693,764,0
246187,762.93,693,765,0
246196,758.45,693,763,0
246206,748.07,693,765,0
246216,729.92,693,763,0
246226,703.89,693,765,0
246236,669.72,693,763,0
246246,628.36,693,765,0
246256,581.15,693,763,0
246266,532.55,693,765,0
246276,485.16,693,764,0
246286,442.60,693,765,0
246296,405.56,693,763,0
246306,376.12,693,765,0
246316,353.58,693,763,0
246326,338.97,693,765,0
246336,330.75,693,763,0
246346,328.85,693,765,0
246356,331.17,693,763,0
246366,337.55,693,765,0
246376,345.31,693,763,0
246386,354.35,693,765,0
246396,362.60,693,763,0
246406,370.26,693,765,0
246416,375.67,693,763,0
246426,379.45,693,765,0
246436,380.48,693,763,0
246446,379.95,693,765,0
246456,377.18,693,763,0
246466,373.40,693,765,0
246476,368.05,693,763,0
246487,362.63,693,765,0
246497,356.49,693,763,0
246507,351.15,693,765,0
246517,345.88,693,763,0
246528,341.93,693,765,0
246537,338.44,693,763,0
246547,336.38,693,765,0
246557,334.68,693,763,0
246567,334.43,693,765,0
246577,334.39,693,763,0
246587,335.39,693,765,0
246597,336.34,693,763,0
246607,338.21,693,765,0
246617,339.90,693,763,0
246627,342.20,693,765,0
246637,343.90,693,763,0
246647,345.82,693,765,0
246657,347.20,693,763,0
246667,349.20,693,765,0
246677,351.45,693,763,0
246687,356.20,693,765,0
246697,364.20,693,763,0
246707,378.24,693,765,0
246717,399.42,693,763,0
246727,430.33,693,765,0
246737,469.10,693,763,0
246756,513.00,702,762,0
246759,558.47,702,763,0
246768,603.16,702,766,0
246778,643.95,702,763,0
246788,678.77,702,765,0
246798,704.94,702,763,0
246808,723.26,702,766,0
246818,736.08,702,763,0
246828,745.06,702,765,0
246838,751.34,702,763,0
246848,755.74,702,766,0
246858,758.82,702,763,0
246868,760.97,702,765,0
246878,762.48,702,763,0
246888,763.58,702,766,0
246898,762.03,702,763,0
246908,755.68,702,765,0
246918,742.53,702,763,0
246928,721.72,702,765,0
246938,692.19,702,763,0
246948,654.33,702,765,0
246958,608.46,702,763,0
246968,558.18,702,765,0
246978,506.35,702,763,0
246988,456.62,702,765,0
246999,410.88,702,763,0
247009,372.04,702,765,0
247019,340.57,702,763,0
247029,317.39,702,765,0
247040,301.76,702,762,0
247049,293.73,702,765,0
247059,291.84,702,763,0
247069,295.36,702,766,0
247079,302.15,702,762,0
247089,311.41,702,765,0
247099,321.31,702,763,0
247109,331.20,702,766,0
247119,339.71,702,763,0
247129,346.49,702,765,0
247139,350.80,702,763,0
247149,353.00,702,766,0
247159,352.74,702,762,0
247169,350.81,702,765,0
247179,347.01,702,763,0
247189,342.51,702,765,0
247199,337.25,702,762,0
247209,332.12,702,765,0
247219,326.86,702,763,0
247229,322.27,702,765,0
247239,318.07,702,763,0
247249,314.84,702,765,0
247259,312.06,702,763,0
247269,310.28,702,765,0
247279,309.08,702,762,0
247289,308.84,702,765,0
247299,309.02,702,763,0
247309,310.04,702,766,0
247319,311.40,702,763,0
247329,313.38,702,765,0
247340,315.58,702,763,0
247350,318.06,702,765,0
247360,320.53,702,763,0
247370,323.07,702,765,0
247380,325.24,702,763,0
247390,327.44,702,765,0
247400,329.32,702,763,0
247410,331.67,702,765,0
247420,335.41,702,763,0
247430,341.80,702,765,0
247440,352.32,702,763,0
247450,369.19,702,765,0
247460,394.25,702,763,0
247470,428.63,702,766,0
247480,470.40,702,763,0
247499,516.14,743,762,0
247502,563.02,743,764,0
247511,608.32,743,765,0
247521,649.02,743,763,0
247531,682.62,743,765,0
247541,707.67,743,764,0
247552,725.21,743,765,0
247561,737.49,743,763,0
247571,746.05,743,765,0
247581,752.03,743,763,0
247591,756.22,743,765,0
247601,759.16,743,763,0
247611,759.41,743,765,0
247621,754.96,743,763,0
247631,744.21,743,765,0
247641,726.62,743,763,0
247651,701.45,743,765,0
247661,668.57,743,763,0
247671,628.03,743,765,0
247681,582.38,743,763,0
247691,534.48,743,765,0
247701,487.15,743,763,0
247711,441.85,743,765,0
247721,400.84,743,764,0
247731,365.14,743,765,0
247741,336.04,743,763,0
247751,313.44,743,765,0
247761,297.71,743,764,0
247771,288.20,743,765,0
247781,284.75,743,763,0
247791,286.07,743,765,0
247801,291.45,743,764,0
247811,299.37,743,765,0
247821,309.03,743,763,0
247831,319.05,743,765,0
247841,328.89,743,764,0
247852,337.37,743,764,0
247862,344.16,743,764,0
247872,348.61,743,764,0
247882,351.04,743,764,0
247892,351.07,743,764,0
247902,349.46,743,764,0
247912,345.90,743,764,0
247922,341.51,743,764,0
247932,336.13,743,764,0
247942,330.82,743,763,0
247952,325.30,743,764,0
247962,320.58,743,764,0
247972,316.17,743,764,0
247982,313.07,743,764,0
247992,310.61,743,764,0
248002,309.53,743,764,0
248012,309.03,743,764,0
248023,309.75,743,764,0
248033,310.85,743,764,0
248043,313.00,743,764,0
248053,315.10,743,764,0
248064,317.64,743,764,0
248073,319.80,743,764,0
248083,322.18,743,764,0
248093,323.84,743,764,0
248103,325.73,743,764,0
248113,327.40,743,764,0
248123,330.58,743,764,0
248133,335.63,743,764,0
248143,345.00,743,764,0
248153,359.36,743,764,0
248163,381.41,743,764,0
248173,411.54,743,764,0
248183,450.81,743,764,0
248202,495.22,703,763,0
248205,542.13,703,766,0
248214,587.99,703,763,0
248224,630.81,703,765,0
248235,667.68,703,763,0
248244,697.18,703,765,0
248254,717.91,703,763,0
248264,732.42,703,765,0
248274,742.50,703,763,0
248284,749.55,703,765,0
248294,754.48,703,763,0
248304,756.01,703,765,0
248314,752.19,703,763,0
248324,742.71,703,765,0
248334,726.29,703,763,0
248344,703.02,703,764,0
248354,672.16,703,763,0
248364,634.74,703,765,0
248374,592.35,703,764,0
248384,548.40,703,765,0
248394,503.62,703,763,0
248404,460.88,703,765,0
248414,420.84,703,763,0
248424,385.79,703,765,0
248434,355.21,703,763,0
248444,330.85,703,765,0
248454,312.04,703,763,0
248464,299.85,703,765,0
248474,293.00,703,763,0
248484,291.63,703,765,0
248494,293.88,703,763,0
248504,299.83,703,765,0
248514,307.51,703,763,0
248524,316.91,703,765,0
248535,325.98,703,763,0
248545,334.77,703,765,0
248555,341.87,703,763,0
248565,347.82,703,765,0
248576,351.31,703,763,0
248585,353.27,703,765,0
248595,352.72,703,763,0
248605,351.05,703,765,0
248615,347.52,703,763,0
248625,343.38,703,765,0
248635,337.99,703,763,0
248645,332.81,703,765,0
248655,327.08,703,763,0
248665,322.13,703,765,0
248675,317.12,703,763,0
248685,313.27,703,765,0
248695,309.67,703,763,0
248705,307.54,703,765,0
248715,305.84,703,763,0
248725,305.54,703,765,0
248735,305.51,703,763,0
248745,306.60,703,765,0
248755,307.75,703,763,0
248765,309.75,703,765,0
248775,311.33,703,763,0
248785,313.33,703,765,0
248795,314.60,703,763,0
248805,316.22,703,765,0
248815,317.14,703,763,0
248825,318.34,703,765,0
248835,319.27,703,763,0
248845,321.80,703,765,0
248855,326.32,703,763,0
248865,335.44,703,765,0
248876,349.75,703,763,0
248886,371.94,703,765,0
248896,402.30,703,763,0
248906,442.07,703,766,0
248916,487.35,703,763,0
248935,535.20,733,762,0
248938,582.11,733,763,0
248947,625.88,733,765,0
248957,663.63,733,762,0
248967,694.04,733,765,0
248977,715.63,733,763,0
248987,730.74,733,765,0
248997,741.32,733,762,0
249007,748.72,733,765,0
249017,753.91,733,763,0
249027,755.69,733,765,0
249037,752.57,733,762,0
249047,744.08,733,765,0
249057,729.10,733,763,0
249067,707.47,733,765,0
249077,678.62,733,762,0
249088,643.07,733,765,0
249097,602.81,733,763,0
249107,560.52,733,765,0
249117,517.25,733,762,0
249127,475.26,733,766,0
249137,435.54,733,763,0
249147,399.94,733,765,0
249157,368.71,733,763,0
249167,342.87,733,765,0
249177,322.21,733,763,0
249187,307.49,733,766,0
249197,297.87,733,763,0
249207,293.32,733,765,0
249217,292.80,733,763,0
249227,295.94,733,765,0
249237,301.28,733,762,0
249247,308.44,733,765,0
249257,315.98,733,763,0
249267,323.87,733,765,0
249277,330.89,733,763,0
249287,336.97,733,765,0
249297,341.22,733,763,0
249307,344.11,733,765,0
249317,345.06,733,763,0
249327,344.66,733,765,0
249337,342.75,733,763,0
249347,340.08,733,765,0
249357,336.41,733,763,0
249367,332.43,733,765,0
249377,327.89,733,763,0
249388,323.51,733,766,0
249398,319.16,733,763,0
249408,315.12,733,765,0
249418,311.31,733,763,0
249428,308.09,733,765,0
249438,305.54,733,763,0
249448,303.87,733,765,0
249458,302.84,733,763,0
249468,302.63,733,765,0
249478,303.17,733,763,0
249488,304.53,733,765,0
249498,306.52,733,763,0
249508,308.85,733,765,0
249518,311.38,733,763,0
249528,314.05,733,765,0
249538,316.61,733,763,0
249548,318.87,733,765,0
249559,320.58,733,763,0
249569,321.69,733,765,0
249579,322.38,733,763,0
249589,322.65,733,765,0
249600,322.97,733,764,0
249609,323.49,733,765,0
249619,325.40,733,763,0
249629,329.95,733,765,0
249639,339.10,733,763,0
249649,353.85,733,765,0
249659,376.10,733,763,0
249669,406.58,733,765,0
249679,445.88,733,764,0
249698,490.74,763,762,0
249701,537.96,763,765,0
249710,584.17,763,765,0
249720,627.15,763,764,0
249730,664.43,763,764,0
249740,694.35,763,764,0
249750,715.89,763,765,0
249760,730.96,763,764,0
249771,741.47,763,764,0
249780,748.10,763,764,0
249790,749.49,763,765,0
249800,745.18,763,764,0
249810,734.20,763,764,0
249820,716.91,763,764,0
249830,692.90,763,765,0
249840,662.50,763,764,0
249850,626.35,763,764,0
249860,587.59,763,764,0
249870,547.55,763,765,0
249880,508.56,763,764,0
249890,470.72,763,764,0
249900,435.79,763,764,0
249910,404.05,763,765,0
249920,376.69,763,764,0
249930,353.51,763,764,0
249940,335.40,763,764,0
249950,321.82,763,765,0
249960,313.43,763,764,0
249970,309.10,763,764,0
249980,309.03,763,764,0
249990,311.89,763,765,0
250000,317.28,763,764,0
250010,323.67,763,764,0
250020,330.97,763,764,0
250030,337.83,763,765,0
250040,344.36,763,764,0
250050,349.31,763,764,0
250060,353.16,763,764,0
250071,355.21,763,764,0
250081,356.13,763,764,0
250091,355.15,763,764,0
250101,353.13,763,764,0
250112,349.58,763,764,0
250121,345.59,763,764,0
250131,340.70,763,764,0
250141,335.95,763,764,0
250151,330.82,763,764,0
250161,326.42,763,764,0
250171,322.22,763,764,0
250181,319.24,763,764,0
250191,316.55,763,764,0
250201,314.97,763,764,0
250211,313.65,763,764,0
250221,313.59,763,764,0
250231,313.67,763,764,0
250241,314.71,763,764,0
250251,315.74,763,764,0
250261,317.45,763,764,0
250271,318.86,763,764,0
250281,320.61,763,764,0
250291,321.46,763,764,0
250301,322.48,763,764,0
250311,322.81,763,764,0
250321,323.42,763,765,0
250331,323.94,763,764,0
250341,325.88,763,764,0
250351,329.61,763,764,0
250361,337.52,763,764,0
250371,349.97,763,764,0
250381,369.26,763,764,0
250391,395.84,763,764,0
250401,431.07,763,764,0
250412,473.14,763,763,0
250431,519.00,733,762,0
250434,565.07,733,764,0
250443,609.32,733,765,0
250454,648.82,733,763,0
250463,682.01,733,764,0
250473,707.16,733,763,0
250483,724.81,733,765,0
250493,737.17,733,763,0
250503,745.82,733,764,0
250513,750.63,733,763,0
250523,750.96,733,765,0
250533,745.31,733,763,0
250543,733.78,733,764,0
250553,715.41,733,763,0
250563,690.52,733,765,0
250573,658.61,733,763,0
250583,621.74,733,764,0
250593,581.10,733,763,0
250603,539.67,733,765,0
250613,497.86,733,763,0
250624,458.00,733,764,0
250633,420.50,733,763,0
250643,387.14,733,765,0
250653,357.61,733,763,0
250663,333.47,733,765,0
250673,314.09,733,763,0
250683,300.56,733,765,0
250693,291.65,733,763,0
250703,287.81,733,765,0
250713,287.44,733,763,0
250723,290.69,733,765,0
250733,295.84,733,763,0
250743,302.79,733,765,0
250753,309.71,733,763,0
250763,317.00,733,765,0
250773,322.91,733,763,0
250783,328.04,733,765,0
250793,331.11,733,763,0
250803,332.88,733,765,0
250813,332.57,733,763,0
250823,331.24,733,765,0
250833,328.26,733,762,0
250843,324.92,733,765,0
250853,320.62,733,763,0
250863,316.62,733,765,0
250873,312.10,733,762,0
250883,308.39,733,765,0
250893,304.76,733,763,0
250903,302.34,733,765,0
250913,300.27,733,762,0
250924,299.46,733,765,0
250934,298.98,733,763,0
250944,299.80,733,765,0
250954,300.93,733,763,0
250964,303.01,733,765,0
250974,304.85,733,763,0
250984,307.21,733,765,0
250994,309.20,733,762,0
251004,311.54,733,765,0
251014,313.35,733,762,0
251024,315.35,733,765,0
251034,316.83,733,762,0
251044,318.51,733,765,0
251054,319.64,733,763,0
251064,321.03,733,765,0
251074,321.92,733,762,0
251084,323.45,733,765,0
251095,325.50,733,763,0
251105,329.89,733,765,0
251115,337.42,733,762,0
251125,350.41,733,765,0
251136,370.05,733,762,0
251145,398.06,733,765,0
251164,434.47,733,764,0
251167,477.79,733,765,0
251176,524.22,733,763,0
251186,571.04,733,765,0
251196,615.13,733,762,0
251206,654.13,733,765,0
251216,686.15,733,763,0
251226,710.11,733,765,0
251236,726.87,733,762,0
251246,738.61,733,765,0
251256,746.83,733,762,0
251266,752.58,733,765,0
251276,756.61,733,762,0
251286,758.27,733,765,0
251296,755.83,733,763,0
251307,748.04,733,765,0
251316,734.10,733,762,0
251326,713.45,733,765,0
251336,685.59,733,762,0
251346,650.74,733,765,0
251356,610.45,733,762,0
251366,567.33,733,765,0
251376,523.47,733,762,0
251386,480.69,733,765,0
251396,440.54,733,762,0
251406,404.59,733,765,0
251416,373.47,733,762,0
251426,347.70,733,765,0
251436,327.48,733,762,0
251446,312.98,733,765,0
251456,303.81,733,762,0
251466,299.41,733,765,0
251476,298.95,733,762,0
251486,301.70,733,765,0
251496,306.72,733,762,0
251506,313.11,733,765,0
251516,319.93,733,762,0
251526,326.68,733,765,0
251536,332.65,733,762,0
251546,337.51,733,765,0
251556,340.74,733,762,0
251566,342.41,733,765,0
251576,342.54,733,762,0
251586,341.31,733,765,0
251596,338.73,733,762,0
251607,335.08,733,765,0
251617,330.73,733,763,0
251627,325.97,733,764,0
251637,321.18,733,763,0
251648,316.24,733,764,0
251657,311.67,733,763,0
251667,307.40,733,764,0
251677,303.93,733,763,0
251687,301.00,733,764,0
251697,298.85,733,763,0
251707,297.10,733,764,0
251717,296.25,733,763,0
251727,295.92,733,764,0
251737,296.33,733,763,0
251747,297.00,733,765,0
251757,298.16,733,763,0
251767,299.44,733,764,0
251777,301.15,733,762,0
251787,302.99,733,764,0
251797,305.01,733,763,0
251807,306.76,733,764,0
251817,308.59,733,763,0
251827,310.00,733,764,0
251837,311.41,733,763,0
251847,312.45,733,764,0
251857,313.34,733,763,0
251867,313.75,733,764,0
251877,314.21,733,763,0
251887,314.75,733,764,0
251897,316.62,733,763,0
251907,320.29,733,765,0
251917,327.45,733,763,0
251927,339.49,733,764,0
251937,358.45,733,763,0
251948,385.49,733,764,0
251967,421.43,803,763,0
251970,464.50,803,763,0
251979,511.58,803,764,0
251990,559.36,803,763,0
251999,605.02,803,763,0
252009,645.82,803,763,0
252019,679.86,803,764,0
252029,705.61,803,764,0
252039,723.69,803,763,0
252049,736.34,803,763,0
252059,745.19,803,764,0
252069,751.35,803,763,0
252079,754.29,803,763,0
252089,752.32,803,763,0
252099,744.89,803,763,0
252109,730.82,803,763,0
252119,710.52,803,763,0
252129,683.32,803,763,0
252139,649.92,803,763,0
252149,611.55,803,763,0
252160,571.14,803,764,0
252169,529.91,803,763,0
252179,490.38,803,763,0
252189,452.60,803,763,0
252199,418.65,803,764,0
252209,388.32,803,763,0
252219,363.11,803,763,0
252229,342.64,803,763,0
252239,327.74,803,764,0
252249,317.54,803,763,0
252259,312.53,803,763,0
252269,311.26,803,763,0
252279,313.92,803,763,0
252289,318.62,803,763,0
252299,325.50,803,763,0
252309,332.98,803,763,0
252319,341.09,803,764,0
252329,348.18,803,763,0
252339,354.64,803,763,0
252349,359.12,803,763,0
252359,362.47,803,764,0
252369,363.53,803,763,0
252379,363.20,803,763,0
252389,360.78,803,763,0
252399,357.55,803,763,0
252409,352.84,803,763,0
252419,348.05,803,763,0
252429,342.55,803,763,0
252439,337.67,803,764,0
252449,332.54,803,763,0
252460,328.56,803,764,0
252470,324.88,803,763,0
252480,322.60,803,764,0
252490,320.66,803,762,0
252500,320.12,803,764,0
252510,319.79,803,762,0
252520,320.66,803,764,0
252530,321.32,803,762,0
252540,322.81,803,764,0
252550,323.90,803,762,0
252560,325.51,803,764,0
252570,326.47,803,762,0
252580,327.75,803,764,0
252590,328.21,803,762,0
252600,329.05,803,764,0
252610,329.37,803,762,0
252620,330.81,803,763,0
252631,333.22,803,762,0
252641,338.85,803,764,0
252651,348.28,803,762,0
252661,364.14,803,764,0
252672,386.73,803,762,0
252681,417.41,803,764,0
252691,455.09,803,762,0
252710,498.47,743,761,0
252713,543.80,743,762,0
252722,588.52,743,765,0
252732,629.55,743,762,0
252742,665.26,743,764,0
252752,694.02,743,762,0
252762,715.62,743,765,0
252772,730.47,743,762,0
252782,738.95,743,764,0
252792,740.50,743,762,0
252802,735.64,743,764,0
252812,723.79,743,762,0
252822,705.38,743,764,0
252832,680.15,743,762,0
252843,648.95,743,764,0
252852,613.48,743,762,0
252862,576.39,743,764,0
252872,538.13,743,762,0
252882,500.94,743,764,0
252892,465.17,743,762,0
252902,432.46,743,764,0
252912,402.79,743,762,0
252922,377.14,743,764,0
252932,355.37,743,762,0
252942,338.72,743,764,0
252952,326.54,743,762,0
252962,319.44,743,764,0
252972,316.22,743,762,0
252982,317.18,743,764,0
252992,321.03,743,762,0
253002,327.62,743,764,0
253012,335.28,743,762,0
253022,343.77,743,764,0
253032,351.51,743,762,0
253042,358.64,743,764,0
253052,363.89,743,762,0
253062,367.74,743,764,0
253072,369.27,743,762,0
253082,369.23,743,764,0
253092,367.02,743,762,0
253102,363.76,743,764,0
253112,358.94,743,762,0
253122,353.73,743,765,0
253132,347.68,743,762,0
253143,341.86,743,764,0
253153,335.91,743,762,0
253163,330.75,743,765,0
253173,325.90,743,762,0
253184,322.20,743,765,0
253193,319.05,743,762,0
253203,317.15,743,764,0
253213,315.86,743,762,0
253223,315.69,743,765,0
253233,315.91,743,762,0
253243,316.97,743,764,0
253253,318.31,743,761,0
253263,320.23,743,765,0
253273,322.05,743,762,0
253283,323.92,743,765,0
253293,325.31,743,761,0
253303,326.72,743,765,0
253313,327.70,743,762,0
253323,328.74,743,764,0
253333,329.50,743,762,0
253343,331.02,743,765,0
253353,333.97,743,761,0
253363,339.64,743,765,0
253373,348.96,743,761,0
253383,364.10,743,765,0
253393,385.89,743,761,0
253403,415.49,743,765,0
253413,452.42,743,762,0
253423,494.98,743,765,0
253443,539.94,732,764,0
253446,584.70,732,764,0
253455,626.15,732,762,0
253465,662.40,732,764,0
253475,691.90,732,762,0
253485,714.04,732,765,0
253495,729.59,732,762,0
253505,740.47,732,764,0
253515,746.24,732,762,0
253526,746.21,732,764,0
253535,740.32,732,762,0
253545,728.10,732,764,0
253555,709.55,732,762,0
253565,684.62,732,764,0
253575,653.75,732,762,0
253585,619.02,732,764,0
253595,582.59,732,762,0
253605,545.34,732,764,0
253615,509.07,732,762,0
253625,474.50,732,764,0
253635,442.72,732,762,0
253645,414.01,732,764,0
253655,388.93,732,762,0
253665,367.74,732,764,0
253675,351.06,732,762,0
253685,338.48,732,764,0
253696,330.24,732,763,0
253705,325.71,732,764,0
253715,324.81,732,762,0
253725,326.71,732,764,0
253735,330.95,732,762,0
253745,336.50,732,764,0
253755,342.86,732,762,0
253765,348.95,732,764,0
253775,354.62,732,762,0
253785,359.11,732,764,0
253795,362.29,732,762,0
253805,363.66,732,764,0
253815,363.63,732,762,0
253825,362.07,732,764,0
253835,359.56,732,762,0
253845,356.05,732,764,0
253855,351.97,732,762,0
253865,347.35,732,764,0
253875,342.83,732,762,0
253885,338.34,732,764,0
253895,334.38,732,763,0
253905,330.62,732,764,0
253915,327.56,732,762,0
253925,324.95,732,764,0
253935,323.25,732,763,0
253945,322.06,732,764,0
253955,321.53,732,762,0
253965,321.24,732,764,0
253975,321.64,732,762,0
253985,322.13,732,764,0
253996,323.29,732,763,0
254006,324.36,732,763,0
254016,325.80,732,763,0
254026,326.97,732,763,0
254036,328.31,732,763,0
254046,329.33,732,764,0
254056,330.39,732,763,0
254066,330.87,732,764,0
254076,331.81,732,763,0
254086,332.98,732,763,0
254096,336.12,732,763,0
254106,341.78,732,764,0
254116,352.26,732,763,0
254126,368.38,732,763,0
254136,392.14,732,763,0
254146,423.64,732,764,0
254156,463.52,732,763,0
254176,507.81,734,762,0
254179,553.81,734,765,0
254188,598.14,734,763,0
254198,638.90,734,764,0
254209,673.60,734,762,0
254219,701.15,734,764,0
254229,720.43,734,763,0
254239,733.97,734,764,0
254249,743.41,734,762,0
254259,750.06,734,764,0
254269,753.73,734,762,0
254279,753.64,734,764,0
254289,748.17,734,762,0
254299,737.54,734,764,0
254309,720.62,734,763,0
254319,697.72,734,764,0
254329,668.27,734,762,0
254339,634.21,734,764,0
254349,596.77,734,762,0
254359,558.83,734,764,0
254369,520.82,734,762,0
254380,485.22,734,764,0
254390,452.15,734,762,0
254400,423.56,734,764,0
254410,399.05,734,762,0
254420,379.96,734,764,0
254430,365.66,734,762,0
254440,356.76,734,765,0
254450,351.99,734,762,0
254460,351.82,734,764,0
254470,354.45,734,762,0
254480,359.84,734,764,0
254490,366.19,734,762,0
254500,373.55,734,765,0
254510,380.33,734,762,0
254520,386.70,734,764,0
254530,391.20,734,762,0
254540,394.53,734,765,0
254551,395.53,734,762,0
254561,395.15,734,765,0
254571,392.71,734,762,0
254581,389.32,734,764,0
254592,384.56,734,762,0
254601,379.46,734,765,0
254611,373.58,734,762,0
254621,368.01,734,764,0
254631,362.43,734,762,0
254641,357.63,734,765,0
254651,352.98,734,762,0
254661,349.26,734,765,0
254671,346.01,734,762,0
254681,343.95,734,765,0
254691,342.42,734,762,0
254701,341.87,734,764,0
254711,341.78,734,762,0
254721,342.57,734,764,0
254731,343.56,734,762,0
254741,345.02,734,764,0
254751,346.04,734,762,0
254761,347.36,734,765,0
254771,348.28,734,762,0
254781,349.35,734,764,0
254791,350.15,734,762,0
254801,351.47,734,765,0
254811,353.60,734,762,0
254821,358.27,734,765,0
254831,366.24,734,762,0
254841,379.67,734,765,0
254851,399.27,734,762,0
254861,426.96,734,765,0
254871,462.59,734,762,0
254881,503.98,734,765,0
254892,547.79,734,762,0
254911,591.39,735,761,0
254914,631.99,735,763,0
254923,667.74,735,765,0
254934,696.40,735,762,0
254943,717.28,735,765,0
254953,731.90,735,762,0
254963,742.17,735,765,0
254973,749.36,735,763,0
254983,754.35,735,764,0
254993,757.85,735,762,0
255003,759.05,735,765,0
255013,756.16,735,762,0
255023,748.19,735,764,0
255033,734.03,735,762,0
255043,713.11,735,765,0
255053,685.26,735,762,0
255063,650.81,735,764,0
255073,611.48,735,762,0
255083,569.98,735,765,0
255093,528.33,735,762,0
255104,488.67,735,764,0
255113,452.94,735,762,0
255123,422.19,735,765,0
255133,397.06,735,762,0
255143,377.80,735,764,0
255153,364.40,735,762,0
255163,356.57,735,764,0
255173,353.74,735,762,0
255183,354.85,735,764,0
255193,358.92,735,762,0
255203,364.77,735,764,0
255213,371.48,735,762,0
255223,378.15,735,764,0
255233,384.11,735,762,0
255243,388.70,735,765,0
255253,391.58,735,762,0
255263,392.43,735,764,0
255273,391.53,735,763,0
255283,388.80,735,765,0
255293,384.66,735,762,0
255303,379.19,735,764,0
255313,372.79,735,762,0
255323,365.70,735,764,0
255333,358.59,735,762,0
255343,351.60,735,764,0
255353,345.25,735,762,0
255363,339.64,735,764,0
255373,335.04,735,762,0
255383,331.38,735,764,0
255393,328.91,735,763,0
255404,327.14,735,764,0
255414,326.32,735,763,0
255424,326.01,735,764,0
255434,326.27,735,763,0
255444,326.66,735,764,0
255454,327.40,735,763,0
255464,327.93,735,764,0
255474,328.80,735,763,0
255484,329.21,735,764,0
255494,329.74,735,763,0
255504,329.86,735,764,0
255514,330.50,735,763,0
255524,331.64,735,764,0
255534,334.75,735,763,0
255544,340.61,735,764,0
255554,351.53,735,763,0
255564,368.77,735,764,0
255575,394.42,735,763,0
255585,428.54,735,764,0
255595,470.25,735,763,0
255605,515.90,735,764,0
255616,562.65,735,764,0
255634,607.41,723,762,0
255637,647.70,723,765,0
255646,681.13,723,763,0
255656,706.59,723,764,0
255666,724.37,723,763,0
255676,736.82,723,764,0
255686,745.53,723,763,0
255696,751.63,723,764,0
255706,755.34,723,763,0
255716,755.28,723,763,0
255726,749.71,723,763,0
255736,738.23,723,764,0
255746,720.03,723,763,0
255756,695.25,723,763,0
255766,663.42,723,763,0
255776,625.92,723,764,0
255787,584.54,723,763,0
255796,542.81,723,763,0
255806,501.51,723,763,0
255816,462.87,723,764,0
255826,427.25,723,763,0
255836,396.53,723,763,0
255846,370.36,723,763,0
255856,350.11,723,764,0
255866,334.56,723,763,0
255876,324.66,723,763,0
255886,318.94,723,763,0
255896,317.93,723,764,0
255906,319.79,723,763,0
255916,324.57,723,763,0
255926,330.44,723,763,0
255936,337.47,723,764,0
255946,343.93,723,763,0
255956,350.16,723,764,0
255966,354.49,723,763,0
255976,357.60,723,764,0
255986,358.36,723,763,0
255996,357.74,723,764,0
256006,355.03,723,763,0
256016,351.38,723,764,0
256026,346.12,723,762,0
256036,340.56,723,764,0
256046,334.13,723,763,0
256056,328.14,723,764,0
256066,321.97,723,763,0
256076,316.83,723,764,0
256087,311.87,723,763,0
256097,308.27,723,764,0
256107,305.06,723,762,0
256117,303.28,723,764,0
256128,302.13,723,762,0
256137,302.22,723,764,0
256147,302.49,723,762,0
256157,303.93,723,764,0
256167,305.24,723,762,0
256177,307.57,723,764,0
256187,309.54,723,762,0
256197,311.95,723,764,0
256207,313.94,723,762,0
256217,316.31,723,764,0
256227,318.32,723,763,0
256237,321.44,723,764,0
256247,325.29,723,762,0
256257,331.89,723,764,0
256267,341.65,723,763,0
256277,357.01,723,764,0
256287,378.48,723,762,0
256297,408.12,723,765,0
256307,444.94,723,763,0
256317,487.86,723,764,0
256336,533.29,702,764,0
256339,578.72,702,765,0
256348,621.10,702,762,0
256358,658.70,702,765,0
256368,689.09,702,762,0
256378,712.08,702,765,0
256388,728.17,702,762,0
256398,739.47,702,765,0
256408,744.95,702,762,0
256418,744.53,702,765,0
256428,737.73,702,762,0
256438,724.78,702,764,0
256448,705.22,702,762,0
256458,679.70,702,765,0
256468,648.03,702,762,0
256478,613.69,702,765,0
256488,577.61,702,762,0
256498,541.90,702,765,0
256508,507.09,702,762,0
256518,474.92,702,764,0
256528,445.16,702,762,0
256538,419.22,702,765,0
256548,396.44,702,762,0
256558,378.10,702,764,0
256568,363.37,702,762,0
256578,353.10,702,765,0
256588,346.30,702,762,0
256599,343.51,702,765,0
256609,343.44,702,762,0
256619,346.10,702,764,0
256629,350.14,702,762,0
256640,355.63,702,765,0
256649,361.09,702,761,0
256659,366.64,702,764,0
256669,370.95,702,762,0
256679,374.31,702,765,0
256689,376.01,702,762,0
256699,376.57,702,765,0
256709,375.50,702,762,0
256719,373.20,702,765,0
256729,369.41,702,762,0
256739,364.92,702,764,0
256749,359.50,702,762,0
256759,354.04,702,765,0
256769,348.20,702,762,0
256779,342.87,702,764,0
256789,337.93,702,762,0
256799,334.05,702,765,0
256809,330.91,702,762,0
256819,329.01,702,765,0
256829,327.63,702,762,0
256839,327.19,702,765,0
256849,327.13,702,762,0
256859,327.95,702,765,0
256869,328.86,702,762,0
256879,330.19,702,765,0
256889,331.42,702,762,0
256899,333.05,702,764,0
256909,334.62,702,762,0
256919,336.62,702,765,0
256929,338.92,702,762,0
256940,342.93,702,765,0
256950,349.47,702,762,0
256960,360.30,702,765,0
256970,376.67,702,762,0
256980,400.17,702,765,0
256990,430.76,702,762,0
257000,468.72,702,765,0
257010,511.32,702,762,0
257030,555.66,693,761,0
257033,598.79,693,765,0
257042,638.28,693,764,0
257052,672.06,693,763,0
257062,699.30,693,764,0
257072,719.18,693,763,0
257082,733.14,693,764,0
257092,742.70,693,763,0
257102,747.03,693,764,0
257112,745.99,693,763,0
257122,739.01,693,764,0
257132,726.02,693,763,0
257142,706.69,693,764,0
257153,681.28,693,763,0
257163,650.00,693,764,0
257173,615.67,693,763,0
257183,579.34,693,764,0
257193,543.11,693,763,0
257203,507.72,693,764,0
257213,474.85,693,763,0
257223,444.72,693,763,0
257233,418.62,693,763,0
257243,396.19,693,764,0
257253,378.60,693,763,0
257263,365.27,693,763,0
257273,356.74,693,763,0
257283,351.89,693,764,0
257293,351.07,693,763,0
257303,352.76,693,763,0
257313,357.08,693,763,0
257324,362.32,693,763,0
257334,368.44,693,763,0
257344,373.84,693,763,0
257354,378.77,693,764,0
257364,381.80,693,763,0
257374,383.66,693,763,0
257384,383.46,693,763,0
257394,382.21,693,764,0
257404,378.97,693,763,0
257414,374.95,693,764,0
257424,369.65,693,763,0
257434,364.53,693,764,0
257444,358.84,693,763,0
257454,353.66,693,764,0
257464,348.23,693,763,0
257474,343.92,693,764,0
257484,339.87,693,763,0
257495,337.08,693,764,0
257505,334.40,693,762,0
257515,332.91,693,764,0
257525,331.52,693,762,0
257536,331.15,693,764,0
257545,330.68,693,762,0
257555,331.03,693,764,0
257565,331.11,693,763,0
257575,331.93,693,764,0
257585,332.21,693,762,0
257595,333.09,693,764,0
257605,333.45,693,763,0
257615,334.21,693,764,0
257625,334.41,693,762,0
257635,335.01,693,764,0
257645,335.22,693,763,0
257655,336.61,693,764,0
257665,338.66,693,762,0
257675,343.69,693,764,0
257685,352.10,693,763,0
257695,366.55,693,764,0
257705,387.43,693,762,0
257715,416.36,693,764,0
257725,452.47,693,763,0
257735,494.84,693,764,0
257755,539.50,725,764,0
257758,584.14,725,765,0
257767,625.45,725,762,0
257777,661.83,725,765,0
257787,691.37,725,762,0
257797,713.67,725,765,0
257807,729.28,725,762,0
257817,740.26,725,765,0
257827,746.44,725,762,0
257837,747.68,725,765,0
257847,743.02,725,762,0
257857,732.51,725,765,0
257867,715.56,725,762,0
257878,692.55,725,765,0
257887,663.45,725,762,0
257897,630.49,725,765,0
257907,594.81,725,762,0
257917,558.83,725,765,0
257927,523.18,725,762,0
257937,489.57,725,765,0
257947,458.07,725,762,0
257957,429.89,725,764,0
257967,404.72,725,762,0
257977,383.72,725,765,0
257987,366.40,725,762,0
257997,353.55,725,764,0
258007,344.35,725,762,0
258017,339.23,725,765,0
258027,337.19,725,762,0
258037,338.16,725,764,0
258048,340.77,725,762,0
258057,345.17,725,765,0
258067,349.96,725,762,0
258077,355.29,725,764,0
258087,359.96,725,762,0
258097,364.17,725,765,0
258107,367.03,725,762,0
258117,368.95,725,764,0
258127,369.05,725,762,0
258137,368.05,725,765,0
258147,365.46,725,762,0
258157,362.15,725,764,0
258167,357.61,725,762,0
258177,353.01,725,765,0
258187,347.91,725,762,0
258197,343.26,725,764,0
258207,338.64,725,762,0
258217,334.72,725,765,0
258227,331.03,725,762,0
258237,328.24,725,764,0
258247,325.64,725,762,0
258257,323.86,725,765,0
258267,322.23,725,762,0
258277,321.30,725,764,0
258287,320.53,725,762,0
258297,320.37,725,765,0
258307,320.22,725,762,0
258317,320.75,725,764,0
258327,321.51,725,762,0
258337,322.86,725,765,0
258348,324.01,725,762,0
258358,325.64,725,764,0
258368,327.25,725,762,0
258378,329.83,725,765,0
258388,333.44,725,762,0
258398,339.26,725,764,0
258408,348.36,725,762,0
258418,362.56,725,765,0
258428,382.79,725,762,0
258438,409.90,725,765,0
258448,443.44,725,762,0
258458,482.91,725,765,0
258478,525.92,723,764,0
258481,569.49,723,765,0
258490,610.91,723,762,0
258500,648.01,723,764,0
258510,679.46,723,763,0
258520,703.54,723,764,0
258530,718.72,723,762,0
258540,724.80,723,764,0
258550,722.81,723,763,0
258561,713.18,723,764,0
258571,696.88,723,763,0
258581,674.03,723,764,0
258591,646.47,723,763,0
258601,615.43,723,763,0
258611,583.33,723,763,0
258621,550.96,723,764,0
258631,519.73,723,763,0
258641,489.64,723,763,0
258651,462.02,723,763,0
258661,436.77,723,764,0
258671,414.85,723,763,0
258681,395.57,723,764,0
258691,379.80,723,763,0
258701,367.13,723,764,0
258711,358.18,723,763,0
258721,352.08,723,764,0
258732,349.27,723,763,0
258742,348.85,723,764,0
258752,351.12,723,763,0
258762,354.73,723,763,0
258772,359.87,723,764,0
258782,365.18,723,763,0
258792,370.91,723,763,0
258802,375.57,723,763,0
258812,379.60,723,763,0
258822,381.90,723,763,0
258832,383.17,723,763,0
258842,382.39,723,763,0
258852,380.60,723,764,0
258862,377.12,723,763,0
258872,373.06,723,763,0
258882,367.68,723,763,0
258892,362.21,723,763,0
258903,356.19,723,763,0
258913,350.90,723,764,0
258923,345.53,723,762,0
258933,341.26,723,764,0
258944,337.54,723,762,0
258953,335.41,723,764,0
258963,333.78,723,763,0
258973,333.38,723,764,0
258983,333.05,723,762,0
258993,333.76,723,764,0
259003,334.31,723,762,0
259013,335.41,723,764,0
259023,335.98,723,762,0
259033,337.01,723,764,0
259043,337.69,723,762,0
259053,339.16,723,764,0
259063,340.65,723,762,0
259073,344.06,723,764,0
259083,349.44,723,762,0
259093,359.12,723,764,0
259103,373.40,723,762,0
259113,394.28,723,764,0
259123,421.24,723,763,0
259133,455.32,723,764,0
259143,494.61,723,763,0
259163,537.16,685,761,0
259166,579.50,685,762,0
259175,619.63,685,764,0
259185,655.10,685,762,0
259195,685.20,685,765,0
259205,708.62,685,762,0
259215,724.42,685,764,0
259225,732.14,685,762,0
259235,732.78,685,765,0
259245,726.59,685,762,0
259255,714.29,685,764,0
259265,695.77,685,762,0
259275,671.88,685,764,0
259286,643.80,685,762,0
259295,614.12,685,764,0
259305,583.31,685,762,0
259315,552.96,685,765,0
259325,523.06,685,762,0
259335,495.10,685,764,0
259345,468.75,685,762,0
259355,445.21,685,765,0
259365,423.89,685,762,0
259375,405.84,685,764,0
259385,390.54,685,762,0
259395,378.94,685,765,0
259405,370.26,685,762,0
259415,364.95,685,764,0
259425,361.97,685,762,0
259435,361.85,685,765,0
259445,363.31,685,762,0
259456,366.43,685,764,0
259465,369.90,685,762,0
259475,374.09,685,764,0
259485,377.83,685,762,0
259495,381.48,685,764,0
259505,383.65,685,762,0
259515,384.96,685,764,0
259525,384.67,685,762,0
259535,383.48,685,764,0
259545,380.64,685,762,0
259555,377.10,685,764,0
259565,372.40,685,762,0
259575,367.57,685,764,0
259585,362.13,685,762,0
259595,357.07,685,764,0
259605,351.82,685,762,0
259615,347.25,685,764,0
259625,342.97,685,762,0
259635,339.77,685,764,0
259645,336.79,685,762,0
259655,334.84,685,764,0
259665,333.22,685,762,0
259675,332.85,685,764,0
259685,332.81,685,762,0
259695,333.55,685,764,0
259705,334.20,685,762,0
259715,335.51,685,764,0
259725,336.52,685,762,0
259735,337.73,685,764,0
259745,338.50,685,762,0
259756,339.63,685,764,0
259766,340.90,685,762,0
259776,343.72,685,765,0
259786,348.69,685,761,0
259796,357.65,685,765,0
259806,371.26,685,762,0
259816,391.19,685,765,0
259826,417.88,685,761,0
259836,451.90,685,765,0
259846,491.83,685,762,0
259856,534.82,685,765,0
259875,577.86,713,763,0
259878,618.83,713,764,0
259887,655.35,713,762,0
259897,686.02,713,765,0
259907,709.71,713,761,0
259917,726.60,713,764,0
259927,738.42,713,762,0
259937,745.58,713,765,0
259947,747.59,713,761,0
259957,744.24,713,764,0
259968,735.26,713,762,0
259977,720.78,713,765,0
259987,700.66,713,761,0
259997,675.00,713,764,0
260007,645.17,713,762,0
260017,613.11,713,764,0
260027,580.08,713,761,0
260037,547.27,713,764,0
260047,515.43,713,762,0
260057,485.60,713,765,0
260067,458.29,713,761,0
260077,434.08,713,764,0
260087,413.27,713,762,0
260097,396.17,713,764,0
260107,382.84,713,761,0
260117,373.33,713,764,0
260127,367.32,713,762,0
260137,364.56,713,764,0
260147,364.44,713,761,0
260157,366.45,713,764,0
260167,369.87,713,762,0
260177,374.20,713,764,0
260187,378.72,713,761,0
260197,382.88,713,764,0
260207,386.30,713,762,0
260217,388.57,713,764,0
260227,389.47,713,762,0
260237,389.03,713,764,0
260247,387.13,713,761,0
260257,383.88,713,764,0
260268,379.54,713,762,0
260278,374.20,713,764,0
260288,368.52,713,762,0
260298,362.49,713,764,0
260308,356.56,713,762,0
260318,350.95,713,764,0
260328,345.95,713,762,0
260338,341.59,713,764,0
260348,338.29,713,762,0
260358,335.63,713,764,0
260368,333.94,713,762,0
260378,332.72,713,764,0
260388,332.33,713,762,0
260398,332.27,713,764,0
260408,332.71,713,762,0
260418,333.09,713,764,0
260428,333.79,713,762,0
260439,334.28,713,763,0
260449,335.14,713,762,0
260459,335.66,713,763,0
260469,336.83,713,763,0
260480,338.72,713,763,0
260489,342.84,713,763,0
260499,349.74,713,763,0
260509,361.43,713,763,0
260519,378.49,713,763,0
260529,402.43,713,763,0
260539,432.94,713,764,0
260549,470.16,713,763,0
260559,511.90,713,763,0
260578,555.34,703,763,0
260581,597.41,703,763,0
260590,636.16,703,763,0
260600,669.71,703,762,0
260610,697.14,703,763,0
260620,716.68,703,763,0
260630,728.09,703,763,0
260640,731.75,703,762,0
260651,728.65,703,764,0
260660,718.94,703,763,0
260670,703.27,703,763,0
260680,681.42,703,762,0
260690,655.32,703,764,0
260700,625.78,703,763,0
260710,595.16,703,763,0
260720,563.57,703,762,0
260730,532.67,703,763,0
260740,502.51,703,763,0
260750,474.63,703,763,0
260760,448.51,703,762,0
260770,425.47,703,764,0
260780,404.85,703,763,0
260790,387.88,703,763,0
260800,373.94,703,763,0
260810,364.06,703,763,0
260820,357.31,703,762,0
260830,354.35,703,763,0
260840,353.82,703,762,0
260850,356.14,703,763,0
260860,359.79,703,762,0
260870,364.95,703,763,0
260880,369.85,703,762,0
260890,374.95,703,764,0
260900,378.74,703,762,0
260910,381.90,703,763,0
260920,383.22,703,762,0
260930,383.58,703,763,0
260940,382.08,703,762,0
260951,379.87,703,764,0
260961,376.01,703,762,0
260971,371.85,703,764,0
260981,366.67,703,762,0
260992,361.71,703,764,0
261001,356.31,703,762,0
261011,351.63,703,764,0
261021,346.86,703,762,0
261031,343.13,703,764,0
261041,339.62,703,762,0
261051,337.25,703,764,0
261061,335.03,703,762,0
261071,333.86,703,764,0
261081,332.53,703,762,0
261091,331.99,703,764,0
261101,331.22,703,762,0
261111,331.11,703,764,0
261121,330.69,703,762,0
261131,331.04,703,764,0
261141,331.54,703,762,0
261151,333.95,703,764,0
261161,338.21,703,762,0
261171,346.29,703,764,0
261181,358.33,703,762,0
261191,376.49,703,764,0
261201,400.51,703,762,0
261211,431.09,703,763,0
261221,466.50,703,762,0
261231,506.34,703,764,0
261251,547.47,672,763,0
261254,588.13,672,764,0
261263,625.03,672,762,0
261273,656.35,672,764,0
261283,679.69,672,762,0
261293,694.78,672,764,0
261303,700.16,672,762,0
261313,697.16,672,764,0
261323,685.97,672,762,0
261334,668.32,672,764,0
261343,645.42,672,761,0
261353,619.58,672,764,0
261363,591.29,672,762,0
261373,562.49,672,764,0
261383,533.37,672,762,0
261393,505.49,672,764,0
261403,478.69,672,762,0
261413,453.84,672,764,0
261423,430.61,672,762,0
261433,410.12,672,765,0
261443,391.95,672,762,0
261453,377.05,672,764,0
261463,364.69,672,761,0
261473,355.91,672,764,0
261483,350.11,672,762,0
261493,347.68,672,764,0
261504,347.65,672,761,0
261513,350.15,672,764,0
261523,354.05,672,762,0
261533,359.43,672,764,0
261543,364.83,672,761,0
261553,370.24,672,764,0
261563,374.41,672,761,0
261573,377.72,672,764,0
261583,379.26,672,762,0
261593,379.65,672,764,0
261603,378.21,672,762,0
261613,375.62,672,764,0
261623,371.62,672,762,0
261633,367.23,672,764,0
261643,361.98,672,762,0
261653,356.84,672,764,0
261663,351.23,672,762,0
261673,346.23,672,764,0
261683,341.49,672,762,0
261693,337.66,672,764,0
261703,334.12,672,761,0
261713,331.47,672,764,0
261723,329.19,672,762,0
261733,327.93,672,764,0
261743,326.92,672,762,0
261753,326.65,672,764,0
261763,326.32,672,762,0
261773,326.65,672,764,0
261783,327.02,672,761,0
261793,327.91,672,764,0
261804,328.92,672,761,0
261814,330.92,672,764,0
261824,334.24,672,761,0
261834,340.34,672,764,0
261844,349.97,672,761,0
261854,364.55,672,764,0
261864,384.70,672,761,0
261874,411.45,672,764,0
261884,444.44,672,761,0
261894,482.71,672,765,0
261913,524.20,663,763,0
261916,566.39,663,765,0
261925,606.82,663,762,0
261935,643.52,663,765,0
261945,674.00,663,761,0
261955,696.72,663,764,0
261965,710.64,663,762,0
261975,715.94,663,765,0
261985,713.08,663,761,0
261995,702.90,663,764,0
262005,686.05,663,762,0
262016,663.92,663,764,0
262025,638.19,663,761,0
262035,610.19,663,764,0
262045,580.95,663,762,0
262055,551.48,663,764,0
262065,522.66,663,761,0
262075,495.21,663,764,0
262085,469.52,663,762,0
262095,445.53,663,764,0
262105,423.82,663,761,0
262115,404.50,663,764,0
262125,387.98,663,762,0
262135,374.27,663,764,0
262145,363.39,663,761,0
262155,355.52,663,764,0
262165,350.60,663,762,0
262175,348.24,663,764,0
262185,348.21,663,762,0
262195,349.86,663,764,0
262205,352.86,663,762,0
262215,356.54,663,764,0
262225,360.37,663,762,0
262235,363.94,663,764,0
262245,366.87,663,762,0
262255,368.71,663,764,0
262265,369.44,663,762,0
262275,368.92,663,764,0
262285,367.45,663,762,0
262295,365.00,663,764,0
262305,361.87,663,762,0
262316,358.01,663,764,0
262326,354.02,663,762,0
262336,349.77,663,764,0
262346,345.64,663,762,0
262356,341.55,663,763,0
262366,337.91,663,762,0
262376,334.51,663,763,0
262386,331.87,663,762,0
262396,329.42,663,763,0
262406,327.84,663,762,0
262416,326.64,663,763,0
262426,326.19,663,762,0
262436,325.88,663,763,0
262446,326.04,663,762,0
262456,326.20,663,764,0
262466,326.83,663,762,0
262476,327.35,663,763,0
262487,328.36,663,763,0
262497,329.11,663,763,0
262507,330.45,663,763,0
262517,332.16,663,763,0
262528,335.58,663,763,0
262537,340.89,663,763,0
262547,349.75,663,763,0
262557,362.68,663,763,0
262567,381.85,663,763,0
262577,406.84,663,763,0
262587,438.52,663,763,0
262597,475.30,663,763,0
262617,516.66,703,762,0
262620,559.14,703,762,0
262629,600.46,703,764,0
262639,637.91,703,762,0
262649,670.59,703,764,0
262659,696.04,703,762,0
262669,713.73,703,764,0
262679,722.13,703,762,0
262689,722.82,703,764,0
262700,716.06,703,762,0
262710,702.97,703,764,0
262720,683.61,703,762,0
262730,659.98,703,764,0
262740,632.82,703,762,0
262750,604.46,703,764,0
262760,574.96,703,762,0
262770,546.17,703,764,0
262780,517.66,703,762,0
262790,491.02,703,764,0
262800,465.60,703,762,0
262810,442.54,703,764,0
262820,421.12,703,762,0
262830,402.57,703,764,0
262840,386.20,703,761,0
262850,373.24,703,764,0
262860,362.67,703,762,0
262871,355.40,703,764,0
262881,350.35,703,761,0
262891,348.23,703,764,0
262901,347.73,703,762,0
262912,349.18,703,764,0
262921,351.19,703,761,0
262931,354.00,703,764,0
262941,356.49,703,762,0
262951,358.96,703,764,0
262961,360.25,703,761,0
262971,360.95,703,764,0
262981,360.28,703,762,0
262991,358.91,703,764,0
263001,356.28,703,761,0
263011,353.11,703,764,0
263021,349.01,703,762,0
263031,344.72,703,764,0
263041,339.92,703,761,0
263051,335.48,703,764,0
263061,330.93,703,762,0
263071,327.13,703,764,0
263081,323.54,703,761,0
263091,320.98,703,765,0
263101,318.75,703,762,0
263111,317.37,703,764,0
263121,316.19,703,761,0
263131,315.96,703,764,0
263141,315.89,703,762,0
263151,316.56,703,764,0
263161,317.12,703,761,0
263171,318.33,703,764,0
263181,319.43,703,762,0
263191,320.93,703,764,0
263201,322.02,703,761,0
263212,323.09,703,764,0
263222,323.75,703,762,0
263232,324.38,703,765,0
263242,324.74,703,761,0
263252,325.80,703,765,0
263262,327.70,703,761,0
263272,332.12,703,765,0
263282,339.97,703,761,0
263292,352.92,703,764,0
263302,371.72,703,762,0
263312,397.43,703,765,0
263322,429.66,703,761,0
263332,468.12,703,765,0
263351,510.47,735,764,0
263354,554.17,735,765,0
263363,596.21,735,761,0
263373,634.80,735,764,0
263383,667.86,735,762,0
263393,693.62,735,765,0
263403,710.36,735,762,0
263413,717.97,735,764,0
263424,717.21,735,762,0
263433,709.04,735,765,0
263443,693.99,735,762,0
263453,672.73,735,764,0
263463,646.84,735,762,0
263473,618.09,735,765,0
263483,587.76,735,762,0
263493,556.76,735,764,0
263503,525.81,735,762,0
263513,495.69,735,764,0
263523,466.98,735,761,0
263533,440.20,735,764,0
263543,415.63,735,762,0
263553,393.50,735,764,0
263563,374.19,735,762,0
263573,358.02,735,764,0
263583,345.20,735,762,0
263593,335.63,735,764,0
263603,329.05,735,762,0
263613,325.01,735,764,0
263623,323.63,735,762,0
263633,324.39,735,764,0
263643,326.76,735,762,0
263653,330.00,735,764,0
263663,333.73,735,762,0
263673,337.45,735,764,0
263683,341.00,735,762,0
263693,343.66,735,764,0
263703,345.35,735,762,0
263713,345.71,735,764,0
263724,344.99,735,762,0
263734,343.02,735,763,0
263744,340.27,735,762,0
263754,336.80,735,764,0
263764,333.05,735,763,0
263774,329.01,735,763,0
263784,325.19,735,762,0
263794,321.36,735,764,0
263804,318.25,735,763,0
263814,315.31,735,763,0
263824,313.07,735,762,0
263834,311.25,735,764,0
263844,310.23,735,762,0
263854,309.56,735,763,0
263864,309.78,735,762,0
263874,310.23,735,764,0
263884,311.53,735,763,0
263895,312.87,735,763,0
263905,314.67,735,763,0
263915,316.18,735,763,0
263925,318.06,735,763,0
263936,319.45,735,763,0
263945,321.03,735,763,0
263955,322.01,735,763,0
263965,323.08,735,763,0
263975,323.44,735,763,0
263985,324.04,735,763,0
263995,324.33,735,763,0
264005,325.77,735,763,0
264015,328.28,735,763,0
264025,333.77,735,763,0
264035,342.80,735,763,0
264045,357.69,735,763,0
264055,378.74,735,763,0
264065,407.10,735,763,0
264084,441.87,733,762,0
264087,483.14,733,764,0
264096,527.33,733,762,0
264107,571.84,733,764,0
264116,613.55,733,763,0
264126,650.84,733,764,0
264136,682.09,733,762,0
264146,706.83,733,764,0
264156,722.70,733,763,0
264166,730.67,733,764,0
264176,730.94,733,762,0
264186,724.36,733,764,0
264196,711.01,733,763,0
264206,691.64,733,764,0
264216,666.03,733,762,0
264226,636.62,733,764,0
264236,604.55,733,763,0
264246,571.86,733,763,0
264256,538.77,733,763,0
264266,506.87,733,764,0
264276,475.96,733,762,0
264286,447.86,733,763,0
264296,422.06,733,762,0
264306,399.71,733,764,0
264316,380.34,733,762,0
264326,365.15,733,763,0
264336,353.28,733,763,0
264346,345.61,733,764,0
264356,340.84,733,762,0
264366,339.60,733,763,0
264376,340.36,733,762,0
264386,343.56,733,763,0
264396,347.55,733,762,0
264407,352.65,733,764,0
264417,357.30,733,762,0
264427,361.80,733,764,0
264437,364.86,733,762,0
264448,367.04,733,764,0
264457,367.33,733,762,0
264467,366.63,733,764,0
264477,364.04,733,762,0
264487,360.90,733,764,0
264497,356.43,733,762,0
264507,351.97,733,764,0
264517,346.92,733,762,0
264527,342.36,733,764,0
264537,337.67,733,762,0
264547,333.95,733,764,0
264557,330.37,733,762,0
264567,328.07,733,764,0
264577,325.95,733,762,0
264587,325.06,733,763,0
264597,324.36,733,762,0
264607,324.72,733,764,0
264617,325.15,733,762,0
264627,326.30,733,764,0
264637,327.20,733,762,0
264647,328.72,733,764,0
264657,329.75,733,762,0
264667,331.24,733,764,0
264677,332.02,733,762,0
264687,333.17,733,764,0
264697,333.72,733,762,0
264707,334.83,733,764,0
264717,336.08,733,762,0
264727,339.19,733,764,0
264737,344.49,733,762,0
264748,354.37,733,764,0
264758,369.39,733,762,0
264768,391.94,733,764,0
264778,421.75,733,762,0
264788,459.54,733,764,0
264807,502.36,723,763,0
264810,547.38,723,766,0
264819,591.37,723,762,0
264829,632.19,723,764,0
264839,667.32,723,762,0
264849,695.85,723,765,0
264859,716.64,723,762,0
264869,731.19,723,764,0
264879,741.38,723,762,0
264889,746.75,723,764,0
264899,746.44,723,762,0
264909,740.18,723,764,0
264919,727.70,723,762,0
264929,709.14,723,764,0
264939,684.20,723,761,0
264949,653.07,723,764,0
264960,617.73,723,761,0
264969,580.91,723,764,0
264979,543.61,723,762,0
264989,507.26,723,764,0
264999,472.47,723,761,0
265009,440.74,723,764,0
265019,412.53,723,762,0
265029,388.63,723,765,0
265039,368.73,723,761,0
265049,353.51,723,764,0
265059,342.47,723,762,0
265069,336.03,723,765,0
265079,333.23,723,761,0
265089,334.02,723,764,0
265099,337.19,723,761,0
265109,342.32,723,764,0
265119,348.26,723,761,0
265129,354.78,723,765,0
265139,360.68,723,762,0
265149,365.87,723,764,0
265159,369.43,723,761,0
265169,371.53,723,764,0
265179,371.67,723,762,0
265189,370.48,723,764,0
265199,367.85,723,761,0
265209,364.30,723,764,0
265219,359.66,723,762,0
265229,354.84,723,764,0
265239,349.83,723,761,0
265249,345.29,723,765,0
265260,341.01,723,762,0
265270,337.28,723,764,0
265280,334.02,723,761,0
265290,331.62,723,764,0
265300,329.80,723,762,0
265310,328.62,723,764,0
265320,327.88,723,761,0
265330,327.61,723,764,0
265340,327.73,723,762,0
265350,328.28,723,765,0
265360,328.97,723,761,0
265370,329.88,723,764,0
265380,330.86,723,762,0
265390,331.80,723,765,0
265400,332.63,723,761,0
265410,333.30,723,764,0
265420,333.81,723,762,0
265431,334.12,723,764,0
265441,334.26,723,761,0
265451,334.61,723,764,0
265461,335.97,723,762,0
265472,339.15,723,764,0
265481,345.53,723,762,0
265491,356.43,723,764,0
265501,373.87,723,762,0
265511,398.81,723,764,0
265521,431.95,723,762,0
265531,472.47,723,764,0
265550,517.11,743,763,0
265553,562.68,743,764,0
265562,606.53,743,762,0
265572,645.97,743,763,0
265582,679.28,743,763,0
265592,705.08,743,763,0
265602,723.14,743,762,0
265612,735.74,743,764,0
265622,743.66,743,763,0
265632,745.78,743,763,0
265643,741.73,743,763,0
265652,731.05,743,763,0
265662,713.81,743,763,0
265672,689.70,743,763,0
265682,659.32,743,763,0
265692,623.73,743,763,0
265702,585.84,743,763,0
265712,546.85,743,763,0
265722,508.58,743,763,0
265732,471.68,743,763,0
265742,437.79,743,763,0
265752,406.82,743,764,0
265762,379.83,743,763,0
265772,356.65,743,763,0
265782,338.24,743,763,0
265792,324.11,743,764,0
265802,314.82,743,763,0
265812,309.39,743,763,0
265822,308.12,743,762,0
265832,309.88,743,763,0
265842,314.67,743,763,0
265852,321.11,743,763,0
265862,329.05,743,763,0
265872,337.01,743,764,0
265882,345.02,743,763,0
265892,351.66,743,763,0
265902,357.16,743,763,0
265912,360.45,743,763,0
265922,362.20,743,763,0
265932,361.63,743,763,0
265943,359.77,743,763,0
265953,356.15,743,763,0
265963,352.12,743,763,0
265973,346.98,743,762,0
265984,342.10,743,764,0
265993,336.80,743,763,0
266003,332.27,743,763,0
266013,327.82,743,762,0
266023,324.36,743,764,0
266033,321.04,743,763,0
266043,318.84,743,763,0
266053,316.75,743,762,0
266063,315.71,743,764,0
266073,314.72,743,763,0
266083,314.64,743,763,0
266093,314.40,743,762,0
266103,314.92,743,764,0
266113,315.12,743,763,0
266123,315.98,743,763,0
266133,316.46,743,762,0
266143,317.52,743,764,0
266153,318.18,743,762,0
266163,319.41,743,763,0
266173,320.10,743,762,0
266183,321.31,743,764,0
266193,321.86,743,762,0
266203,322.85,743,763,0
266213,323.24,743,762,0
266223,324.15,743,764,0
266233,324.92,743,763,0
266243,327.09,743,763,0
266253,330.83,743,763,0
266263,338.60,743,764,0
266273,350.80,743,763,0
266284,370.06,743,764,0
266294,396.32,743,762,0
266304,431.02,743,764,0
266323,472.54,773,763,0
266327,518.02,773,766,0
266335,563.83,773,762,0
266345,607.77,773,765,0
266355,646.84,773,762,0
266365,679.93,773,765,0
266375,705.28,773,762,0
266385,723.24,773,765,0
266395,733.71,773,762,0
266405,737.23,773,765,0
266415,733.51,773,762,0
266425,722.95,773,764,0
266435,705.22,773,762,0
266445,681.07,773,764,0
266455,650.62,773,762,0
266465,616.83,773,764,0
266475,580.67,773,762,0
266485,544.38,773,764,0
266496,508.52,773,762,0
266505,474.94,773,764,0
266515,443.41,773,762,0
266525,414.96,773,764,0
266535,389.09,773,762,0
266545,367.16,773,764,0
266555,348.64,773,762,0
266565,334.61,773,764,0
266575,324.14,773,762,0
266585,318.05,773,764,0
266595,315.38,773,762,0
266605,316.68,773,765,0
266615,320.51,773,762,0
266625,327.00,773,764,0
266635,334.54,773,762,0
266645,343.25,773,765,0
266655,351.62,773,762,0
266665,359.83,773,764,0
266675,366.40,773,762,0
266685,371.89,773,765,0
266695,375.27,773,762,0
266705,377.24,773,764,0
266715,377.13,773,762,0
266725,375.85,773,764,0
266735,372.94,773,762,0
266745,369.57,773,764,0
266755,365.16,773,762,0
266765,360.95,773,764,0
266775,356.29,773,762,0
266785,352.22,773,764,0
266796,348.17,773,762,0
266806,344.95,773,764,0
266816,342.01,773,762,0
266826,340.03,773,764,0
266836,338.35,773,762,0
266846,337.69,773,765,0
266856,337.14,773,762,0
266866,337.27,773,764,0
266876,337.40,773,762,0
266886,337.97,773,765,0
266896,338.32,773,762,0
266906,338.87,773,764,0
266916,339.38,773,762,0
266926,340.89,773,765,0
266936,343.63,773,762,0
266946,349.27,773,764,0
266956,358.57,773,762,0
266967,373.53,773,765,0
266977,394.80,773,762,0
266987,423.19,773,765,0
266997,457.97,773,762,0
267017,498.18,693,761,0
267020,540.98,693,764,0
267029,583.67,693,764,0
267039,623.46,693,762,0
267049,658.03,693,764,0
267059,684.98,693,762,0
267069,702.60,693,764,0
267079,710.22,693,763,0
267089,707.97,693,764,0
267099,697.05,693,762,0
267109,678.18,693,764,0
267119,652.92,693,763,0
267129,622.86,693,764,0
267139,590.29,693,762,0
267149,556.39,693,764,0
267159,522.89,693,762,0
267169,490.39,693,764,0
267180,459.97,693,763,0
267190,431.57,693,763,0
267200,406.15,693,763,0
267210,383.44,693,763,0
267220,364.45,693,763,0
267230,348.93,693,763,0
267240,337.64,693,763,0
267250,329.99,693,763,0
267260,326.69,693,763,0
267270,326.48,693,764,0
267280,329.72,693,763,0
267290,334.99,693,764,0
267300,342.28,693,763,0
267310,350.13,693,764,0
267320,358.49,693,763,0
267330,365.84,693,764,0
267340,372.49,693,763,0
267351,377.14,693,763,0
267361,380.27,693,763,0
267371,381.09,693,763,0
267381,380.42,693,764,0
267392,377.68,693,763,0
267401,374.00,693,763,0
267411,368.95,693,763,0
267421,363.73,693,763,0
267431,357.81,693,763,0
267441,352.38,693,763,0
267451,346.83,693,763,0
267461,342.46,693,764,0
267471,338.47,693,763,0
267481,335.88,693,763,0
267491,333.73,693,763,0
267501,333.04,693,764,0
267511,332.73,693,763,0
267521,333.62,693,763,0
267531,334.42,693,763,0
267541,335.92,693,764,0
267551,336.98,693,763,0
267561,338.53,693,764,0
267571,339.78,693,763,0
267581,342.03,693,764,0
267591,345.07,693,763,0
267601,351.00,693,764,0
267611,360.05,693,763,0
267621,374.60,693,764,0
267631,395.21,693,763,0
267641,423.56,693,764,0
267651,458.49,693,763,0
267670,499.44,654,762,0
267673,542.68,654,762,0
267682,586.02,654,764,0
267692,626.43,654,763,0
267702,662.17,654,764,0
267712,691.18,654,762,0
267722,713.50,654,764,0
267732,727.58,654,763,0
267742,734.43,654,764,0
267752,733.74,654,763,0
267762,726.11,654,764,0
267772,711.16,654,762,0
267782,689.90,654,764,0
267792,662.16,654,763,0
267802,630.44,654,764,0
267812,595.68,654,762,0
267822,560.59,654,764,0
267832,525.57,654,763,0
267842,492.48,654,764,0
267852,460.92,654,762,0
267863,432.32,654,764,0
267873,405.99,654,762,0
267883,383.37,654,764,0
267893,363.76,654,762,0
267904,348.36,654,764,0
267913,336.47,654,762,0
267923,329.04,654,764,0
267933,325.04,654,762,0
267943,325.16,654,765,0
267953,327.81,654,762,0
267963,333.14,654,764,0
267973,339.48,654,762,0
267983,347.01,654,765,0
267993,354.04,654,762,0
268003,360.75,654,764,0
268013,365.76,654,762,0
268023,369.47,654,764,0
268033,371.13,654,762,0
268043,371.61,654,764,0
268053,370.10,654,762,0
268063,367.58,654,765,0
268073,363.55,654,762,0
268083,359.40,654,764,0
268093,354.65,654,762,0
268103,350.43,654,764,0
268113,346.06,654,762,0
268123,342.57,654,764,0
268133,339.44,654,762,0
268143,337.51,654,765,0
268153,335.86,654,762,0
268163,335.38,654,764,0
268173,334.97,654,762,0
268183,335.49,654,765,0
268193,336.03,654,762,0
268204,337.22,654,765,0
268214,338.31,654,762,0
268224,339.85,654,765,0
268234,341.31,654,762,0
268244,343.70,654,764,0
268254,346.96,654,762,0
268264,353.10,654,764,0
268274,363.01,654,762,0
268284,378.78,654,765,0
268294,400.83,654,762,0
268304,430.41,654,765,0
268323,467.02,653,764,0
268326,509.01,653,765,0
268335,552.81,653,762,0
268345,595.72,653,765,0
268355,635.02,653,762,0
268365,669.30,653,765,0
268375,696.85,653,761,0
268385,717.34,653,765,0
268395,730.52,653,762,0
268405,736.62,653,765,0
268416,735.62,653,761,0
268425,727.85,653,765,0
268435,713.11,653,762,0
268445,691.73,653,765,0
268455,663.91,653,761,0
268465,631.50,653,765,0
268475,596.42,653,762,0
268485,560.42,653,765,0
268495,524.34,653,761,0
268505,489.57,653,765,0
268515,456.52,653,761,0
268525,425.90,653,765,0
268535,397.81,653,761,0
268545,372.88,653,765,0
268555,351.28,653,762,0
268565,333.66,653,765,0
268575,320.01,653,761,0
268585,310.62,653,765,0
268595,305.25,653,762,0
268605,303.80,653,765,0
268615,305.79,653,761,0
268625,310.74,653,764,0
268635,317.72,653,762,0
268645,326.12,653,765,0
268655,335.04,653,761,0
268665,343.98,653,765,0
268675,352.17,653,762,0
268685,359.07,653,765,0
268695,364.32,653,761,0
268705,367.74,653,764,0
268716,369.36,653,762,0
268726,369.38,653,764,0
268736,367.94,653,762,0
268746,365.17,653,764,0
268756,361.56,653,762,0
268766,357.58,653,764,0
268776,353.68,653,762,0
268786,349.96,653,764,0
268796,346.80,653,762,0
268806,344.12,653,764,0
268816,342.32,653,762,0
268826,341.07,653,764,0
268836,340.49,653,762,0
268846,340.30,653,764,0
268856,340.55,653,762,0
268866,340.94,653,764,0
268876,341.82,653,762,0
268887,342.69,653,764,0
268897,343.94,653,763,0
268907,345.07,653,763,0
268917,346.81,653,763,0
268928,349.35,653,763,0
268937,353.96,653,763,0
268947,361.51,653,763,0
268957,374.05,653,763,0
268967,392.55,653,764,0
268977,418.31,653,763,0
268987,451.26,653,764,0
269006,491.00,683,763,0
269009,533.98,683,763,0
269018,577.49,683,763,0
269028,618.61,683,763,0
269038,655.37,683,763,0
269048,686.07,683,763,0
269058,709.80,683,763,0
269068,725.50,683,763,0
269078,733.84,683,763,0
269088,734.44,683,763,0
269099,727.71,683,763,0
269108,713.48,683,763,0
269118,692.47,683,763,0
269128,664.64,683,763,0
269138,631.88,683,763,0
269148,595.79,683,763,0
269158,559.04,683,763,0
269168,522.21,683,763,0
269178,487.18,683,763,0
269188,453.91,683,763,0
269198,423.81,683,763,0
269208,396.48,683,763,0
269218,373.06,683,763,0
269228,353.20,683,763,0
269238,338.18,683,763,0
269248,327.11,683,763,0
269258,320.95,683,763,0
269268,318.69,683,762,0
269278,320.71,683,763,0
269288,325.56,683,763,0
269298,333.32,683,763,0
269308,342.18,683,762,0
269318,352.33,683,763,0
269328,361.96,683,763,0
269338,371.14,683,763,0
269348,378.34,683,763,0
269358,384.11,683,763,0
269368,387.33,683,763,0
269378,388.99,683,763,0
269388,388.14,683,763,0
269399,386.04,683,763,0
269409,382.21,683,762,0
269419,377.99,683,764,0
269429,372.77,683,762,0
269440,367.86,683,764,0
269449,362.76,683,762,0
269459,358.72,683,764,0
269469,354.90,683,762,0
269479,352.36,683,764,0
269489,350.28,683,763,0
269499,349.64,683,764,0
269509,349.28,683,762,0
269519,350.01,683,764,0
269529,350.78,683,762,0
269539,352.39,683,764,0
269549,353.68,683,762,0
269559,355.49,683,764,0
269569,356.76,683,762,0
269579,358.63,683,764,0
269589,360.54,683,762,0
269599,364.32,683,764,0
269609,370.40,683,762,0
269619,380.95,683,764,0
269629,396.91,683,762,0
269639,420.68,683,764,0
269649,452.27,683,762,0
269659,491.06,683,764,0
269678,533.34,672,763,0
269681,576.61,672,765,0
269690,618.09,672,762,0
269700,655.60,672,764,0
269710,686.66,672,762,0
269720,710.25,672,764,0
269730,726.72,672,762,0
269740,738.29,672,764,0
269750,746.39,672,762,0
269760,752.10,672,764,0
269770,756.06,672,762,0
269780,758.74,672,764,0
269790,757.83,672,762,0
269800,752.53,672,764,0
269810,741.40,672,762,0
269820,724.26,672,764,0
269830,700.61,672,762,0
269840,670.77,672,764,0
269850,634.75,672,762,0
269860,596.09,672,764,0
269870,556.03,672,762,0
269880,517.36,672,764,0
269890,480.78,672,762,0
269900,448.28,672,764,0
269911,420.08,672,761,0
269921,397.64,672,764,0
269931,380.56,672,761,0
269941,369.72,672,764,0
269952,364.02,672,762,0
269961,363.54,672,764,0
269971,366.51,672,761,0
269981,372.83,672,764,0
269991,380.59,672,761,0
270001,389.46,672,764,0
270011,397.55,672,761,0
270021,404.80,672,764,0
270031,410.13,672,762,0
270041,413.95,672,764,0
270051,415.29,672,761,0
270061,414.86,672,764,0
270071,412.16,672,762,0
270081,408.34,672,764,0
270091,403.01,672,761,0
270101,397.31,672,764,0
270111,391.04,672,761,0
270121,385.07,672,764,0
270131,379.18,672,761,0
270141,374.28,672,764,0
270151,370.00,672,761,0
270161,367.08,672,764,0
270171,364.74,672,761,0
270181,363.58,672,764,0
270191,363.10,672,761,0
270201,363.76,672,764,0
270211,364.65,672,761,0
270221,366.04,672,764,0
270231,367.23,672,762,0
270241,368.66,672,764,0
270252,369.79,672,761,0
270262,371.27,672,764,0
270272,373.29,672,761,0
270282,377.62,672,764,0
270292,385.44,672,761,0
270302,398.77,672,764,0
270312,419.15,672,761,0
270322,448.21,672,764,0
270332,484.92,672,761,0
270342,526.34,672,764,0
270361,569.35,683,764,0
270364,611.33,683,764,0
270373,649.80,683,762,0
270383,682.48,683,765,0
270393,707.41,683,761,0
270403,724.86,683,764,0
270413,737.07,683,761,0
270423,745.66,683,765,0
270433,751.72,683,762,0
270443,755.96,683,764,0
270453,758.93,683,761,0
270464,761.01,683,764,0
270473,762.16,683,761,0
270483,760.06,683,765,0
270493,752.88,683,761,0
270503,739.29,683,764,0
270513,718.80,683,761,0
270523,690.96,683,764,0
270533,655.96,683,762,0
270543,614.44,683,764,0
270553,569.74,683,761,0
270563,524.69,683,764,0
270573,481.71,683,761,0
270583,442.41,683,764,0
270593,408.39,683,761,0
270603,380.67,683,764,0
270613,359.81,683,761,0
270623,345.60,683,764,0
270633,337.70,683,762,0
270643,335.48,683,764,0
270653,338.08,683,761,0
270663,344.27,683,764,0
270673,352.80,683,762,0
270683,362.50,683,764,0
270693,372.47,683,761,0
270703,381.67,683,764,0
270713,389.53,683,762,0
270723,395.37,683,764,0
270733,399.07,683,761,0
270743,400.42,683,764,0
270753,399.70,683,762,0
270764,397.04,683,764,0
270774,392.96,683,761,0
270784,387.66,683,763,0
270794,381.97,683,762,0
270804,375.94,683,763,0
270814,370.26,683,762,0
270824,364.82,683,763,0
270834,360.08,683,762,0
270844,355.98,683,763,0
270854,352.99,683,762,0
270864,350.68,683,764,0
270874,349.45,683,762,0
270884,348.63,683,764,0
270894,348.44,683,762,0
270904,348.35,683,763,0
270914,348.72,683,762,0
270924,349.06,683,764,0
270935,349.68,683,762,0
270945,350.29,683,763,0
270955,352.01,683,763,0
270965,355.26,683,763,0
270976,362.13,683,763,0
270985,373.19,683,763,0
270995,390.83,683,763,0
271005,416.08,683,763,0
271015,450.60,683,763,0
271025,491.35,683,763,0
271044,535.64,683,762,0
271047,580.07,683,763,0
271056,622.65,683,763,0
271066,660.34,683,763,0
271076,691.31,683,763,0
271086,713.67,683,763,0
271096,729.33,683,764,0
271106,740.29,683,763,0
271116,748.00,683,763,0
271126,753.40,683,763,0
271136,757.18,683,763,0
271147,757.30,683,762,0
271156,752.92,683,763,0
271166,742.36,683,763,0
271176,725.28,683,763,0
271186,700.73,683,762,0
271196,669.31,683,763,0
271206,630.69,683,763,0
271216,588.22,683,763,0
271226,543.29,683,762,0
271236,499.31,683,763,0
271246,457.09,683,763,0
271256,419.14,683,763,0
271266,385.54,683,762,0
271276,358.16,683,763,0
271286,336.68,683,763,0
271296,322.21,683,763,0
271306,313.40,683,762,0
271316,310.84,683,764,0
271326,312.82,683,763,0
271336,319.09,683,763,0
271346,327.59,683,762,0
271356,338.17,683,764,0
271366,348.66,683,763,0
271376,359.05,683,763,0
271386,367.48,683,762,0
271396,374.45,683,764,0
271406,378.77,683,763,0
271416,381.20,683,763,0
271426,380.79,683,762,0
271436,378.84,683,764,0
271447,374.69,683,762,0
271457,369.94,683,764,0
271467,363.91,683,762,0
271477,358.07,683,764,0
271488,351.92,683,762,0
271497,346.76,683,764,0
271507,341.82,683,762,0
271517,338.27,683,764,0
271527,335.19,683,762,0
271537,333.50,683,764,0
271547,332.24,683,762,0
271557,332.21,683,764,0
271567,332.32,683,762,0
271577,333.47,683,764,0
271587,334.40,683,762,0
271597,336.04,683,764,0
271607,337.27,683,762,0
271617,338.90,683,764,0
271627,339.87,683,762,0
271637,341.07,683,764,0
271647,341.56,683,762,0
271657,342.72,683,764,0
271667,344.01,683,762,0
271677,347.60,683,764,0
271687,354.07,683,762,0
271697,366.22,683,764,0
271707,384.62,683,762,0
271717,411.57,683,764,0
271727,446.75,683,762,0
271737,488.74,683,764,0
271756,533.69,712,763,0
271759,579.08,712,765,0
271768,621.57,712,762,0
271778,659.37,712,764,0
271788,690.03,712,762,0
271798,712.74,712,764,0
271808,728.63,712,762,0
271818,739.80,712,764,0
271828,747.62,712,762,0
271838,753.09,712,764,0
271848,755.72,712,762,0
271858,754.35,712,764,0
271868,747.17,712,762,0
271878,734.09,712,764,0
271888,714.01,712,762,0
271898,687.09,712,764,0
271908,653.03,712,762,0
271918,613.72,712,764,0
271928,570.91,712,762,0
271938,527.65,712,764,0
271948,484.73,712,762,0
271959,444.61,712,764,0
271969,407.83,712,762,0
271979,375.95,712,764,0
271989,349.09,712,761,0
272000,328.49,712,764,0
272009,313.69,712,762,0
272019,305.04,712,764,0
272029,301.51,712,761,0
272039,302.99,712,764,0
272049,308.01,712,762,0
272059,315.98,712,764,0
272069,325.20,712,762,0
272079,335.21,712,764,0
272089,344.49,712,762,0
272099,352.79,712,764,0
272109,359.06,712,762,0
272119,363.50,712,764,0
272129,365.62,712,762,0
272139,365.91,712,764,0
272149,363.96,712,761,0
272159,360.63,712,764,0
272169,355.90,712,761,0
272179,350.66,712,764,0
272189,344.85,712,761,0
272199,339.15,712,764,0
272209,333.45,712,761,0
272219,328.64,712,764,0
272229,324.46,712,762,0
272239,321.37,712,764,0
272249,318.90,712,761,0
272259,317.47,712,764,0
272269,316.52,712,762,0
272279,316.49,712,764,0
272289,316.69,712,761,0
272300,317.42,712,765,0
272310,318.28,712,761,0
272320,319.35,712,764,0
272330,320.41,712,761,0
272340,321.57,712,764,0
272350,322.38,712,761,0
272360,323.30,712,764,0
272370,324.45,712,761,0
272380,326.54,712,764,0
272390,330.32,712,761,0
272400,337.34,712,764,0
272410,349.41,712,761,0
272420,368.32,712,764,0
272430,394.71,712,761,0
272440,429.34,712,764,0
272450,471.15,712,761,0
272470,517.01,713,761,0
272473,563.59,713,764,0
272482,607.90,713,764,0
272492,647.44,713,763,0
272502,680.70,713,764,0
272513,706.20,713,763,0
272523,724.06,713,763,0
272533,736.55,713,763,0
272543,743.72,713,763,0
272553,745.34,713,763,0
272563,740.70,713,764,0
272573,729.73,713,763,0
272583,711.85,713,763,0
272593,687.43,713,763,0
272603,656.40,713,763,0
272613,621.01,713,763,0
272623,582.65,713,763,0
272633,543.58,713,763,0
272643,504.58,713,763,0
272653,467.46,713,762,0
272663,432.48,713,763,0
272673,401.27,713,763,0
272684,373.54,713,763,0
272694,350.67,713,763,0
272704,332.08,713,763,0
272714,318.86,713,764,0
272724,310.16,713,762,0
272734,306.51,713,763,0
272744,306.19,713,763,0
272754,309.56,713,764,0
272764,314.75,713,762,0
272774,321.94,713,763,0
272784,329.16,713,763,0
272794,336.61,713,764,0
272804,342.77,713,762,0
272814,348.20,713,763,0
272824,351.61,713,763,0
272834,353.74,713,764,0
272844,353.65,713,762,0
272855,352.51,713,764,0
272865,349.61,713,762,0
272875,346.26,713,764,0
272885,341.77,713,762,0
272896,337.34,713,764,0
272905,332.56,713,762,0
272915,328.58,713,764,0
272925,324.51,713,762,0
272935,321.57,713,764,0
272945,318.83,713,762,0
272955,317.38,713,764,0
272965,316.15,713,762,0
272975,316.06,713,764,0
272985,316.13,713,762,0
272995,317.38,713,764,0
273005,318.59,713,762,0
273015,320.64,713,764,0
273025,322.38,713,762,0
273035,324.71,713,764,0
273045,326.42,713,762,0
273055,328.40,713,764,0
273065,329.56,713,762,0
273075,331.02,713,764,0
273085,331.96,713,762,0
273095,333.90,713,764,0
273105,336.84,713,762,0
273115,342.93,713,764,0
273125,352.77,713,762,0
273135,368.91,713,764,0
273145,391.69,713,762,0
273155,422.69,713,764,0
273165,460.67,713,762,0
273184,503.97,715,761,0
273187,548.98,715,763,0
273196,593.25,715,765,0
273206,633.76,715,762,0
273216,668.85,715,764,0
273226,696.84,715,762,0
273236,717.54,715,765,0
273246,731.69,715,762,0
273256,739.67,715,764,0
273266,740.93,715,762,0
273276,735.81,715,765,0
273286,724.04,715,762,0
273296,705.94,715,764,0
273306,681.19,715,762,0
273316,650.70,715,764,0
273326,616.12,715,762,0
273336,579.96,715,764,0
273346,542.77,715,762,0
273356,506.58,715,765,0
273367,471.61,715,762,0
273377,439.45,715,764,0
273387,410.17,715,762,0
273397,384.84,715,764,0
273408,363.33,715,762,0
273417,346.64,715,764,0
273427,334.11,715,762,0
273437,326.36,715,764,0
273447,322.57,715,761,0
273457,322.83,715,764,0
273467,325.75,715,762,0
273477,331.18,715,764,0
273487,337.86,715,762,0
273497,345.48,715,764,0
273507,352.71,715,762,0
273517,359.40,715,764,0
273527,364.51,715,761,0
273537,368.34,715,764,0
273547,370.21,715,762,0
273557,370.62,715,765,0
273567,369.06,715,762,0
273577,366.34,715,765,0
273587,362.34,715,762,0
273597,357.87,715,764,0
273607,352.76,715,762,0
273617,347.69,715,765,0
273627,342.38,715,762,0
273637,337.73,715,764,0
273647,333.39,715,762,0
273657,329.93,715,765,0
273667,326.91,715,761,0
273677,325.01,715,764,0
273687,323.81,715,762,0
273697,323.56,715,765,0
273708,323.74,715,761,0
273718,324.55,715,765,0
273728,325.54,715,762,0
273738,326.83,715,765,0
273748,328.00,715,761,0
273758,329.24,715,765,0
273768,330.15,715,762,0
273778,330.92,715,765,0
273788,331.59,715,761,0
273798,332.78,715,765,0
273808,335.12,715,761,0
273818,339.76,715,764,0
273828,347.97,715,761,0
273838,361.44,715,765,0
273848,381.45,715,762,0
273858,409.13,715,765,0
273868,444.32,715,761,0
273879,486.05,715,765,0
273898,530.78,714,764,0
273901,575.55,714,764,0
273910,617.81,714,762,0
273921,655.41,714,764,0
273931,686.53,714,763,0
273941,710.37,714,764,0
273951,727.06,714,763,0
273961,737.50,714,764,0
273971,742.11,714,763,0
273981,740.27,714,764,0
273991,732.26,714,763,0
274001,717.57,714,763,0
274011,696.91,714,763,0
274021,669.98,714,764,0
274031,638.62,714,762,0
274041,603.97,714,763,0
274051,568.54,714,763,0
274061,532.85,714,763,0
274071,498.69,714,763,0
274081,465.79,714,763,0
274092,435.81,714,763,0
274102,408.48,714,763,0
274112,385.02,714,763,0
274122,364.91,714,763,0
274132,349.04,714,764,0
274142,336.77,714,763,0
274152,329.00,714,763,0
274162,324.80,714,762,0
274172,324.73,714,764,0
274182,327.04,714,763,0
274192,331.96,714,763,0
274202,337.88,714,763,0
274212,345.03,714,764,0
274222,351.71,714,763,0
274232,357.92,714,763,0
274242,362.23,714,763,0
274252,365.38,714,764,0
274263,366.25,714,762,0
274273,366.17,714,764,0
274283,364.15,714,762,0
274293,361.45,714,764,0
274304,357.41,714,762,0
274313,353.43,714,764,0
274323,348.80,714,762,0
274333,344.70,714,764,0
274343,340.08,714,762,0
274353,336.24,714,764,0
274363,332.27,714,762,0
274373,329.06,714,764,0
274383,325.83,714,762,0
274393,323.65,714,764,0
274403,321.61,714,762,0
274413,320.74,714,764,0
274423,320.01,714,762,0
274433,320.22,714,764,0
274443,320.45,714,762,0
274453,321.47,714,764,0
274463,322.27,714,762,0
274473,323.74,714,764,0
274483,324.67,714,762,0
274493,326.01,714,764,0
274503,326.82,714,762,0
274513,328.16,714,764,0
274523,329.10,714,762,0
274533,331.08,714,764,0
274543,333.97,714,762,0
274553,340.02,714,764,0
274563,349.45,714,762,0
274573,364.78,714,764,0
274583,386.32,714,762,0
274593,415.75,714,764,0
274604,451.91,714,762,0
274623,494.15,725,761,0
274626,538.59,725,763,0
274635,582.94,725,765,0
274646,624.06,725,762,0
274655,660.39,725,765,0
274665,690.01,725,762,0
274675,712.72,725,765,0
274685,726.65,725,761,0
274695,733.05,725,765,0
274705,731.97,725,762,0
274715,724.18,725,764,0
274725,709.55,725,761,0
274735,688.99,725,765,0
274745,662.38,725,762,0
274755,632.26,725,764,0
274765,599.44,725,761,0
274775,566.27,725,765,0
274785,532.84,725,762,0
274795,500.70,725,765,0
274805,469.55,725,761,0
274816,440.59,725,765,0
274825,413.88,725,762,0
274835,390.39,725,764,0
274845,369.57,725,761,0
274855,352.60,725,765,0
274865,339.01,725,762,0
274875,329.79,725,764,0
274885,324.07,725,762,0
274895,321.99,725,764,0
274905,322.72,725,762,0
274915,326.19,725,764,0
274925,331.15,725,762,0
274935,337.53,725,765,0
274945,343.67,725,762,0
274955,349.90,725,764,0
274965,354.99,725,762,0
274975,359.02,725,764,0
274985,361.41,725,762,0
274995,362.58,725,765,0
275005,361.89,725,762,0
275015,360.08,725,764,0
275025,356.93,725,762,0
275035,353.26,725,765,0
275045,348.86,725,762,0
275055,344.40,725,765,0
275065,339.56,725,762,0
275075,335.37,725,765,0
275085,331.44,725,762,0
275095,328.27,725,764,0
