Time,PPG,IBI,GSR,GSR_Event
12482,267.43,733,744,0
12492,266.92,733,747,0
12503,267.37,733,745,0
12513,270.09,733,747,0
12523,274.48,733,745,0
12533,281.28,733,747,0
12544,290.58,733,745,0
12553,308.41,733,747,0
12563,332.41,733,745,0
12582,364.43,743,746,0
12585,404.89,743,747,0
12594,450.61,743,748,0
12604,499.02,743,747,0
12614,547.92,743,749,0
12624,594.70,743,747,0
12634,636.75,743,748,0
12644,670.38,743,747,0
12654,693.97,743,749,0
12664,710.48,743,747,0
12674,722.03,743,749,0
12684,730.12,743,747,0
12694,735.79,743,748,0
12704,739.75,743,746,0
12715,742.53,743,748,0
12724,744.47,743,747,0
12734,745.83,743,748,0
12744,746.74,743,747,0
12754,747.37,743,749,0
12764,747.82,743,747,0
12774,748.13,743,748,0
12784,748.31,743,746,0
12794,748.43,743,748,0
12804,748.51,743,747,0
12814,745.53,743,749,0
12824,734.91,743,746,0
12834,713.98,743,748,0
12844,682.45,743,747,0
12854,640.31,743,748,0
12864,588.45,743,747,0
12874,528.06,743,748,0
12884,464.14,743,747,0
12894,402.77,743,748,0
12904,348.28,743,747,0
12914,302.38,743,748,0
12924,266.57,743,747,0
12934,240.77,743,748,0
12944,224.42,743,747,0
12954,215.90,743,748,0
12964,214.04,743,747,0
12974,216.99,743,748,0
12984,223.38,743,747,0
12994,231.32,743,748,0
13004,240.01,743,747,0
13015,248.15,743,748,0
13025,255.48,743,747,0
13035,260.95,743,748,0
13045,265.08,743,748,0
13056,267.03,743,748,0
13065,267.70,743,747,0
13075,266.64,743,748,0
13085,265.03,743,748,0
13095,262.32,743,748,0
13105,259.70,743,747,0
13115,256.62,743,748,0
13125,254.46,743,747,0
13135,252.39,743,748,0
13145,251.46,743,747,0
13155,250.94,743,748,0
13165,251.77,743,747,0
13175,253.04,743,748,0
13185,255.47,743,747,0
13195,258.16,743,748,0
13205,261.80,743,748,0
13215,265.20,743,748,0
13225,269.13,743,748,0
13235,272.69,743,748,0
13245,276.64,743,747,0
13255,280.00,743,748,0
13265,283.73,743,748,0
13275,286.90,743,748,0
13285,290.66,743,748,0
13295,293.63,743,748,0
13305,296.87,743,748,0
13315,299.57,743,748,0
13325,302.87,743,747,0
13335,306.85,743,748,0
13345,314.65,743,748,0
13365,327.74,783,746,0
13368,351.95,783,749,0
13377,387.45,783,748,0
13387,431.16,783,748,0
13398,479.88,783,747,0
13407,531.22,783,748,0
13417,581.38,783,748,0
13427,627.47,783,748,0
13437,663.84,783,747,0
13447,689.35,783,748,0
13457,707.20,783,748,0
13467,719.74,783,748,0
13477,728.52,783,747,0
13487,734.66,783,748,0
13497,738.96,783,748,0
13507,741.97,783,748,0
13517,744.04,783,747,0
13527,745.48,783,748,0
13537,746.45,783,748,0
13547,747.13,783,748,0
13557,747.56,783,747,0
13568,747.87,783,748,0
13577,748.03,783,748,0
13587,743.22,783,748,0
13597,729.01,783,747,0
13607,704.54,783,748,0
13617,668.93,783,748,0
13627,623.48,783,748,0
13637,568.35,783,747,0
13647,505.97,783,748,0
13657,442.25,783,748,0
13667,384.23,783,748,0
13677,333.72,783,747,0
13687,293.91,783,748,0
13697,263.89,783,748,0
13707,245.24,783,748,0
13717,235.27,783,748,0
13727,234.20,783,748,0
13737,238.51,783,747,0
13747,248.04,783,748,0
13757,259.17,783,748,0
13767,272.06,783,748,0
13777,283.70,783,747,0
13787,294.76,783,748,0
13797,302.89,783,748,0
13807,309.40,783,748,0
13817,312.41,783,747,0
13827,313.87,783,748,0
13837,312.32,783,748,0
13847,309.83,783,748,0
13857,305.08,783,747,0
13868,300.30,783,748,0
13878,294.29,783,747,0
13888,289.19,783,748,0
13898,283.65,783,747,0
13908,279.73,783,748,0
13918,275.95,783,747,0
13928,274.08,783,748,0
13938,272.13,783,747,0
13948,272.00,783,749,0
13958,271.75,783,747,0
13968,273.28,783,748,0
13978,274.48,783,747,0
13988,277.04,783,749,0
13998,279.21,783,747,0
14008,282.79,783,748,0
14018,285.72,783,747,0
14028,289.96,783,749,0
14039,293.32,783,747,0
14049,297.64,783,748,0
14059,300.96,783,747,0
14069,305.17,783,748,0
14080,309.19,783,747,0
14089,316.03,783,748,0
14099,326.05,783,747,0
14109,343.65,783,748,0
14119,370.63,783,747,0
14138,408.28,773,746,0
14141,452.43,773,748,0
14150,501.03,773,749,0
14160,550.35,773,747,0
14170,598.03,773,748,0
14180,639.81,773,747,0
14190,672.52,773,749,0
14200,695.42,773,747,0
14210,711.45,773,748,0
14220,722.67,773,747,0
14230,730.57,773,749,0
14240,736.06,773,747,0
14251,739.90,773,748,0
14260,742.59,773,747,0
14270,744.47,773,749,0
14280,745.74,773,747,0
14290,746.63,773,748,0
14300,747.21,773,747,0
14310,747.66,773,749,0
14320,747.94,773,747,0
14330,748.13,773,748,0
14340,742.90,773,747,0
14350,729.39,773,749,0
14360,704.93,773,747,0
14370,669.89,773,748,0
14380,624.20,773,747,0
14390,569.88,773,749,0
14400,507.56,773,747,0
14410,445.16,773,749,0
14420,386.87,773,746,0
14430,337.84,773,749,0
14440,298.29,773,747,0
14450,270.13,773,749,0
14460,251.62,773,747,0
14470,243.03,773,749,0
14480,241.57,773,747,0
14490,246.58,773,749,0
14500,254.85,773,746,0
14510,266.30,773,749,0
14520,277.91,773,747,0
14530,289.63,773,749,0
14540,299.47,773,746,0
14551,307.82,773,749,0
14561,313.14,773,747,0
14571,316.44,773,748,0
14581,316.61,773,746,0
14592,315.10,773,749,0
14601,311.25,773,747,0
14611,306.85,773,749,0
14621,301.15,773,746,0
14631,295.71,773,749,0
14641,289.88,773,747,0
14651,284.99,773,748,0
14661,280.41,773,746,0
14671,277.16,773,749,0
14681,274.28,773,747,0
14691,272.87,773,749,0
14701,272.01,773,746,0
14711,272.31,773,749,0
14721,272.73,773,746,0
14731,274.27,773,749,0
14741,275.86,773,746,0
14751,278.13,773,749,0
14761,280.36,773,746,0
14771,283.08,773,749,0
14781,285.54,773,746,0
14791,288.64,773,749,0
14801,291.27,773,746,0
14811,294.32,773,749,0
14821,296.97,773,746,0
14831,300.06,773,749,0
14841,303.77,773,746,0
14851,310.87,773,749,0
14861,322.74,773,746,0
14871,343.43,773,749,0
14881,375.96,773,747,0
14901,417.67,763,745,0
14904,465.08,763,747,0
14913,515.89,763,749,0
14923,566.41,763,747,0
14934,613.77,763,749,0
14943,653.65,763,746,0
14953,682.21,763,749,0
14963,702.21,763,747,0
14973,716.25,763,749,0
14983,726.07,763,747,0
14993,732.95,763,749,0
15003,737.77,763,747,0
15013,741.14,763,749,0
15023,743.49,763,746,0
15033,745.15,763,749,0
15043,746.30,763,747,0
15053,747.11,763,749,0
15063,747.68,763,746,0
15073,748.07,763,749,0
15083,748.35,763,747,0
15093,748.55,763,749,0
15104,748.68,763,746,0
15113,748.78,763,749,0
15123,748.84,763,747,0
15133,745.51,763,749,0
15143,734.81,763,746,0
15153,714.64,763,748,0
15163,684.28,763,747,0
15173,643.69,763,749,0
15183,593.99,763,746,0
15193,536.39,763,748,0
15203,475.84,763,747,0
15213,417.73,763,749,0
15223,365.87,763,747,0
15233,322.11,763,748,0
15243,287.58,763,747,0
15253,261.95,763,749,0
15263,244.73,763,746,0
15273,234.44,763,748,0
15283,230.07,763,747,0
15293,229.75,763,749,0
15303,232.61,763,747,0
15313,237.10,763,748,0
15323,242.60,763,747,0
15333,248.03,763,749,0
15343,253.21,763,746,0
15353,257.35,763,748,0
15363,260.88,763,747,0
15373,263.11,763,749,0
15383,264.57,763,746,0
15393,264.87,763,748,0
15404,264.70,763,747,0
15414,263.89,763,748,0
15424,263.19,763,747,0
15434,261.94,763,748,0
15444,261.27,763,747,0
15454,260.67,763,748,0
15464,260.90,763,747,0
15474,261.23,763,748,0
15484,262.45,763,747,0
15494,263.81,763,748,0
15504,266.18,763,747,0
15514,268.36,763,748,0
15524,271.38,763,747,0
15534,274.31,763,748,0
15544,277.94,763,747,0
15554,281.18,763,750,0
15564,284.98,763,748,0
15575,288.20,763,749,0
15585,291.95,763,748,0
15595,294.88,763,749,0
15605,298.43,763,750,0
15616,302.76,763,748,0
15625,310.37,763,748,0
15635,322.65,763,748,0
15654,344.22,753,747,0
15657,377.93,753,748,0
15666,420.68,753,748,0
15676,468.73,753,748,0
15686,519.64,753,748,0
15696,570.19,753,749,0
15706,617.45,753,748,0
15716,656.83,753,748,0
15726,684.44,753,748,0
15736,703.76,753,749,0
15746,717.33,753,749,0
15756,726.83,753,748,0
15766,733.48,753,748,0
15776,738.14,753,748,0
15787,741.40,753,748,0
15796,743.68,753,748,0
15806,745.27,753,748,0
15816,746.35,753,748,0
15826,747.10,753,748,0
15836,747.59,753,747,0
15846,747.92,753,748,0
15856,748.12,753,748,0
15866,748.25,753,748,0
15876,748.31,753,747,0
15886,744.96,753,748,0
15896,733.44,753,748,0
15906,712.35,753,748,0
15916,680.70,753,747,0
15926,639.52,753,748,0
15936,588.88,753,748,0
15946,531.06,753,748,0
15956,470.31,753,747,0
15966,413.90,753,748,0
15976,364.05,753,747,0
15986,323.88,753,748,0
15996,292.67,753,747,0
16006,271.98,753,748,0
16016,259.30,753,748,0
16026,255.01,753,748,0
16036,255.48,753,747,0
16046,260.86,753,748,0
16056,267.68,753,748,0
16066,276.26,753,748,0
16076,283.81,753,747,0
16087,291.11,753,748,0
16097,295.79,753,747,0
16107,299.50,753,748,0
16117,300.38,753,747,0
16128,300.35,753,748,0
16137,297.93,753,747,0
16147,295.08,753,748,0
16157,290.60,753,746,0
16167,286.52,753,748,0
16177,281.73,753,747,0
16187,278.00,753,749,0
16197,273.97,753,747,0
16207,271.58,753,748,0
16217,269.22,753,747,0
16227,268.60,753,749,0
16237,267.90,753,747,0
16247,268.70,753,748,0
16257,269.31,753,747,0
16267,271.40,753,748,0
16277,273.29,753,747,0
16287,276.33,753,748,0
16297,278.76,753,747,0
16307,282.26,753,748,0
16317,285.06,753,747,0
16327,288.68,753,748,0
16337,291.35,753,747,0
16347,294.89,753,748,0
16357,298.82,753,747,0
16367,306.59,753,748,0
16377,318.97,753,747,0
16387,340.32,753,748,0
16406,372.80,752,747,0
16409,414.86,752,749,0
16418,462.51,752,747,0
16428,513.66,752,749,0
16438,564.16,752,747,0
16448,611.51,752,750,0
16458,651.43,752,748,0
16468,680.66,752,750,0
16478,701.16,752,748,0
16488,715.51,752,749,0
16498,725.56,752,748,0
16508,732.68,752,750,0
16518,737.66,752,748,0
16528,741.15,752,749,0
16538,743.55,752,747,0
16548,745.23,752,749,0
16558,746.40,752,748,0
16568,747.22,752,749,0
16578,747.76,752,748,0
16588,748.13,752,750,0
16599,748.39,752,748,0
16609,748.57,752,749,0
16619,748.70,752,747,0
16629,744.68,752,750,0
16640,732.13,752,747,0
16649,710.19,752,749,0
16659,677.56,752,747,0
16669,635.31,752,750,0
16679,583.79,752,747,0
16689,525.35,752,749,0
16699,464.77,752,747,0
16709,408.87,752,749,0
16719,359.37,752,747,0
16729,319.70,752,749,0
16739,289.02,752,747,0
16749,268.48,752,749,0
16759,255.65,752,747,0
16769,250.70,752,749,0
16779,250.75,752,747,0
16789,255.28,752,749,0
16799,261.45,752,747,0
16809,269.20,752,749,0
16819,276.17,752,747,0
16829,282.81,752,749,0
16839,287.28,752,747,0
16849,290.49,752,749,0
16859,291.29,752,747,0
16869,290.99,752,749,0
16879,288.81,752,746,0
16889,286.21,752,749,0
16899,282.20,752,747,0
16909,278.63,752,749,0
16919,274.41,752,746,0
16929,271.12,752,749,0
16940,267.74,752,746,0
16950,265.42,752,749,0
16960,263.32,752,747,0
16970,262.54,752,749,0
16980,262.12,752,746,0
16990,262.98,752,749,0
17000,264.15,752,746,0
17010,266.33,752,749,0
17020,268.80,752,746,0
17030,272.16,752,749,0
17040,275.46,752,746,0
17050,279.18,752,749,0
17060,282.64,752,746,0
17070,286.43,752,749,0
17080,289.77,752,746,0
17090,293.36,752,749,0
17100,296.76,752,746,0
17111,301.76,752,749,0
17121,309.59,752,746,0
17131,323.47,752,749,0
17141,346.43,752,746,0
17161,381.66,754,746,0
17164,424.96,754,749,0
17173,473.74,754,748,0
17183,524.91,754,747,0
17193,575.55,754,748,0
17203,621.93,754,747,0
17213,660.05,754,748,0
17223,686.73,754,747,0
17233,705.41,754,748,0
17243,718.49,754,747,0
17253,727.64,754,748,0
17263,734.05,754,747,0
17273,738.53,754,748,0
17283,741.67,754,747,0
17293,743.87,754,749,0
17303,745.41,754,747,0
17313,746.49,754,748,0
17324,747.24,754,747,0
17334,747.77,754,748,0
17344,748.14,754,747,0
17354,748.40,754,748,0
17364,748.62,754,748,0
17374,748.78,754,748,0
17384,748.89,754,747,0
17394,748.96,754,748,0
17404,749.02,754,748,0
17414,744.73,754,748,0
17424,732.94,754,747,0
17434,711.06,754,748,0
17444,679.50,754,748,0
17454,638.29,754,748,0
17464,588.83,754,747,0
17474,531.84,754,748,0
17484,473.64,754,748,0
17495,418.21,754,748,0
17505,369.97,754,747,0
17515,329.05,754,748,0
17525,297.11,754,748,0
17536,272.52,754,747,0
17545,255.95,754,747,0
17555,244.95,754,748,0
17565,239.61,754,748,0
17575,237.28,754,747,0
17585,238.27,754,747,0
17595,239.95,754,748,0
17605,243.22,754,748,0
17615,245.81,754,747,0
17625,248.87,754,747,0
17635,250.58,754,748,0
17645,252.46,754,748,0
17655,252.97,754,748,0
17665,253.88,754,747,0
17675,254.04,754,748,0
17685,254.72,754,748,0
17695,254.54,754,748,0
17705,255.32,754,748,0
17715,255.57,754,748,0
17725,256.86,754,748,0
17735,257.54,754,748,0
17745,259.01,754,747,0
17755,260.16,754,748,0
17765,262.51,754,748,0
17775,264.29,754,748,0
17785,267.07,754,748,0
17795,269.32,754,748,0
17805,272.65,754,748,0
17815,275.29,754,748,0
17825,278.67,754,747,0
17836,281.13,754,747,0
17846,284.30,754,748,0
17856,286.48,754,747,0
17866,289.51,754,748,0
17876,292.70,754,747,0
17886,299.09,754,748,0
17905,309.65,745,747,0
17908,330.63,745,750,0
17917,364.17,745,747,0
17927,407.36,745,749,0
17937,456.28,745,747,0
17947,508.78,745,749,0
17957,561.30,745,747,0
17967,611.23,745,749,0
17977,652.39,745,747,0
17987,681.41,745,749,0
17997,701.73,745,747,0
18007,716.00,745,749,0
18017,725.98,745,747,0
18027,732.98,745,748,0
18037,737.83,745,747,0
18048,741.26,745,749,0
18057,743.67,745,747,0
18067,745.35,745,749,0
18077,746.49,745,747,0
18087,747.33,745,749,0
18097,747.92,745,747,0
18107,748.33,745,749,0
18117,748.57,745,747,0
18127,748.79,745,749,0
18137,748.94,745,747,0
18147,749.04,745,749,0
18157,749.07,745,747,0
18167,749.14,745,749,0
18177,749.18,745,747,0
18187,745.31,745,748,0
18197,733.13,745,747,0
18207,711.71,745,748,0
18217,679.91,745,746,0
18227,639.27,745,748,0
18237,589.73,745,746,0
18247,533.41,745,748,0
18257,474.70,745,747,0
18267,420.19,745,748,0
18277,371.06,745,746,0
18287,330.37,745,749,0
18297,296.62,745,747,0
18307,271.23,745,748,0
18317,251.79,745,746,0
18327,239.04,745,748,0
18337,230.11,745,747,0
18348,225.84,745,748,0
18358,223.57,745,746,0
18368,224.00,745,749,0
18378,225.11,745,746,0
18388,227.87,745,749,0
18398,230.39,745,746,0
18408,233.96,745,749,0
18418,236.71,745,746,0
18428,240.06,745,749,0
18438,242.48,745,746,0
18448,245.42,745,749,0
18458,247.27,745,746,0
18468,249.20,745,749,0
18478,250.00,745,746,0
18488,251.28,745,748,0
18498,251.80,745,746,0
18508,253.15,745,749,0
18519,253.87,745,746,0
18529,255.67,745,749,0
18539,257.57,745,746,0
18549,260.53,745,748,0
18560,263.37,745,746,0
18569,267.07,745,749,0
18579,270.35,745,746,0
18589,274.15,745,749,0
18599,277.36,745,746,0
18609,280.68,745,749,0
18619,283.22,745,746,0
18629,285.81,745,749,0
18639,287.84,745,746,0
18649,290.89,745,749,0
18659,295.64,745,746,0
18669,305.43,745,748,0
18689,322.79,783,747,0
18692,354.09,783,749,0
18701,395.34,783,747,0
18711,443.62,783,749,0
18721,495.68,783,746,0
18732,548.96,783,749,0
18742,599.54,783,747,0
18752,643.82,783,748,0
18762,675.46,783,746,0
18772,697.61,783,748,0
18782,713.16,783,747,0
18792,724.04,783,748,0
18802,731.65,783,746,0
18812,736.94,783,748,0
18822,740.69,783,746,0
18832,743.27,783,748,0
18842,745.07,783,747,0
18852,746.29,783,748,0
18862,747.19,783,747,0
18872,747.82,783,748,0
18882,748.26,783,747,0
18892,748.52,783,748,0
18903,748.71,783,747,0
18913,748.84,783,748,0
18923,748.93,783,747,0
18933,748.95,783,748,0
18944,743.95,783,747,0
18953,730.25,783,748,0
18963,706.69,783,747,0
18973,672.24,783,748,0
18983,627.94,783,747,0
18993,574.60,783,748,0
19003,514.03,783,747,0
19013,452.31,783,748,0
19023,395.39,783,747,0
19033,345.26,783,748,0
19043,304.72,783,747,0
19053,273.22,783,748,0
19063,251.17,783,747,0
19073,236.55,783,748,0
19083,229.23,783,747,0
19093,226.37,783,748,0
19103,227.85,783,747,0
19113,230.94,783,748,0
19123,235.67,783,747,0
19133,240.05,783,747,0
19143,244.84,783,747,0
19153,248.10,783,747,0
19163,251.16,783,747,0
19173,252.31,783,748,0
19183,253.07,783,747,0
19193,252.32,783,748,0
19203,251.50,783,747,0
19213,249.63,783,748,0
19223,248.29,783,747,0
19233,246.19,783,748,0
19244,245.14,783,747,0
19254,243.99,783,747,0
19264,244.16,783,747,0
19274,244.41,783,747,0
19284,246.00,783,747,0
19294,247.67,783,748,0
19304,250.51,783,748,0
19314,252.97,783,748,0
19324,256.54,783,748,0
19334,259.59,783,748,0
19344,263.44,783,748,0
19354,266.44,783,748,0
19364,270.12,783,748,0
19374,273.04,783,748,0
19384,276.72,783,748,0
19394,279.46,783,748,0
19404,282.79,783,748,0
19415,285.17,783,747,0
19425,288.08,783,748,0
19435,290.11,783,748,0
19445,293.89,783,749,0
19465,299.54,776,747,0
19468,312.15,776,751,0
19477,333.40,776,747,0
19487,367.95,776,749,0
19497,411.17,776,747,0
19507,460.87,776,749,0
19517,513.33,776,747,0
19527,566.33,776,749,0
19537,614.57,776,747,0
19547,655.03,776,749,0
19557,683.35,776,747,0
19567,703.22,776,749,0
19577,717.08,776,747,0
19587,726.83,776,749,0
19597,733.61,776,747,0
19607,738.40,776,749,0
19617,741.71,776,747,0
19628,744.07,776,749,0
19638,745.67,776,747,0
19648,746.80,776,749,0
19658,747.55,776,746,0
19668,748.11,776,749,0
19678,748.46,776,747,0
19688,748.75,776,749,0
19698,748.91,776,746,0
19708,749.02,776,749,0
19718,746.15,776,747,0
19728,736.46,776,749,0
19738,716.78,776,746,0
19748,686.89,776,749,0
19758,646.68,776,746,0
19768,597.58,776,749,0
19778,540.32,776,746,0
19788,480.09,776,749,0
19799,421.91,776,746,0
19809,371.02,776,749,0
19819,328.76,776,746,0
19829,296.56,776,749,0
19840,273.63,776,746,0
19849,259.90,776,749,0
19859,253.12,776,746,0
19869,252.27,776,749,0
19879,255.06,776,746,0
19889,260.40,776,749,0
19899,266.06,776,746,0
19909,271.57,776,749,0
19919,275.64,776,746,0
19929,278.49,776,748,0
19939,279.33,776,746,0
19949,278.63,776,749,0
19959,276.09,776,746,0
19969,272.93,776,749,0
19979,268.67,776,746,0
19989,264.18,776,749,0
19999,259.11,776,746,0
20009,254.45,776,749,0
20019,249.77,776,746,0
20029,245.90,776,749,0
20039,242.37,776,746,0
20049,239.90,776,749,0
20059,238.17,776,746,0
20069,237.69,776,749,0
20079,237.91,776,746,0
20089,239.35,776,749,0
20099,241.31,776,746,0
20109,244.30,776,749,0
20119,247.72,776,746,0
20129,252.01,776,749,0
20140,256.42,776,746,0
20150,261.26,776,748,0
20160,265.99,776,746,0
20170,270.79,776,748,0
20180,275.10,776,746,0
20190,279.27,776,748,0
20200,282.70,776,746,0
20210,286.13,776,748,0
20220,290.72,776,746,0
20230,298.26,776,748,0
20240,311.51,776,746,0
20250,334.20,776,748,0
20260,369.46,776,746,0
20279,413.59,815,745,0
20282,463.60,815,747,0
20291,516.18,815,748,0
20301,568.37,815,747,0
20311,616.51,815,748,0
20321,656.35,815,746,0
20331,684.23,815,748,0
20341,703.74,815,747,0
20352,717.32,815,748,0
20361,726.82,815,746,0
20371,733.48,815,748,0
20381,738.13,815,746,0
20391,741.39,815,748,0
20401,743.68,815,746,0
20411,745.27,815,748,0
20421,746.39,815,747,0
20431,747.17,815,748,0
20441,747.72,815,746,0
20451,748.11,815,749,0
20461,748.37,815,746,0
20471,748.56,815,748,0
20481,748.69,815,746,0
20491,748.79,815,749,0
20501,748.85,815,747,0
20511,746.24,815,748,0
20521,736.74,815,747,0
20531,717.92,815,748,0
20541,688.93,815,746,0
20551,649.61,815,748,0
20561,601.08,815,747,0
20571,544.53,815,748,0
20581,484.28,815,746,0
20591,425.91,815,748,0
20601,373.65,815,747,0
20611,329.31,815,748,0
20621,294.42,815,746,0
20631,268.37,815,748,0
20641,250.81,815,746,0
20652,240.03,815,748,0
20662,235.18,815,747,0
20672,233.97,815,747,0
20682,235.90,815,747,0
20692,238.93,815,748,0
20702,242.98,815,747,0
20712,246.37,815,747,0
20722,249.69,815,747,0
20732,251.63,815,748,0
20742,253.28,815,747,0
20752,253.63,815,747,0
20762,253.87,815,747,0
20772,252.96,815,748,0
20782,252.33,815,747,0
20792,251.07,815,747,0
20802,250.41,815,747,0
20812,249.22,815,748,0
20823,248.85,815,747,0
20833,248.30,815,747,0
20843,249.06,815,747,0
20853,249.77,815,748,0
20864,251.60,815,747,0
20873,253.60,815,747,0
20883,256.72,815,747,0
20893,259.42,815,747,0
20903,263.15,815,747,0
20913,265.93,815,747,0
20923,269.47,815,747,0
20933,272.11,815,748,0
20943,275.29,815,747,0
20953,277.78,815,747,0
20963,280.97,815,747,0
20973,283.21,815,747,0
20983,286.23,815,747,0
20993,288.43,815,748,0
21003,291.30,815,747,0
21022,293.53,743,746,0
21025,298.34,743,749,0
21035,306.17,743,747,0
21044,320.65,743,747,0
21054,344.15,743,747,0
21064,380.11,743,748,0
21074,424.09,743,747,0
21084,473.95,743,748,0
21094,525.43,743,747,0
21104,576.22,743,748,0
21114,622.44,743,747,0
21124,660.45,743,748,0
21134,687.06,743,747,0
21144,705.77,743,748,0
21154,718.87,743,747,0
21164,728.08,743,747,0
21174,734.48,743,747,0
21184,739.01,743,748,0
21194,742.14,743,747,0
21204,744.37,743,748,0
21214,745.88,743,747,0
21224,746.99,743,748,0
21234,747.72,743,747,0
21244,748.28,743,748,0
21254,748.62,743,747,0
21264,748.91,743,748,0
21274,749.06,743,747,0
21284,749.22,743,748,0
21294,749.28,743,747,0
21304,749.37,743,748,0
21314,749.39,743,747,0
21324,746.01,743,748,0
21335,734.27,743,747,0
21345,712.89,743,748,0
21355,680.48,743,747,0
21365,638.38,743,748,0
21376,586.62,743,747,0
21385,527.68,743,748,0
21395,465.50,743,747,0
21405,407.45,743,748,0
21415,355.37,743,747,0
21425,312.79,743,748,0
21435,278.61,743,747,0
21445,254.26,743,748,0
21455,237.08,743,746,0
21465,227.58,743,748,0
21475,222.69,743,746,0
21485,222.79,743,748,0
21495,224.74,743,746,0
21505,229.14,743,748,0
21515,233.34,743,746,0
21525,238.30,743,748,0
21535,241.89,743,747,0
21545,245.57,743,748,0
21555,247.37,743,747,0
21565,249.06,743,748,0
21575,249.00,743,746,0
21585,249.30,743,748,0
21595,248.44,743,746,0
21605,248.26,743,748,0
21615,247.24,743,747,0
21625,247.38,743,748,0
21635,247.14,743,747,0
21645,248.21,743,748,0
21655,248.92,743,746,0
21665,250.87,743,748,0
21676,252.63,743,746,0
21686,255.61,743,748,0
21696,258.21,743,746,0
21706,261.88,743,748,0
21716,265.04,743,746,0
21726,269.10,743,748,0
21736,272.50,743,746,0
21746,276.59,743,748,0
21756,279.93,743,746,0
21766,283.81,743,748,0
21776,286.65,743,746,0
21786,289.93,743,749,0
21796,292.13,743,746,0
21806,294.67,743,748,0
21816,296.05,743,746,0
21826,298.05,743,749,0
21836,300.35,743,746,0
21856,306.33,834,745,0
21859,318.53,834,746,0
21868,341.39,834,749,0
21878,376.28,834,746,0
21889,420.21,834,749,0
21899,469.56,834,747,0
21909,522.19,834,750,0
21919,574.25,834,748,0
21929,621.53,834,749,0
21939,659.82,834,747,0
21949,686.66,834,750,0
21959,705.45,834,747,0
21969,718.60,834,749,0
21979,727.76,834,746,0
21989,734.18,834,749,0
21999,738.67,834,747,0
22009,741.81,834,749,0
22019,743.97,834,746,0
22029,745.48,834,749,0
22039,746.53,834,746,0
22049,747.27,834,748,0
22060,747.79,834,747,0
22070,748.15,834,749,0
22080,748.41,834,747,0
22090,748.59,834,749,0
22100,748.71,834,746,0
22110,744.34,834,749,0
22120,730.74,834,746,0
22130,705.23,834,749,0
22140,667.28,834,747,0
22150,617.35,834,749,0
22160,556.52,834,747,0
22170,486.16,834,749,0
22180,412.96,834,746,0
22190,343.58,834,749,0
22200,282.77,834,746,0
22210,232.56,834,749,0
22220,194.30,834,746,0
22231,167.55,834,748,0
22241,152.00,834,747,0
22251,145.36,834,748,0
22261,146.41,834,747,0
22272,152.33,834,748,0
22281,162.13,834,747,0
22291,172.98,834,748,0
22301,184.51,834,747,0
22311,194.64,834,748,0
22321,203.49,834,747,0
22331,209.65,834,748,0
22341,214.25,834,747,0
22351,216.15,834,748,0
22361,216.83,834,747,0
22371,215.77,834,748,0
22381,214.59,834,747,0
22391,213.04,834,748,0
22401,212.26,834,747,0
22411,211.71,834,748,0
22421,212.65,834,747,0
22431,214.22,834,748,0
22441,217.24,834,747,0
22451,220.59,834,748,0
22461,225.09,834,747,0
22471,229.86,834,748,0
22481,235.65,834,747,0
22491,241.49,834,748,0
22501,248.07,834,747,0
22511,254.35,834,748,0
22521,261.32,834,747,0
22531,267.91,834,748,0
22541,274.79,834,747,0
22551,280.94,834,748,0
22561,286.96,834,747,0
22572,291.99,834,748,0
22582,296.88,834,747,0
22592,300.56,834,748,0
22602,303.99,834,748,0
22612,306.14,834,748,0
22622,308.15,834,747,0
22632,309.01,834,748,0
22651,310.08,795,746,0
22654,310.52,795,747,0
22663,311.91,795,747,0
22673,313.82,795,747,0
22683,320.00,795,748,0
22693,331.45,795,747,0
22703,352.10,795,748,0
22713,383.01,795,748,0
22723,423.42,795,748,0
22733,469.54,795,747,0
22743,519.31,795,748,0
22753,568.37,795,748,0
22763,614.07,795,748,0
22773,652.54,795,748,0
22784,681.48,795,748,0
22793,701.73,795,748,0
22803,715.91,795,748,0
22813,725.84,795,748,0
22823,732.79,795,748,0
22833,737.65,795,748,0
22843,741.06,795,748,0
22853,743.40,795,747,0
22863,745.03,795,748,0
22873,746.14,795,748,0
22883,746.91,795,748,0
22893,742.57,795,748,0
22903,730.74,795,748,0
22913,709.13,795,748,0
22923,677.98,795,748,0
22933,636.50,795,747,0
22943,586.16,795,748,0
22953,527.23,795,747,0
22963,467.12,795,748,0
22973,409.14,795,748,0
22983,358.10,795,748,0
22993,314.65,795,747,0
23003,281.59,795,748,0
23013,257.75,795,748,0
23023,244.67,795,748,0
23033,239.71,795,747,0
23043,243.23,795,748,0
23053,252.12,795,748,0
23063,266.22,795,748,0
23073,282.49,795,747,0
23084,301.11,795,749,0
23094,318.86,795,747,0
23104,336.26,795,749,0
23114,350.50,795,747,0
23124,362.61,795,749,0
23134,370.52,795,747,0
23144,375.64,795,749,0
23154,376.13,795,746,0
23164,374.25,795,749,0
23174,368.52,795,747,0
23184,361.12,795,749,0
23194,350.88,795,746,0
23204,340.33,795,749,0
23214,328.53,795,747,0
23224,317.96,795,749,0
23234,307.34,795,746,0
23244,298.80,795,749,0
23255,291.10,795,747,0
23265,286.06,795,749,0
23275,281.97,795,747,0
23285,280.22,795,749,0
23296,279.00,795,747,0
23305,279.68,795,749,0
23315,280.29,795,747,0
23325,282.31,795,749,0
23335,283.88,795,747,0
23345,286.49,795,749,0
23355,288.57,795,746,0
23365,291.83,795,749,0
23375,294.45,795,747,0
23385,298.17,795,749,0
23395,301.29,795,746,0
23405,305.40,795,749,0
23415,308.88,795,747,0
23425,313.16,795,748,0
23435,316.58,795,746,0
23445,321.29,795,749,0
23455,327.38,795,747,0
23465,338.66,795,749,0
23475,356.12,795,747,0
23485,384.07,795,750,0
23495,421.16,795,747,0
23505,465.09,795,749,0
23515,512.42,795,747,0
23534,560.85,883,746,0
23536,606.37,883,747,0
23546,646.50,883,749,0
23556,677.12,883,747,0
23566,698.60,883,749,0
23576,713.63,883,749,0
23586,724.20,883,749,0
23596,731.55,883,747,0
23606,736.70,883,749,0
23616,740.31,883,747,0
23626,742.87,883,749,0
23636,744.62,883,746,0
23646,745.85,883,749,0
23656,746.71,883,747,0
23666,747.35,883,749,0
23676,745.28,883,746,0
23686,737.09,883,749,0
23696,719.24,883,746,0
23706,691.14,883,749,0
23716,652.05,883,746,0
23726,603.57,883,749,0
23736,546.01,883,746,0
23746,484.16,883,749,0
23756,422.79,883,746,0
23767,368.04,883,749,0
23777,321.95,883,746,0
23787,287.34,883,749,0
23797,263.58,883,746,0
23808,251.66,883,749,0
23817,249.32,883,746,0
23827,255.83,883,749,0
23837,268.26,883,746,0
23847,285.20,883,749,0
23857,303.70,883,746,0
23867,322.69,883,752,0
23877,339.97,883,748,0
23887,355.15,883,751,0
23897,366.80,883,750,0
23907,375.18,883,750,0
23917,379.41,883,750,0
23927,380.32,883,750,0
23937,377.43,883,749,0
23947,371.90,883,750,0
23957,363.53,883,748,0
23967,353.60,883,749,0
23977,341.81,883,748,0
23987,329.56,883,750,0
23997,316.58,883,750,0
24007,304.11,883,750,0
24017,291.86,883,749,0
24027,281.06,883,750,0
24037,271.27,883,749,0
24047,263.30,883,750,0
24057,256.83,883,749,0
24067,252.72,883,751,0
24077,250.19,883,750,0
24087,249.96,883,749,0
24097,251.30,883,748,0
24108,254.64,883,750,0
24118,259.51,883,749,0
24128,265.70,883,749,0
24138,272.56,883,749,0
24148,280.11,883,750,0
24158,287.49,883,749,0
24168,295.44,883,750,0
24178,304.78,883,749,0
24188,318.00,883,750,0
24198,337.46,883,749,0
24208,366.94,883,750,0
24218,406.00,883,749,0
24228,451.64,883,751,0
24238,501.03,883,749,0
24248,551.38,883,751,0
24258,599.18,883,750,0
24268,641.34,883,751,0
24288,673.64,754,749,0
24290,696.25,754,751,0
24300,712.07,754,749,0
24310,723.15,754,751,0
24321,730.91,754,750,0
24331,736.33,754,749,0
24341,740.13,754,748,0
24351,742.79,754,748,0
24361,744.66,754,748,0
24371,745.92,754,748,0
24381,746.80,754,748,0
24391,747.42,754,748,0
24401,747.85,754,751,0
24411,748.11,754,746,0
24421,748.29,754,751,0
24431,748.42,754,749,0
24441,748.55,754,750,0
24451,748.60,754,750,0
24461,745.42,754,749,0
24471,734.58,754,750,0
24481,714.61,754,749,0
24492,684.25,754,748,0
24502,644.66,754,750,0
24512,596.12,754,750,0
24522,540.84,754,750,0
24532,482.77,754,748,0
24542,428.59,754,748,0
24552,380.50,754,749,0
24562,341.65,754,750,0
24572,311.02,754,749,0
24582,289.80,754,748,0
24592,275.55,754,748,0
24602,268.44,754,748,0
24612,265.57,754,748,0
24622,266.85,754,748,0
24632,269.55,754,749,0
24642,274.10,754,750,0
24652,277.97,754,747,0
24663,282.18,754,748,0
24673,284.70,754,748,0
24683,287.02,754,749,0
24693,287.57,754,747,0
24704,288.04,754,749,0
24713,287.00,754,747,0
24723,286.36,754,749,0
24733,284.62,754,747,0
24743,283.62,754,749,0
24753,281.89,754,747,0
24763,281.15,754,748,0
24773,279.78,754,746,0
24783,279.46,754,748,0
24793,278.64,754,747,0
24803,278.92,754,748,0
24813,278.94,754,746,0
24823,280.03,754,748,0
24833,280.79,754,747,0
24843,282.70,754,748,0
24853,284.16,754,746,0
24863,286.77,754,748,0
24873,288.81,754,746,0
24883,291.78,754,748,0
24893,294.20,754,746,0
24903,298.17,754,748,0
24913,303.35,754,746,0
24923,313.53,754,748,0
24933,329.66,754,746,0
24952,357.27,664,745,0
24955,395.16,664,746,0
24964,440.80,664,748,0
24974,490.36,664,747,0
24984,541.85,664,748,0
24994,591.05,664,746,0
25004,635.39,664,748,0
25014,669.56,664,747,0
25024,693.52,664,748,0
25034,710.29,664,747,0
25044,722.08,664,749,0
25054,730.28,664,747,0
25064,736.03,664,748,0
25074,740.00,664,746,0
25084,742.83,664,749,0
25094,744.77,664,747,0
25104,746.17,664,748,0
25114,747.10,664,746,0
25124,747.80,664,748,0
25134,748.29,664,747,0
25144,748.63,664,748,0
25154,748.83,664,746,0
25164,749.01,664,748,0
25175,749.09,664,748,0
25185,749.15,664,748,0
25195,749.15,664,746,0
25205,749.15,664,749,0
25216,749.15,664,746,0
25225,749.19,664,748,0
25235,749.17,664,746,0
25245,745.61,664,749,0
25255,734.33,664,746,0
25265,714.26,664,748,0
25275,684.09,664,746,0
25285,644.59,664,749,0
25295,595.86,664,746,0
25305,539.80,664,748,0
25315,480.50,664,746,0
25325,424.12,664,749,0
25335,372.36,664,746,0
25345,328.32,664,748,0
25355,291.63,664,747,0
25365,263.50,664,750,0
25375,242.05,664,748,0
25385,227.80,664,750,0
25395,218.56,664,747,0
25405,214.49,664,751,0
25415,213.32,664,747,0
25425,215.11,664,751,0
25435,218.03,664,747,0
25445,222.52,664,751,0
25455,226.82,664,746,0
25465,231.68,664,749,0
25475,235.59,664,747,0
25485,239.65,664,749,0
25495,242.72,664,747,0
25505,245.80,664,749,0
25516,247.92,664,746,0
25526,250.21,664,748,0
25536,251.78,664,746,0
25546,253.73,664,751,0
25556,255.14,664,745,0
25566,257.16,664,749,0
25576,258.78,664,747,0
25586,261.07,664,749,0
25596,263.32,664,746,0
25606,266.27,664,749,0
25616,269.02,664,746,0
25626,272.10,664,749,0
25636,274.94,664,748,0
25646,278.30,664,752,0
25656,281.85,664,746,0
25666,287.64,664,748,0
25676,297.09,664,747,0
25687,314.04,664,748,0
25697,341.92,664,746,0
25716,381.16,764,745,0
25719,427.96,764,750,0
25729,479.65,764,751,0
25739,532.82,764,747,0
25749,584.39,764,750,0
25759,630.21,764,747,0
25769,665.98,764,748,0
25779,691.06,764,749,0
25789,708.57,764,748,0
25799,720.87,764,751,0
25809,729.44,764,749,0
25819,735.48,764,750,0
25829,739.66,764,752,0
25839,742.64,764,747,0
25849,744.67,764,752,0
25859,746.14,764,747,0
25869,747.13,764,748,0
25879,747.86,764,747,0
25889,748.33,764,748,0
25900,748.70,764,747,0
25910,748.92,764,747,0
25920,749.12,764,747,0
25930,749.21,764,748,0
25940,749.32,764,751,0
25950,749.35,764,751,0
25960,747.62,764,747,0
25970,738.60,764,748,0
25980,720.08,764,747,0
25990,690.61,764,747,0
26000,650.74,764,747,0
26010,600.46,764,747,0
26020,541.74,764,747,0
26030,477.32,764,747,0
26040,414.78,764,746,0
26050,357.42,764,748,0
26060,308.69,764,748,0
26071,268.76,764,747,0
26081,239.04,764,749,0
26091,217.73,764,748,0
26101,204.87,764,746,0
26112,197.88,764,747,0
26121,196.54,764,747,0
26131,198.10,764,747,0
26141,202.48,764,752,0
26151,207.44,764,746,0
26161,213.26,764,747,0
26171,218.11,764,748,0
26181,223.05,764,747,0
26191,226.38,764,747,0
26201,229.61,764,747,0
26211,231.23,764,750,0
26221,232.79,764,748,0
26231,233.06,764,747,0
26241,233.69,764,747,0
26251,233.44,764,747,0
26261,233.95,764,747,0
26271,233.75,764,747,0
26281,234.51,764,747,0
26291,234.87,764,747,0
26301,236.41,764,747,0
26311,237.66,764,747,0
26321,239.99,764,747,0
26331,242.09,764,747,0
26341,245.24,764,747,0
26351,247.99,764,747,0
26361,251.68,764,747,0
26371,254.86,764,747,0
26381,258.89,764,747,0
26391,262.22,764,749,0
26401,266.18,764,747,0
26412,269.26,764,747,0
26422,272.87,764,748,0
26432,275.48,764,746,0
26442,279.19,764,748,0
26452,283.85,764,749,0
26462,292.98,764,750,0
26472,307.69,764,747,0
26491,333.32,775,745,0
26494,370.77,775,750,0
26503,417.08,775,752,0
26513,468.23,775,746,0
26523,521.82,775,749,0
26533,573.81,775,746,0
26543,621.53,775,750,0
26553,659.81,775,747,0
26563,686.61,775,749,0
26573,705.37,775,745,0
26583,718.55,775,749,0
26593,727.77,775,747,0
26603,734.27,775,748,0
26613,738.77,775,746,0
26624,741.97,775,750,0
26633,744.21,775,747,0
26643,745.77,775,749,0
26653,746.83,775,747,0
26663,747.61,775,750,0
26673,748.11,775,749,0
26683,748.46,775,749,0
26693,748.67,775,747,0
26703,748.85,775,749,0
26713,748.98,775,747,0
26723,749.07,775,749,0
26733,746.39,775,745,0
26743,737.28,775,749,0
26753,718.76,775,749,0
26763,690.76,775,752,0
26773,652.52,775,747,0
26783,605.69,775,752,0
26793,550.80,775,747,0
26803,493.00,775,750,0
26813,436.77,775,746,0
26823,387.56,775,749,0
26833,345.77,775,746,0
26843,314.00,775,748,0
26853,290.43,775,746,0
26863,276.07,775,748,0
26873,267.61,775,746,0
26883,265.32,775,748,0
26893,265.74,775,747,0
26903,269.12,775,749,0
26913,272.47,775,747,0
26924,276.66,775,749,0
26934,279.16,775,748,0
26944,281.34,775,750,0
26954,281.37,775,748,0
26964,280.79,775,749,0
26974,278.11,775,746,0
26984,275.25,775,748,0
26994,270.97,775,747,0
27004,266.78,775,749,0
27014,261.58,775,747,0
27024,257.03,775,750,0
27034,251.92,775,747,0
27044,248.09,775,749,0
27054,244.03,775,748,0
27064,241.41,775,750,0
27074,239.01,775,747,0
27084,238.54,775,749,0
27095,238.29,775,746,0
27105,239.83,775,750,0
27115,241.77,775,747,0
27125,245.40,775,750,0
27136,249.22,775,746,0
27145,254.47,775,749,0
27155,259.47,775,747,0
27165,265.46,775,748,0
27175,271.06,775,745,0
27185,277.30,775,749,0
27195,283.51,775,746,0
27205,291.84,775,748,0
27215,303.29,775,746,0
27225,321.16,775,748,0
27244,348.03,753,747,0
27247,386.25,753,748,0
27256,431.64,753,746,0
27266,481.81,753,748,0
27276,533.25,753,746,0
27286,583.28,753,749,0
27296,628.24,753,746,0
27307,664.59,753,748,0
27316,690.04,753,746,0
27326,707.90,753,749,0
27336,720.40,753,746,0
27346,729.20,753,748,0
27356,735.31,753,746,0
27366,739.63,753,749,0
27376,742.61,753,746,0
27386,744.70,753,750,0
27396,746.12,753,748,0
27406,747.11,753,751,0
27416,747.76,753,747,0
27426,748.22,753,751,0
27436,748.50,753,747,0
27446,748.69,753,749,0
27456,748.78,753,746,0
27466,746.06,753,750,0
27476,735.29,753,747,0
27486,714.16,753,751,0
27496,681.02,753,746,0
27506,636.06,753,748,0
27516,579.77,753,748,0
27526,513.97,753,748,0
27536,442.71,753,746,0
27546,373.41,753,750,0
27556,310.16,753,746,0
27566,256.67,753,749,0
27576,213.91,753,746,0
27586,182.99,753,748,0
27596,162.98,753,749,0
27607,153.39,753,749,0
27617,152.33,753,746,0
27627,158.06,753,748,0
27637,168.41,753,746,0
27648,181.87,753,748,0
27657,196.48,753,746,0
27667,211.04,753,748,0
27677,224.40,753,746,0
27687,235.81,753,748,0
27697,245.12,753,746,0
27707,252.03,753,748,0
27717,256.78,753,746,0
27727,259.54,753,748,0
27737,260.58,753,746,0
27747,260.32,753,748,0
27757,259.11,753,746,0
27767,257.11,753,748,0
27777,254.63,753,746,0
27787,251.83,753,748,0
27797,249.05,753,746,0
27807,246.25,753,748,0
27817,243.60,753,746,0
27827,241.15,753,748,0
27837,238.88,753,746,0
27847,236.90,753,748,0
27857,235.47,753,746,0
27867,234.39,753,747,0
27877,233.93,753,746,0
27887,233.86,753,748,0
27897,234.46,753,746,0
27907,235.74,753,748,0
27917,237.79,753,746,0
27927,240.38,753,748,0
27937,243.74,753,746,0
27948,247.72,753,748,0
27958,252.43,753,746,0
27968,257.36,753,748,0
27978,262.82,753,747,0
27988,268.10,753,747,0
27998,273.64,753,746,0
28008,280.52,753,748,0
28018,292.15,753,747,0
28028,311.13,753,747,0
28047,340.84,803,747,0
28050,381.00,803,749,0
28059,428.79,803,747,0
28069,481.26,803,747,0
28079,535.53,803,747,0
28089,586.97,803,747,0
28099,632.02,803,747,0
28109,667.03,803,747,0
28119,691.53,803,747,0
28129,708.69,803,748,0
28139,720.74,803,747,0
28149,729.13,803,748,0
28160,735.01,803,747,0
28169,739.12,803,748,0
28179,742.04,803,747,0
28189,744.04,803,748,0
28199,745.44,803,747,0
28209,746.43,803,748,0
28219,747.15,803,747,0
28229,747.62,803,747,0
28239,744.26,803,747,0
28249,733.47,803,747,0
28259,713.44,803,747,0
28269,682.67,803,747,0
28279,641.80,803,747,0
28289,591.07,803,747,0
28299,532.29,803,747,0
28309,469.81,803,748,0
28319,409.61,803,747,0
28329,354.65,803,747,0
28339,308.64,803,747,0
28349,271.81,803,747,0
28359,245.81,803,747,0
28369,229.07,803,747,0
28379,221.97,803,747,0
28389,221.94,803,747,0
28399,228.51,803,746,0
28409,238.69,803,747,0
28419,251.90,803,747,0
28429,265.30,803,748,0
28439,278.88,803,746,0
28449,290.45,803,747,0
28460,300.55,803,747,0
28470,307.42,803,747,0
28480,312.35,803,747,0
28490,314.09,803,747,0
28500,314.28,803,747,0
28510,311.88,803,747,0
28520,308.79,803,747,0
28530,303.92,803,747,0
28540,299.45,803,747,0
28550,294.17,803,747,0
28560,289.96,803,747,0
28570,285.52,803,747,0
28580,282.62,803,747,0
28590,279.86,803,747,0
28600,278.83,803,747,0
28610,277.90,803,747,0
28620,278.53,803,747,0
28631,279.10,803,747,0
28641,280.95,803,747,0
28651,282.55,803,747,0
28661,285.09,803,748,0
28672,286.86,803,746,0
28681,289.47,803,747,0
28691,291.26,803,746,0
28701,293.80,803,748,0
28711,295.53,803,746,0
28721,297.90,803,747,0
28731,299.56,803,746,0
28741,302.30,803,748,0
28751,304.18,803,746,0
28761,307.00,803,747,0
28771,308.89,803,747,0
28781,311.66,803,748,0
28791,314.42,803,746,0
28801,320.42,803,747,0
28811,330.67,803,747,0
28821,350.10,803,748,0
28831,380.28,803,746,0
28851,420.18,803,745,0
28853,465.94,803,746,0
28863,515.72,803,748,0
28873,565.56,803,746,0
28883,612.58,803,748,0
28893,652.13,803,746,0
28903,681.24,803,748,0
28913,701.61,803,746,0
28923,715.87,803,748,0
28933,725.81,803,746,0
28943,732.77,803,748,0
28953,737.64,803,746,0
28963,741.05,803,748,0
28973,743.43,803,746,0
28983,745.10,803,748,0
28993,746.27,803,746,0
29003,747.09,803,748,0
29014,747.66,803,746,0
29023,748.06,803,748,0
29033,748.34,803,746,0
29043,748.54,803,748,0
29053,748.64,803,746,0
29063,744.07,803,748,0
29073,730.42,803,746,0
29083,706.55,803,748,0
29093,671.46,803,746,0
29103,626.49,803,748,0
29113,571.92,803,746,0
29123,509.88,803,748,0
29133,446.06,803,746,0
29143,387.16,803,748,0
29153,335.08,803,746,0
29163,293.27,803,748,0
29173,260.75,803,746,0
29184,238.88,803,748,0
29193,225.42,803,746,0
29203,220.41,803,748,0
29213,220.97,803,746,0
29223,226.85,803,748,0
29233,234.65,803,746,0
29243,244.61,803,748,0
29253,254.07,803,746,0
29263,263.48,803,748,0
29273,270.84,803,746,0
29283,277.18,803,748,0
29293,281.12,803,746,0
29303,284.12,803,748,0
29313,284.94,803,746,0
29323,285.17,803,748,0
29333,283.75,803,746,0
29343,282.33,803,748,0
29353,279.83,803,746,0
29363,278.04,803,748,0
29373,275.67,803,746,0
29383,274.31,803,748,0
29393,272.76,803,746,0
29403,272.58,803,748,0
29413,272.32,803,746,0
29423,273.34,803,748,0
29433,274.18,803,746,0
29443,276.31,803,748,0
29453,278.19,803,746,0
29463,281.17,803,748,0
29473,283.91,803,746,0
29484,287.62,803,748,0
29494,290.99,803,745,0
29504,295.07,803,748,0
29514,298.65,803,746,0
29524,302.70,803,748,0
29534,305.96,803,745,0
29544,309.48,803,748,0
29554,312.08,803,746,0
29564,314.84,803,748,0
29574,316.73,803,745,0
29584,318.78,803,748,0
29594,320.39,803,746,0
29604,323.92,803,748,0
29623,330.54,773,746,0
29626,345.29,773,749,0
29635,370.58,773,746,0
29645,406.70,773,749,0
29655,449.86,773,746,0
29665,498.12,773,749,0
29675,548.05,773,746,0
29685,596.90,773,749,0
29696,639.44,773,746,0
29705,672.27,773,749,0
29715,695.24,773,746,0
29725,711.37,773,749,0
29735,722.66,773,746,0
29745,730.56,773,749,0
29755,736.09,773,746,0
29765,739.97,773,749,0
29775,742.68,773,746,0
29785,744.57,773,749,0
29795,745.90,773,746,0
29805,746.83,773,749,0
29815,747.44,773,746,0
29825,747.86,773,749,0
29835,748.16,773,746,0
29845,748.37,773,749,0
29855,743.50,773,746,0
29865,730.15,773,748,0
29875,706.66,773,746,0
29885,672.69,773,749,0
29895,628.34,773,746,0
29905,574.63,773,748,0
29915,513.07,773,746,0
29925,450.35,773,749,0
29935,391.40,773,746,0
29945,339.72,773,748,0
29955,296.95,773,746,0
29965,264.56,773,749,0
29975,242.19,773,746,0
29985,229.32,773,748,0
29996,224.47,773,746,0
30006,226.34,773,748,0
30016,233.10,773,746,0
30026,243.22,773,748,0
30036,254.94,773,746,0
30046,267.09,773,748,0
30056,278.33,773,746,0
30066,288.13,773,748,0
30076,296.15,773,746,0
30086,302.11,773,748,0
30096,306.10,773,746,0
30106,307.96,773,748,0
30116,308.40,773,746,0
30126,307.51,773,748,0
30136,305.68,773,746,0
30146,302.99,773,748,0
30156,300.04,773,746,0
30167,296.81,773,748,0
30177,294.08,773,746,0
30187,291.36,773,747,0
30197,289.45,773,747,0
30208,287.90,773,748,0
30217,287.50,773,747,0
30227,287.52,773,747,0
30237,288.44,773,747,0
30247,289.42,773,748,0
30257,291.22,773,747,0
30267,293.04,773,747,0
30277,295.64,773,747,0
30287,297.89,773,748,0
30297,300.63,773,746,0
30307,303.22,773,747,0
30317,306.46,773,747,0
30327,309.32,773,748,0
30337,312.40,773,746,0
30347,314.98,773,747,0
30357,317.86,773,747,0
30367,320.00,773,748,0
30377,322.27,773,747,0
30387,323.65,773,747,0
30397,325.17,773,747,0
30407,326.92,773,748,0
30417,331.83,773,747,0
30427,341.61,773,748,0
30446,360.33,823,747,0
30449,391.13,823,749,0
30458,430.95,823,747,0
30468,476.61,823,748,0
30478,525.88,823,747,0
30488,574.90,823,748,0
30498,620.66,823,747,0
30508,659.08,823,748,0
30518,686.01,823,747,0
30528,704.86,823,748,0
30538,718.11,823,747,0
30548,727.33,823,747,0
30558,733.79,823,747,0
30568,738.31,823,748,0
30578,741.47,823,747,0
30588,743.65,823,747,0
30598,745.17,823,747,0
30608,746.23,823,748,0
30618,747.02,823,747,0
30628,747.53,823,747,0
30638,747.88,823,747,0
30648,748.13,823,748,0
30658,745.48,823,747,0
30668,735.14,823,748,0
30679,715.25,823,747,0
30689,684.40,823,747,0
30699,643.31,823,747,0
30709,591.96,823,747,0
30720,532.57,823,747,0
30729,469.06,823,747,0
30739,408.65,823,747,0
30749,354.29,823,747,0
30759,309.67,823,747,0
30769,274.54,823,747,0
30779,250.77,823,747,0
30789,235.96,823,747,0
30799,230.49,823,747,0
30809,231.07,823,747,0
30819,237.48,823,747,0
30829,246.55,823,747,0
30839,258.56,823,747,0
30849,270.52,823,747,0
30859,282.66,823,747,0
30869,292.54,823,747,0
30879,301.37,823,747,0
30889,307.31,823,747,0
30899,311.71,823,747,0
30909,313.13,823,747,0
30919,313.18,823,747,0
30929,311.02,823,747,0
30939,308.53,823,747,0
30949,304.51,823,747,0
30959,300.97,823,747,0
30969,296.57,823,747,0
30979,293.10,823,747,0
30989,289.38,823,747,0
30999,287.25,823,747,0
31009,285.03,823,747,0
31020,284.47,823,748,0
31030,283.86,823,747,0
31040,285.06,823,748,0
31050,286.28,823,746,0
31060,289.24,823,748,0
31070,291.83,823,747,0
31080,295.86,823,748,0
31090,299.46,823,746,0
31100,304.21,823,748,0
31110,308.26,823,747,0
31120,313.11,823,748,0
31130,316.89,823,746,0
31140,321.38,823,748,0
31150,324.82,823,747,0
31160,328.78,823,747,0
31170,331.42,823,746,0
31180,334.42,823,748,0
31191,336.05,823,746,0
31201,338.18,823,748,0
31211,340.22,823,746,0
31221,346.24,823,748,0
31232,357.57,823,746,0
31250,378.74,804,745,0
31253,410.58,804,747,0
31262,450.77,804,749,0
31272,495.89,804,746,0
31282,544.09,804,748,0
31292,590.99,804,746,0
31302,633.77,804,749,0
31312,668.29,804,746,0
31322,692.51,804,748,0
31332,709.45,804,746,0
31342,721.32,804,749,0
31352,729.62,804,746,0
31362,735.44,804,748,0
31372,739.50,804,746,0
31382,742.35,804,748,0
31392,744.35,804,746,0
31403,745.74,804,748,0
31412,746.72,804,746,0
31422,747.40,804,749,0
31432,747.88,804,746,0
31442,748.22,804,748,0
31452,748.45,804,746,0
31462,744.29,804,748,0
31472,731.39,804,746,0
31482,708.47,804,748,0
31492,674.82,804,746,0
31502,631.29,804,748,0
31512,578.06,804,746,0
31522,517.14,804,748,0
31532,453.84,804,746,0
31542,394.79,804,748,0
31552,342.27,804,746,0
31562,299.33,804,748,0
31572,265.80,804,746,0
31582,243.06,804,748,0
31592,229.37,804,746,0
31602,224.59,804,748,0
31612,226.21,804,746,0
31622,233.73,804,748,0
31632,243.93,804,746,0
31642,256.59,804,749,0
31652,269.10,804,746,0
31662,281.50,804,748,0
31672,291.81,804,746,0
31682,300.61,804,748,0
31692,306.55,804,746,0
31703,310.84,804,748,0
31713,312.35,804,746,0
31723,312.59,804,748,0
31733,310.70,804,746,0
31744,308.30,804,749,0
31753,304.74,804,746,0
31763,301.43,804,748,0
31773,297.83,804,746,0
31783,295.05,804,748,0
31793,292.51,804,746,0
31803,291.20,804,748,0
31813,290.37,804,746,0
31823,290.73,804,748,0
31833,291.41,804,746,0
31843,293.17,804,748,0
31853,295.09,804,745,0
31863,297.85,804,748,0
31873,300.47,804,746,0
31883,303.80,804,748,0
31893,306.99,804,745,0
31903,310.68,804,748,0
31913,313.99,804,746,0
31923,317.76,804,748,0
31933,320.96,804,746,0
31943,324.36,804,748,0
31953,327.04,804,746,0
31963,329.85,804,748,0
31973,332.08,804,746,0
31983,334.33,804,748,0
31993,335.86,804,746,0
32003,337.62,804,748,0
32013,339.40,804,746,0
32023,343.87,804,748,0
32033,352.82,804,746,0
32053,370.23,803,745,0
32056,399.69,803,747,0
32065,437.88,803,748,0
32075,481.76,803,746,0
32086,529.45,803,748,0
32095,577.31,803,746,0
32105,622.30,803,748,0
32115,660.23,803,746,0
32125,686.82,803,748,0
32135,705.43,803,746,0
32145,718.46,803,748,0
32155,727.58,803,746,0
32165,734.00,803,748,0
32175,738.46,803,746,0
32185,741.58,803,748,0
32195,743.76,803,746,0
32205,745.29,803,748,0
32215,746.32,803,746,0
32225,747.04,803,748,0
32235,747.54,803,746,0
32245,747.94,803,748,0
32256,748.17,803,746,0
32265,743.32,803,748,0
32275,730.02,803,746,0
32285,706.40,803,748,0
32295,672.21,803,746,0
32305,627.92,803,748,0
32315,574.41,803,746,0
32325,513.00,803,748,0
32335,450.47,803,746,0
32345,392.00,803,748,0
32355,341.13,803,746,0
32365,299.69,803,748,0
32375,268.54,803,746,0
32385,247.59,803,748,0
32395,236.49,803,746,0
32405,233.68,803,748,0
32415,237.81,803,746,0
32425,246.95,803,748,0
32435,259.39,803,746,0
32445,273.33,803,748,0
32455,287.80,803,746,0
32465,301.15,803,748,0
32475,312.85,803,746,0
32485,321.89,803,748,0
32495,328.44,803,746,0
32505,332.16,803,748,0
32515,333.49,803,746,0
32525,332.44,803,748,0
32535,329.87,803,746,0
32545,325.79,803,748,0
32556,321.14,803,746,0
32566,315.78,803,748,0
32576,310.71,803,747,0
32586,305.74,803,747,0
32596,301.62,803,747,0
32606,298.09,803,748,0
32616,295.79,803,747,0
32626,293.97,803,747,0
32636,293.51,803,747,0
32646,293.48,803,748,0
32656,294.62,803,747,0
32666,295.89,803,747,0
32676,298.07,803,747,0
32686,300.19,803,748,0
32696,303.09,803,746,0
32706,305.89,803,747,0
32716,309.31,803,747,0
32727,312.39,803,747,0
32737,315.96,803,747,0
32747,318.88,803,747,0
32757,322.22,803,747,0
32768,324.85,803,747,0
32777,327.77,803,747,0
32787,330.28,803,747,0
32797,334.35,803,747,0
32807,341.02,803,747,0
32817,353.61,803,747,0
32827,374.13,803,747,0
32837,406.40,803,747,0
32857,446.27,803,746,0
32860,491.62,803,748,0
32869,539.17,803,746,0
32879,586.31,803,748,0
32889,629.37,803,747,0
32899,665.26,803,748,0
32909,690.43,803,746,0
32919,708.04,803,748,0
32929,720.33,803,746,0
32940,728.93,803,748,0
32950,734.91,803,746,0
32960,739.09,803,748,0
32970,742.02,803,746,0
32980,744.07,803,748,0
32990,745.47,803,746,0
33000,746.44,803,748,0
33010,747.12,803,746,0
33020,747.64,803,748,0
33030,746.81,803,746,0
33040,740.82,803,748,0
33050,725.83,803,746,0
33060,701.20,803,748,0
33070,666.12,803,746,0
33080,621.77,803,748,0
33090,568.27,803,746,0
33100,509.00,803,748,0
33111,448.74,803,746,0
33121,393.79,803,748,0
33131,345.85,803,746,0
33141,307.93,803,748,0
33152,279.45,803,746,0
33161,261.79,803,748,0
33171,252.81,803,746,0
33181,252.48,803,749,0
33191,257.91,803,746,0
33201,268.35,803,748,0
33211,280.63,803,746,0
33221,294.46,803,748,0
33231,307.22,803,746,0
33241,319.20,803,748,0
33251,328.14,803,746,0
33261,334.82,803,748,0
33271,338.05,803,746,0
33281,339.23,803,748,0
33291,337.32,803,746,0
33301,333.84,803,748,0
33311,327.97,803,746,0
33321,321.68,803,748,0
33331,314.28,803,746,0
33341,307.55,803,748,0
33351,300.53,803,746,0
33361,294.88,803,748,0
33371,289.73,803,746,0
33381,286.47,803,748,0
33391,284.02,803,746,0
33401,283.45,803,748,0
33411,283.40,803,746,0
33421,285.17,803,748,0
33431,287.09,803,746,0
33441,290.41,803,748,0
33452,293.58,803,746,0
33462,297.65,803,748,0
33472,301.40,803,746,0
33482,305.78,803,748,0
33492,309.53,803,746,0
33502,314.00,803,749,0
33512,317.56,803,746,0
33522,321.16,803,748,0
33532,323.90,803,746,0
33542,327.06,803,748,0
33552,331.11,803,746,0
33562,339.31,803,748,0
33572,353.61,803,746,0
33582,378.07,803,748,0
33592,412.85,803,746,0
33602,455.15,803,748,0
33622,501.95,765,747,0
33625,550.78,765,749,0
33634,597.73,765,746,0
33644,639.47,765,748,0
33654,672.29,765,746,0
33665,695.30,765,748,0
33675,711.41,765,746,0
33685,722.69,765,748,0
33695,730.58,765,747,0
33705,736.11,765,748,0
33715,739.97,765,746,0
33725,742.68,765,748,0
33735,744.58,765,747,0
33745,745.90,765,748,0
33755,746.83,765,746,0
33765,747.48,765,748,0
33775,747.94,765,747,0
33785,748.26,765,748,0
33795,748.48,765,746,0
33805,748.64,765,748,0
33815,745.92,765,747,0
33825,735.87,765,748,0
33836,716.45,765,747,0
33846,686.53,765,747,0
33856,646.86,765,747,0
33866,597.57,765,748,0
33876,540.74,765,747,0
33886,480.31,765,747,0
33896,422.96,765,747,0
33906,371.71,765,748,0
33916,329.76,765,747,0
33926,296.91,765,747,0
33936,274.61,765,747,0
33946,260.89,765,747,0
33956,255.56,765,747,0
33966,255.91,765,747,0
33976,261.34,765,747,0
33986,268.99,765,747,0
33996,278.51,765,747,0
34007,287.27,765,747,0
34017,295.50,765,747,0
34027,301.31,765,747,0
34037,305.50,765,747,0
34048,306.81,765,746,0
34057,306.65,765,747,0
34067,304.10,765,747,0
34077,300.94,765,747,0
34087,296.20,765,747,0
34097,291.77,765,747,0
34107,286.70,765,747,0
34117,282.80,765,747,0
34127,278.88,765,747,0
34137,276.68,765,747,0
34147,274.76,765,747,0
34157,274.62,765,747,0
34167,274.48,765,747,0
34177,276.05,765,747,0
34187,277.53,765,747,0
34197,280.29,765,747,0
34207,282.64,765,747,0
34217,286.01,765,747,0
34227,288.92,765,747,0
34237,292.80,765,747,0
34247,295.82,765,747,0
34257,299.64,765,747,0
34267,302.75,765,747,0
34277,306.43,765,747,0
34287,309.26,765,747,0
34297,312.61,765,747,0
34307,315.04,765,747,0
34317,318.46,765,747,0
34327,322.78,765,747,0
34337,332.14,765,747,0
34348,348.13,765,747,0
34367,375.95,746,746,0
34370,413.16,746,746,0
34379,457.60,746,748,0
34390,505.98,746,746,0
34399,556.13,746,748,0
34409,603.53,746,746,0
34419,645.33,746,748,0
34429,676.47,746,746,0
34439,698.32,746,748,0
34449,713.61,746,746,0
34459,724.31,746,748,0
34469,731.76,746,746,0
34479,737.06,746,748,0
34489,740.73,746,746,0
34499,743.30,746,748,0
34509,745.05,746,746,0
34519,746.28,746,748,0
34529,747.14,746,746,0
34539,747.74,746,748,0
34549,748.12,746,746,0
34560,748.38,746,748,0
34569,748.52,746,746,0
34579,748.62,746,748,0
34589,748.69,746,746,0
34599,748.74,746,748,0
34609,745.05,746,746,0
34619,734.28,746,748,0
34629,713.24,746,746,0
34639,682.05,746,748,0
34649,640.34,746,746,0
34659,589.71,746,748,0
34669,530.57,746,746,0
34679,468.94,746,748,0
34689,409.00,746,746,0
34699,356.37,746,747,0
34709,311.56,746,746,0
34719,276.93,746,748,0
34729,250.94,746,746,0
34739,234.67,746,748,0
34749,225.34,746,746,0
34759,223.27,746,748,0
34769,225.07,746,746,0
34779,231.14,746,748,0
34789,238.21,746,746,0
34799,246.93,746,748,0
34809,254.84,746,746,0
34819,262.99,746,748,0
34829,269.25,746,746,0
34839,275.13,746,748,0
34849,278.61,746,746,0
34860,281.60,746,748,0
34870,282.70,746,746,0
34880,283.39,746,748,0
34890,282.55,746,746,0
34900,281.70,746,748,0
34910,279.73,746,746,0
34920,278.53,746,748,0
34930,276.74,746,746,0
34940,275.79,746,748,0
34950,274.70,746,746,0
34960,274.87,746,748,0
34970,275.04,746,746,0
34980,276.48,746,748,0
34990,277.80,746,746,0
35000,280.34,746,748,0
35010,282.64,746,746,0
35020,285.92,746,748,0
35031,288.82,746,746,0
35041,292.64,746,748,0
35051,296.01,746,746,0
35061,299.99,746,748,0
35072,289.75,746,724,0
35081,274.40,746,735,0
35091,262.06,746,730,0
35101,249.66,746,724,0
35111,254.65,746,738,0
35121,276.44,746,738,0
35131,309.48,746,737,0
35150,364.23,783,736,0
35153,429.95,783,737,0
35162,495.97,783,740,0
35172,564.63,783,738,0
35182,617.03,783,740,0
35192,653.79,783,738,0
35202,679.61,783,741,0
35212,697.81,783,739,0
35222,710.60,783,741,0
35232,719.63,783,739,0
35243,726.04,783,742,0
35252,730.62,783,740,0
35262,733.90,783,742,0
35272,736.29,783,740,0
35282,738.05,783,742,0
35292,739.36,783,740,0
35302,740.32,783,743,0
35312,741.04,783,740,0
35322,741.63,783,743,0
35332,742.08,783,741,0
35342,742.44,783,743,0
35352,742.82,783,743,0
35362,743.22,783,745,0
35372,743.63,783,743,0
35382,744.04,783,746,0
35392,744.41,783,743,0
35402,744.80,783,746,0
35412,744.05,783,744,0
35422,737.65,783,746,0
35432,721.51,783,743,0
35442,694.44,783,746,0
35452,656.08,783,744,0
35462,607.63,783,746,0
35472,549.75,783,743,0
35482,485.20,783,746,0
35492,420.13,783,744,0
35502,360.56,783,746,0
35512,309.18,783,743,0
35522,268.02,783,747,0
35532,236.86,783,744,0
35543,215.90,783,746,0
35553,204.15,783,744,0
35563,200.07,783,746,0
35573,202.07,783,744,0
35584,208.22,783,746,0
35593,216.94,783,744,0
35603,227.07,783,746,0
35613,237.55,783,744,0
35623,247.33,783,746,0
35633,255.93,783,744,0
35643,262.98,783,746,0
35653,268.60,783,744,0
35663,272.58,783,746,0
35673,275.19,783,744,0
35683,276.72,783,746,0
35693,277.49,783,745,0
35703,277.60,783,747,0
35713,277.21,783,744,0
35723,276.59,783,747,0
35733,275.85,783,745,0
35743,274.95,783,747,0
35753,274.11,783,744,0
35763,273.31,783,747,0
35773,273.00,783,745,0
35783,272.96,783,747,0
35793,273.61,783,744,0
35803,274.93,783,747,0
35813,276.75,783,745,0
35823,278.75,783,747,0
35833,281.27,783,744,0
35843,284.10,783,747,0
35853,287.29,783,745,0
35863,290.29,783,747,0
35873,293.29,783,744,0
35884,296.20,783,747,0
35894,299.23,783,745,0
35904,301.86,783,746,0
35914,304.39,783,745,0
35924,306.54,783,746,0
35934,308.87,783,745,0
35944,310.83,783,746,0
35954,313.11,783,745,0
35964,314.96,783,746,0
35974,317.16,783,745,0
35993,319.56,843,744,0
35996,325.77,843,747,0
36005,337.63,843,746,0
36015,358.91,843,746,0
36025,391.72,843,747,0
36035,433.03,843,746,0
36045,479.82,843,747,0
36055,530.11,843,746,0
36065,579.36,843,747,0
36075,624.51,843,746,0
36085,661.56,843,747,0
36096,687.58,843,746,0
36105,705.79,843,747,0
36115,718.58,843,746,0
36125,727.49,843,746,0
36135,733.77,843,746,0
36145,738.17,843,747,0
36155,741.25,843,746,0
36165,743.36,843,746,0
36175,744.88,843,746,0
36185,745.90,843,747,0
36195,746.62,843,746,0
36205,747.07,843,746,0
36215,747.44,843,746,0
36225,747.69,843,747,0
36235,747.87,843,746,0
36245,747.95,843,747,0
36255,748.05,843,746,0
36265,748.12,843,746,0
36275,746.24,843,746,0
36285,737.21,843,746,0
36295,718.76,843,746,0
36305,689.31,843,746,0
36315,649.70,843,746,0
36325,599.90,843,746,0
36335,541.78,843,746,0
36345,478.11,843,746,0
36355,416.54,843,746,0
36365,360.32,843,746,0
36375,313.12,843,746,0
36385,274.60,843,747,0
36396,246.48,843,746,0
36406,226.88,843,746,0
36416,216.33,843,747,0
36426,211.69,843,746,0
36436,212.90,843,747,0
36446,217.04,843,746,0
36456,224.31,843,747,0
36466,232.06,843,746,0
36476,241.09,843,747,0
36486,248.82,843,746,0
36496,256.37,843,747,0
36506,262.05,843,746,0
36516,267.22,843,747,0
36526,270.45,843,746,0
36536,273.27,843,747,0
36546,274.22,843,746,0
36556,275.35,843,747,0
36567,275.42,843,746,0
36577,276.07,843,747,0
36587,276.17,843,746,0
36597,277.06,843,747,0
36608,277.60,843,745,0
36617,279.31,843,747,0
36627,280.20,843,746,0
36637,282.07,843,747,0
36647,283.16,843,745,0
36657,285.00,843,747,0
36667,286.16,843,746,0
36677,288.12,843,748,0
36687,289.29,843,745,0
36697,291.56,843,747,0
36707,293.15,843,746,0
36717,295.67,843,747,0
36727,297.40,843,745,0
36737,299.94,843,747,0
36747,301.67,843,746,0
36757,304.21,843,747,0
36767,305.91,843,746,0
36777,308.38,843,748,0
36787,310.15,843,746,0
36797,312.76,843,748,0
36807,314.68,843,746,0
36817,317.39,843,748,0
36827,319.20,843,746,0
36837,321.71,843,748,0
36847,323.51,843,745,0
36867,327.43,873,745,0
36870,335.53,873,747,0
36879,351.87,873,748,0
36889,378.18,873,745,0
36899,414.90,873,748,0
36909,458.13,873,746,0
36919,506.39,873,748,0
36929,556.07,873,746,0
36939,603.37,873,748,0
36950,644.23,873,746,0
36959,675.57,873,748,0
36969,697.47,873,746,0
36979,712.85,873,748,0
36989,723.61,873,746,0
36999,731.18,873,748,0
37009,736.48,873,746,0
37019,740.20,873,748,0
37029,742.79,873,746,0
37039,744.66,873,748,0
37049,745.92,873,746,0
37059,746.80,873,748,0
37069,747.42,873,746,0
37079,747.85,873,748,0
37089,748.11,873,746,0
37099,748.29,873,748,0
37109,748.42,873,746,0
37120,748.55,873,748,0
37129,748.64,873,746,0
37139,744.46,873,748,0
37149,731.60,873,746,0
37159,708.62,873,748,0
37169,674.66,873,746,0
37179,630.49,873,748,0
37189,576.52,873,746,0
37199,514.69,873,748,0
37209,450.54,873,746,0
37219,390.55,873,747,0
37229,337.28,873,746,0
37239,293.74,873,748,0
37249,259.75,873,746,0
37259,236.59,873,748,0
37269,222.27,873,746,0
37279,216.45,873,748,0
37289,216.61,873,746,0
37299,222.22,873,747,0
37309,230.21,873,746,0
37319,240.43,873,748,0
37329,250.29,873,746,0
37339,260.32,873,748,0
37349,268.49,873,746,0
37359,275.59,873,748,0
37369,280.43,873,746,0
37379,284.28,873,747,0
37389,286.08,873,746,0
37399,287.09,873,748,0
37409,286.46,873,746,0
37420,285.55,873,747,0
37430,283.67,873,746,0
37440,281.97,873,748,0
37450,279.84,873,746,0
37460,278.26,873,748,0
37470,276.77,873,746,0
37480,276.02,873,748,0
37490,275.54,873,746,0
37500,276.15,873,748,0
37510,277.05,873,746,0
37520,278.92,873,748,0
37530,281.09,873,746,0
37540,284.06,873,747,0
37550,287.09,873,746,0
37560,290.70,873,748,0
37570,294.18,873,746,0
37580,298.11,873,748,0
37591,301.68,873,746,0
37601,305.33,873,748,0
37611,308.49,873,746,0
37621,311.60,873,747,0
37632,314.42,873,746,0
37641,317.17,873,748,0
37651,319.34,873,746,0
37661,321.30,873,748,0
37671,322.88,873,746,0
37681,324.37,873,748,0
37700,325.59,834,747,0
37703,326.48,834,748,0
37712,327.84,834,746,0
37722,330.76,834,748,0
37732,337.77,834,746,0
37742,351.86,834,747,0
37752,376.50,834,746,0
37762,411.79,834,748,0
37772,454.50,834,746,0
37782,501.66,834,748,0
37792,550.79,834,746,0
37803,598.25,834,748,0
37812,640.35,834,746,0
37822,672.94,834,748,0
37832,695.76,834,746,0
37842,711.73,834,748,0
37852,722.91,834,746,0
37862,730.74,834,748,0
37872,736.22,834,746,0
37882,740.05,834,748,0
37892,742.74,834,746,0
37902,744.62,834,748,0
37912,745.93,834,746,0
37922,746.85,834,748,0
37932,747.50,834,746,0
37942,747.95,834,748,0
37952,748.26,834,746,0
37962,748.48,834,748,0
37972,747.65,834,746,0
37982,741.16,834,748,0
37992,725.51,834,745,0
38002,698.87,834,748,0
38012,661.20,834,746,0
38022,613.09,834,748,0
38032,555.64,834,745,0
38042,491.07,834,748,0
38052,426.12,834,746,0
38062,365.87,834,748,0
38072,314.10,834,745,0
38082,272.28,834,748,0
38092,241.21,834,746,0
38103,220.53,834,747,0
38113,210.05,834,746,0
38123,207.67,834,747,0
38133,212.44,834,746,0
38144,221.82,834,747,0
38153,234.56,834,746,0
38163,248.45,834,747,0
38173,262.84,834,746,0
38183,275.83,834,747,0
38193,287.54,834,746,0
38203,296.64,834,747,0
38213,303.77,834,746,0
38223,308.08,834,747,0
38233,310.59,834,746,0
38243,310.75,834,747,0
38253,309.84,834,747,0
38263,307.23,834,747,0
38273,304.12,834,746,0
38283,300.18,834,747,0
38293,296.61,834,746,0
38303,292.87,834,747,0
38313,290.04,834,746,0
38323,287.41,834,747,0
38333,286.00,834,746,0
38343,284.97,834,747,0
38353,285.24,834,746,0
38363,285.98,834,747,0
38373,287.96,834,746,0
38383,290.11,834,747,0
38393,293.34,834,746,0
38403,296.75,834,747,0
38413,301.07,834,746,0
38423,305.03,834,747,0
38433,309.44,834,746,0
38444,313.08,834,747,0
38454,316.95,834,747,0
38464,319.80,834,747,0
38474,322.60,834,746,0
38484,324.35,834,747,0
38494,326.34,834,747,0
38504,327.36,834,747,0
38514,328.79,834,747,0
38524,329.37,834,746,0
38534,330.54,834,747,0
38544,331.15,834,747,0
38554,332.43,834,747,0
38564,333.25,834,746,0
38574,335.87,834,747,0
38584,341.48,834,747,0
38594,354.32,834,747,0
38614,376.30,913,746,0
38617,409.55,913,750,0
38626,450.14,913,746,0
38636,496.17,913,748,0
38646,544.46,913,746,0
38657,592.07,913,748,0
38667,634.65,913,746,0
38677,668.95,913,748,0
38687,692.97,913,746,0
38697,709.82,913,748,0
38707,721.62,913,746,0
38717,729.87,913,748,0
38727,735.66,913,746,0
38737,739.74,913,748,0
38747,742.61,913,746,0
38757,744.61,913,748,0
38767,745.97,913,746,0
38777,746.96,913,748,0
38787,747.66,913,746,0
38797,748.19,913,748,0
38807,748.52,913,746,0
38817,748.79,913,748,0
38828,743.67,913,746,0
38838,730.31,913,748,0
38848,706.26,913,746,0
38858,671.68,913,748,0
38868,626.31,913,746,0
38878,571.91,913,748,0
38888,509.07,913,746,0
38898,445.32,913,748,0
38908,384.88,913,746,0
38918,332.33,913,748,0
38928,288.60,913,746,0
38938,255.81,913,748,0
38948,232.72,913,746,0
38958,219.82,913,748,0
38968,214.95,913,746,0
38978,217.49,913,748,0
38988,224.97,913,746,0
38999,236.47,913,748,0
39009,249.44,913,746,0
39019,263.45,913,748,0
39029,276.77,913,746,0
39040,289.01,913,748,0
39049,298.91,913,746,0
39059,306.86,913,748,0
39069,312.26,913,746,0
39079,315.87,913,748,0
39089,317.15,913,746,0
39099,317.11,913,748,0
39109,315.75,913,746,0
39119,313.94,913,748,0
39129,311.21,913,746,0
39139,308.58,913,748,0
39149,305.70,913,746,0
39159,303.52,913,748,0
39169,301.48,913,746,0
39179,300.39,913,748,0
39189,299.67,913,746,0
39199,300.03,913,748,0
39209,300.83,913,745,0
39219,302.60,913,748,0
39229,304.48,913,746,0
39239,306.99,913,748,0
39249,309.35,913,746,0
39259,312.12,913,748,0
39269,314.52,913,746,0
39279,317.07,913,748,0
39289,319.15,913,746,0
39299,321.50,913,748,0
39309,323.41,913,746,0
39319,325.52,913,748,0
39329,327.12,913,746,0
39340,328.93,913,748,0
39350,330.49,913,746,0
39360,332.23,913,748,0
39370,333.92,913,746,0
39380,335.87,913,748,0
39390,337.58,913,746,0
39400,339.55,913,748,0
39410,341.36,913,746,0
39420,343.86,913,748,0
39430,348.92,913,746,0
39449,359.40,836,745,0
39452,379.64,836,747,0
39461,411.07,836,748,0
39471,450.22,836,747,0
39481,494.86,836,748,0
39491,542.47,836,747,0
39501,589.99,836,748,0
39511,633.58,836,747,0
39521,668.42,836,748,0
39531,692.85,836,747,0
39541,709.91,836,748,0
39552,721.85,836,747,0
39561,730.25,836,748,0
39571,736.09,836,747,0
39581,740.18,836,748,0
39591,743.04,836,747,0
39601,745.04,836,748,0
39611,746.49,836,747,0
39621,747.45,836,748,0
39631,748.13,836,747,0
39641,748.65,836,749,0
39651,746.48,836,747,0
39661,737.55,836,748,0
39671,719.56,836,747,0
39681,691.79,836,748,0
39691,653.97,836,746,0
39701,606.36,836,748,0
39711,550.15,836,747,0
39721,489.17,836,748,0
39731,429.20,836,747,0
39741,374.24,836,748,0
39751,326.90,836,747,0
39761,288.70,836,748,0
39771,260.80,836,747,0
39781,242.78,836,748,0
39791,234.19,836,747,0
39801,233.57,836,748,0
39811,239.62,836,747,0
39821,250.27,836,748,0
39831,264.38,836,747,0
39841,279.65,836,748,0
39852,295.14,836,747,0
39862,309.11,836,748,0
39872,321.42,836,747,0
39882,330.85,836,748,0
39892,337.63,836,747,0
39902,341.12,836,748,0
39912,342.20,836,747,0
39922,340.68,836,748,0
39932,337.86,836,747,0
39942,333.36,836,748,0
39952,328.54,836,747,0
39962,322.98,836,748,0
39972,317.93,836,748,0
39982,313.15,836,748,0
39992,309.55,836,747,0
40002,306.43,836,748,0
40012,304.76,836,747,0
40023,303.54,836,747,0
40033,303.94,836,748,0
40043,304.73,836,748,0
40053,306.78,836,748,0
40064,308.86,836,747,0
40073,312.07,836,748,0
40083,314.88,836,748,0
40093,318.52,836,748,0
40103,321.49,836,747,0
40113,325.11,836,748,0
40123,327.91,836,748,0
40133,331.19,836,748,0
40143,333.49,836,747,0
40153,336.30,836,747,0
40163,338.44,836,748,0
40173,340.97,836,748,0
40183,342.48,836,747,0
40193,344.39,836,747,0
40203,346.03,836,748,0
40213,350.31,836,748,0
40223,358.36,836,747,0
40233,374.15,836,748,0
40243,398.96,836,748,0
40262,433.77,813,747,0
40265,475.03,813,748,0
40274,520.75,813,748,0
40284,567.24,813,748,0
40294,611.74,813,748,0
40304,650.00,813,747,0
40314,679.96,813,748,0
40324,700.93,813,748,0
40334,715.61,813,748,0
40344,725.84,813,747,0
40354,733.00,813,748,0
40364,738.02,813,748,0
40374,741.57,813,748,0
40384,744.01,813,748,0
40394,745.72,813,748,0
40404,746.92,813,747,0
40414,747.80,813,748,0
40424,748.38,813,748,0
40434,747.41,813,748,0
40444,739.87,813,747,0
40454,724.22,813,748,0
40464,698.27,813,747,0
40474,662.36,813,748,0
40484,616.14,813,747,0
40494,561.58,813,748,0
40504,500.46,813,747,0
40514,440.11,813,748,0
40524,383.03,813,747,0
40535,333.87,813,748,0
40545,293.11,813,747,0
40555,263.03,813,748,0
40565,242.02,813,747,0
40576,231.13,813,749,0
40585,227.71,813,747,0
40595,231.87,813,748,0
40605,240.39,813,747,0
40615,253.00,813,749,0
40625,266.80,813,747,0
40635,281.90,813,748,0
40645,295.73,813,747,0
40655,308.97,813,749,0
40665,319.56,813,747,0
40675,328.65,813,748,0
40685,334.54,813,747,0
40695,338.58,813,749,0
40705,339.48,813,747,0
40715,338.99,813,748,0
40725,336.08,813,747,0
40735,332.58,813,749,0
40745,327.52,813,747,0
40755,322.95,813,748,0
40765,317.82,813,747,0
40775,313.93,813,749,0
40785,310.14,813,747,0
40795,308.04,813,748,0
40805,306.27,813,747,0
40815,306.28,813,749,0
40825,306.49,813,747,0
40835,308.53,813,748,0
40845,310.47,813,747,0
40855,313.59,813,749,0
40865,316.20,813,747,0
40876,319.65,813,748,0
40886,322.46,813,747,0
40896,325.96,813,749,0
40906,328.55,813,747,0
40916,331.77,813,748,0
40926,334.07,813,747,0
40936,337.00,813,749,0
40946,339.06,813,747,0
40956,341.53,813,748,0
40966,343.08,813,747,0
40976,345.12,813,749,0
40986,347.10,813,747,0
40996,352.34,813,748,0
41006,361.97,813,747,0
41016,380.66,813,749,0
41035,410.33,773,748,0
41038,448.46,773,751,0
41047,491.87,773,747,0
41057,538.75,773,749,0
41067,585.32,773,747,0
41077,628.90,773,749,0
41088,664.93,773,747,0
41097,690.45,773,749,0
41107,708.32,773,747,0
41117,720.82,773,749,0
41127,729.57,773,747,0
41137,735.70,773,749,0
41147,739.99,773,747,0
41157,742.99,773,749,0
41167,745.10,773,747,0
41177,746.57,773,749,0
41187,747.60,773,747,0
41197,748.32,773,749,0
41207,748.82,773,747,0
41217,749.18,773,749,0
41227,749.42,773,747,0
41237,749.60,773,749,0
41247,749.72,773,747,0
41257,749.80,773,749,0
41267,746.73,773,747,0
41277,736.48,773,749,0
41287,716.07,773,746,0
41297,685.15,773,749,0
41307,643.53,773,747,0
41317,592.46,773,749,0
41327,532.58,773,747,0
41337,469.02,773,749,0
41347,407.04,773,747,0
41357,351.83,773,749,0
41367,304.82,773,747,0
41377,267.98,773,749,0
41388,240.68,773,747,0
41398,223.46,773,749,0
41408,214.54,773,746,0
41418,213.13,773,749,0
41428,217.04,773,747,0
41438,225.34,773,749,0
41448,235.91,773,746,0
41458,248.19,773,749,0
41468,260.48,773,747,0
41478,272.46,773,749,0
41488,283.21,773,746,0
41498,292.62,773,749,0
41508,300.02,773,747,0
41518,305.84,773,749,0
41528,309.49,773,746,0
41538,311.79,773,749,0
41548,312.41,773,747,0
41559,312.03,773,749,0
41569,310.65,773,746,0
41579,308.95,773,749,0
41589,306.78,773,747,0
41600,304.70,773,749,0
41609,302.69,773,746,0
41619,301.29,773,749,0
41629,300.26,773,747,0
41639,299.79,773,749,0
41649,299.77,773,746,0
41659,300.44,773,749,0
41669,301.81,773,747,0
41679,303.58,773,749,0
41689,305.68,773,746,0
41699,308.30,773,749,0
41709,311.25,773,747,0
41719,314.44,773,749,0
41729,317.60,773,746,0
41739,320.81,773,749,0
41749,323.82,773,747,0
41759,326.58,773,749,0
41769,328.89,773,747,0
41779,331.11,773,749,0
41789,334.20,773,747,0
41799,340.66,773,749,0
41809,353.40,773,747,0
41819,375.87,773,749,0
41838,409.34,803,748,0
41841,450.46,803,749,0
41850,496.70,803,747,0
41860,545.47,803,749,0
41870,593.25,803,747,0
41880,636.11,803,749,0
41890,670.37,803,747,0
41900,694.34,803,749,0
41910,711.17,803,747,0
41920,722.95,803,749,0
41930,731.15,803,747,0
41940,736.85,803,748,0
41950,740.88,803,747,0
41960,743.70,803,749,0
41970,745.68,803,747,0
41980,747.02,803,748,0
41990,748.00,803,747,0
42000,748.73,803,749,0
42010,749.24,803,747,0
42020,749.55,803,749,0
42030,749.77,803,747,0
42040,749.93,803,749,0
42050,750.03,803,748,0
42060,750.07,803,748,0
42071,750.05,803,748,0
42081,750.03,803,748,0
42091,750.02,803,748,0
42101,750.02,803,748,0
42112,746.07,803,748,0
42121,734.65,803,748,0
42131,714.31,803,748,0
42141,683.96,803,748,0
42151,644.54,803,748,0
42161,596.64,803,748,0
42171,541.93,803,748,0
42181,485.38,803,748,0
42191,432.47,803,748,0
42201,385.48,803,748,0
42211,347.15,803,748,0
42221,317.15,803,748,0
42231,296.02,803,748,0
42241,282.30,803,748,0
42251,275.40,803,748,0
42261,273.01,803,748,0
42271,274.89,803,748,0
42281,278.61,803,748,0
42291,283.91,803,748,0
42301,289.08,803,748,0
42311,294.24,803,748,0
42321,298.28,803,748,0
42331,301.97,803,748,0
42341,304.08,803,748,0
42351,305.90,803,748,0
42361,306.49,803,748,0
42371,307.07,803,748,0
42381,306.79,803,748,0
42391,306.81,803,748,0
42401,306.31,803,748,0
42412,306.52,803,748,0
42422,306.36,803,747,0
42432,307.11,803,748,0
42442,307.46,803,748,0
42452,308.61,803,748,0
42462,309.37,803,747,0
42472,310.76,803,748,0
42482,311.52,803,748,0
42492,312.95,803,748,0
42502,313.73,803,747,0
42512,315.14,803,748,0
42522,315.79,803,748,0
42532,317.09,803,748,0
42542,317.79,803,747,0
42552,319.14,803,748,0
42562,319.74,803,748,0
42572,320.85,803,748,0
42583,321.15,803,747,0
42593,322.43,803,748,0
42603,324.28,803,748,0
42613,329.85,803,749,0
42624,340.31,803,747,0
42633,359.97,803,748,0
42652,391.22,814,748,0
42655,431.74,814,751,0
42664,477.72,814,747,0
42674,527.05,814,749,0
42684,575.89,814,747,0
42694,621.57,814,749,0
42704,659.75,814,747,0
42714,687.04,814,749,0
42724,706.14,814,747,0
42734,719.56,814,749,0
42744,728.90,814,747,0
42754,735.45,814,749,0
42764,740.03,814,747,0
42774,743.28,814,749,0
42784,745.51,814,747,0
42795,747.07,814,749,0
42804,748.16,814,747,0
42814,748.97,814,749,0
42824,749.49,814,747,0
42834,749.86,814,749,0
42844,750.07,814,747,0
42854,750.27,814,749,0
42864,750.36,814,747,0
42874,750.42,814,749,0
42884,750.47,814,747,0
42894,750.54,814,749,0
42904,750.55,814,747,0
42914,750.60,814,749,0
42924,745.83,814,747,0
42934,733.28,814,749,0
42944,710.31,814,747,0
42954,677.43,814,749,0
42964,634.40,814,747,0
42974,583.20,814,749,0
42984,524.29,814,747,0
42994,464.63,814,749,0
43004,408.04,814,747,0
43014,359.22,814,749,0
43024,318.01,814,747,0
43034,286.21,814,748,0
43044,261.97,814,747,0
43054,245.74,814,749,0
43064,235.02,814,747,0
43074,229.91,814,748,0
43084,227.75,814,747,0
43095,228.77,814,749,0
43105,230.64,814,747,0
43115,233.79,814,749,0
43125,236.60,814,747,0
43136,239.85,814,749,0
43145,241.91,814,747,0
43155,243.95,814,748,0
43165,244.74,814,747,0
43175,245.71,814,749,0
43185,245.80,814,747,0
43195,246.37,814,748,0
43205,246.39,814,747,0
43215,247.09,814,749,0
43225,247.40,814,747,0
43235,248.70,814,748,0
43245,249.65,814,747,0
43255,251.42,814,749,0
43265,252.67,814,747,0
43275,254.70,814,749,0
43285,256.42,814,747,0
43295,258.91,814,749,0
43305,260.86,814,747,0
43315,263.52,814,749,0
43325,265.63,814,747,0
43335,268.44,814,749,0
43345,270.67,814,747,0
43355,273.51,814,748,0
43365,275.71,814,747,0
43375,278.50,814,749,0
43385,280.71,814,747,0
43395,283.75,814,749,0
43405,287.17,814,747,0
43424,293.76,772,746,0
43427,305.66,772,748,0
43436,326.12,772,749,0
43446,357.50,772,747,0
43456,399.26,772,749,0
43466,447.48,772,747,0
43476,499.84,772,749,0
43486,552.56,772,747,0
43496,601.81,772,749,0
43506,644.21,772,747,0
43516,676.24,772,749,0
43526,698.67,772,747,0
43536,714.37,772,749,0
43546,725.36,772,747,0
43556,733.05,772,749,0
43566,738.44,772,747,0
43576,742.21,772,749,0
43586,744.84,772,747,0
43596,746.69,772,749,0
43607,747.98,772,747,0
43617,748.89,772,750,0
43627,749.52,772,747,0
43637,749.97,772,750,0
43648,750.28,772,747,0
43657,750.49,772,749,0
43667,750.65,772,747,0
43677,750.75,772,750,0
43687,750.83,772,747,0
43697,750.88,772,749,0
43707,744.96,772,747,0
43717,730.06,772,749,0
43727,704.58,772,747,0
43737,668.84,772,749,0
43747,623.11,772,747,0
43757,568.74,772,749,0
43767,506.93,772,747,0
43777,445.54,772,749,0
43787,388.85,772,747,0
43797,340.12,772,749,0
43807,300.06,772,747,0
43817,269.48,772,749,0
43827,247.61,772,747,0
43837,233.97,772,749,0
43847,226.78,772,746,0
43857,225.09,772,749,0
43867,226.95,772,747,0
43877,231.51,772,749,0
43887,237.27,772,746,0
43897,243.62,772,749,0
43907,249.60,772,747,0
43917,255.04,772,749,0
43927,259.18,772,746,0
43937,262.30,772,749,0
43948,264.14,772,747,0
43958,265.00,772,749,0
43968,265.08,772,747,0
43978,264.46,772,749,0
43988,263.38,772,747,0
43998,262.15,772,749,0
44008,260.91,772,747,0
44018,259.65,772,749,0
44028,258.68,772,747,0
44038,257.83,772,749,0
44048,257.37,772,747,0
44058,257.13,772,749,0
44068,257.39,772,747,0
44078,258.13,772,749,0
44088,259.46,772,747,0
44098,261.12,772,749,0
44108,263.32,772,747,0
44119,265.66,772,749,0
44129,268.42,772,747,0
44139,271.17,772,749,0
44149,274.12,772,748,0
44160,277.38,772,748,0
44169,282.41,772,747,0
44179,290.82,772,749,0
44189,305.79,772,748,0
44199,330.24,772,748,0
44218,367.32,794,747,0
44221,412.91,794,748,0
44230,464.15,794,748,0
44240,517.72,794,748,0
44250,570.52,794,748,0
44260,618.66,794,748,0
44270,658.32,794,748,0
44280,686.12,794,749,0
44290,705.59,794,748,0
44300,719.21,794,748,0
44310,728.75,794,748,0
44320,735.42,794,748,0
44331,740.10,794,748,0
44340,743.37,794,748,0
44350,745.66,794,748,0
44360,747.26,794,749,0
44370,748.38,794,748,0
44380,749.17,794,749,0
44390,749.72,794,748,0
44400,750.10,794,748,0
44410,750.37,794,748,0
44420,750.56,794,749,0
44430,750.69,794,748,0
44440,750.78,794,749,0
44450,745.23,794,748,0
44460,730.51,794,748,0
44470,704.98,794,748,0
44480,667.62,794,748,0
44490,619.52,794,748,0
44500,561.21,794,748,0
44510,494.93,794,748,0
44520,427.58,794,749,0
44530,365.01,794,748,0
44540,310.10,794,748,0
44550,265.97,794,748,0
44560,232.30,794,749,0
44570,210.09,794,748,0
44580,197.12,794,748,0
44590,192.97,794,748,0
44600,194.95,794,748,0
44610,202.25,794,748,0
44620,212.03,794,748,0
44631,224.02,794,748,0
44641,235.29,794,748,0
44651,246.22,794,748,0
44661,254.94,794,748,0
44672,262.33,794,749,0
44681,266.94,794,748,0
44691,270.09,794,748,0
44701,270.49,794,748,0
44711,270.26,794,749,0
44721,268.34,794,748,0
44731,266.48,794,748,0
44741,263.59,794,748,0
44751,261.44,794,748,0
44761,259.04,794,748,0
44771,257.78,794,748,0
44781,256.35,794,748,0
44791,256.24,794,748,0
44801,256.13,794,748,0
44811,257.38,794,748,0
44821,258.51,794,748,0
44831,260.75,794,749,0
44841,262.80,794,748,0
44851,265.95,794,748,0
44861,268.70,794,748,0
44871,272.39,794,748,0
44881,275.53,794,748,0
44891,279.44,794,748,0
44901,282.65,794,748,0
44911,286.53,794,749,0
44921,289.63,794,748,0
44931,293.21,794,748,0
44941,296.02,794,748,0
44951,300.00,794,748,0
44961,305.48,794,748,0
44972,315.84,794,749,0
44982,332.69,794,747,0
45001,361.20,783,746,0
45004,399.92,783,748,0
45014,446.10,783,750,0
45023,496.17,783,747,0
45033,547.68,783,749,0
45043,596.80,783,748,0
45053,640.49,783,750,0
45063,673.73,783,747,0
45073,697.00,783,749,0
45083,713.28,783,748,0
45093,724.77,783,750,0
45103,732.77,783,747,0
45113,738.37,783,749,0
45123,742.24,783,748,0
45133,745.00,783,750,0
45143,746.88,783,747,0
45153,748.20,783,749,0
45163,749.09,783,748,0
45173,749.70,783,749,0
45184,750.09,783,747,0
45193,750.36,783,749,0
45203,750.51,783,747,0
45213,750.66,783,749,0
45223,749.99,783,747,0
45233,744.38,783,749,0
45243,729.48,783,747,0
45253,704.31,783,749,0
45263,667.79,783,747,0
45273,621.35,783,749,0
45283,565.32,783,747,0
45293,502.69,783,749,0
45303,438.67,783,747,0
45313,380.01,783,749,0
45323,328.58,783,747,0
45333,287.52,783,749,0
45343,255.86,783,747,0
45353,234.69,783,749,0
45363,221.67,783,747,0
45373,216.80,783,749,0
45383,217.03,783,747,0
45393,222.12,783,749,0
45403,229.11,783,747,0
45413,237.99,783,749,0
45423,246.31,783,747,0
45433,254.57,783,749,0
45443,260.79,783,747,0
45453,266.21,783,749,0
45463,269.32,783,747,0
45473,271.41,783,749,0
45484,271.24,783,747,0
45494,270.53,783,750,0
45504,268.27,783,747,0
45514,266.13,783,749,0
45524,263.05,783,747,0
45534,260.68,783,750,0
45544,257.99,783,747,0
45554,256.45,783,749,0
45564,254.99,783,747,0
45574,254.86,783,749,0
45584,254.82,783,747,0
45594,255.94,783,749,0
45604,257.03,783,747,0
45614,259.21,783,749,0
45624,261.25,783,747,0
45634,264.13,783,749,0
45644,266.62,783,747,0
45655,269.78,783,750,0
45665,272.54,783,747,0
45675,275.77,783,749,0
45685,278.58,783,747,0
45696,281.83,783,750,0
45705,284.54,783,747,0
45715,287.59,783,749,0
45725,290.16,783,747,0
45735,292.94,783,750,0
45745,295.49,783,747,0
45755,299.37,783,749,0
45765,305.77,783,747,0
45785,317.93,783,746,0
45788,339.63,783,748,0
45797,373.90,783,749,0
45807,416.87,783,747,0
45817,465.90,783,749,0
45827,517.79,783,747,0
45837,569.71,783,749,0
45847,617.88,783,747,0
45857,657.56,783,749,0
45868,685.59,783,747,0
45878,705.21,783,749,0
45888,718.95,783,748,0
45898,728.56,783,749,0
45908,735.30,783,748,0
45918,739.96,783,749,0
45928,743.23,783,747,0
45938,745.52,783,749,0
45948,747.12,783,748,0
45958,748.20,783,749,0
45968,748.95,783,747,0
45978,749.48,783,749,0
45988,749.89,783,748,0
45998,745.30,783,749,0
46008,732.31,783,747,0
46018,708.69,783,749,0
46028,674.32,783,748,0
46039,629.10,783,748,0
46049,574.38,783,748,0
46059,511.23,783,748,0
46069,446.83,783,748,0
46080,385.89,783,748,0
46089,333.00,783,748,0
46099,289.41,783,748,0
46109,257.15,783,748,0
46119,235.25,783,748,0
46129,223.86,783,748,0
46139,220.64,783,748,0
46149,224.99,783,748,0
46159,233.95,783,748,0
46169,246.74,783,748,0
46179,260.53,783,748,0
46189,275.07,783,748,0
46199,288.08,783,748,0
46209,299.80,783,748,0
46219,308.64,783,748,0
46229,315.35,783,748,0
46239,318.85,783,748,0
46249,320.35,783,748,0
46259,319.13,783,748,0
46269,316.69,783,748,0
46279,312.33,783,748,0
46289,307.60,783,748,0
46299,301.98,783,748,0
46309,296.84,783,748,0
46319,291.45,783,748,0
46329,287.03,783,748,0
46339,282.86,783,748,0
46349,280.12,783,748,0
46359,277.72,783,748,0
46369,276.91,783,748,0
46380,276.59,783,748,0
46390,278.13,783,748,0
46400,279.93,783,748,0
46410,283.17,783,748,0
46420,286.37,783,748,0
46430,290.76,783,748,0
46440,294.82,783,748,0
46450,299.67,783,748,0
46460,303.71,783,748,0
46470,308.43,783,748,0
46480,312.24,783,748,0
46490,316.50,783,748,0
46500,319.82,783,748,0
46510,324.03,783,748,0
46520,329.29,783,748,0
46530,338.68,783,748,0
46540,353.60,783,748,0
46551,378.62,783,748,0
46570,413.75,786,747,0
46573,456.34,786,749,0
46582,503.04,786,747,0
46593,551.45,786,749,0
46603,598.03,786,747,0
46613,640.07,786,749,0
46623,673.13,786,747,0
46633,696.32,786,749,0
46643,712.55,786,747,0
46653,723.96,786,749,0
46663,731.90,786,747,0
46673,737.50,786,750,0
46683,741.38,786,747,0
46693,744.14,786,749,0
46703,746.02,786,747,0
46713,747.39,786,749,0
46723,748.30,786,747,0
46733,748.98,786,749,0
46743,749.46,786,747,0
46753,746.36,786,749,0
46764,734.77,786,747,0
46774,712.81,786,749,0
46784,679.35,786,747,0
46794,635.19,786,749,0
46804,580.79,786,747,0
46814,518.32,786,749,0
46824,452.48,786,747,0
46834,390.54,786,749,0
46844,335.95,786,747,0
46854,291.86,786,749,0
46864,258.56,786,747,0
46874,237.09,786,749,0
46884,225.71,786,747,0
46894,224.00,786,749,0
46904,229.31,786,747,0
46914,240.53,786,749,0
46924,254.94,786,747,0
46935,271.46,786,749,0
46945,287.74,786,747,0
46955,302.99,786,749,0
46965,315.72,786,747,0
46976,325.92,786,749,0
46985,332.63,786,747,0
46995,336.43,786,749,0
47005,336.90,786,747,0
47015,334.83,786,749,0
47025,330.42,786,747,0
47035,324.64,786,749,0
47045,317.68,786,747,0
47055,310.32,786,749,0
47065,302.76,786,747,0
47075,295.93,786,749,0
47085,289.87,786,747,0
47095,285.07,786,749,0
47105,281.23,786,747,0
47115,278.98,786,750,0
47125,277.87,786,747,0
47135,278.08,786,749,0
47145,279.08,786,747,0
47155,281.20,786,750,0
47165,283.84,786,747,0
47175,287.27,786,749,0
47185,290.92,786,747,0
47195,295.19,786,750,0
47205,299.42,786,747,0
47215,303.88,786,749,0
47225,307.99,786,747,0
47235,312.10,786,749,0
47245,315.84,786,747,0
47255,320.22,786,749,0
47265,326.71,786,747,0
47276,338.28,786,749,0
47286,357.96,786,747,0
47296,389.34,786,749,0
47306,429.31,786,747,0
47326,475.29,755,746,0
47329,524.49,755,748,0
47338,573.84,755,748,0
47348,619.83,755,748,0
47358,658.63,755,748,0
47368,686.38,755,748,0
47378,705.77,755,748,0
47388,719.34,755,748,0
47398,728.79,755,749,0
47408,735.41,755,748,0
47418,740.05,755,749,0
47428,743.29,755,748,0
47438,745.56,755,749,0
47448,747.19,755,748,0
47458,748.33,755,749,0
47468,749.13,755,748,0
47478,749.69,755,749,0
47489,750.09,755,748,0
47499,750.36,755,748,0
47509,750.55,755,748,0
47519,750.69,755,748,0
47529,746.92,755,748,0
47539,735.37,755,748,0
47549,714.35,755,748,0
47559,682.70,755,748,0
47569,641.30,755,748,0
47579,590.68,755,748,0
47589,532.71,755,748,0
47599,472.15,755,748,0
47609,415.28,755,748,0
47619,364.71,755,748,0
47629,323.65,755,748,0
47639,291.66,755,748,0
47649,269.73,755,748,0
47660,255.97,755,748,0
47670,250.49,755,748,0
47680,250.30,755,748,0
47690,255.14,755,749,0
47700,261.91,755,747,0
47710,270.81,755,748,0
47720,279.18,755,748,0
47730,287.36,755,749,0
47740,293.33,755,747,0
47750,298.29,755,748,0
47760,300.65,755,748,0
47770,301.95,755,749,0
47780,300.81,755,747,0
47790,299.07,755,748,0
47800,295.75,755,748,0
47810,292.65,755,749,0
47820,288.60,755,747,0
47831,285.29,755,749,0
47841,281.60,755,747,0
47851,279.15,755,749,0
47861,276.66,755,747,0
47872,275.65,755,749,0
47881,274.68,755,747,0
47891,275.29,755,749,0
47901,275.98,755,747,0
47911,278.13,755,749,0
47921,280.15,755,747,0
47931,283.40,755,749,0
47941,286.37,755,747,0
47951,290.33,755,748,0
47961,293.70,755,747,0
47971,297.82,755,749,0
47981,301.22,755,747,0
47991,305.57,755,748,0
48001,310.11,755,747,0
48011,318.13,755,749,0
48021,330.52,755,747,0
48031,351.97,755,748,0
48051,384.63,725,748,0
48054,426.23,725,750,0
48063,473.13,725,747,0
48073,523.36,725,749,0
48083,573.01,725,747,0
48093,619.55,725,749,0
48103,658.34,725,747,0
48113,686.14,725,749,0
48123,705.60,725,747,0
48133,719.22,725,749,0
48143,728.75,725,747,0
48153,735.43,725,749,0
48163,740.10,725,747,0
48173,743.41,725,750,0
48183,745.73,725,747,0
48193,747.35,725,749,0
48203,748.49,725,747,0
48214,749.29,725,749,0
48223,749.84,725,747,0
48233,750.23,725,749,0
48243,750.46,725,747,0
48253,750.62,725,749,0
48263,750.74,725,747,0
48273,746.49,725,749,0
48283,733.74,725,747,0
48293,710.98,725,749,0
48303,677.73,725,747,0
48313,634.74,725,749,0
48323,582.70,725,746,0
48333,523.52,725,749,0
48343,462.72,725,747,0
48353,406.62,725,749,0
48363,357.83,725,747,0
48373,318.63,725,749,0
48384,288.95,725,747,0
48393,269.34,725,749,0
48403,257.88,725,747,0
48413,254.02,725,749,0
48423,255.25,725,747,0
48433,260.71,725,749,0
48443,267.95,725,746,0
48453,276.45,725,749,0
48463,284.24,725,747,0
48473,291.46,725,749,0
48483,296.59,725,746,0
48493,300.27,725,749,0
48503,301.65,725,747,0
48513,301.67,725,749,0
48523,299.75,725,746,0
48533,297.04,725,749,0
48543,293.09,725,747,0
48553,289.16,725,749,0
48563,284.74,725,746,0
48573,281.05,725,749,0
48583,277.48,725,747,0
48593,274.93,725,749,0
48603,272.77,725,746,0
48613,271.81,725,749,0
48623,271.44,725,747,0
48633,272.29,725,749,0
48643,273.49,725,746,0
48653,275.79,725,749,0
48663,278.25,725,747,0
48673,281.56,725,749,0
48684,284.86,725,746,0
48694,288.50,725,749,0
48704,291.87,725,747,0
48714,295.34,725,749,0
48724,298.32,725,746,0
48734,301.44,725,749,0
48744,304.22,725,747,0
48754,307.88,725,749,0
48764,313.79,725,746,0
48774,324.27,725,750,0
48784,341.93,725,747,0
48803,370.49,753,746,0
48806,409.13,753,748,0
48815,454.69,753,749,0
48825,504.11,753,747,0
48835,554.35,753,749,0
48845,602.20,753,747,0
48855,644.23,753,749,0
48865,676.30,753,747,0
48875,698.71,753,749,0
48885,714.40,753,747,0
48896,725.38,753,749,0
48905,733.11,753,747,0
48915,738.52,753,749,0
48925,742.31,753,747,0
48935,744.96,753,749,0
48945,746.81,753,747,0
48955,748.11,753,749,0
48965,749.02,753,747,0
48975,749.61,753,749,0
48985,750.03,753,747,0
48995,750.32,753,749,0
49005,747.48,753,747,0
49015,737.31,753,749,0
49025,717.93,753,747,0
49035,688.38,753,749,0
49045,648.79,753,747,0
49055,600.00,753,749,0
49065,543.60,753,747,0
49075,484.28,753,749,0
49085,428.09,753,747,0
49095,378.61,753,749,0
49105,338.27,753,747,0
49115,307.97,753,749,0
49125,287.92,753,747,0
49135,277.02,753,749,0
49145,274.06,753,747,0
49155,277.12,753,749,0
49165,284.50,753,748,0
49175,294.34,753,749,0
49185,305.16,753,747,0
49196,315.36,753,749,0
49206,324.21,753,748,0
49216,330.36,753,749,0
49226,333.89,753,748,0
49236,334.27,753,749,0
49246,332.13,753,748,0
49256,327.42,753,749,0
49266,321.17,753,748,0
49276,313.19,753,749,0
49286,304.95,753,747,0
49296,296.35,753,749,0
49306,288.57,753,748,0
49316,281.11,753,748,0
49326,275.17,753,748,0
49336,270.06,753,748,0
49346,266.70,753,748,0
49356,264.43,753,749,0
49367,263.79,753,748,0
49377,263.89,753,748,0
49387,265.60,753,748,0
49397,267.65,753,749,0
49408,270.88,753,748,0
49417,274.22,753,748,0
49427,278.31,753,748,0
49437,282.07,753,748,0
49447,286.29,753,748,0
49457,290.02,753,748,0
49467,294.43,753,748,0
49477,299.36,753,749,0
49487,307.61,753,748,0
49497,320.02,753,748,0
49507,340.76,753,748,0
49517,372.08,753,748,0
49527,413.02,753,748,0
49537,459.99,753,748,0
49556,510.48,753,748,0
49559,560.73,753,749,0
49568,608.39,753,749,0
49579,649.16,753,748,0
49588,679.84,753,748,0
49598,701.31,753,748,0
49608,716.39,753,749,0
49618,726.90,753,748,0
49628,734.30,753,748,0
49638,739.44,753,748,0
49648,743.08,753,749,0
49658,745.58,753,748,0
49668,747.38,753,748,0
49678,748.60,753,748,0
49688,749.49,753,749,0
49698,750.07,753,748,0
49708,750.52,753,748,0
49718,748.56,753,748,0
49728,740.12,753,749,0
49738,721.32,753,748,0
49748,691.82,753,749,0
49758,651.16,753,748,0
49768,600.58,753,748,0
49778,540.71,753,748,0
49788,476.25,753,748,0
49798,412.66,753,748,0
49808,356.32,753,748,0
49818,308.70,753,748,0
49828,272.40,753,749,0
49838,246.74,753,748,0
49848,232.50,753,748,0
49858,227.17,753,748,0
49868,230.33,753,748,0
49879,238.72,753,748,0
49889,251.62,753,749,0
49899,265.75,753,748,0
49909,280.82,753,749,0
49920,294.12,753,747,0
49929,306.00,753,749,0
49939,314.36,753,748,0
49949,320.29,753,749,0
49959,322.48,753,747,0
49969,322.63,753,749,0
49979,319.79,753,748,0
49989,315.95,753,749,0
49999,310.14,753,747,0
50009,304.48,753,749,0
50019,297.99,753,748,0
50029,292.55,753,749,0
50039,287.03,753,747,0
50049,283.08,753,749,0
50059,279.58,753,748,0
50069,277.99,753,749,0
50079,276.84,753,747,0
50089,277.57,753,749,0
50099,278.60,753,748,0
50109,281.21,753,749,0
50119,283.80,753,747,0
50129,287.42,753,749,0
50139,290.59,753,748,0
50149,294.53,753,749,0
50159,297.58,753,747,0
50169,301.14,753,749,0
50179,303.63,753,748,0
50189,306.57,753,749,0
50199,308.88,753,747,0
50209,312.99,753,749,0
50220,319.38,753,748,0
50230,332.16,753,749,0
50240,353.59,753,747,0
50250,387.65,753,750,0
50270,429.76,713,748,0
50273,477.70,713,750,0
50282,527.98,713,747,0
50292,578.21,713,750,0
50302,624.22,713,747,0
50312,662.43,713,749,0
50322,689.13,713,747,0
50332,707.86,713,750,0
50342,721.02,713,747,0
50352,730.27,713,749,0
50362,736.70,713,747,0
50372,741.21,713,750,0
50382,744.36,713,747,0
50392,746.61,713,749,0
50402,748.14,713,747,0
50412,749.21,713,750,0
50422,749.96,713,747,0
50433,750.53,713,749,0
50443,750.93,713,747,0
50453,751.21,713,750,0
50463,751.36,713,747,0
50473,751.47,713,749,0
50483,751.54,713,747,0
50493,751.59,713,750,0
50503,747.81,713,747,0
50513,736.38,713,749,0
50523,715.27,713,747,0
50533,684.07,713,750,0
50543,642.91,713,747,0
50553,592.79,713,749,0
50563,535.00,713,747,0
50573,475.08,713,750,0
50583,418.10,713,747,0
50593,367.59,713,749,0
50604,325.24,713,747,0
50614,291.91,713,749,0
50624,267.42,713,748,0
50634,250.92,713,749,0
50644,241.26,713,747,0
50654,237.20,713,749,0
50664,237.22,713,748,0
50674,239.90,713,749,0
50684,244.26,713,747,0
50694,249.24,713,749,0
50704,254.31,713,748,0
50714,258.63,713,749,0
50724,262.21,713,747,0
50734,264.98,713,749,0
50744,267.08,713,748,0
50754,268.26,713,749,0
50764,268.87,713,747,0
50775,268.86,713,749,0
50785,268.65,713,748,0
50795,267.94,713,749,0
50805,267.31,713,748,0
50816,266.49,713,749,0
50825,266.30,713,748,0
50835,266.13,713,749,0
50845,266.73,713,748,0
50855,267.58,713,749,0
50865,269.25,713,748,0
50875,270.98,713,749,0
50885,273.51,713,748,0
50895,275.93,713,749,0
50905,279.25,713,748,0
50915,282.22,713,749,0
50925,285.50,713,748,0
50935,288.39,713,749,0
50945,291.40,713,748,0
50955,294.32,713,749,0
50965,298.86,713,748,0
50975,305.97,713,749,0
50985,319.31,713,748,0
50995,341.12,713,749,0
51014,375.54,745,748,0
51017,418.83,745,749,0
51026,468.00,745,749,0
51036,519.73,745,749,0
51046,571.15,745,748,0
51056,618.33,745,749,0
51066,658.09,745,749,0
51076,686.22,745,749,0
51086,705.91,745,748,0
51096,719.70,745,749,0
51106,729.39,745,749,0
51116,736.17,745,749,0
51126,740.92,745,748,0
51136,744.24,745,749,0
51146,746.57,745,749,0
51156,748.16,745,749,0
51166,749.27,745,748,0
51176,750.00,745,749,0
51186,750.51,745,748,0
51196,750.83,745,749,0
51206,751.05,745,748,0
51216,746.97,745,749,0
51226,735.19,745,748,0
51236,712.50,745,748,0
51246,679.22,745,748,0
51256,634.80,745,749,0
51266,580.77,745,749,0
51276,517.97,745,749,0
51287,453.05,745,748,0
51297,390.64,745,748,0
51307,336.49,745,749,0
51317,291.17,745,748,0
51328,257.35,745,748,0
51337,233.84,745,749,0
51347,221.20,745,749,0
51357,216.81,745,748,0
51367,220.21,745,748,0
51377,228.25,745,749,0
51387,240.13,745,749,0
51397,252.69,745,748,0
51407,265.98,745,748,0
51417,277.43,745,748,0
51427,287.46,745,749,0
51437,294.31,745,748,0
51447,298.89,745,748,0
51457,300.38,745,749,0
51467,300.31,745,749,0
51477,297.52,745,748,0
51487,293.85,745,749,0
51497,288.49,745,748,0
51507,283.46,745,749,0
51517,277.71,745,748,0
51527,272.99,745,749,0
51537,268.28,745,748,0
51547,265.24,745,749,0
51557,262.81,745,749,0
51567,262.18,745,749,0
51577,261.83,745,748,0
51587,263.21,745,749,0
51597,264.86,745,748,0
51607,268.07,745,749,0
51617,271.14,745,748,0
51628,275.21,745,749,0
51638,278.88,745,748,0
51648,283.33,745,749,0
51658,287.13,745,748,0
51668,291.38,745,750,0
51678,294.48,745,748,0
51688,297.98,745,749,0
51698,300.26,745,748,0
51708,303.26,745,750,0
51718,306.49,745,748,0
51728,313.15,745,749,0
51738,324.46,745,747,0
51748,345.20,745,749,0
51758,376.59,745,748,0
51777,417.82,763,747,0
51780,464.84,763,747,0
51789,515.59,763,750,0
51799,566.03,763,748,0
51809,613.42,763,750,0
51819,653.06,763,748,0
51829,682.57,763,750,0
51840,703.23,763,748,0
51849,717.73,763,750,0
51859,727.84,763,748,0
51869,734.96,763,750,0
51879,739.90,763,748,0
51889,743.40,763,750,0
51899,745.81,763,747,0
51909,747.54,763,750,0
51919,748.71,763,748,0
51929,749.57,763,750,0
51939,750.12,763,747,0
51949,750.56,763,750,0
51959,747.22,763,748,0
51969,737.38,763,750,0
51979,717.81,763,747,0
51989,688.47,763,750,0
51999,648.68,763,748,0
52009,600.01,763,749,0
52019,543.31,763,747,0
52029,484.41,763,750,0
52039,427.29,763,748,0
52049,377.53,763,750,0
52059,336.01,763,747,0
52069,305.32,763,749,0
52079,284.23,763,748,0
52089,273.06,763,749,0
52099,269.23,763,747,0
52109,272.54,763,750,0
52119,279.75,763,748,0
52129,290.50,763,750,0
52140,301.75,763,747,0
52150,313.35,763,750,0
52160,322.93,763,747,0
52170,331.01,763,750,0
52180,335.64,763,747,0
52190,337.97,763,750,0
52200,336.82,763,747,0
52210,333.53,763,750,0
52220,327.59,763,747,0
52230,320.68,763,750,0
52240,312.34,763,747,0
52250,304.18,763,750,0
52260,295.60,763,747,0
52270,288.13,763,750,0
52280,281.15,763,747,0
52290,275.83,763,750,0
52300,271.47,763,747,0
52311,268.97,763,750,0
52321,267.48,763,747,0
52331,267.85,763,750,0
52341,269.10,763,747,0
52352,271.98,763,750,0
52361,275.29,763,748,0
52371,279.53,763,750,0
52381,283.83,763,747,0
52391,288.68,763,750,0
52401,292.98,763,748,0
52411,297.23,763,750,0
52421,300.76,763,747,0
52431,304.82,763,750,0
52441,309.93,763,747,0
52451,318.74,763,750,0
52461,333.39,763,747,0
52471,358.34,763,750,0
52481,394.45,763,748,0
52491,438.55,763,750,0
52510,487.33,733,749,0
52512,538.23,733,750,0
52523,587.75,733,748,0
52532,632.61,733,750,0
52542,668.30,733,747,0
52552,693.32,733,749,0
52562,710.84,733,748,0
52572,723.14,733,750,0
52582,731.72,733,747,0
52592,737.72,733,750,0
52602,741.91,733,748,0
52612,744.90,733,750,0
52622,746.99,733,747,0
52632,748.45,733,750,0
52642,749.47,733,748,0
52652,750.23,733,750,0
52662,750.76,733,747,0
52672,751.09,733,750,0
52682,751.32,733,748,0
52692,747.54,733,750,0
52702,736.28,733,747,0
52712,715.02,733,750,0
52722,683.04,733,748,0
52732,640.56,733,749,0
52742,588.75,733,747,0
52752,529.00,733,749,0
52762,466.85,733,748,0
52772,407.63,733,749,0
52782,355.41,733,747,0
52792,312.64,733,749,0
52802,280.22,733,747,0
52812,258.08,733,750,0
52823,245.29,733,748,0
52833,240.53,733,749,0
52843,242.21,733,748,0
52853,248.45,733,749,0
52864,257.53,733,748,0
52873,267.78,733,749,0
52883,277.92,733,747,0
52893,286.86,733,749,0
52903,294.14,733,748,0
52913,299.12,733,749,0
52923,302.08,733,748,0
52933,302.70,733,750,0
52943,301.72,733,748,0
52953,299.15,733,749,0
52963,295.76,733,748,0
52973,291.67,733,749,0
52983,287.70,733,748,0
52993,283.80,733,749,0
53003,280.65,733,748,0
53013,277.97,733,750,0
53023,276.44,733,748,0
53033,275.66,733,749,0
53043,276.02,733,747,0
53053,277.09,733,750,0
53063,279.20,733,748,0
53073,281.84,733,749,0
53083,285.32,733,747,0
53093,288.95,733,749,0
53103,293.29,733,748,0
53113,297.45,733,748,0
53123,301.86,733,748,0
53133,305.84,733,749,0
53143,309.79,733,748,0
53153,313.15,733,749,0
53164,316.75,733,748,0
53174,320.85,733,749,0
53184,328.14,733,748,0
53194,340.36,733,749,0
53204,362.06,733,748,0
53223,395.39,713,747,0
53226,437.06,713,750,0
53235,483.88,713,748,0
53245,533.50,713,749,0
53255,582.55,713,749,0
53265,628.03,713,749,0
53275,665.09,713,749,0
53285,691.08,713,749,0
53295,709.27,713,749,0
53305,722.05,713,749,0
53315,730.95,713,749,0
53325,737.18,713,749,0
53335,741.54,713,749,0
53345,744.63,713,749,0
53355,746.80,713,749,0
53365,748.32,713,749,0
53376,749.38,713,749,0
53385,750.17,713,749,0
53395,750.72,713,749,0
53405,751.10,713,749,0
53415,751.37,713,749,0
53425,751.56,713,749,0
53435,751.65,713,749,0
53445,751.71,713,749,0
53455,751.76,713,749,0
53465,751.79,713,749,0
53475,747.69,713,749,0
53485,736.26,713,748,0
53495,714.97,713,748,0
53505,684.42,713,748,0
53515,644.35,713,749,0
53525,596.20,713,748,0
53535,540.56,713,749,0
53545,483.65,713,749,0
53555,429.50,713,749,0
53565,382.55,713,748,0
53575,342.65,713,748,0
53585,311.52,713,749,0
53595,287.57,713,749,0
53605,271.33,713,748,0
53615,260.39,713,749,0
53625,254.66,713,749,0
53635,251.63,713,749,0
53645,251.36,713,748,0
53655,251.76,713,748,0
53665,253.42,713,749,0
53676,254.54,713,748,0
53686,255.92,713,748,0
53696,256.20,713,748,0
53706,256.70,713,749,0
53716,256.27,713,748,0
53726,256.28,713,748,0
53736,255.55,713,748,0
53746,255.47,713,749,0
53756,254.82,713,748,0
53766,255.00,713,748,0
53776,254.66,713,748,0
53786,255.19,713,749,0
53796,255.17,713,748,0
53806,256.15,713,748,0
53816,256.66,713,748,0
53826,258.18,713,749,0
53836,259.41,713,748,0
53847,261.73,713,749,0
53857,263.83,713,747,0
53867,267.13,713,750,0
53877,269.97,713,747,0
53888,273.88,713,749,0
53897,277.34,713,747,0
53907,281.48,713,749,0
53917,284.85,713,748,0
53927,289.10,713,749,0
53937,293.78,713,747,0
53947,302.33,713,749,0
53966,316.16,743,748,0
53969,341.48,743,750,0
53978,378.28,743,747,0
53988,423.63,743,750,0
53998,473.84,743,747,0
54008,526.82,743,749,0
54018,578.69,743,747,0
54028,626.44,743,750,0
54038,663.98,743,747,0
54048,690.30,743,749,0
54059,708.72,743,747,0
54068,721.66,743,750,0
54078,730.68,743,747,0
54088,737.03,743,749,0
54098,741.48,743,747,0
54108,744.59,743,750,0
54118,746.77,743,748,0
54128,748.30,743,749,0
54138,749.37,743,747,0
54148,750.16,743,750,0
54158,750.71,743,748,0
54168,751.10,743,750,0
54178,751.37,743,747,0
54188,751.56,743,750,0
54198,751.69,743,748,0
54208,751.78,743,750,0
54218,746.02,743,747,0
54228,731.66,743,750,0
54238,706.86,743,747,0
54248,671.93,743,749,0
54258,626.78,743,747,0
54268,573.27,743,750,0
54278,512.33,743,747,0
54288,452.06,743,750,0
54298,396.20,743,747,0
54308,348.66,743,749,0
54318,309.72,743,747,0
54328,281.04,743,749,0
54338,260.93,743,747,0
54348,249.38,743,750,0
54359,243.74,743,747,0
54369,243.43,743,749,0
54379,245.96,743,747,0
54389,250.86,743,749,0
54400,255.96,743,747,0
54409,261.24,743,750,0
54419,265.20,743,747,0
54429,268.31,743,749,0
54439,269.72,743,747,0
54449,270.14,743,750,0
54459,268.94,743,746,0
54469,267.25,743,750,0
54479,264.34,743,747,0
54489,261.63,743,750,0
54499,258.40,743,746,0
54509,255.58,743,749,0
54519,252.66,743,747,0
54529,250.62,743,750,0
54539,248.81,743,747,0
54549,248.18,743,749,0
54559,247.70,743,747,0
54569,248.34,743,749,0
54579,249.40,743,746,0
54589,251.59,743,749,0
54599,254.16,743,747,0
54609,257.54,743,749,0
54619,261.06,743,746,0
54629,265.33,743,749,0
54639,269.60,743,747,0
54649,274.35,743,749,0
54659,278.49,743,746,0
54669,282.76,743,749,0
54679,286.26,743,747,0
54689,289.65,743,750,0
54700,292.46,743,747,0
54710,295.92,743,750,0
54720,301.26,743,747,0
54730,311.55,743,749,0
54750,329.47,783,748,0
54753,360.49,783,749,0
54762,401.40,783,748,0
54772,449.24,783,749,0
54782,500.94,783,748,0
54792,553.54,783,749,0
54802,603.48,783,748,0
54812,646.92,783,749,0
54822,678.44,783,748,0
54832,700.51,783,749,0
54842,715.96,783,748,0
54852,726.77,783,749,0
54862,734.34,783,748,0
54872,739.64,783,749,0
54882,743.35,783,748,0
54892,745.94,783,749,0
54902,747.76,783,748,0
54913,749.03,783,749,0
54923,749.92,783,748,0
54933,750.55,783,749,0
54943,750.94,783,748,0
54953,751.21,783,749,0
54963,748.32,783,748,0
54973,737.64,783,749,0
54983,716.92,783,748,0
54993,685.10,783,748,0
55003,643.16,783,748,0
55013,591.59,783,748,0
55023,532.36,783,748,0
55033,469.98,783,748,0
55043,411.36,783,748,0
55053,360.08,783,749,0
55063,319.26,783,748,0
55073,288.71,783,748,0
55084,269.42,783,748,0
55094,259.40,783,748,0
55104,257.99,783,748,0
55114,262.32,783,748,0
55124,271.53,783,749,0
55134,282.47,783,748,0
55144,294.46,783,748,0
55154,304.99,783,748,0
55164,314.25,783,749,0
55174,320.39,783,748,0
55184,324.30,783,748,0
55194,324.60,783,748,0
55204,322.87,783,748,0
55214,318.41,783,748,0
55224,312.89,783,748,0
55234,305.68,783,748,0
55244,298.53,783,748,0
55255,291.00,783,748,0
55265,284.40,783,749,0
55275,277.81,783,748,0
55285,272.77,783,749,0
55296,268.17,783,747,0
55305,265.29,783,749,0
55315,262.97,783,748,0
55325,262.21,783,749,0
55335,262.06,783,747,0
55345,263.76,783,749,0
55355,265.76,783,747,0
55365,269.60,783,749,0
55375,273.36,783,748,0
55385,278.14,783,749,0
55395,282.21,783,748,0
55405,286.86,783,749,0
55415,290.50,783,748,0
55425,294.21,783,749,0
55435,296.33,783,748,0
55445,298.98,783,749,0
55455,301.77,783,748,0
55465,308.18,783,750,0
55475,319.06,783,748,0
55485,339.31,783,749,0
55495,371.70,783,748,0
55505,413.88,783,750,0
55524,461.96,775,747,0
55527,513.66,775,750,0
55536,565.02,775,748,0
55546,613.48,775,750,0
55556,654.22,775,747,0
55566,683.56,775,750,0
55576,704.09,775,748,0
55586,718.46,775,750,0
55596,728.48,775,747,0
55606,735.49,775,750,0
55616,740.40,775,748,0
55626,743.84,775,750,0
55636,746.20,775,747,0
55646,747.86,775,750,0
55656,749.01,775,748,0
55666,749.87,775,749,0
55676,750.42,775,747,0
55686,750.81,775,749,0
55696,751.08,775,748,0
55706,751.31,775,750,0
55716,746.63,775,747,0
55726,734.32,775,749,0
55736,711.33,775,747,0
55746,677.81,775,749,0
55756,633.34,775,747,0
55767,579.83,775,749,0
55777,518.04,775,747,0
55787,455.37,775,749,0
55797,395.95,775,747,0
55808,345.18,775,749,0
55817,303.94,775,747,0
55827,274.39,775,749,0
55837,254.86,775,747,0
55847,245.77,775,750,0
55857,244.00,775,747,0
55867,248.75,775,750,0
55877,256.84,775,747,0
55887,267.52,775,749,0
55897,278.03,775,747,0
55907,288.31,775,750,0
55917,296.19,775,747,0
55927,302.30,775,749,0
55937,305.30,775,747,0
55947,306.32,775,750,0
55957,304.47,775,747,0
55967,301.20,775,750,0
55977,295.78,775,747,0
55987,290.06,775,750,0
55997,283.31,775,747,0
56007,277.09,775,750,0
56017,270.72,775,747,0
56027,265.79,775,749,0
56037,261.31,775,747,0
56047,258.56,775,750,0
56057,256.34,775,747,0
56067,256.02,775,750,0
56077,256.36,775,747,0
56087,258.31,775,749,0
56097,260.79,775,747,0
56108,264.49,775,750,0
56118,268.29,775,747,0
56128,272.92,775,749,0
56138,277.31,775,747,0
56148,282.19,775,750,0
56158,286.76,775,747,0
56168,291.46,775,749,0
56178,295.22,775,747,0
56188,298.80,775,750,0
56198,301.39,775,747,0
56208,304.10,775,749,0
56218,307.46,775,747,0
56228,313.96,775,750,0
56238,325.46,775,747,0
56248,347.09,775,749,0
56258,381.09,775,747,0
56278,424.14,753,746,0
56281,472.78,753,747,0
56290,524.40,753,749,0
56300,575.37,753,747,0
56310,622.70,753,749,0
56321,661.45,753,748,0
56331,688.61,753,749,0
56341,707.63,753,748,0
56351,720.94,753,749,0
56361,730.26,753,748,0
56371,736.78,753,749,0
56381,741.35,753,748,0
56391,744.54,753,749,0
56401,746.78,753,748,0
56411,748.35,753,749,0
56421,749.44,753,748,0
56431,750.21,753,749,0
56441,750.75,753,748,0
56451,751.08,753,749,0
56461,751.31,753,748,0
56471,751.48,753,749,0
56481,751.59,753,748,0
56492,746.83,753,748,0
56502,733.85,753,748,0
56512,710.41,753,749,0
56522,676.60,753,748,0
56532,632.24,753,748,0
56542,579.02,753,748,0
56552,517.94,753,749,0
56562,455.82,753,748,0
56572,397.16,753,748,0
56582,346.41,753,748,0
56592,304.46,753,749,0
56602,273.16,753,748,0
56612,251.13,753,748,0
56622,238.32,753,748,0
56632,232.52,753,749,0
56642,233.31,753,748,0
56652,237.80,753,748,0
56663,245.45,753,748,0
56673,253.58,753,748,0
56683,262.28,753,748,0
56693,269.61,753,748,0
56704,276.24,753,748,0
56713,280.54,753,748,0
56723,283.64,753,749,0
56733,284.34,753,748,0
56743,284.28,753,749,0
56753,282.40,753,748,0
56763,280.31,753,748,0
56773,277.04,753,748,0
56783,274.20,753,748,0
56793,270.88,753,748,0
56803,268.60,753,748,0
56813,266.19,753,748,0
56823,265.02,753,748,0
56833,263.90,753,748,0
56843,264.06,753,748,0
56853,264.17,753,748,0
56863,265.53,753,748,0
56873,266.66,753,748,0
56883,268.86,753,748,0
56893,270.70,753,748,0
56903,273.62,753,749,0
56913,276.01,753,748,0
56923,279.09,753,748,0
56933,281.38,753,748,0
56943,284.31,753,748,0
56953,286.36,753,748,0
56963,288.91,753,748,0
56973,290.44,753,748,0
56983,292.88,753,748,0
56993,296.08,753,748,0
57004,303.30,753,749,0
57014,315.98,753,748,0
57033,339.17,756,746,0
57036,374.61,756,747,0
57046,419.08,756,750,0
57055,468.90,756,747,0
57065,521.73,756,749,0
57075,573.67,756,747,0
57085,621.68,756,750,0
57095,660.78,756,747,0
57105,688.14,756,749,0
57115,707.30,756,747,0
57125,720.71,756,750,0
57135,730.10,756,747,0
57145,736.67,756,749,0
57155,741.27,756,747,0
57165,744.53,756,750,0
57175,746.81,756,747,0
57185,748.41,756,749,0
57195,749.53,756,747,0
57205,750.32,756,749,0
57216,750.86,756,747,0
57225,751.25,756,749,0
57235,751.47,756,748,0
57245,751.63,756,750,0
57255,748.18,756,747,0
57265,737.93,756,749,0
57275,717.55,756,747,0
57285,686.96,756,749,0
57295,645.57,756,747,0
57305,595.21,756,749,0
57315,536.39,756,747,0
57325,475.03,756,749,0
57335,415.45,756,747,0
57345,363.46,756,749,0
57355,319.86,756,747,0
57365,287.12,756,749,0
57375,263.64,756,747,0
57385,250.21,756,749,0
57395,243.97,756,747,0
57405,244.71,756,749,0
57415,249.17,756,747,0
57425,256.96,756,749,0
57435,265.33,756,747,0
57445,274.32,756,749,0
57455,281.64,756,747,0
57465,288.00,756,749,0
57475,291.73,756,747,0
57485,294.08,756,749,0
57495,293.80,756,747,0
57505,292.45,756,749,0
57516,289.14,756,747,0
57526,285.41,756,750,0
57536,280.53,756,747,0
57546,275.96,756,749,0
57556,270.87,756,747,0
57566,266.88,756,749,0
57576,262.80,756,747,0
57586,260.08,756,749,0
57596,257.70,756,747,0
57606,256.84,756,750,0
57616,256.42,756,747,0
57626,257.28,756,749,0
57636,258.35,756,747,0
57646,260.78,756,750,0
57656,263.24,756,747,0
57666,266.81,756,749,0
57676,270.43,756,747,0
57687,274.84,756,750,0
57697,279.09,756,747,0
57707,283.82,756,749,0
57717,288.12,756,747,0
57728,292.41,756,750,0
57737,295.84,756,747,0
57747,299.02,756,749,0
57757,301.37,756,747,0
57767,304.22,756,750,0
57777,308.05,756,747,0
57787,315.75,756,750,0
57797,329.88,756,747,0
57807,354.82,756,750,0
57826,391.13,793,748,0
57829,435.58,793,751,0
57838,484.86,793,747,0
57848,536.50,793,749,0
57858,586.71,793,747,0
57868,632.10,793,750,0
57878,667.98,793,747,0
57888,693.14,793,750,0
57899,710.80,793,748,0
57908,723.16,793,750,0
57918,731.81,793,747,0
57928,737.87,793,749,0
57938,742.11,793,748,0
57948,745.08,793,750,0
57958,747.15,793,747,0
57968,748.61,793,750,0
57978,749.62,793,748,0
57988,750.34,793,750,0
57998,750.84,793,747,0
58008,751.19,793,750,0
58018,747.49,793,747,0
58028,736.28,793,750,0
58038,714.73,793,746,0
58048,682.11,793,749,0
58058,638.45,793,747,0
58068,584.74,793,749,0
58078,522.59,793,747,0
58088,457.53,793,749,0
58098,395.01,793,748,0
58108,339.51,793,749,0
58118,293.58,793,747,0
58128,258.35,793,749,0
58138,233.90,793,747,0
58148,219.53,793,749,0
58158,213.97,793,747,0
58168,215.61,793,750,0
58178,222.76,793,747,0
58188,233.41,793,749,0
58199,246.15,793,747,0
58209,259.39,793,749,0
58219,272.00,793,747,0
58229,282.97,793,749,0
58240,291.85,793,747,0
58249,298.28,793,750,0
58259,302.18,793,747,0
58269,303.50,793,749,0
58279,302.88,793,747,0
58289,300.47,793,750,0
58299,297.12,793,747,0
58309,292.67,793,749,0
58319,288.10,793,747,0
58329,283.52,793,749,0
58339,279.68,793,747,0
58349,276.35,793,749,0
58359,274.02,793,747,0
58369,272.42,793,749,0
58379,272.04,793,748,0
58389,272.16,793,749,0
58399,273.27,793,747,0
58409,274.86,793,749,0
58419,277.22,793,747,0
58429,279.76,793,749,0
58439,282.88,793,747,0
58449,286.17,793,749,0
58459,289.89,793,747,0
58469,293.44,793,749,0
58479,297.25,793,748,0
58489,300.69,793,749,0
58499,304.21,793,747,0
58509,307.23,793,749,0
58519,310.03,793,748,0
58529,312.21,793,749,0
58540,314.55,793,748,0
58550,316.87,793,749,0
58560,321.62,793,748,0
58570,330.31,793,749,0
58580,346.71,793,748,0
58599,372.86,773,747,0
58602,409.84,773,750,0
58611,453.82,773,748,0
58621,502.47,773,749,0
58631,552.13,773,749,0
58641,599.96,773,748,0
58651,641.67,773,748,0
58661,674.64,773,749,0
58671,697.68,773,749,0
58681,713.85,773,748,0
58691,725.12,773,748,0
58701,733.06,773,749,0
58711,738.61,773,749,0
58721,742.54,773,748,0
58731,745.25,773,748,0
58741,747.19,773,749,0
58752,748.50,773,748,0
58761,749.47,773,749,0
58771,750.10,773,748,0
58781,748.10,773,749,0
58791,738.43,773,748,0
58801,719.78,773,748,0
58811,690.19,773,748,0
58821,650.32,773,748,0
58831,600.34,773,748,0
58841,542.29,773,748,0
58851,479.59,773,748,0
58861,419.76,773,748,0
58871,365.40,773,748,0
58881,320.67,773,748,0
58891,285.88,773,748,0
58901,262.56,773,748,0
58911,248.89,773,748,0
58921,244.98,773,749,0
58931,247.90,773,748,0
58941,256.97,773,748,0
58951,269.15,773,748,0
58961,283.81,773,748,0
58971,298.09,773,748,0
58981,311.95,773,748,0
58991,323.02,773,748,0
59001,332.06,773,749,0
59011,337.53,773,748,0
59021,340.54,773,748,0
59031,339.99,773,748,0
59041,337.42,773,748,0
59052,332.11,773,747,0
59062,325.99,773,749,0
59072,318.24,773,748,0
59082,310.75,773,749,0
59092,302.81,773,747,0
59102,296.10,773,749,0
59112,289.72,773,748,0
59122,285.22,773,749,0
59132,281.51,773,747,0
59142,279.90,773,749,0
59152,278.90,773,748,0
59162,279.83,773,749,0
59172,281.13,773,747,0
59182,283.96,773,749,0
59192,286.71,773,748,0
59202,290.44,773,749,0
59212,293.78,773,747,0
59223,298.13,773,749,0
59233,301.78,773,747,0
59243,306.13,773,749,0
59253,309.56,773,747,0
59264,313.55,773,749,0
59273,316.56,773,747,0
59283,319.99,773,749,0
59293,322.91,773,747,0
59303,328.21,773,749,0
59313,336.46,773,747,0
59323,351.96,773,749,0
59333,376.66,773,747,0
59343,412.38,773,749,0
59353,455.04,773,747,0
59372,502.51,773,746,0
59374,551.13,773,748,0
59384,598.53,773,749,0
59394,640.50,773,747,0
59404,673.82,773,749,0
59414,697.10,773,747,0
59424,713.44,773,749,0
59435,724.84,773,747,0
59444,732.86,773,749,0
59454,738.43,773,747,0
59464,742.37,773,750,0
59474,745.09,773,747,0
59484,747.03,773,750,0
59494,748.35,773,747,0
59504,749.32,773,749,0
59514,749.95,773,747,0
59524,750.44,773,750,0
59534,746.23,773,747,0
59544,734.08,773,749,0
59554,711.38,773,747,0
59564,678.61,773,749,0
59574,635.31,773,747,0
59584,583.06,773,749,0
59594,522.66,773,747,0
59604,460.92,773,749,0
59614,402.49,773,747,0
59624,352.24,773,749,0
59634,310.77,773,747,0
59644,280.32,773,750,0
59654,259.78,773,747,0
59664,249.56,773,749,0
59674,247.21,773,747,0
59684,252.07,773,749,0
59694,261.05,773,747,0
59704,273.42,773,749,0
59714,286.41,773,747,0
59724,299.66,773,749,0
59735,310.95,773,747,0
59745,320.48,773,749,0
59755,326.89,773,747,0
59765,330.95,773,749,0
59776,331.91,773,747,0
59785,330.91,773,749,0
59795,327.46,773,747,0
59805,322.87,773,749,0
59815,316.86,773,747,0
59825,310.69,773,749,0
59835,304.14,773,747,0
59845,298.23,773,749,0
59855,292.67,773,747,0
59865,288.49,773,749,0
59875,285.08,773,747,0
59885,283.13,773,750,0
59895,281.85,773,747,0
59905,281.98,773,749,0
59915,282.84,773,747,0
59925,284.95,773,749,0
59935,287.36,773,747,0
59945,290.64,773,749,0
59955,294.13,773,747,0
59965,298.42,773,749,0
59975,302.62,773,747,0
59985,307.07,773,749,0
59995,311.12,773,747,0
60005,315.32,773,750,0
60015,318.91,773,747,0
60025,322.37,773,749,0
60035,325.09,773,747,0
60045,328.66,773,750,0
60055,334.21,773,747,0
60065,344.73,773,749,0
60076,363.02,773,747,0
60086,393.49,773,750,0
60096,432.60,773,747,0
60115,477.89,743,746,0
60118,526.31,743,748,0
60127,575.25,743,750,0
60137,620.94,743,747,0
60147,659.75,743,749,0
60157,687.34,743,747,0
60167,706.65,743,750,0
60177,720.21,743,748,0
60187,729.66,743,749,0
60197,736.28,743,747,0
60207,740.91,743,749,0
60217,744.19,743,747,0
60227,746.45,743,749,0
60237,748.03,743,747,0
60247,749.13,743,749,0
60257,749.95,743,747,0
60267,750.52,743,750,0
60277,750.92,743,747,0
60288,751.16,743,749,0
60297,751.37,743,748,0
60307,751.52,743,749,0
60317,751.62,743,747,0
60327,749.46,743,749,0
60337,741.48,743,747,0
60347,724.96,743,749,0
60357,699.05,743,747,0
60367,663.55,743,749,0
60377,619.58,743,747,0
60387,567.98,743,749,0
60397,512.57,743,747,0
60407,458.10,743,749,0
60417,408.83,743,747,0
60427,366.92,743,749,0
60437,333.65,743,747,0
60447,308.51,743,749,0
60457,291.34,743,748,0
60467,280.70,743,749,0
60477,275.64,743,747,0
60487,274.47,743,749,0
60497,276.00,743,748,0
60507,278.91,743,749,0
60517,282.58,743,747,0
60527,285.79,743,749,0
60537,288.51,743,748,0
60547,290.29,743,749,0
60557,291.40,743,747,0
60567,291.45,743,749,0
60577,291.02,743,748,0
60588,289.73,743,749,0
60598,288.57,743,747,0
60608,287.15,743,749,0
60618,286.16,743,748,0
60628,285.00,743,748,0
60638,284.61,743,748,0
60648,284.22,743,749,0
60658,284.58,743,748,0
60668,284.83,743,749,0
60678,285.70,743,748,0
60688,286.39,743,749,0
60698,287.82,743,748,0
60708,288.86,743,749,0
60718,290.31,743,747,0
60728,291.51,743,749,0
60738,293.28,743,748,0
60748,294.70,743,749,0
60759,296.46,743,748,0
60769,297.65,743,748,0
60779,299.38,743,748,0
60789,300.64,743,748,0
60800,302.55,743,748,0
60809,304.91,743,748,0
60819,310.51,743,748,0
60829,321.03,743,748,0
60849,341.03,733,747,0
60852,373.85,733,749,0
60861,416.11,733,749,0
60871,464.16,733,748,0
60881,515.84,733,749,0
60891,567.49,733,748,0
60901,616.07,733,749,0
60911,656.85,733,748,0
60921,685.40,733,749,0
60931,705.38,733,748,0
60941,719.36,733,750,0
60951,729.15,733,748,0
60961,736.01,733,749,0
60972,740.81,733,748,0
60982,744.16,733,750,0
60992,746.51,733,748,0
61002,748.16,733,749,0
61012,749.31,733,747,0
61022,750.12,733,750,0
61032,750.68,733,748,0
61042,751.08,733,749,0
61052,751.35,733,747,0
61062,751.55,733,750,0
61072,751.68,733,748,0
61082,751.78,733,749,0
61092,747.09,733,747,0
61102,735.10,733,750,0
61112,713.04,733,747,0
61122,681.10,733,749,0
61132,639.07,733,747,0
61143,588.61,733,749,0
61153,530.44,733,747,0
61163,471.59,733,750,0
61173,415.57,733,747,0
61184,367.14,733,750,0
61193,326.90,733,747,0
61203,296.59,733,750,0
61213,274.68,733,747,0
61223,261.49,733,750,0
61233,254.27,733,747,0
61243,252.78,733,750,0
61253,254.47,733,747,0
61263,258.92,733,750,0
61273,263.87,733,747,0
61283,269.52,733,750,0
61293,274.17,733,747,0
61303,278.49,733,750,0
61313,281.08,733,747,0
61323,282.99,733,750,0
61333,283.21,733,747,0
61343,282.97,733,750,0
61353,281.52,733,747,0
61363,280.08,733,750,0
61373,277.96,733,747,0
61383,276.47,733,750,0
61393,274.70,733,747,0
61403,273.98,733,750,0
61413,273.08,733,747,0
61423,272.97,733,750,0
61433,272.89,733,747,0
61443,273.87,733,750,0
61453,274.89,733,747,0
61463,276.81,733,750,0
61473,278.54,733,747,0
61484,281.16,733,750,0
61494,283.90,733,747,0
61504,287.19,733,750,0
61514,290.30,733,747,0
61524,293.64,733,750,0
61534,296.45,733,747,0
61544,299.44,733,750,0
61554,301.92,733,747,0
61564,304.60,733,750,0
61574,307.55,733,747,0
61584,312.74,733,750,0
61594,321.99,733,747,0
61614,339.05,765,746,0
61617,368.61,765,749,0
61626,408.24,765,749,0
61636,454.45,765,748,0
61646,504.80,765,750,0
61656,555.99,765,747,0
61666,605.11,765,750,0
61676,648.02,765,748,0
61686,679.21,765,750,0
61697,701.05,765,748,0
61707,716.33,765,749,0
61717,727.03,765,748,0
61727,734.52,765,749,0
61737,739.77,765,748,0
61747,743.44,765,749,0
61757,746.01,765,748,0
61767,747.80,765,749,0
61777,749.06,765,748,0
61787,749.94,765,749,0
61797,750.56,765,748,0
61807,750.99,765,749,0
61817,751.29,765,748,0
61827,751.51,765,749,0
61837,751.65,765,748,0
61847,749.53,765,749,0
61857,741.18,765,748,0
61868,723.30,765,749,0
61878,695.52,765,748,0
61888,657.40,765,749,0
61898,610.48,765,748,0
61908,555.48,765,748,0
61918,496.96,765,748,0
61928,439.85,765,749,0
61938,389.53,765,748,0
61948,347.03,765,748,0
61958,314.41,765,748,0
61968,290.37,765,749,0
61978,275.26,765,748,0
61988,266.40,765,748,0
61998,263.41,765,748,0
62008,263.58,765,749,0
62018,266.71,765,748,0
62028,270.31,765,748,0
62039,274.46,765,749,0
62049,277.24,765,748,0
62059,279.57,765,749,0
62069,279.95,765,748,0
62080,279.67,765,749,0
62089,277.71,765,748,0
62099,275.61,765,749,0
62109,272.38,765,748,0
62119,269.74,765,749,0
62129,266.56,765,748,0
62139,264.51,765,748,0
62149,262.38,765,748,0
62159,261.58,765,749,0
62169,260.81,765,748,0
62179,261.47,765,749,0
62189,262.10,765,748,0
62199,263.91,765,749,0
62209,265.57,765,748,0
62219,268.31,765,749,0
62229,270.66,765,748,0
62239,273.85,765,749,0
62249,276.42,765,748,0
62259,279.68,765,749,0
62269,282.26,765,748,0
62279,285.48,765,749,0
62289,287.82,765,748,0
62299,290.66,765,749,0
62309,292.74,765,748,0
62319,295.34,765,749,0
62329,297.17,765,748,0
62339,299.56,765,749,0
62349,301.54,765,748,0
62359,305.57,765,749,0
62369,312.13,765,748,0
62389,325.21,776,746,0
62392,348.16,776,747,0
62401,383.55,776,750,0
62411,426.97,776,747,0
62422,476.14,776,750,0
62431,527.53,776,747,0
62441,578.75,776,750,0
62451,625.58,776,747,0
62461,663.42,776,750,0
62471,689.91,776,747,0
62481,708.49,776,750,0
62491,721.50,776,748,0
62501,730.65,776,750,0
62511,737.06,776,747,0
62521,741.54,776,749,0
62531,744.68,776,747,0
62541,746.87,776,750,0
62551,748.37,776,747,0
62561,749.42,776,750,0
62571,750.11,776,748,0
62581,750.59,776,750,0
62592,750.88,776,747,0
62601,749.93,776,750,0
62611,742.11,776,748,0
62621,724.89,776,749,0
62631,696.51,776,747,0
62641,657.91,776,750,0
62651,609.17,776,747,0
62661,552.20,776,750,0
62671,489.40,776,747,0
62681,429.02,776,749,0
62691,374.76,776,747,0
62701,330.65,776,750,0
62711,296.55,776,747,0
62721,274.06,776,749,0
62731,261.23,776,747,0
62741,257.73,776,750,0
62751,260.43,776,747,0
62761,268.57,776,750,0
62771,278.94,776,747,0
62781,290.96,776,749,0
62791,301.81,776,747,0
62801,311.64,776,749,0
62811,318.82,776,747,0
62821,323.72,776,749,0
62831,325.00,776,747,0
62841,324.02,776,749,0
62851,320.07,776,747,0
62861,314.90,776,749,0
62871,307.78,776,747,0
62881,300.17,776,749,0
62892,291.76,776,747,0
62902,284.25,776,750,0
62912,277.02,776,747,0
62922,271.31,776,749,0
62932,266.25,776,747,0
62942,263.04,776,749,0
62952,260.59,776,747,0
62962,260.03,776,749,0
62972,260.40,776,747,0
62982,262.43,776,749,0
62992,264.96,776,747,0
63002,268.65,776,749,0
63012,272.70,776,747,0
63022,277.76,776,749,0
63032,282.76,776,747,0
63042,288.23,776,749,0
63052,293.35,776,747,0
63063,298.47,776,749,0
63073,302.92,776,747,0
63083,307.14,776,749,0
63093,311.04,776,747,0
63104,316.22,776,749,0
63113,323.99,776,747,0
63123,337.37,776,749,0
63133,359.54,776,747,0
63143,393.67,776,750,0
63153,435.89,776,747,0
63172,483.41,783,745,0
63174,533.26,783,749,0
63184,582.55,783,749,0
63194,627.73,783,747,0
63204,665.01,783,749,0
63214,691.11,783,747,0
63224,709.38,783,749,0
63234,722.16,783,747,0
63244,731.11,783,749,0
63254,737.38,783,747,0
63264,741.77,783,749,0
63275,744.84,783,747,0
63284,746.94,783,749,0
63294,748.42,783,747,0
63304,749.45,783,749,0
63314,750.17,783,747,0
63324,750.63,783,749,0
63334,750.92,783,747,0
63344,747.81,783,749,0
63354,737.28,783,747,0
63364,717.14,783,748,0
63374,686.46,783,747,0
63384,645.30,783,749,0
63394,594.81,783,747,0
63404,536.50,783,749,0
63414,475.19,783,747,0
63424,416.89,783,749,0
63434,365.67,783,747,0
63444,324.02,783,748,0
63454,293.12,783,747,0
63464,272.68,783,749,0
63474,262.11,783,747,0
63484,259.80,783,748,0
63494,264.10,783,747,0
63504,272.86,783,749,0
63514,284.30,783,747,0
63524,296.51,783,749,0
63534,308.36,783,747,0
63544,318.32,783,749,0
63554,326.03,783,747,0
63564,330.69,783,748,0
63575,332.54,783,747,0
63585,331.26,783,748,0
63595,327.76,783,747,0
63605,321.96,783,748,0
63616,315.11,783,747,0
63625,307.36,783,748,0
63635,299.84,783,747,0
63645,292.39,783,748,0
63655,286.10,783,747,0
63665,280.63,783,749,0
63675,276.93,783,747,0
63685,274.12,783,748,0
63695,272.93,783,747,0
63705,272.48,783,748,0
63715,273.41,783,747,0
63725,274.83,783,748,0
63735,277.41,783,747,0
63745,280.07,783,749,0
63755,283.44,783,747,0
63765,286.60,783,748,0
63775,290.32,783,747,0
63785,293.61,783,748,0
63795,297.16,783,747,0
63805,300.02,783,748,0
63815,303.15,783,747,0
63825,305.67,783,748,0
63835,308.43,783,747,0
63845,310.66,783,748,0
63855,313.80,783,747,0
63865,318.19,783,748,0
63875,326.45,783,747,0
63885,340.71,783,748,0
63895,365.66,783,747,0
63905,401.42,783,748,0
63916,444.96,783,748,0
63935,492.93,763,746,0
63937,542.97,763,749,0
63947,591.70,763,747,0
63958,635.76,763,748,0
63967,670.38,763,748,0
63977,694.61,763,748,0
63987,711.53,763,747,0
63997,723.41,763,748,0
64007,731.73,763,748,0
64017,737.55,763,748,0
64027,741.63,763,747,0
64037,744.53,763,748,0
64047,746.55,763,748,0
64057,747.97,763,747,0
64067,748.92,763,747,0
64077,749.59,763,748,0
64087,750.06,763,748,0
64097,750.38,763,747,0
64107,750.57,763,747,0
64117,750.70,763,748,0
64128,750.79,763,747,0
64137,750.85,763,747,0
64147,745.41,763,747,0
64157,731.96,763,748,0
64167,708.23,763,747,0
64177,675.16,763,747,0
64187,632.30,763,747,0
64197,581.42,763,748,0
64207,523.22,763,747,0
64217,465.64,763,747,0
64227,411.84,763,747,0
64237,366.07,763,748,0
64247,327.78,763,747,0
64257,299.00,763,747,0
64267,277.96,763,747,0
64277,265.07,763,748,0
64287,257.38,763,747,0
64297,254.99,763,748,0
64307,255.17,763,747,0
64317,258.03,763,748,0
64327,261.19,763,747,0
64337,265.25,763,748,0
64347,268.30,763,747,0
64357,271.38,763,748,0
64367,272.73,763,747,0
64377,273.97,763,748,0
64387,273.72,763,747,0
64397,273.42,763,748,0
64407,271.79,763,747,0
64417,270.31,763,748,0
64428,267.90,763,746,0
64438,266.35,763,748,0
64448,264.14,763,746,0
64458,262.99,763,748,0
64468,261.75,763,746,0
64478,261.87,763,748,0
64488,262.03,763,746,0
64498,263.57,763,748,0
64508,265.11,763,746,0
64518,267.99,763,748,0
64528,270.69,763,746,0
64538,274.47,763,748,0
64548,277.89,763,746,0
64558,282.21,763,748,0
64568,285.87,763,746,0
64578,290.07,763,748,0
64588,293.26,763,746,0
64599,296.78,763,748,0
64609,299.08,763,746,0
64619,301.41,763,748,0
64629,302.57,763,746,0
64640,304.42,763,748,0
64649,306.78,763,746,0
64668,313.19,733,745,0
64671,326.50,733,747,0
64680,351.08,733,749,0
64690,387.10,733,746,0
64700,431.64,733,749,0
64710,481.16,733,746,0
64720,533.49,733,749,0
64730,584.68,733,746,0
64740,630.42,733,749,0
64750,666.55,733,746,0
64760,691.89,733,749,0
64770,709.62,733,746,0
64780,722.03,733,749,0
64790,730.72,733,746,0
64800,736.81,733,749,0
64811,741.06,733,746,0
64820,744.05,733,749,0
64830,746.13,733,746,0
64840,747.59,733,748,0
64850,748.61,733,746,0
64860,749.33,733,749,0
64870,749.83,733,746,0
64880,750.18,733,749,0
