Time,PPG,IBI,GSR,GSR_Event
221735,456.45,782,750,0
221745,394.00,782,746,0
221755,338.76,782,749,0
221765,292.89,782,747,0
221775,258.46,782,749,0
221785,234.58,782,746,0
221795,221.59,782,749,0
221805,217.77,782,746,0
221815,226.07,782,749,0
221825,240.19,782,746,0
221835,257.79,782,749,0
221845,275.43,782,747,0
221855,292.01,782,749,0
221865,305.25,782,746,0
221875,315.25,782,749,0
221885,320.96,782,747,0
221895,323.07,782,749,0
221905,321.29,782,746,0
221915,317.00,782,749,0
221925,310.10,782,747,0
221935,302.06,782,749,0
221945,292.78,782,746,0
221955,283.81,782,749,0
221965,275.04,782,746,0
221975,267.61,782,749,0
221985,260.91,782,746,0
221996,256.14,782,749,0
222006,252.58,782,746,0
222016,250.82,782,749,0
222026,250.19,782,746,0
222036,251.16,782,749,0
222046,252.87,782,746,0
222056,255.74,782,749,0
222066,258.90,782,746,0
222076,262.70,782,749,0
222086,266.69,782,746,0
222096,270.73,782,749,0
222106,274.32,782,746,0
222116,277.65,782,749,0
222126,280.37,782,746,0
222136,282.75,782,749,0
222146,284.28,782,746,0
222156,285.18,782,749,0
222167,285.43,782,746,0
222177,285.73,782,749,0
222187,287.10,782,746,0
222197,291.48,782,749,0
222208,301.62,782,747,0
222217,320.51,782,749,0
222227,351.51,782,746,0
222237,393.36,782,749,0
222247,442.41,782,747,0
222266,495.39,824,747,0
222269,549.01,824,749,0
222278,599.32,824,749,0
222288,642.94,824,749,0
222298,675.79,824,750,0
222308,698.87,824,748,0
222318,715.06,824,749,0
222328,726.44,824,748,0
222338,734.41,824,750,0
222348,739.99,824,748,0
222358,743.89,824,749,0
222368,746.62,824,749,0
222379,748.54,824,750,0
222388,749.88,824,748,0
222398,746.87,824,749,0
222408,735.98,824,748,0
222418,714.47,824,749,0
222428,682.27,824,748,0
222438,639.03,824,749,0
222448,585.84,824,748,0
222458,523.53,824,750,0
222468,458.27,824,748,0
222478,395.15,824,749,0
222488,339.22,824,748,0
222498,291.97,824,749,0
222508,255.76,824,748,0
222518,230.46,824,749,0
222528,216.74,824,748,0
222538,212.44,824,749,0
222548,216.98,824,748,0
222558,227.53,824,749,0
222568,243.01,824,748,0
222578,260.50,824,749,0
222588,279.08,824,749,0
222598,296.15,824,749,0
222608,311.54,824,749,0
222618,323.37,824,750,0
222628,332.18,824,748,0
222638,336.84,824,749,0
222648,338.43,824,748,0
222658,336.33,824,749,0
222668,332.03,824,749,0
222679,325.04,824,749,0
222689,317.14,824,749,0
222699,307.93,824,749,0
222709,299.16,824,749,0
222720,290.29,824,748,0
222729,282.91,824,749,0
222739,276.25,824,749,0
222749,271.81,824,749,0
222759,268.31,824,749,0
222769,267.14,824,749,0
222779,266.84,824,749,0
222789,268.82,824,749,0
222799,271.36,824,749,0
222809,275.71,824,749,0
222819,280.25,824,749,0
222829,286.09,824,749,0
222839,291.59,824,749,0
222849,297.76,824,749,0
222859,302.89,824,749,0
222869,308.15,824,749,0
222879,311.88,824,749,0
222889,315.56,824,749,0
222899,318.05,824,749,0
222909,321.72,824,749,0
222919,326.99,824,749,0
222929,337.83,824,749,0
222939,355.80,824,749,0
222949,385.82,824,749,0
222959,424.83,824,749,0
222969,470.57,824,749,0
222988,519.34,722,748,0
222991,568.91,722,751,0
223000,615.01,722,749,0
223010,654.99,722,750,0
223020,684.27,722,749,0
223030,704.80,722,750,0
223040,719.13,722,749,0
223050,729.21,722,750,0
223060,736.26,722,748,0
223070,741.24,722,750,0
223080,744.68,722,749,0
223090,747.09,722,750,0
223100,748.78,722,749,0
223110,750.00,722,749,0
223120,750.82,722,749,0
223130,751.39,722,750,0
223140,750.58,722,748,0
223150,744.88,722,749,0
223160,730.17,722,748,0
223170,705.69,722,750,0
223180,670.43,722,748,0
223191,626.03,722,750,0
223201,572.71,722,748,0
223211,514.29,722,750,0
223221,455.32,722,748,0
223232,402.51,722,750,0
223241,357.53,722,748,0
223251,323.64,722,750,0
223261,299.58,722,748,0
223271,286.55,722,750,0
223281,281.45,722,748,0
223291,284.28,722,750,0
223301,291.44,722,748,0
223311,302.40,722,750,0
223321,313.77,722,748,0
223331,325.41,722,750,0
223341,334.72,722,748,0
223351,342.30,722,750,0
223361,346.24,722,748,0
223371,348.05,722,750,0
223381,346.32,722,748,0
223391,342.93,722,750,0
223401,336.86,722,748,0
223411,330.26,722,750,0
223421,322.21,722,748,0
223431,314.60,722,750,0
223441,306.37,722,748,0
223451,299.49,722,750,0
223461,292.70,722,749,0
223471,287.73,722,750,0
223481,283.05,722,749,0
223491,280.38,722,750,0
223501,278.25,722,749,0
223511,278.18,722,750,0
223521,278.60,722,749,0
223532,280.90,722,750,0
223542,283.50,722,748,0
223552,287.47,722,751,0
223562,291.18,722,748,0
223572,295.80,722,750,0
223582,299.50,722,748,0
223592,303.59,722,751,0
223602,306.50,722,748,0
223612,309.87,722,750,0
223622,313.55,722,748,0
223632,320.97,722,751,0
223642,334.14,722,748,0
223652,358.82,722,750,0
223662,394.49,722,748,0
223672,438.40,722,751,0
223682,487.14,722,748,0
223702,538.61,713,747,0
223705,588.87,713,748,0
223714,634.55,713,751,0
223724,670.09,713,748,0
223734,694.96,713,750,0
223745,712.37,713,748,0
223755,724.56,713,751,0
223765,733.09,713,748,0
223775,739.06,713,750,0
223785,743.25,713,748,0
223795,746.17,713,751,0
223805,748.22,713,748,0
223815,749.65,713,750,0
223825,750.66,713,748,0
223835,751.36,713,751,0
223845,751.85,713,748,0
223855,752.20,713,750,0
223865,752.44,713,748,0
223875,752.61,713,751,0
223885,752.72,713,748,0
223895,752.81,713,750,0
223905,752.87,713,748,0
223916,752.91,713,750,0
223926,749.76,713,749,0
223936,739.81,713,750,0
223946,721.44,713,749,0
223956,693.96,713,750,0
223966,658.53,713,748,0
223976,615.77,713,750,0
223986,567.15,713,749,0
223996,516.75,713,750,0
224006,469.85,713,749,0
224016,428.71,713,750,0
224026,395.33,713,749,0
224036,368.74,713,750,0
224046,349.15,713,748,0
224056,334.92,713,750,0
224066,325.64,713,749,0
224076,319.19,713,750,0
224087,315.32,713,755,0
224097,312.05,713,755,0
224107,309.89,713,756,0
224117,307.10,713,756,0
224128,304.41,713,764,0
224137,300.56,713,758,0
224147,296.32,713,768,0
224157,291.08,713,762,0
224167,285.91,713,768,0
224177,280.20,713,763,0
224187,275.42,713,768,0
224197,270.80,713,764,0
224207,267.73,713,768,0
224217,265.71,713,762,0
224227,265.54,713,768,0
224237,266.45,713,761,0
224247,268.67,713,768,0
224257,271.08,713,762,0
224267,274.23,713,768,0
224277,276.86,713,763,0
224287,279.60,713,768,0
224297,281.18,713,763,0
224307,282.45,713,768,0
224317,282.62,713,764,0
224327,282.52,713,768,0
224337,281.51,713,764,0
224347,280.71,713,768,0
224357,279.68,713,764,0
224367,280.51,713,768,0
224377,284.17,713,764,0
224387,294.06,713,768,0
224397,313.54,713,765,0
224407,347.84,713,768,0
224417,392.11,713,765,0
224437,443.38,736,764,0
224440,498.17,736,766,0
224449,553.49,736,768,0
224459,605.41,736,766,0
224470,649.56,736,769,0
224479,680.51,736,765,0
224489,702.21,736,768,0
224499,717.45,736,766,0
224509,728.11,736,768,0
224519,735.58,736,765,0
224529,740.81,736,768,0
224539,744.46,736,766,0
224549,747.02,736,768,0
224559,748.82,736,765,0
224569,750.07,736,768,0
224579,750.95,736,766,0
224589,751.57,736,768,0
224599,752.00,736,765,0
224609,752.34,736,768,0
224619,752.58,736,765,0
224629,752.75,736,768,0
224640,752.87,736,766,0
224649,752.95,736,768,0
224659,753.01,736,765,0
224669,753.01,736,768,0
224679,752.96,736,766,0
224689,752.93,736,768,0
224699,751.58,736,766,0
224709,744.81,736,768,0
224719,729.56,736,766,0
224729,705.27,736,768,0
224739,671.37,736,765,0
224749,628.75,736,768,0
224759,577.82,736,766,0
224769,521.52,736,768,0
224779,464.79,736,765,0
224789,412.18,736,768,0
224799,365.16,736,766,0
224809,325.47,736,768,0
224819,292.76,736,765,0
224829,267.59,736,768,0
224839,248.55,736,766,0
224849,235.40,736,768,0
224859,226.50,736,765,0
224869,221.46,736,768,0
224879,218.79,736,766,0
224889,218.26,736,768,0
224899,218.52,736,765,0
224909,219.78,736,768,0
224919,221.05,736,766,0
224929,222.79,736,768,0
224940,224.22,736,766,0
224950,225.96,736,768,0
224960,227.38,736,767,0
224970,229.07,736,768,0
224980,230.46,736,767,0
224990,232.17,736,768,0
225000,233.53,736,767,0
225010,235.04,736,768,0
225020,236.19,736,767,0
225030,237.50,736,768,0
225040,238.55,736,767,0
225050,239.71,736,768,0
225060,240.57,736,767,0
225070,241.69,736,768,0
225080,242.47,736,767,0
225090,243.40,736,768,0
225100,244.01,736,767,0
225111,244.60,736,768,0
225121,244.89,736,768,0
225131,245.10,736,768,0
225141,245.24,736,768,0
225152,246.41,736,767,0
225161,249.76,736,768,0
225171,257.93,736,768,0
225181,273.94,736,767,0
225201,301.68,763,766,0
225204,342.88,763,770,0
225213,393.23,763,767,0
225223,449.26,763,768,0
225233,507.55,763,766,0
225243,564.34,763,768,0
225253,615.50,763,767,0
225263,656.58,763,768,0
225273,685.33,763,766,0
225283,705.50,763,768,0
225293,719.58,763,767,0
225303,729.48,763,768,0
225313,736.36,763,766,0
225324,741.23,763,768,0
225334,744.63,763,766,0
225344,747.06,763,768,0
225354,748.71,763,766,0
225364,749.91,763,769,0
225374,750.75,763,766,0
225384,751.38,763,768,0
225394,751.78,763,766,0
225404,752.06,763,769,0
225414,752.21,763,766,0
225424,747.31,763,768,0
225434,733.46,763,766,0
225444,709.15,763,768,0
225454,674.05,763,766,0
225464,628.65,763,768,0
225474,573.55,763,766,0
225484,510.77,763,768,0
225495,446.68,763,765,0
225505,387.42,763,768,0
225515,335.87,763,765,0
225525,294.34,763,768,0
225536,263.21,763,765,0
225545,243.00,763,768,0
225555,231.77,763,765,0
225565,228.75,763,768,0
225575,231.10,763,765,0
225585,237.54,763,768,0
225595,245.18,763,765,0
225605,253.23,763,768,0
225615,259.59,763,765,0
225625,264.72,763,768,0
225635,266.74,763,765,0
225645,266.43,763,768,0
225655,263.17,763,765,0
225665,258.41,763,768,0
225675,251.68,763,765,0
225685,244.54,763,768,0
225695,236.19,763,765,0
225705,228.63,763,768,0
225715,221.46,763,765,0
225725,215.79,763,768,0
225735,210.97,763,765,0
225745,208.02,763,768,0
225755,206.04,763,765,0
225765,205.82,763,768,0
225775,206.26,763,765,0
225785,208.07,763,768,0
225795,210.15,763,765,0
225805,213.27,763,768,0
225815,216.32,763,765,0
225825,220.08,763,768,0
225836,223.44,763,764,0
225846,227.21,763,768,0
225856,230.28,763,764,0
225866,233.62,763,768,0
225876,236.09,763,764,0
225886,238.59,763,768,0
225896,240.13,763,764,0
225906,241.72,763,768,0
225916,242.57,763,764,0
225926,243.82,763,768,0
225936,244.77,763,765,0
225946,247.11,763,768,0
225956,251.11,763,764,0
225966,258.96,763,768,0
225976,271.83,763,764,0
225986,292.79,763,768,0
225996,323.16,763,764,0
226016,365.02,816,763,0
226019,414.56,816,766,0
226028,468.39,816,768,0
226038,522.92,816,766,0
226049,575.27,816,768,0
226059,621.82,816,767,0
226069,660.06,816,768,0
226079,687.64,816,767,0
226089,706.95,816,768,0
226099,720.46,816,767,0
226109,729.92,816,768,0
226119,736.55,816,767,0
226129,738.23,816,768,0
226139,733.40,816,767,0
226149,720.90,816,768,0
226159,699.88,816,767,0
226169,670.43,816,768,0
226179,632.97,816,767,0
226189,588.15,816,768,0
226199,539.51,816,767,0
226209,490.28,816,768,0
226220,443.01,816,767,0
226230,399.94,816,768,0
226240,362.28,816,767,0
226250,330.83,816,768,0
226260,306.07,816,768,0
226270,288.30,816,768,0
226280,277.20,816,767,0
226290,272.25,816,768,0
226300,272.82,816,768,0
226310,277.93,816,768,0
226320,286.48,816,768,0
226330,297.18,816,768,0
226340,308.91,816,768,0
226350,320.68,816,768,0
226360,331.58,816,767,0
226370,340.96,816,768,0
226380,348.09,816,768,0
226391,352.56,816,767,0
226401,354.49,816,768,0
226411,353.87,816,767,0
226421,351.08,816,768,0
226432,346.39,816,767,0
226441,340.27,816,768,0
226451,333.20,816,767,0
226461,325.90,816,768,0
226471,318.39,816,767,0
226481,311.33,816,768,0
226491,304.46,816,767,0
226501,298.54,816,768,0
226511,293.06,816,766,0
226521,288.76,816,768,0
226531,285.14,816,767,0
226541,282.74,816,768,0
226551,281.06,816,767,0
226561,280.66,816,768,0
226571,280.89,816,767,0
226581,282.08,816,768,0
226591,283.38,816,767,0
226601,285.37,816,768,0
226611,287.32,816,767,0
226621,289.58,816,768,0
226631,291.42,816,767,0
226641,293.26,816,768,0
226651,294.69,816,767,0
226661,296.11,816,768,0
226671,296.89,816,767,0
226681,297.74,816,768,0
226691,298.29,816,767,0
226701,299.62,816,768,0
226711,301.79,816,767,0
226721,306.35,816,768,0
226732,314.05,816,766,0
226742,326.93,816,767,0
226752,345.72,816,766,0
226762,372.08,816,768,0
226772,405.48,816,765,0
226782,445.71,816,768,0
226801,490.24,785,767,0
226804,536.32,785,767,0
226813,580.67,785,765,0
226823,621.14,785,768,0
226833,654.87,785,765,0
226843,679.94,785,768,0
226853,693.97,785,764,0
226863,697.49,785,768,0
226873,690.83,785,765,0
226883,675.32,785,768,0
226893,651.18,785,764,0
226903,620.57,785,768,0
226913,585.04,785,765,0
226923,547.74,785,768,0
226933,509.46,785,764,0
226944,472.81,785,768,0
226953,438.32,785,765,0
226963,407.88,785,768,0
226973,380.92,785,765,0
226983,358.79,785,768,0
226993,340.72,785,765,0
227003,327.73,785,768,0
227013,318.81,785,764,0
227023,314.54,785,768,0
227033,313.56,785,765,0
227043,316.22,785,768,0
227053,321.00,785,765,0
227063,327.99,785,768,0
227073,335.45,785,765,0
227083,343.54,785,768,0
227093,350.54,785,764,0
227103,356.89,785,768,0
227113,361.29,785,764,0
227123,364.33,785,768,0
227133,365.18,785,764,0
227143,364.70,785,768,0
227153,362.13,785,764,0
227163,358.75,785,768,0
227173,353.89,785,765,0
227183,348.87,785,768,0
227193,342.95,785,765,0
227203,337.35,785,768,0
227213,331.50,785,765,0
227223,326.42,785,768,0
227233,321.33,785,765,0
227244,317.33,785,768,0
227254,313.54,785,764,0
227264,311.02,785,768,0
227274,308.83,785,764,0
227284,307.85,785,768,0
227294,307.30,785,764,0
227304,307.94,785,768,0
227314,308.73,785,764,0
227324,310.39,785,768,0
227334,312.08,785,764,0
227344,314.32,785,768,0
227354,316.28,785,764,0
227364,318.64,785,768,0
227374,320.51,785,764,0
227384,322.63,785,768,0
227394,323.90,785,764,0
227404,325.17,785,768,0
227415,325.68,785,764,0
227425,326.16,785,768,0
227435,325.94,785,764,0
227445,325.91,785,768,0
227456,325.51,785,764,0
227465,326.22,785,768,0
227475,327.39,785,764,0
227485,330.79,785,768,0
227495,336.77,785,764,0
227505,346.91,785,768,0
227515,361.72,785,763,0
227525,383.06,785,768,0
227545,410.73,743,767,0
227548,445.87,743,768,0
227557,486.36,743,766,0
227567,529.33,743,768,0
227577,571.96,743,766,0
227587,612.21,743,768,0
227597,647.68,743,765,0
227607,677.30,743,768,0
227617,698.81,743,766,0
227628,711.38,743,768,0
227638,715.77,743,766,0
227648,712.49,743,768,0
227658,702.10,743,767,0
227668,685.06,743,768,0
227678,661.90,743,766,0
227688,634.03,743,768,0
227698,603.51,743,767,0
227708,572.15,743,768,0
227718,541.59,743,766,0
227728,512.87,743,768,0
227738,486.90,743,767,0
227748,464.08,743,768,0
227758,444.77,743,767,0
227768,429.20,743,768,0
227778,417.35,743,767,0
227788,408.93,743,768,0
227799,403.85,743,768,0
227809,401.63,743,768,0
227819,402.17,743,768,0
227829,404.73,743,767,0
227840,408.71,743,768,0
227849,413.60,743,768,0
227859,418.78,743,768,0
227869,423.39,743,767,0
227879,427.26,743,768,0
227889,429.58,743,768,0
227899,430.48,743,768,0
227909,429.56,743,768,0
227919,426.87,743,768,0
227929,422.49,743,768,0
227939,416.94,743,768,0
227949,410.15,743,768,0
227959,402.56,743,768,0
227969,394.46,743,768,0
227979,386.31,743,768,0
227989,378.20,743,767,0
227999,370.56,743,768,0
228009,363.10,743,767,0
228019,356.69,743,768,0
228029,350.95,743,767,0
228039,346.08,743,768,0
228049,341.94,743,767,0
228059,338.87,743,768,0
228069,336.51,743,767,0
228079,335.46,743,768,0
228089,334.64,743,767,0
228099,334.70,743,768,0
228109,335.09,743,767,0
228119,336.14,743,768,0
228129,337.17,743,767,0
228140,338.79,743,768,0
228150,340.27,743,767,0
228160,342.29,743,768,0
228170,344.13,743,767,0
228180,346.19,743,768,0
228190,347.89,743,767,0
228200,349.81,743,768,0
228210,351.11,743,767,0
228220,352.53,743,768,0
228230,353.74,743,767,0
228240,355.88,743,768,0
228250,359.22,743,767,0
228260,365.66,743,768,0
228270,375.79,743,767,0
228280,391.88,743,768,0
228290,414.46,743,767,0
228300,445.01,743,768,0
228311,482.21,743,766,0
228330,523.29,786,765,0
228333,565.03,786,767,0
228342,605.48,786,768,0
228353,641.93,786,765,0
228363,672.90,786,768,0
228373,696.54,786,764,0
228383,713.14,786,768,0
228393,724.75,786,764,0
228403,732.93,786,768,0
228413,738.61,786,764,0
228423,741.64,786,768,0
228433,740.25,786,764,0
228443,734.26,786,768,0
228453,722.31,786,764,0
228463,704.52,786,768,0
228473,680.36,786,764,0
228483,650.64,786,768,0
228493,616.29,786,764,0
228503,580.63,786,768,0
228513,544.44,786,764,0
228524,510.50,786,768,0
228534,479.40,786,764,0
228544,452.93,786,768,0
228554,431.01,786,764,0
228564,414.63,786,768,0
228574,403.00,786,763,0
228584,396.74,786,768,0
228594,394.72,786,764,0
228604,396.69,786,768,0
228614,401.37,786,763,0
228624,408.20,786,768,0
228634,415.60,786,764,0
228644,423.48,786,768,0
228654,430.19,786,764,0
228664,435.83,786,768,0
228674,439.27,786,764,0
228684,440.90,786,768,0
228695,439.95,786,764,0
228705,437.13,786,768,0
228715,431.86,786,765,0
228725,425.31,786,768,0
228736,417.03,786,765,0
228745,408.32,786,768,0
228755,398.58,786,765,0
228765,388.98,786,768,0
228775,379.38,786,765,0
228785,370.65,786,768,0
228795,362.36,786,765,0
228805,355.18,786,768,0
228815,348.53,786,765,0
228825,343.10,786,768,0
228835,338.27,786,764,0
228845,334.37,786,768,0
228855,330.92,786,765,0
228865,328.41,786,768,0
228875,326.23,786,764,0
228885,324.92,786,768,0
228895,323.74,786,765,0
228905,323.18,786,768,0
228915,322.74,786,765,0
228925,322.82,786,768,0
228935,322.79,786,765,0
228945,323.15,786,768,0
228955,323.53,786,764,0
228965,324.96,786,768,0
228975,327.67,786,765,0
228985,333.13,786,768,0
228995,342.13,786,764,0
229005,356.75,786,768,0
229015,378.21,786,765,0
229025,408.02,786,768,0
229036,445.90,786,766,0
229046,489.04,786,768,0
229056,534.16,786,766,0
229066,578.81,786,768,0
229086,620.14,755,767,0
229089,656.05,755,767,0
229098,684.50,755,768,0
229108,704.79,755,768,0
229118,719.00,755,768,0
229128,728.94,755,768,0
229138,734.53,755,768,0
229148,734.46,755,767,0
229158,727.89,755,768,0
229168,714.42,755,767,0
229178,693.94,755,767,0
229188,666.27,755,767,0
229198,632.42,755,767,0
229208,594.02,755,767,0
229218,554.24,755,767,0
229228,514.96,755,767,0
229238,478.20,755,768,0
229249,444.92,755,767,0
229259,416.79,755,768,0
229269,393.37,755,767,0
229279,375.69,755,768,0
229289,363.05,755,766,0
229299,355.96,755,768,0
229309,353.36,755,767,0
229319,355.35,755,768,0
229329,360.26,755,766,0
229339,367.90,755,768,0
229349,376.54,755,767,0
229359,385.94,755,768,0
229369,394.40,755,766,0
229379,401.99,755,768,0
229389,407.44,755,767,0
229399,411.08,755,768,0
229409,411.91,755,766,0
229420,410.70,755,768,0
229430,406.93,755,766,0
229440,401.55,755,768,0
229450,394.10,755,765,0
229460,385.58,755,768,0
229470,375.77,755,766,0
229480,366.06,755,768,0
229490,355.93,755,765,0
229500,346.69,755,768,0
229510,337.96,755,766,0
229520,330.68,755,768,0
229530,324.14,755,765,0
229540,319.25,755,768,0
229550,315.11,755,766,0
229560,312.63,755,768,0
229570,310.43,755,765,0
229580,309.44,755,768,0
229591,308.62,755,765,0
229601,308.95,755,768,0
229611,309.44,755,764,0
229621,310.76,755,768,0
229632,311.86,755,764,0
229641,313.88,755,768,0
229651,315.46,755,764,0
229661,317.42,755,768,0
229671,318.71,755,764,0
229681,320.34,755,768,0
229691,321.74,755,764,0
229701,324.34,755,768,0
229711,328.31,755,764,0
229721,335.76,755,768,0
229731,347.45,755,764,0
229741,366.13,755,768,0
229751,392.23,755,764,0
229761,427.22,755,768,0
229771,468.68,755,765,0
229781,513.65,755,768,0
229791,558.97,755,764,0
229811,602.44,725,763,0
229814,640.96,725,765,0
229823,672.90,725,768,0
229833,696.59,725,764,0
229843,713.17,725,768,0
229853,724.78,725,764,0
229863,732.94,725,768,0
229873,737.80,725,764,0
229883,737.99,725,768,0
229893,731.86,725,764,0
229903,718.88,725,768,0
229913,698.21,725,763,0
229923,670.29,725,768,0
229933,635.49,725,764,0
229943,595.40,725,768,0
229953,552.42,725,764,0
229963,510.00,725,768,0
229974,469.54,725,764,0
229983,433.34,725,768,0
229993,401.69,725,764,0
230003,375.51,725,768,0
230013,354.66,725,764,0
230023,339.85,725,768,0
230033,330.08,725,764,0
230043,325.73,725,768,0
230053,325.51,725,764,0
230063,329.38,725,768,0
230073,335.83,725,764,0
230083,344.62,725,768,0
230093,354.25,725,764,0
230103,364.50,725,768,0
230113,373.82,725,764,0
230123,382.32,725,768,0
230133,388.91,725,764,0
230144,393.95,725,768,0
230153,396.67,725,764,0
230163,397.75,725,768,0
230173,396.63,725,764,0
230183,394.34,725,768,0
230193,390.29,725,764,0
230203,385.45,725,768,0
230213,379.44,725,764,0
230223,373.18,725,768,0
230233,366.27,725,764,0
230243,359.85,725,769,0
230253,353.38,725,764,0
230263,347.91,725,768,0
230273,342.79,725,763,0
230283,338.91,725,768,0
230293,335.68,725,763,0
230303,333.59,725,768,0
230313,331.91,725,764,0
230323,331.04,725,768,0
230333,330.26,725,764,0
230343,330.22,725,768,0
230353,330.24,725,764,0
230363,330.73,725,768,0
230373,331.19,725,764,0
230383,332.76,725,768,0
230393,335.75,725,764,0
230403,341.87,725,768,0
230413,352.15,725,764,0
230423,369.08,725,768,0
230433,394.08,725,764,0
230444,429.37,725,768,0
230454,471.00,725,765,0
230473,516.26,663,764,0
230476,562.12,663,767,0
230486,606.10,663,768,0
230495,645.16,663,766,0
230505,677.08,663,768,0
230515,699.56,663,766,0
230525,715.29,663,768,0
230535,726.30,663,766,0
230545,734.01,663,768,0
230555,739.41,663,766,0
230565,743.19,663,768,0
230575,745.83,663,766,0
230585,747.68,663,768,0
230595,748.98,663,766,0
230605,746.84,663,768,0
230615,739.26,663,766,0
230625,724.61,663,768,0
230635,701.93,663,766,0
230645,671.52,663,768,0
230656,633.65,663,767,0
230665,589.36,663,768,0
230675,542.49,663,766,0
230685,496.44,663,768,0
230695,454.05,663,767,0
230705,417.61,663,768,0
230715,387.90,663,766,0
230725,365.60,663,768,0
230735,350.55,663,767,0
230745,342.37,663,768,0
230755,339.99,663,766,0
230765,342.48,663,768,0
230775,348.55,663,767,0
230785,356.91,663,768,0
230795,366.28,663,766,0
230805,375.45,663,768,0
230815,383.59,663,767,0
230825,390.14,663,768,0
230835,394.43,663,766,0
230845,396.31,663,768,0
230855,395.66,663,767,0
230865,392.81,663,768,0
230875,387.81,663,766,0
230885,381.14,663,768,0
230895,373.08,663,767,0
230905,364.23,663,768,0
230915,354.86,663,766,0
230925,345.64,663,768,0
230935,336.67,663,767,0
230945,328.32,663,768,0
230956,320.81,663,767,0
230966,314.31,663,768,0
230976,309.07,663,768,0
230986,304.85,663,768,0
230996,301.85,663,768,0
231006,299.80,663,768,0
231016,298.79,663,768,0
231026,298.51,663,768,0
231036,298.96,663,768,0
231046,299.65,663,768,0
231056,300.79,663,767,0
231066,301.84,663,768,0
231076,303.51,663,768,0
231086,306.06,663,768,0
231096,310.63,663,767,0
231106,318.58,663,768,0
231116,332.16,663,768,0
231127,353.46,663,768,0
231137,384.78,663,769,0
231147,425.26,663,768,0
231157,471.51,663,768,0
231168,520.34,663,767,0
231177,568.93,663,768,0
231196,614.12,723,767,0
231199,653.04,723,769,0
231208,682.94,723,766,0
231218,703.87,723,768,0
231228,718.53,723,767,0
231238,728.83,723,768,0
231248,735.99,723,766,0
231258,741.01,723,768,0
231268,744.52,723,767,0
231278,746.98,723,768,0
231288,748.66,723,766,0
231298,749.83,723,768,0
231308,750.61,723,767,0
231318,751.20,723,769,0
231328,748.18,723,766,0
231339,739.17,723,768,0
231348,722.58,723,767,0
231358,697.89,723,768,0
231368,664.75,723,766,0
231378,624.15,723,768,0
231388,576.71,723,767,0
231398,527.21,723,768,0
231408,478.93,723,766,0
231418,435.02,723,768,0
231428,396.92,723,767,0
231438,366.47,723,768,0
231448,343.19,723,766,0
231458,327.53,723,768,0
231468,318.24,723,767,0
231478,315.17,723,768,0
231488,316.45,723,766,0
231498,321.50,723,768,0
231508,328.16,723,766,0
231518,336.00,723,768,0
231528,343.24,723,766,0
231538,349.77,723,768,0
231548,354.25,723,766,0
231558,357.13,723,768,0
231568,357.44,723,766,0
231578,356.06,723,768,0
231588,352.49,723,766,0
231598,347.84,723,768,0
231608,341.63,723,766,0
231618,335.10,723,768,0
231628,327.66,723,766,0
231639,320.64,723,768,0
231649,313.34,723,765,0
231659,306.98,723,768,0
231669,300.73,723,765,0
231680,295.84,723,768,0
231689,291.39,723,765,0
231699,288.53,723,768,0
231709,286.23,723,765,0
231719,285.34,723,768,0
231729,284.90,723,765,0
231739,285.57,723,768,0
231749,286.17,723,765,0
231759,287.66,723,768,0
231769,289.26,723,765,0
231779,292.48,723,768,0
231789,297.44,723,765,0
231799,306.52,723,768,0
231809,320.59,723,766,0
231819,343.04,723,768,0
231829,374.96,723,766,0
231839,416.54,723,768,0
231859,463.65,662,767,0
231862,513.64,662,769,0
231871,562.91,662,764,0
231881,609.26,662,768,0
231891,649.00,662,764,0
231901,679.98,662,768,0
231911,701.67,662,764,0
231921,716.90,662,768,0
231931,727.56,662,764,0
231941,735.06,662,768,0
231951,740.27,662,764,0
231961,743.96,662,769,0
231971,746.54,662,764,0
231981,748.40,662,768,0
231991,749.65,662,764,0
232001,750.57,662,768,0
232011,749.20,662,764,0
232022,742.45,662,768,0
232031,728.05,662,764,0
232041,705.06,662,768,0
232051,673.07,662,764,0
232061,632.68,662,768,0
232071,584.30,662,764,0
232081,531.50,662,768,0
232091,478.16,662,764,0
232101,428.44,662,768,0
232111,384.12,662,764,0
232121,347.36,662,768,0
232131,318.37,662,764,0
232141,298.11,662,768,0
232151,284.96,662,764,0
232161,279.10,662,768,0
232171,278.56,662,764,0
232181,282.93,662,768,0
232192,289.98,662,764,0
232201,298.99,662,768,0
232211,307.86,662,764,0
232221,316.69,662,768,0
232231,323.90,662,764,0
232241,329.67,662,768,0
232251,332.77,662,764,0
232261,334.04,662,768,0
232271,332.78,662,764,0
232281,330.11,662,768,0
232291,325.49,662,764,0
232301,320.20,662,768,0
232311,313.71,662,764,0
232321,307.41,662,768,0
232331,300.73,662,764,0
232341,294.90,662,768,0
232351,289.44,662,764,0
232361,285.15,662,768,0
232371,281.12,662,764,0
232381,278.43,662,768,0
232391,276.24,662,764,0
232401,275.27,662,768,0
232411,274.63,662,764,0
232421,274.70,662,768,0
232431,274.88,662,764,0
232441,275.98,662,769,0
232451,276.89,662,764,0
232461,278.55,662,768,0
232471,280.14,662,764,0
232481,283.10,662,768,0
232492,287.53,662,764,0
232502,295.60,662,768,0
232512,308.45,662,764,0
232522,329.18,662,768,0
232532,359.17,662,765,0
232542,399.96,662,768,0
232561,447.12,703,767,0
232564,497.91,703,767,0
232573,548.89,703,766,0
232583,597.31,703,768,0
232593,639.73,703,765,0
232603,673.58,703,768,0
232613,697.32,703,766,0
232623,713.98,703,768,0
232633,725.60,703,765,0
232643,733.74,703,768,0
232653,739.43,703,766,0
232663,743.46,703,768,0
232673,746.23,703,765,0
232683,748.18,703,768,0
232693,749.50,703,766,0
232704,749.39,703,768,0
232713,744.30,703,765,0
232723,731.83,703,768,0
232733,710.24,703,766,0
232743,679.65,703,768,0
232753,640.03,703,765,0
232763,592.32,703,768,0
232773,538.39,703,766,0
232783,483.55,703,768,0
232793,431.35,703,765,0
232803,385.09,703,768,0
232813,345.85,703,766,0
232823,315.08,703,768,0
232833,292.68,703,765,0
232843,278.77,703,768,0
232853,271.94,703,765,0
232863,271.70,703,768,0
232873,276.50,703,766,0
232883,285.09,703,768,0
232893,295.52,703,765,0
232903,306.89,703,768,0
232913,317.73,703,766,0
232923,327.58,703,768,0
232933,335.25,703,765,0
232943,340.79,703,768,0
232953,343.72,703,766,0
232963,344.71,703,768,0
232973,343.34,703,766,0
232983,340.24,703,768,0
232993,335.41,703,766,0
233004,329.63,703,768,0
233014,322.93,703,766,0
233024,316.05,703,768,0
233034,309.13,703,767,0
233044,302.62,703,768,0
233054,296.65,703,766,0
233064,291.57,703,768,0
233074,287.33,703,767,0
233084,284.01,703,768,0
233094,281.61,703,766,0
233104,279.97,703,768,0
233114,279.08,703,767,0
233124,278.80,703,768,0
233134,278.94,703,766,0
233144,279.48,703,768,0
233154,280.15,703,767,0
233164,280.92,703,768,0
233175,281.71,703,767,0
233185,282.70,703,768,0
233195,284.33,703,767,0
233205,287.19,703,768,0
233216,292.62,703,768,0
233225,302.20,703,768,0
233235,317.91,703,767,0
233245,341.90,703,768,0
233255,376.51,703,768,0
233265,419.95,703,768,0
233275,468.78,703,768,0
233294,519.54,733,766,0
233297,569.39,733,768,0
233306,615.35,733,768,0
233316,654.50,733,768,0
233326,683.88,733,767,0
233336,704.49,733,769,0
233346,718.91,733,768,0
233356,729.05,733,768,0
233366,736.15,733,767,0
233376,741.12,733,769,0
233387,744.56,733,767,0
233396,747.00,733,768,0
233406,748.67,733,767,0
233416,746.24,733,768,0
233426,736.44,733,767,0
233436,718.14,733,768,0
233446,690.15,733,767,0
233456,652.86,733,768,0
233466,606.49,733,767,0
233476,552.64,733,768,0
233486,495.66,733,767,0
233496,440.69,733,769,0
233506,390.04,733,767,0
233516,346.87,733,768,0
233526,311.60,733,767,0
233536,285.40,733,768,0
233546,267.41,733,767,0
233556,257.82,733,768,0
233566,255.04,733,767,0
233576,258.46,733,768,0
233586,265.78,733,767,0
233596,276.43,733,768,0
233606,288.47,733,767,0
233616,301.15,733,768,0
233626,312.80,733,767,0
233636,323.23,733,768,0
233646,331.65,733,767,0
233656,337.93,733,768,0
233666,341.29,733,767,0
233676,342.49,733,768,0
233687,341.06,733,766,0
233697,338.00,733,768,0
233707,333.03,733,766,0
233717,327.02,733,768,0
233728,320.03,733,765,0
233737,313.33,733,768,0
233747,306.42,733,766,0
233757,300.46,733,768,0
233767,294.75,733,765,0
233777,290.28,733,768,0
233787,286.30,733,766,0
233797,283.77,733,768,0
233807,281.65,733,765,0
233817,280.77,733,768,0
233827,280.20,733,766,0
233837,280.69,733,768,0
233847,281.26,733,765,0
233857,282.64,733,768,0
233867,283.86,733,766,0
233877,285.83,733,768,0
233887,287.77,733,765,0
233897,291.01,733,768,0
233907,295.55,733,766,0
233917,303.48,733,768,0
233927,315.72,733,765,0
233937,335.05,733,768,0
233947,362.55,733,766,0
233957,400.96,733,768,0
233967,446.10,733,766,0
233987,495.18,692,764,0
233990,544.80,692,765,0
233999,592.43,692,768,0
234009,634.82,692,764,0
234019,669.80,692,768,0
234029,694.50,692,765,0
234039,711.79,692,768,0
234049,723.90,692,765,0
234059,732.37,692,768,0
234070,738.26,692,765,0
234079,742.38,692,768,0
234089,745.27,692,765,0
234099,747.29,692,768,0
234109,748.70,692,765,0
234119,747.29,692,768,0
234129,739.15,692,765,0
234139,722.52,692,768,0
234149,695.88,692,765,0
234159,660.17,692,768,0
234169,615.16,692,765,0
234179,562.44,692,768,0
234189,505.10,692,765,0
234199,449.31,692,768,0
234209,398.00,692,765,0
234219,354.67,692,768,0
234229,319.37,692,765,0
234240,294.10,692,768,0
234249,277.79,692,765,0
234259,271.04,692,768,0
234269,271.80,692,765,0
234279,279.70,692,768,0
234289,292.22,692,765,0
234299,308.70,692,768,0
234309,326.44,692,764,0
234319,344.87,692,768,0
234329,361.66,692,765,0
234339,376.64,692,768,0
234349,387.93,692,764,0
234359,396.14,692,768,0
234369,400.00,692,765,0
234379,400.64,692,768,0
234389,397.49,692,764,0
234399,391.77,692,768,0
234409,383.23,692,764,0
234419,373.47,692,768,0
234429,362.32,692,764,0
234439,351.25,692,768,0
234449,339.90,692,764,0
234459,329.69,692,768,0
234469,320.23,692,764,0
234479,312.49,692,768,0
234489,305.78,692,764,0
234499,300.96,692,768,0
234509,297.25,692,764,0
234519,295.41,692,768,0
234529,294.35,692,764,0
234540,294.67,692,768,0
234550,295.33,692,764,0
234560,297.03,692,768,0
234570,298.73,692,764,0
234580,301.39,692,768,0
234590,304.48,692,764,0
234600,309.87,692,768,0
234610,318.22,692,764,0
234620,332.68,692,768,0
234630,354.76,692,764,0
234640,388.73,692,768,0
234650,430.86,692,764,0
234660,478.39,692,768,0
234670,527.94,692,764,0
234680,577.12,692,768,0
234699,622.30,713,767,0
234702,660.82,713,768,0
234711,688.35,713,764,0
234721,707.66,713,769,0
234731,721.17,713,765,0
234741,730.68,713,768,0
234752,737.29,713,765,0
234761,741.92,713,768,0
234771,745.16,713,765,0
234781,747.47,713,768,0
234791,749.04,713,765,0
234801,750.14,713,768,0
234811,750.87,713,765,0
234821,751.42,713,768,0
234831,751.77,713,765,0
234841,752.01,713,768,0
234851,752.14,713,765,0
234861,752.27,713,768,0
234871,751.16,713,765,0
234881,745.37,713,768,0
234891,731.80,713,765,0
234901,709.62,713,768,0
234911,678.36,713,765,0
234921,639.08,713,768,0
234931,592.64,713,765,0
234941,541.84,713,768,0
234951,491.14,713,765,0
234961,445.29,713,768,0
234971,405.99,713,765,0
234981,374.79,713,768,0
234991,351.07,713,765,0
235001,334.63,713,768,0
235011,323.77,713,765,0
235021,317.93,713,768,0
235031,314.91,713,765,0
235041,314.16,713,768,0
235052,313.94,713,766,0
235062,314.13,713,768,0
235072,313.49,713,766,0
235082,312.32,713,768,0
235092,309.78,713,767,0
235102,306.67,713,768,0
235112,302.36,713,766,0
235122,297.75,713,768,0
235132,292.47,713,767,0
235142,287.40,713,768,0
235152,282.09,713,766,0
235162,277.39,713,768,0
235172,272.90,713,767,0
235182,269.38,713,768,0
235192,266.31,713,766,0
235202,264.24,713,768,0
235212,262.63,713,766,0
235223,262.10,713,768,0
235233,261.98,713,767,0
235243,262.59,713,768,0
235253,263.44,713,767,0
235264,264.81,713,768,0
235273,266.37,713,767,0
235283,268.53,713,768,0
235293,271.45,713,767,0
235303,276.55,713,768,0
235313,285.04,713,766,0
235323,299.47,713,768,0
235333,322.94,713,767,0
235343,359.05,713,768,0
235353,404.33,713,767,0
235372,455.32,673,765,0
235375,508.84,673,768,0
235384,562.03,673,768,0
235394,611.43,673,767,0
235404,653.13,673,768,0
235414,683.01,673,768,0
235424,703.92,673,768,0
235435,718.60,673,768,0
235444,728.83,673,768,0
235454,736.00,673,768,0
235464,741.01,673,768,0
235474,744.57,673,768,0
235484,747.01,673,768,0
235494,748.72,673,768,0
235504,749.92,673,768,0
235514,750.80,673,768,0
235524,751.37,673,768,0
235534,751.78,673,768,0
235544,752.06,673,768,0
235554,748.48,673,768,0
235564,737.80,673,768,0
235574,717.84,673,768,0
235584,687.89,673,768,0
235594,648.49,673,768,0
235604,600.52,673,767,0
235614,545.59,673,768,0
235624,489.06,673,768,0
235634,435.73,673,768,0
235644,389.31,673,767,0
235654,351.97,673,768,0
235664,324.25,673,768,0
235674,306.05,673,768,0
235684,296.01,673,767,0
235694,292.79,673,768,0
235704,294.65,673,768,0
235714,299.99,673,768,0
235724,306.72,673,768,0
235735,313.53,673,768,0
235745,318.94,673,767,0
235755,322.52,673,768,0
235765,323.43,673,767,0
235776,321.93,673,768,0
235785,317.71,673,767,0
235795,311.63,673,768,0
235805,303.51,673,767,0
235815,294.44,673,768,0
235825,284.45,673,767,0
235835,274.59,673,768,0
235845,264.81,673,767,0
235855,255.95,673,768,0
235865,247.82,673,767,0
235875,241.28,673,768,0
235885,235.84,673,767,0
235895,232.16,673,769,0
235905,229.75,673,767,0
235915,229.01,673,768,0
235925,229.31,673,767,0
235935,231.02,673,768,0
235945,233.37,673,767,0
235955,236.90,673,768,0
235965,240.57,673,767,0
235975,244.77,673,768,0
235985,248.70,673,767,0
235995,252.99,673,768,0
236005,257.19,673,767,0
236015,262.79,673,768,0
236025,270.31,673,767,0
236035,282.30,673,768,0
236045,300.86,673,767,0
236055,330.08,673,768,0
236065,370.86,673,767,0
236076,419.59,673,768,0
236086,472.51,673,766,0
236096,526.83,673,768,0
236115,579.25,743,767,0
236119,626.49,743,768,0
236127,664.23,743,765,0
236137,690.69,743,768,0
236147,709.17,743,765,0
236157,722.15,743,768,0
236167,731.27,743,766,0
236177,737.71,743,768,0
236187,742.21,743,765,0
236197,745.36,743,768,0
236207,747.57,743,766,0
236217,749.11,743,768,0
236227,750.15,743,765,0
236237,750.88,743,769,0
236247,751.38,743,765,0
236257,749.21,743,768,0
236267,739.55,743,765,0
236277,720.53,743,768,0
236288,690.75,743,765,0
236297,651.23,743,768,0
236307,602.39,743,765,0
236317,546.00,743,768,0
236327,486.04,743,765,0
236337,429.42,743,768,0
236347,379.53,743,765,0
236357,339.95,743,768,0
236367,310.43,743,765,0
236377,291.92,743,768,0
236387,282.77,743,765,0
236397,282.24,743,768,0
236407,287.78,743,765,0
236417,298.09,743,768,0
236427,310.23,743,765,0
236437,323.41,743,768,0
236447,335.03,743,765,0
236457,345.01,743,768,0
236467,351.65,743,765,0
236477,355.44,743,768,0
236487,355.39,743,765,0
236497,352.49,743,768,0
236507,346.43,743,765,0
236517,338.67,743,768,0
236527,328.74,743,765,0
236537,318.32,743,768,0
236547,307.17,743,766,0
236557,296.74,743,768,0
236567,286.58,743,765,0
236577,277.79,743,768,0
236588,269.80,743,765,0
236598,263.77,743,768,0
236608,258.78,743,765,0
236618,255.68,743,768,0
236628,253.46,743,765,0
236638,253.19,743,768,0
236648,253.39,743,765,0
236658,255.16,743,768,0
236668,257.00,743,765,0
236678,259.66,743,768,0
236688,262.12,743,764,0
236698,265.38,743,768,0
236708,269.00,743,764,0
236718,275.13,743,768,0
236728,284.47,743,764,0
236738,301.00,743,768,0
236748,327.44,743,764,0
236759,366.57,743,768,0
236769,413.80,743,764,0
236779,466.23,743,768,0
236789,520.46,743,764,0
236809,573.72,693,763,0
236812,621.89,693,769,0
236821,661.14,693,768,0
236831,688.61,693,767,0
236841,707.89,693,768,0
236851,721.38,693,766,0
236861,730.86,693,768,0
236871,737.50,693,766,0
236881,742.15,693,768,0
236891,745.41,693,766,0
236901,747.69,693,768,0
236911,749.28,693,766,0
236921,750.40,693,768,0
236931,751.18,693,766,0
236941,751.72,693,768,0
236951,752.11,693,766,0
236961,752.37,693,768,0
236972,746.99,693,766,0
236982,732.89,693,768,0
236992,708.41,693,767,0
237002,673.57,693,768,0
237012,629.04,693,767,0
237022,576.45,693,768,0
237032,517.17,693,767,0
237042,458.75,693,768,0
237052,405.89,693,767,0
237062,361.95,693,768,0
237072,328.11,693,766,0
237082,304.59,693,768,0
237092,290.44,693,767,0
237102,284.44,693,768,0
237112,284.52,693,766,0
237122,288.99,693,768,0
237132,295.81,693,767,0
237143,303.37,693,768,0
237153,310.33,693,767,0
237163,315.54,693,768,0
237173,318.55,693,768,0
237184,318.99,693,768,0
237193,317.02,693,767,0
237203,312.64,693,768,0
237213,306.32,693,768,0
237223,298.55,693,767,0
237233,290.03,693,767,0
237243,281.15,693,768,0
237253,272.62,693,768,0
237263,264.46,693,768,0
237273,257.51,693,767,0
237283,251.70,693,768,0
237293,247.29,693,768,0
237303,244.03,693,768,0
237313,242.05,693,767,0
237323,241.18,693,768,0
237333,241.51,693,768,0
237343,242.47,693,768,0
237353,244.39,693,768,0
237363,246.76,693,768,0
237373,249.66,693,768,0
237383,252.63,693,768,0
237393,255.70,693,768,0
237403,258.66,693,768,0
237413,261.59,693,768,0
237423,264.63,693,768,0
237433,269.03,693,768,0
237443,276.22,693,768,0
237453,289.27,693,768,0
237463,311.69,693,768,0
237473,347.87,693,768,0
237484,393.72,693,768,0
237494,445.79,693,768,0
237513,500.92,705,767,0
237516,556.19,705,767,0
237526,607.73,705,766,0
237535,651.23,705,768,0
237545,681.76,705,766,0
237555,703.13,705,768,0
237565,718.09,705,766,0
237575,728.56,705,768,0
237585,735.90,705,766,0
237595,741.03,705,768,0
237605,744.62,705,766,0
237615,747.13,705,768,0
237625,748.89,705,766,0
237635,750.13,705,768,0
237645,750.94,705,766,0
237655,751.52,705,768,0
237665,751.92,705,767,0
237675,752.20,705,768,0
237685,752.36,705,766,0
237696,752.46,705,768,0
237705,752.54,705,767,0
237715,749.76,705,768,0
237725,739.55,705,766,0
237735,720.06,705,768,0
237745,690.60,705,766,0
237755,651.80,705,768,0
237765,604.08,705,766,0
237775,549.32,705,768,0
237785,491.58,705,766,0
237795,437.24,705,768,0
237805,389.21,705,766,0
237815,349.68,705,768,0
237825,318.62,705,766,0
237835,296.53,705,768,0
237845,281.59,705,766,0
237855,272.97,705,768,0
237865,268.39,705,765,0
237875,267.07,705,768,0
237885,266.92,705,766,0
237895,267.59,705,768,0
237905,267.50,705,765,0
237915,266.83,705,768,0
237925,264.70,705,766,0
237935,261.92,705,768,0
237945,257.70,705,766,0
237955,253.29,705,768,0
237965,247.97,705,766,0
237975,242.97,705,768,0
237985,237.58,705,766,0
237996,232.99,705,768,0
238006,228.49,705,765,0
238016,225.26,705,768,0
238026,222.35,705,765,0
238036,221.00,705,768,0
238046,220.10,705,765,0
238056,220.67,705,768,0
238066,221.76,705,765,0
238076,224.14,705,768,0
238086,226.76,705,765,0
238096,230.39,705,768,0
238106,233.96,705,765,0
238116,238.26,705,768,0
238126,242.34,705,765,0
238136,246.95,705,768,0
238146,250.82,705,765,0
238156,255.20,705,768,0
238167,259.77,705,764,0
238177,266.87,705,768,0
238187,278.14,705,764,0
238197,297.85,705,768,0
238208,329.61,705,764,0
238226,372.88,713,764,0
238229,423.32,713,766,0
238238,478.38,713,768,0
238248,534.32,713,764,0
238258,588.10,713,768,0
238268,634.95,713,764,0
238278,670.28,713,768,0
238288,694.97,713,764,0
238298,712.29,713,769,0
238308,724.42,713,764,0
238318,732.95,713,768,0
238328,738.88,713,764,0
238338,743.03,713,768,0
238348,745.94,713,764,0
238358,748.01,713,768,0
238368,749.47,713,764,0
238379,750.48,713,768,0
238388,751.20,713,764,0
238398,751.74,713,768,0
238408,752.12,713,764,0
238418,752.38,713,768,0
238428,752.57,713,764,0
238438,752.70,713,768,0
238448,752.74,713,764,0
238458,752.09,713,769,0
238468,746.28,713,764,0
238478,732.78,713,768,0
238488,709.83,713,764,0
238498,677.91,713,768,0
238508,637.57,713,764,0
238518,590.25,713,768,0
238528,537.46,713,764,0
238538,485.30,713,768,0
238548,437.16,713,764,0
238558,396.19,713,768,0
238568,362.32,713,764,0
238578,336.04,713,768,0
238588,315.88,713,764,0
238598,301.69,713,768,0
238608,291.50,713,764,0
238618,284.92,713,768,0
238628,280.06,713,764,0
238638,277.68,713,768,0
238648,275.16,713,764,0
238658,272.93,713,768,0
238668,269.91,713,764,0
238679,266.94,713,768,0
238689,263.23,713,764,0
238699,259.69,713,768,0
238709,254.77,713,765,0
238720,250.38,713,768,0
238729,245.81,713,764,0
238739,241.88,713,768,0
238749,238.02,713,765,0
238759,234.71,713,768,0
238769,231.46,713,764,0
238779,228.92,713,768,0
238789,226.84,713,765,0
238799,225.73,713,768,0
238809,225.13,713,764,0
238819,225.17,713,768,0
238829,225.47,713,765,0
238839,226.57,713,768,0
238849,227.77,713,764,0
238859,229.47,713,768,0
238869,231.08,713,765,0
238879,232.82,713,768,0
238889,234.37,713,765,0
238899,236.19,713,768,0
238909,237.63,713,765,0
238919,239.89,713,768,0
238929,243.31,713,765,0
238939,250.16,713,768,0
238949,262.84,713,764,0
238959,285.77,713,768,0
238969,323.04,713,765,0
238979,370.99,713,768,0
238998,425.59,772,767,0
239001,483.78,772,767,0
239010,542.13,772,766,0
239020,596.95,772,768,0
239030,643.25,772,766,0
239040,676.18,772,768,0
239050,699.22,772,766,0
239060,715.36,772,768,0
239070,726.65,772,766,0
239080,734.55,772,768,0
239090,740.09,772,766,0
239100,743.96,772,768,0
239110,746.67,772,766,0
239120,748.57,772,768,0
239130,749.90,772,766,0
239140,750.83,772,768,0
239150,751.48,772,766,0
239160,751.94,772,768,0
239170,752.26,772,766,0
239180,752.48,772,768,0
239191,752.64,772,767,0
239201,746.70,772,768,0
239211,731.23,772,767,0
239221,704.76,772,768,0
239232,667.25,772,767,0
239241,619.73,772,768,0
239251,563.45,772,767,0
239261,500.23,772,768,0
239271,437.98,772,768,0
239281,381.84,772,768,0
239291,334.87,772,767,0
239301,298.40,772,768,0
239311,272.31,772,768,0
239321,255.89,772,768,0
239331,247.52,772,767,0
239341,245.44,772,768,0
239351,247.79,772,767,0
239361,252.65,772,768,0
239371,258.50,772,767,0
239381,263.79,772,768,0
239391,267.84,772,767,0
239401,269.95,772,768,0
239411,269.92,772,767,0
239421,267.76,772,768,0
239431,263.80,772,767,0
239441,258.29,772,768,0
239451,251.82,772,767,0
239461,244.71,772,768,0
239471,237.64,772,767,0
239481,230.89,772,768,0
239491,224.71,772,767,0
239501,219.44,772,768,0
239511,215.24,772,767,0
239521,212.21,772,768,0
239532,210.47,772,768,0
239542,209.86,772,768,0
239552,210.46,772,768,0
239562,212.08,772,768,0
239572,214.76,772,768,0
239582,218.17,772,768,0
239592,222.32,772,767,0
239602,226.77,772,768,0
239612,231.68,772,768,0
239622,236.70,772,768,0
239632,242.02,772,767,0
239642,246.86,772,768,0
239652,251.57,772,768,0
239662,255.77,772,768,0
239672,260.00,772,768,0
239682,265.01,772,768,0
239692,272.85,772,768,0
239703,286.01,772,767,0
239713,308.81,772,768,0
239723,345.17,772,767,0
239733,391.27,772,768,0
239753,443.73,754,767,0
239756,499.53,754,768,0
239765,555.21,754,765,0
239775,607.18,754,768,0
239785,650.80,754,764,0
239795,681.46,754,768,0
239805,702.92,754,765,0
239815,717.94,754,768,0
239825,728.46,754,765,0
239835,735.82,754,768,0
239845,740.98,754,765,0
239855,744.58,754,768,0
239865,747.07,754,765,0
239875,748.76,754,768,0
239885,749.95,754,765,0
239895,750.78,754,768,0
239905,751.32,754,765,0
239916,751.65,754,768,0
239926,751.84,754,765,0
239936,750.30,754,768,0
239946,741.73,754,764,0
239956,723.64,754,768,0
239966,694.99,754,765,0
239976,656.33,754,768,0
239986,608.02,754,764,0
239996,552.00,754,768,0
240006,491.27,754,765,0
240016,433.42,754,768,0
240026,382.16,754,764,0
240036,340.46,754,768,0
240046,308.52,754,765,0
240056,287.28,754,768,0
240066,274.77,754,764,0
240076,270.25,754,768,0
240087,271.03,754,764,0
240097,275.99,754,768,0
240107,282.51,754,764,0
240117,289.73,754,768,0
240128,295.64,754,764,0
240137,300.20,754,768,0
240147,302.07,754,764,0
240157,301.92,754,768,0
240167,298.95,754,764,0
240177,294.29,754,768,0
240187,287.69,754,764,0
240197,280.37,754,768,0
240207,272.11,754,764,0
240217,264.32,754,768,0
240227,256.43,754,764,0
240237,249.61,754,768,0
240247,243.30,754,764,0
240257,238.41,754,768,0
240267,234.30,754,764,0
240277,231.73,754,768,0
240287,229.96,754,764,0
240297,229.72,754,768,0
240307,230.23,754,764,0
240317,232.13,754,768,0
240327,234.54,754,764,0
240337,238.02,754,768,0
240347,241.70,754,764,0
240357,245.95,754,768,0
240367,249.95,754,764,0
240377,254.25,754,768,0
240387,257.99,754,764,0
240397,262.11,754,768,0
240407,265.97,754,764,0
240417,271.42,754,768,0
240428,279.57,754,764,0
240438,294.18,754,768,0
240448,318.86,754,764,0
240458,356.74,754,768,0
240468,403.23,754,765,0
240478,455.71,754,768,0
240497,510.74,745,767,0
240500,565.54,745,767,0
240509,615.82,745,766,0
240519,656.98,745,768,0
240529,685.78,745,765,0
240539,705.95,745,768,0
240549,720.06,745,766,0
240559,729.94,745,768,0
240569,736.86,745,765,0
240579,741.70,745,768,0
240589,745.09,745,766,0
240599,747.46,745,768,0
240609,749.08,745,765,0
240619,750.21,745,768,0
240629,751.01,745,766,0
240640,751.56,745,768,0
240649,751.91,745,765,0
240659,752.15,745,768,0
240669,752.32,745,766,0
240679,752.48,745,768,0
240689,752.55,745,765,0
240699,752.60,745,768,0
240709,748.65,745,766,0
240719,737.18,745,768,0
240729,716.38,745,765,0
240739,685.97,745,768,0
240749,646.12,745,765,0
240759,598.04,745,768,0
240769,542.92,745,765,0
240779,486.41,745,768,0
240789,433.32,745,765,0
240799,386.85,745,768,0
240809,348.11,745,766,0
240819,317.82,745,768,0
240829,295.16,745,765,0
240839,279.47,745,768,0
240849,269.04,745,766,0
240859,262.86,745,768,0
240869,259.17,745,765,0
240879,257.19,745,768,0
240889,255.85,745,765,0
240899,254.78,745,768,0
240909,253.13,745,765,0
240919,250.91,745,768,0
240929,247.98,745,766,0
240940,244.81,745,768,0
240950,241.44,745,766,0
240960,238.18,745,768,0
240970,235.25,745,767,0
240980,232.95,745,768,0
240990,231.42,745,766,0
241000,230.65,745,768,0
241010,230.59,745,767,0
241020,231.18,745,768,0
241030,232.37,745,766,0
241040,234.14,745,768,0
241050,236.37,745,767,0
241060,239.00,745,768,0
241070,241.96,745,766,0
241080,245.10,745,768,0
241090,248.41,745,766,0
241100,251.76,745,768,0
241111,255.00,745,767,0
241121,258.09,745,768,0
241131,261.02,745,767,0
241141,263.67,745,768,0
241152,266.64,745,768,0
241161,270.73,745,768,0
241171,277.67,745,767,0
241181,289.94,745,768,0
241191,312.03,745,768,0
241210,347.81,713,766,0
241213,393.38,713,769,0
241222,445.17,713,767,0
241232,500.27,713,768,0
241242,555.56,713,768,0
241252,607.47,713,768,0
241262,650.95,713,767,0
241272,681.57,713,768,0
241282,703.00,713,768,0
241292,718.00,713,768,0
241302,728.50,713,767,0
241312,735.85,713,768,0
241323,740.99,713,767,0
241332,744.60,713,768,0
241342,747.12,713,767,0
241352,748.88,713,768,0
241362,750.12,713,767,0
241372,750.98,713,768,0
241382,751.59,713,767,0
241392,752.01,713,768,0
241402,752.31,713,767,0
241412,752.52,713,768,0
241422,752.62,713,767,0
241432,752.69,713,768,0
241442,752.74,713,767,0
241452,752.78,713,768,0
241462,752.76,713,767,0
241472,748.16,713,768,0
241482,735.51,713,767,0
241492,713.41,713,768,0
241502,681.79,713,767,0
241512,641.27,713,768,0
241522,592.54,713,767,0
241532,537.18,713,768,0
241542,480.86,713,768,0
241552,428.48,713,768,0
241562,382.27,713,767,0
241572,343.57,713,768,0
241582,312.20,713,768,0
241592,288.18,713,768,0
241602,270.04,713,767,0
241612,257.26,713,768,0
241623,248.10,713,766,0
241633,242.24,713,768,0
241643,237.92,713,766,0
241653,235.20,713,768,0
241664,232.74,713,765,0
241673,231.15,713,769,0
241683,229.39,713,766,0
241693,228.12,713,768,0
241703,226.50,713,766,0
241713,225.45,713,768,0
241723,224.11,713,767,0
241733,223.44,713,768,0
241743,222.45,713,766,0
241753,221.97,713,768,0
241763,221.34,713,766,0
241773,221.36,713,768,0
241783,221.17,713,766,0
241793,221.59,713,768,0
241803,222.01,713,766,0
241813,223.25,713,768,0
241823,224.46,713,766,0
241833,226.47,713,768,0
241843,228.51,713,766,0
241853,231.36,713,768,0
241863,234.21,713,766,0
241873,237.70,713,768,0
241883,241.05,713,767,0
241893,244.81,713,768,0
241903,248.29,713,766,0
241913,252.40,713,769,0
241923,257.38,713,767,0
241933,265.54,713,768,0
241943,279.09,713,766,0
241953,302.98,713,768,0
241973,340.57,763,767,0
241976,387.80,763,770,0
241985,441.05,763,764,0
241995,497.65,763,769,0
242006,554.15,763,764,0
242015,606.95,763,769,0
242025,650.68,763,765,0
242035,681.33,763,769,0
242045,702.79,763,764,0
242055,717.85,763,768,0
242065,728.40,763,764,0
242075,735.78,763,768,0
242085,740.94,763,764,0
242095,744.56,763,768,0
242105,747.09,763,764,0
242115,748.86,763,768,0
242125,750.11,763,764,0
242135,750.97,763,769,0
242145,751.58,763,765,0
242155,752.01,763,768,0
242165,752.31,763,764,0
242176,752.51,763,769,0
242185,752.66,763,765,0
242195,752.76,763,768,0
242205,752.83,763,764,0
242215,752.88,763,768,0
242225,751.20,763,765,0
242235,743.86,763,768,0
242245,727.96,763,764,0
242255,703.03,763,768,0
242265,669.12,763,764,0
242275,627.34,763,768,0
242285,578.38,763,764,0
242295,525.60,763,768,0
242305,473.69,763,764,0
242315,427.07,763,768,0
242325,386.68,763,764,0
242335,353.60,763,768,0
242345,326.85,763,764,0
242355,306.45,763,768,0
242365,290.59,763,764,0
242375,279.10,763,768,0
242385,270.07,763,764,0
242395,263.49,763,768,0
242405,257.81,763,764,0
242415,253.33,763,768,0
242425,248.90,763,764,0
242435,245.24,763,768,0
242445,241.23,763,764,0
242455,237.77,763,768,0
242465,233.98,763,764,0
242476,230.86,763,768,0
242486,227.65,763,764,0
242496,225.27,763,768,0
242506,222.79,763,764,0
242516,221.26,763,768,0
242526,219.81,763,764,0
242536,219.36,763,768,0
242546,219.03,763,764,0
242556,219.62,763,768,0
242566,220.29,763,764,0
242576,221.83,763,768,0
242586,223.43,763,764,0
242596,225.83,763,768,0
242606,228.19,763,764,0
242616,231.14,763,768,0
242626,233.79,763,764,0
242636,236.86,763,768,0
242647,239.43,763,764,0
242657,242.17,763,768,0
242667,244.22,763,764,0
242677,246.38,763,768,0
242688,248.58,763,765,0
242697,252.69,763,768,0
242707,260.37,763,764,0
242717,276.03,763,768,0
242727,303.62,763,765,0
242737,344.58,763,769,0
242756,394.46,783,767,0
242759,450.25,783,770,0
242768,508.50,783,766,0
242778,565.82,783,768,0
242788,617.35,783,765,0
242798,658.09,783,768,0
242808,686.60,783,766,0
242818,706.57,783,768,0
242828,720.50,783,765,0
242838,730.25,783,768,0
242848,737.07,783,766,0
242859,741.85,783,768,0
242868,745.20,783,765,0
242878,747.54,783,768,0
242888,749.18,783,766,0
242898,750.32,783,768,0
242908,751.13,783,765,0
242918,751.69,783,768,0
242928,752.08,783,765,0
242938,752.36,783,768,0
242948,752.55,783,765,0
242958,752.69,783,768,0
242968,750.04,783,765,0
242978,740.25,783,768,0
242988,721.02,783,765,0
242998,691.57,783,768,0
243008,652.06,783,765,0
243018,603.70,783,768,0
243028,547.86,783,766,0
243038,489.14,783,768,0
243048,433.34,783,765,0
243058,384.47,783,768,0
243068,344.47,783,766,0
243078,314.29,783,768,0
243088,293.12,783,765,0
243098,280.44,783,768,0
243108,273.88,783,766,0
243118,272.16,783,768,0
243128,273.05,783,765,0
243138,275.35,783,768,0
243148,277.56,783,766,0
243159,279.06,783,768,0
243169,278.87,783,766,0
243179,277.11,783,768,0
243189,273.39,783,767,0
243200,268.17,783,768,0
243209,261.57,783,766,0
243219,254.20,783,768,0
243229,246.42,783,767,0
243239,238.45,783,768,0
243249,230.95,783,766,0
243259,224.19,783,768,0
243269,218.60,783,767,0
243279,214.14,783,768,0
243289,210.80,783,766,0
243299,208.59,783,768,0
243309,207.64,783,767,0
243319,207.83,783,768,0
243329,209.17,783,766,0
243339,211.48,783,768,0
243349,214.76,783,767,0
243359,218.82,783,768,0
243369,223.59,783,767,0
243379,228.77,783,768,0
243389,234.28,783,767,0
243399,239.90,783,768,0
243409,245.37,783,767,0
243419,250.53,783,768,0
243429,255.26,783,767,0
243439,259.29,783,768,0
243449,263.02,783,767,0
243459,266.66,783,769,0
243469,271.43,783,767,0
243479,279.44,783,768,0
243489,294.05,783,767,0
243500,319.62,783,768,0
243510,358.14,783,768,0
243520,405.37,783,768,0
243539,458.27,783,767,0
243543,513.82,783,767,0
243551,568.69,783,768,0
243561,618.71,783,767,0
243571,658.95,783,768,0
243581,687.12,783,767,0
243591,706.84,783,768,0
243601,720.65,783,767,0
243611,730.35,783,768,0
243621,737.15,783,767,0
243631,741.90,783,768,0
243641,745.23,783,767,0
243651,747.56,783,768,0
243661,749.19,783,767,0
243671,750.34,783,768,0
243681,751.14,783,767,0
243691,751.69,783,768,0
243701,752.09,783,767,0
243712,752.36,783,769,0
243721,752.55,783,767,0
243731,748.83,783,768,0
243741,736.62,783,767,0
243751,714.11,783,768,0
243761,680.78,783,767,0
243771,637.17,783,768,0
243781,584.19,783,767,0
243791,523.79,783,768,0
243801,461.54,783,767,0
243811,404.16,783,768,0
243821,354.96,783,766,0
243831,316.18,783,768,0
243841,288.06,783,768,0
243851,270.85,783,768,0
243861,262.54,783,767,0
243871,261.91,783,768,0
243881,266.09,783,766,0
243891,273.69,783,768,0
243901,282.19,783,767,0
243911,290.74,783,768,0
243921,297.25,783,767,0
243931,301.80,783,768,0
243941,303.11,783,767,0
243951,301.87,783,768,0
243961,297.58,783,766,0
243971,291.37,783,768,0
243981,283.07,783,767,0
243991,273.96,783,768,0
244001,263.90,783,767,0
244012,254.25,783,768,0
244022,244.87,783,766,0
244032,236.85,783,768,0
244042,229.74,783,766,0
244052,224.29,783,768,0
244062,220.00,783,766,0
244072,217.56,783,769,0
244082,216.15,783,766,0
244092,216.40,783,768,0
244102,217.40,783,766,0
244112,219.72,783,768,0
244122,222.38,783,766,0
244132,225.99,783,768,0
244142,229.51,783,766,0
244152,233.56,783,768,0
244162,237.12,783,766,0
244172,240.98,783,768,0
244183,244.46,783,765,0
244193,249.12,783,768,0
244203,255.60,783,765,0
244213,267.42,783,768,0
244224,287.48,783,764,0
244233,320.64,783,769,0
244243,364.84,783,765,0
244253,416.83,783,768,0
244263,472.98,783,765,0
244282,530.55,743,764,0
244285,585.28,743,765,0
244294,633.07,743,768,0
244304,668.96,743,764,0
244314,694.13,743,769,0
244324,711.75,743,764,0
244334,724.12,743,768,0
244344,732.79,743,764,0
244354,738.85,743,769,0
244364,743.10,743,764,0
244374,746.07,743,768,0
244384,748.10,743,764,0
244395,749.53,743,769,0
244404,750.53,743,764,0
244414,751.23,743,769,0
244424,751.72,743,764,0
244434,752.06,743,769,0
244444,752.26,743,764,0
244454,752.44,743,769,0
244464,746.43,743,764,0
244474,731.17,743,769,0
244484,705.15,743,764,0
244494,668.46,743,768,0
244504,621.31,743,764,0
244514,565.55,743,769,0
244524,502.47,743,764,0
244534,440.40,743,768,0
244544,383.84,743,764,0
244554,336.36,743,768,0
244564,298.79,743,764,0
244574,272.28,743,768,0
244584,255.27,743,764,0
244594,247.13,743,768,0
244604,245.42,743,764,0
244614,248.98,743,768,0
244624,254.90,743,764,0
244634,262.39,743,768,0
244644,269.30,743,764,0
244654,275.42,743,768,0
244664,279.33,743,764,0
244674,281.37,743,768,0
244684,280.83,743,764,0
244695,278.82,743,768,0
244705,274.85,743,764,0
244715,270.14,743,768,0
244725,264.52,743,764,0
244736,259.14,743,768,0
244745,253.65,743,764,0
244755,249.17,743,768,0
244765,245.22,743,764,0
244775,242.71,743,768,0
244785,240.96,743,764,0
244795,240.71,743,768,0
244805,241.10,743,764,0
244815,242.78,743,768,0
244825,244.73,743,764,0
244835,247.51,743,768,0
244845,250.36,743,764,0
244855,253.72,743,768,0
244865,256.59,743,764,0
244875,259.71,743,768,0
244885,262.37,743,764,0
244895,265.05,743,768,0
244905,267.05,743,764,0
244915,268.92,743,768,0
244925,270.53,743,764,0
244935,273.76,743,768,0
244945,280.13,743,764,0
244955,293.20,743,768,0
244965,317.49,743,764,0
244975,355.18,743,769,0
244995,401.97,712,767,0
244998,454.99,712,767,0
245007,510.80,712,766,0
245017,566.19,712,768,0
245027,616.92,712,766,0
245037,657.74,712,768,0
245047,686.32,712,766,0
245057,706.32,712,768,0
245067,720.33,712,766,0
245078,730.13,712,768,0
245087,736.99,712,766,0
245097,741.79,712,768,0
245107,745.16,712,766,0
245117,747.51,712,768,0
245127,749.16,712,766,0
245137,750.31,712,768,0
245147,751.12,712,766,0
245157,751.68,712,768,0
245167,752.08,712,765,0
245177,752.35,712,768,0
245187,752.55,712,766,0
245197,752.68,712,768,0
245207,752.78,712,765,0
245217,752.84,712,768,0
245227,752.89,712,766,0
245237,751.90,712,768,0
245248,744.86,712,767,0
245257,729.43,712,768,0
245267,704.06,712,765,0
245277,668.77,712,768,0
245287,624.18,712,767,0
245297,571.67,712,768,0
245307,513.48,712,766,0
245317,456.17,712,768,0
245327,403.23,712,766,0
245337,357.48,712,768,0
245347,319.70,712,765,0
245357,290.14,712,768,0
245367,267.94,712,766,0
245377,252.36,712,768,0
245387,241.96,712,765,0
245397,235.85,712,768,0
245407,232.55,712,766,0
245417,231.23,712,768,0
245427,230.90,712,766,0
245437,231.06,712,768,0
245447,231.13,712,766,0
245457,231.09,712,768,0
245467,230.63,712,766,0
245477,230.02,712,768,0
245487,229.28,712,766,0
245497,228.73,712,768,0
245507,228.25,712,765,0
245517,228.18,712,768,0
245527,228.38,712,766,0
245537,229.08,712,768,0
245548,230.30,712,766,0
245558,232.10,712,768,0
245568,234.38,712,767,0
245578,237.27,712,768,0
245588,240.53,712,768,0
245598,244.14,712,768,0
245608,247.87,712,767,0
245618,251.64,712,768,0
245628,255.26,712,768,0
245638,258.61,712,768,0
245648,261.60,712,767,0
245658,264.08,712,768,0
245668,266.20,712,767,0
245678,268.19,712,768,0
245688,270.75,712,767,0
245698,275.33,712,768,0
245708,285.13,712,767,0
245719,304.12,712,768,0
245738,337.98,744,767,0
245741,382.17,744,766,0
245750,433.42,744,769,0
245761,488.84,744,767,0
245771,545.50,744,768,0
245781,599.18,744,766,0
245791,645.20,744,769,0
245801,677.50,744,765,0
245811,700.15,744,768,0
245821,716.00,744,766,0
245831,727.14,744,769,0
245841,734.94,744,766,0
245851,740.40,744,768,0
245861,744.23,744,766,0
245871,746.94,744,769,0
245881,748.85,744,766,0
245891,750.18,744,769,0
245901,751.07,744,766,0
245911,751.69,744,769,0
245921,752.13,744,766,0
245932,752.43,744,769,0
245942,752.60,744,765,0
245952,752.72,744,769,0
245962,752.80,744,765,0
245972,752.86,744,769,0
245982,752.90,744,765,0
245992,752.93,744,769,0
246002,752.95,744,765,0
246012,752.97,744,768,0
246022,748.43,744,765,0
246032,736.35,744,769,0
246042,714.43,744,765,0
246052,682.89,744,768,0
246062,641.86,744,765,0
246072,592.53,744,769,0
246082,535.42,744,765,0
246092,476.88,744,769,0
246103,420.47,744,765,0
246113,370.19,744,769,0
246123,326.16,744,764,0
246133,289.60,744,768,0
246144,259.55,744,764,0
246153,236.54,744,769,0
246163,218.85,744,764,0
246173,206.55,744,768,0
246183,197.81,744,764,0
246193,192.86,744,769,0
246203,190.07,744,764,0
246213,189.79,744,768,0
246223,190.71,744,764,0
246233,192.98,744,769,0
246243,195.60,744,764,0
246253,199.06,744,768,0
246263,202.43,744,764,0
246273,206.24,744,769,0
246283,209.51,744,764,0
246293,212.96,744,769,0
246303,215.67,744,764,0
246313,218.47,744,769,0
246323,220.47,744,764,0
246333,222.56,744,768,0
246343,223.93,744,764,0
246353,225.41,744,769,0
246363,226.14,744,764,0
246373,227.13,744,768,0
246383,227.65,744,764,0
246393,228.57,744,769,0
246403,228.95,744,764,0
246413,229.87,744,768,0
246423,230.59,744,764,0
246433,231.79,744,769,0
246444,232.79,744,764,0
246454,234.44,744,768,0
246464,236.71,744,764,0
246474,241.85,744,769,0
246484,251.71,744,764,0
246494,270.23,744,768,0
246513,301.83,775,767,0
246516,346.07,775,770,0
246525,398.59,775,765,0
246535,456.40,775,769,0
246545,515.81,775,764,0
246555,573.12,775,769,0
246565,623.83,775,765,0
246575,662.62,775,769,0
246585,689.78,775,764,0
246595,708.79,775,768,0
246605,722.09,775,765,0
246615,731.41,775,769,0
246625,737.93,775,764,0
246635,742.49,775,769,0
246645,745.65,775,765,0
246656,747.85,775,768,0
246665,749.40,775,764,0
246675,750.48,775,769,0
246685,751.23,775,765,0
246695,751.76,775,768,0
246705,752.13,775,764,0
246715,752.39,775,769,0
246725,752.58,775,765,0
246735,752.70,775,768,0
246745,752.75,775,765,0
246755,746.82,775,769,0
246765,731.02,775,765,0
246775,704.10,775,768,0
246785,665.88,775,764,0
246795,617.45,775,769,0
246805,559.93,775,765,0
246815,495.41,775,768,0
246825,431.56,775,766,0
246835,374.26,775,769,0
246845,326.18,775,765,0
246855,289.01,775,768,0
246865,262.48,775,765,0
246875,246.27,775,769,0
246885,238.34,775,765,0
246895,237.34,775,768,0
246905,240.88,775,765,0
246915,247.52,775,769,0
246925,255.08,775,765,0
246935,262.60,775,768,0
246945,268.67,775,765,0
246956,273.19,775,768,0
246966,275.23,775,766,0
246976,275.29,775,768,0
246986,273.06,775,766,0
246996,269.36,775,769,0
247006,264.24,775,766,0
247016,258.51,775,768,0
247026,252.31,775,766,0
247036,246.52,775,768,0
247046,240.96,775,766,0
247056,236.26,775,768,0
247066,232.37,775,766,0
247076,229.81,775,768,0
247086,228.37,775,766,0
247096,228.26,775,768,0
247106,229.08,775,766,0
247116,231.03,775,768,0
247127,233.76,775,767,0
247137,237.05,775,768,0
247147,240.55,775,767,0
247157,244.16,775,768,0
247168,247.67,775,768,0
247177,251.24,775,768,0
247187,254.34,775,767,0
247197,256.98,775,768,0
247207,259.43,775,768,0
247217,261.44,775,768,0
247227,263.24,775,767,0
247237,264.54,775,768,0
247247,265.28,775,768,0
247257,266.18,775,768,0
247267,267.93,775,767,0
247277,272.11,775,768,0
247287,281.97,775,768,0
247297,300.97,775,768,0
247307,334.32,775,767,0
247326,378.45,813,766,0
247329,429.87,813,768,0
247339,485.67,813,768,0
247348,542.51,813,768,0
247358,596.19,813,768,0
247368,642.37,813,768,0
247378,675.52,813,768,0
247388,698.76,813,768,0
247398,715.03,813,768,0
247408,726.42,813,768,0
247418,734.40,813,768,0
247428,739.98,813,768,0
247438,743.88,813,768,0
247448,746.62,813,768,0
247458,748.53,813,768,0
247468,749.87,813,768,0
247478,750.81,813,768,0
247488,751.47,813,768,0
247498,751.93,813,768,0
247508,752.25,813,768,0
247518,752.43,813,768,0
247528,752.56,813,768,0
247538,749.78,813,768,0
247548,739.69,813,768,0
247558,719.90,813,768,0
247568,689.50,813,768,0
247578,648.46,813,768,0
247588,598.10,813,768,0
247598,539.87,813,768,0
247608,478.49,813,768,0
247618,419.97,813,768,0
247628,368.68,813,768,0
247639,326.73,813,767,0
247649,295.44,813,768,0
247659,274.05,813,767,0
247669,261.74,813,768,0
247680,256.37,813,766,0
247689,256.65,813,769,0
247699,259.97,813,767,0
247709,265.21,813,768,0
247719,270.16,813,767,0
247729,274.40,813,769,0
247739,276.55,813,767,0
247749,276.86,813,768,0
247759,274.58,813,767,0
247769,270.68,813,768,0
247779,264.73,813,767,0
247789,258.04,813,768,0
247799,250.27,813,766,0
247809,242.69,813,768,0
247819,235.33,813,767,0
247829,229.14,813,768,0
247839,223.70,813,767,0
247849,219.89,813,769,0
247859,217.35,813,767,0
247869,216.60,813,768,0
247879,216.85,813,767,0
247889,218.57,813,768,0
247899,221.01,813,767,0
247909,224.61,813,768,0
247919,228.33,813,767,0
247929,232.60,813,768,0
247939,236.79,813,767,0
247949,241.31,813,768,0
247959,245.37,813,767,0
247969,249.38,813,768,0
247980,252.65,813,766,0
247990,255.97,813,768,0
248000,258.34,813,766,0
248010,260.72,813,768,0
248020,262.18,813,765,0
248030,263.49,813,768,0
248040,264.07,813,766,0
248050,264.70,813,768,0
248060,264.96,813,765,0
248070,266.51,813,768,0
248080,269.75,813,766,0
248090,278.31,813,768,0
248100,295.02,813,765,0
248110,324.71,813,768,0
248129,366.24,803,767,0
248132,416.10,803,770,0
248141,470.67,803,765,0
248151,527.25,803,768,0
248161,581.65,803,765,0
248171,629.71,803,768,0
248181,666.44,803,765,0
248192,692.19,803,768,0
248201,710.22,803,765,0
248211,722.84,803,768,0
248221,731.63,803,765,0
248231,737.83,803,768,0
248241,742.21,803,765,0
248251,745.27,803,768,0
248261,747.38,803,765,0
248271,748.89,803,769,0
248281,749.95,803,765,0
248291,750.70,803,768,0
248301,751.17,803,765,0
248311,751.51,803,768,0
248321,751.74,803,765,0
248331,750.58,803,768,0
248341,742.35,803,765,0
248351,724.41,803,768,0
248361,695.10,803,765,0
248371,655.17,803,768,0
248381,604.89,803,765,0
248391,546.21,803,768,0
248401,481.78,803,765,0
248411,419.70,803,768,0
248421,364.12,803,765,0
248431,318.70,803,768,0
248441,283.82,803,765,0
248451,260.39,803,768,0
248461,246.90,803,765,0
248471,242.64,803,768,0
248481,244.81,803,764,0
248492,252.19,803,768,0
248502,261.99,803,765,0
248512,273.01,803,768,0
248522,283.16,803,764,0
248532,291.90,803,768,0
248542,298.02,803,764,0
248552,301.78,803,768,0
248562,302.28,803,764,0
248572,300.61,803,768,0
248582,296.35,803,764,0
248592,290.89,803,769,0
248602,283.98,803,764,0
248612,276.79,803,768,0
248622,269.09,803,764,0
248632,262.21,803,768,0
248642,255.63,803,764,0
248652,250.51,803,768,0
248663,246.20,803,764,0
248673,243.61,803,768,0
248683,242.01,803,764,0
248693,242.05,803,768,0
248704,242.89,803,764,0
248713,245.15,803,768,0
248723,247.85,803,764,0
248733,251.37,803,768,0
248743,254.94,803,764,0
248753,258.95,803,768,0
248763,262.69,803,764,0
248773,266.60,803,768,0
248783,269.76,803,764,0
248793,272.83,803,768,0
248803,275.11,803,764,0
248813,277.31,803,768,0
248823,279.19,803,764,0
248833,282.04,803,768,0
248843,287.13,803,764,0
248853,297.89,803,768,0
248863,317.85,803,764,0
248873,352.14,803,768,0
248883,396.03,803,764,0
248902,446.59,773,763,0
248905,500.71,773,767,0
248914,555.53,773,768,0
248924,607.06,773,765,0
248934,650.71,773,768,0
248944,681.27,773,765,0
248954,702.70,773,768,0
248964,717.71,773,765,0
248974,728.25,773,768,0
248984,735.59,773,765,0
248994,740.73,773,768,0
249004,744.32,773,765,0
249014,746.88,773,768,0
249024,748.63,773,765,0
249034,749.86,773,769,0
249044,750.71,773,766,0
249054,751.36,773,768,0
249064,751.76,773,765,0
249074,752.05,773,769,0
249084,752.25,773,766,0
249094,752.43,773,768,0
249104,750.37,773,765,0
249114,741.69,773,768,0
249124,723.44,773,766,0
249134,695.19,773,768,0
249144,656.74,773,765,0
249154,609.16,773,768,0
249164,553.70,773,766,0
249175,494.43,773,768,0
249185,437.47,773,766,0
249195,387.45,773,768,0
249205,346.17,773,767,0
249216,314.79,773,768,0
249225,293.00,773,766,0
249235,280.01,773,768,0
249245,274.09,773,767,0
249255,273.42,773,768,0
249265,276.08,773,766,0
249275,280.56,773,769,0
249285,285.36,773,767,0
249295,289.50,773,768,0
249305,292.13,773,766,0
249315,292.86,773,768,0
249325,291.58,773,767,0
249335,288.45,773,768,0
249345,283.64,773,766,0
249355,277.88,773,769,0
249365,271.44,773,767,0
249375,264.84,773,768,0
249385,258.54,773,767,0
249395,253.02,773,769,0
249405,248.43,773,767,0
249415,245.04,773,768,0
249425,242.80,773,767,0
249435,241.79,773,768,0
249445,241.94,773,767,0
249455,243.20,773,768,0
249465,245.33,773,767,0
249475,248.40,773,768,0
249485,252.05,773,767,0
249495,256.11,773,768,0
249505,260.32,773,767,0
249516,264.59,773,768,0
249526,268.83,773,768,0
249536,272.74,773,768,0
249546,276.25,773,768,0
249556,279.21,773,768,0
249566,281.68,773,768,0
249576,283.70,773,768,0
249586,285.68,773,768,0
249596,288.30,773,768,0
249606,293.61,773,768,0
249616,304.36,773,768,0
249626,325.38,773,768,0
249636,359.94,773,768,0
249646,404.01,773,768,0
249665,454.37,763,767,0
249668,508.17,763,768,0
249677,562.33,763,767,0
249687,613.02,763,768,0
249697,654.93,763,768,0
249707,684.31,763,768,0
249717,704.87,763,767,0
249728,719.27,763,769,0
249737,729.39,763,768,0
249747,736.47,763,768,0
249757,741.43,763,768,0
249767,744.90,763,769,0
249777,747.33,763,768,0
249787,749.03,763,769,0
249797,750.18,763,768,0
249807,750.98,763,769,0
249817,751.54,763,768,0
249827,751.94,763,769,0
249837,752.17,763,768,0
249847,752.33,763,769,0
249857,752.45,763,768,0
249867,752.57,763,768,0
249877,752.61,763,768,0
249887,752.64,763,769,0
249897,752.62,763,767,0
249907,748.06,763,768,0
249917,735.36,763,767,0
249927,713.09,763,768,0
249937,680.88,763,767,0
249947,639.82,763,768,0
249957,590.63,763,768,0
249967,534.85,763,768,0
249977,478.16,763,767,0
249987,425.74,763,768,0
249997,379.92,763,768,0
250007,342.14,763,769,0
250017,311.93,763,768,0
250028,289.32,763,768,0
250038,272.98,763,768,0
250048,262.14,763,769,0
250058,255.03,763,767,0
250068,251.03,763,768,0
250078,248.92,763,767,0
250088,248.18,763,768,0
250098,247.61,763,767,0
250108,247.43,763,769,0
250118,247.04,763,767,0
250128,246.73,763,769,0
250138,246.00,763,767,0
250148,245.27,763,768,0
250158,244.37,763,767,0
250168,243.92,763,769,0
250178,243.34,763,767,0
250188,243.37,763,768,0
250199,243.47,763,766,0
250209,244.32,763,769,0
250219,245.25,763,766,0
250229,246.98,763,768,0
250240,248.74,763,765,0
250249,251.26,763,769,0
250259,253.67,763,766,0
250269,256.72,763,769,0
250279,259.51,763,765,0
250289,263.08,763,769,0
250299,265.97,763,766,0
250309,269.11,763,768,0
250319,271.48,763,765,0
250329,273.95,763,768,0
250339,275.94,763,766,0
250349,278.91,763,768,0
250359,283.40,763,765,0
250369,292.88,763,768,0
250379,310.44,763,766,0
250398,342.02,733,764,0
250401,384.19,733,765,0
250411,433.80,733,769,0
250420,487.56,733,765,0
250430,542.68,733,769,0
250440,595.45,733,765,0
250450,641.56,733,768,0
250460,675.03,733,766,0
250470,698.42,733,769,0
250480,714.80,733,765,0
250490,726.26,733,768,0
250500,734.28,733,766,0
250510,739.90,733,769,0
250520,743.83,733,765,0
250530,746.58,733,768,0
250540,748.51,733,766,0
250550,749.85,733,769,0
250560,750.80,733,765,0
250570,751.46,733,768,0
250580,751.92,733,765,0
250590,752.24,733,769,0
250600,752.47,733,765,0
250610,752.63,733,768,0
250620,752.74,733,765,0
250630,752.82,733,769,0
250640,752.87,733,765,0
250650,752.91,733,768,0
250660,752.25,733,765,0
250670,747.08,733,769,0
250680,733.72,733,765,0
250690,711.35,733,768,0
250700,679.36,733,765,0
250711,638.92,733,768,0
250721,590.47,733,764,0
250731,536.38,733,768,0
250741,481.45,733,765,0
250752,430.91,733,768,0
250761,386.28,733,764,0
250771,349.34,733,768,0
250781,319.24,733,765,0
250791,296.37,733,768,0
250801,278.99,733,764,0
250811,266.78,733,768,0
250821,257.89,733,765,0
250831,252.05,733,768,0
250841,247.75,733,764,0
250851,245.08,733,768,0
250861,242.87,733,765,0
250871,241.62,733,768,0
250881,240.28,733,764,0
250891,239.68,733,768,0
250901,239.05,733,765,0
250911,239.21,733,768,0
250921,239.36,733,765,0
250931,240.24,733,768,0
250941,241.15,733,765,0
250951,242.69,733,768,0
250961,244.16,733,764,0
250971,246.25,733,768,0
250981,248.15,733,764,0
250991,250.63,733,768,0
251001,252.93,733,764,0
251011,255.69,733,768,0
251021,258.31,733,764,0
251031,261.31,733,768,0
251041,264.00,733,764,0
251052,266.96,733,768,0
251062,269.33,733,764,0
251072,271.76,733,768,0
251082,273.46,733,765,0
251092,275.29,733,768,0
251102,276.88,733,764,0
251112,279.87,733,768,0
251122,285.74,733,765,0
251132,298.33,733,768,0
251142,320.77,733,764,0
251161,356.97,763,763,0
251164,402.37,763,767,0
251173,454.11,763,769,0
251183,508.89,763,765,0
251193,563.61,763,768,0
251203,613.87,763,766,0
251213,655.61,763,768,0
251223,684.83,763,765,0
251233,705.28,763,768,0
251243,719.60,763,766,0
251253,729.62,763,768,0
251264,736.63,763,766,0
251273,741.54,763,769,0
251283,744.98,763,766,0
251293,747.39,763,768,0
251303,749.07,763,766,0
251313,750.25,763,768,0
251323,751.07,763,766,0
251333,751.65,763,768,0
251343,752.06,763,766,0
251353,752.34,763,768,0
251363,752.54,763,766,0
251373,752.68,763,768,0
251383,752.73,763,766,0
251393,752.77,763,768,0
251403,748.64,763,766,0
251413,736.58,763,768,0
251423,714.46,763,766,0
251433,681.84,763,768,0
251443,639.37,763,766,0
251453,588.26,763,768,0
251463,529.72,763,766,0
251473,469.64,763,768,0
251483,413.22,763,766,0
251493,364.17,763,768,0
251503,323.83,763,766,0
251513,292.60,763,768,0
251523,269.75,763,766,0
251533,254.56,763,768,0
251543,245.35,763,766,0
251553,240.70,763,768,0
251564,238.91,763,766,0
251574,238.93,763,768,0
251584,239.60,763,767,0
251594,240.32,763,768,0
251604,240.44,763,768,0
251614,239.92,763,768,0
251624,238.70,763,767,0
251634,236.82,763,768,0
251644,234.56,763,768,0
251654,232.21,763,768,0
251664,229.92,763,767,0
251674,227.93,763,768,0
251684,226.45,763,768,0
251694,225.59,763,768,0
251704,225.41,763,767,0
251714,225.89,763,768,0
251724,226.95,763,768,0
251735,228.59,763,768,0
251745,230.77,763,768,0
251755,233.24,763,768,0
251765,236.00,763,768,0
251776,238.91,763,768,0
251785,242.02,763,768,0
251795,245.32,763,768,0
251805,248.61,763,768,0
251815,251.55,763,768,0
251825,254.30,763,768,0
251835,256.57,763,768,0
251845,258.63,763,768,0
251855,260.11,763,768,0
251865,261.15,763,768,0
251875,262.05,763,768,0
251885,264.05,763,768,0
251895,268.66,763,768,0
251914,278.88,753,767,0
251917,299.27,753,766,0
251926,334.55,753,768,0
251936,380.15,753,767,0
251947,432.82,753,768,0
251956,489.36,753,767,0
251966,546.64,753,769,0
251976,600.79,753,767,0
251986,646.37,753,768,0
251996,678.36,753,767,0
252006,700.75,753,769,0
252016,716.42,753,767,0
252026,727.40,753,769,0
252036,735.08,753,767,0
252046,740.45,753,768,0
252056,744.22,753,767,0
252066,746.85,753,768,0
252076,748.65,753,768,0
252086,749.92,753,769,0
252096,750.80,753,767,0
252106,751.42,753,768,0
252116,751.81,753,766,0
252126,752.08,753,769,0
252136,752.27,753,767,0
252146,751.16,753,768,0
252156,743.23,753,766,0
252166,726.14,753,768,0
252176,698.12,753,767,0
252186,659.29,753,768,0
252196,610.09,753,766,0
252206,552.46,753,768,0
252216,488.94,753,767,0
252226,427.24,753,768,0
252236,371.24,753,767,0
252247,324.71,753,768,0
252257,288.54,753,766,0
252267,263.52,753,768,0
252277,247.98,753,765,0
252288,241.21,753,768,0
252297,240.55,753,766,0
252307,244.67,753,768,0
252317,250.81,753,765,0
252327,258.15,753,768,0
252337,264.62,753,766,0
252347,269.92,753,768,0
252357,272.69,753,766,0
252367,273.64,753,768,0
252377,272.08,753,766,0
252387,269.18,753,768,0
252397,264.37,753,766,0
252407,259.03,753,769,0
252417,253.02,753,766,0
252427,247.70,753,768,0
252437,242.60,753,766,0
252447,238.61,753,769,0
252457,235.21,753,765,0
252467,233.26,753,768,0
252477,231.94,753,766,0
252487,232.00,753,769,0
252497,232.47,753,765,0
252507,234.17,753,768,0
252517,236.14,753,766,0
252527,239.22,753,769,0
252537,242.29,753,765,0
252547,246.01,753,768,0
252557,249.44,753,766,0
252567,253.34,753,769,0
252577,256.66,753,765,0
252588,260.32,753,768,0
252598,263.05,753,765,0
252608,265.91,753,769,0
252618,267.95,753,765,0
252628,269.98,753,768,0
252638,271.27,753,765,0
252648,272.52,753,769,0
252658,273.35,753,765,0
252668,274.96,753,768,0
252678,277.71,753,765,0
252688,284.74,753,768,0
252698,298.32,753,765,0
252708,323.72,753,768,0
252727,361.82,813,767,0
252730,408.80,813,770,0
252739,461.32,813,764,0
252749,516.77,813,768,0
252759,571.14,813,764,0
252769,620.85,813,768,0
252779,660.37,813,765,0
252789,688.07,813,769,0
252800,707.51,813,764,0
252809,721.11,813,768,0
252819,730.64,813,764,0
252829,737.35,813,768,0
252839,742.04,813,764,0
252849,745.33,813,768,0
252859,747.63,813,764,0
252869,749.24,813,768,0
252879,750.37,813,764,0
252889,751.12,813,768,0
252899,751.64,813,764,0
252909,752.00,813,768,0
252919,752.26,813,764,0
252929,750.21,813,768,0
252939,740.93,813,764,0
252949,721.92,813,768,0
252959,691.78,813,764,0
252969,651.04,813,768,0
252979,600.24,813,764,0
252989,541.29,813,768,0
252999,477.56,813,764,0
253009,416.40,813,768,0
253019,361.51,813,764,0
253029,316.32,813,769,0
253039,281.25,813,764,0
253049,257.09,813,768,0
253059,242.19,813,764,0
253069,236.09,813,768,0
253079,236.11,813,764,0
253089,241.35,813,768,0
253100,249.21,813,764,0
253110,258.54,813,768,0
253120,267.33,813,764,0
253130,275.12,813,768,0
253140,280.70,813,764,0
253150,284.22,813,768,0
253160,284.84,813,764,0
253170,283.39,813,768,0
253180,279.71,813,764,0
253190,275.04,813,768,0
253200,269.20,813,764,0
253210,263.40,813,768,0
253220,257.45,813,764,0
253230,252.43,813,768,0
253240,248.06,813,764,0
253250,245.04,813,769,0
253260,242.89,813,764,0
253271,242.23,813,768,0
253281,242.25,813,765,0
253291,243.59,813,768,0
253301,245.64,813,766,0
253312,248.58,813,768,0
253321,251.88,813,765,0
253331,255.68,813,768,0
253341,259.64,813,766,0
253351,263.95,813,768,0
253361,268.03,813,764,0
253371,272.14,813,768,0
253381,275.82,813,765,0
253391,279.39,813,768,0
253401,282.27,813,765,0
253411,284.76,813,768,0
253421,286.51,813,765,0
253431,287.77,813,768,0
253441,288.18,813,764,0
253451,288.38,813,768,0
253461,288.27,813,765,0
253471,289.09,813,768,0
253481,292.02,813,766,0
253491,299.60,813,768,0
253501,314.93,813,765,0
253511,342.64,813,768,0
253531,382.00,803,767,0
253534,429.40,803,771,0
253543,481.57,803,767,0
253553,535.44,803,768,0
253563,587.55,803,768,0
253573,633.93,803,768,0
253583,669.61,803,767,0
253593,694.58,803,768,0
253603,712.11,803,768,0
253613,724.38,803,768,0
253623,732.96,803,767,0
253633,738.97,803,768,0
253643,743.18,803,768,0
253654,746.13,803,768,0
253663,748.19,803,767,0
253673,749.63,803,768,0
253683,750.64,803,768,0
253693,751.31,803,768,0
253703,751.73,803,767,0
253713,752.02,803,768,0
253723,748.37,803,767,0
253733,736.82,803,768,0
253743,715.74,803,766,0
253753,684.41,803,768,0
253763,643.27,803,768,0
253773,593.22,803,768,0
253783,535.85,803,767,0
253793,476.71,803,768,0
253803,421.73,803,767,0
253813,374.11,803,768,0
253824,336.36,803,768,0
253833,309.12,803,768,0
253843,292.37,803,767,0
253853,284.93,803,768,0
253863,285.21,803,768,0
253873,291.10,803,768,0
253883,300.72,803,767,0
253893,311.64,803,768,0
253903,322.51,803,768,0
253913,331.91,803,768,0
253923,338.92,803,767,0
253933,342.85,803,768,0
253943,343.75,803,768,0
253953,341.55,803,768,0
253963,336.93,803,767,0
253973,330.05,803,768,0
253983,321.59,803,768,0
253993,311.99,803,768,0
254003,302.43,803,767,0
254013,293.09,803,768,0
254023,284.75,803,768,0
254033,277.58,803,768,0
254043,271.92,803,767,0
254053,267.83,803,768,0
254063,265.57,803,768,0
254073,264.54,803,768,0
254083,264.89,803,767,0
254093,266.12,803,768,0
254103,268.23,803,768,0
254113,270.95,803,768,0
254124,274.31,803,768,0
254134,277.81,803,768,0
254144,281.68,803,768,0
254154,285.38,803,768,0
254164,289.25,803,768,0
254174,292.69,803,768,0
254184,296.00,803,768,0
254194,298.44,803,768,0
254204,300.62,803,768,0
254214,302.02,803,768,0
254224,303.56,803,768,0
254234,305.62,803,768,0
254244,310.75,803,768,0
254254,320.98,803,768,0
254264,340.74,803,768,0
254274,373.61,803,768,0
254284,415.94,803,769,0
254295,464.34,803,767,0
254314,516.23,784,766,0
254317,568.10,784,766,0
254326,616.76,784,769,0
254337,657.59,784,765,0
254347,686.21,784,769,0
254357,706.25,784,764,0
254367,720.27,784,769,0
254377,730.09,784,764,0
254387,736.96,784,769,0
254397,741.73,784,764,0
254407,745.07,784,769,0
254417,747.36,784,764,0
254427,748.97,784,769,0
254437,750.05,784,764,0
254447,750.81,784,769,0
254457,751.34,784,764,0
254467,751.75,784,768,0
254477,752.00,784,764,0
254487,752.21,784,769,0
254497,752.32,784,763,0
254508,749.91,784,768,0
254518,740.29,784,763,0
254528,721.48,784,769,0
254538,692.41,784,763,0
254548,653.71,784,768,0
254558,606.18,784,763,0
254568,551.57,784,769,0
254578,493.67,784,763,0
254588,439.21,784,768,0
254598,391.32,784,763,0
254608,352.65,784,768,0
254618,323.44,784,763,0
254628,303.60,784,768,0
254638,291.50,784,763,0
254648,286.29,784,768,0
254658,285.91,784,763,0
254668,288.89,784,769,0
254679,292.95,784,762,0
254689,297.30,784,768,0
254699,300.89,784,763,0
254709,303.71,784,769,0
254720,305.00,784,763,0
254729,304.40,784,769,0
254739,301.88,784,764,0
254749,298.44,784,769,0
254759,293.81,784,763,0
254769,288.68,784,769,0
254779,282.86,784,764,0
254789,277.38,784,769,0
254799,272.16,784,763,0
254809,268.00,784,769,0
254819,264.49,784,763,0
254829,262.15,784,769,0
254839,260.65,784,763,0
254849,260.37,784,769,0
254859,260.52,784,763,0
254869,261.95,784,769,0
254879,263.81,784,763,0
254889,266.52,784,769,0
254899,269.66,784,763,0
254909,273.37,784,769,0
254919,276.90,784,762,0
254929,280.49,784,769,0
254939,283.47,784,763,0
254949,286.46,784,769,0
254959,288.81,784,762,0
254969,290.88,784,769,0
254979,292.24,784,762,0
254989,293.58,784,769,0
254999,294.82,784,762,0
255009,297.02,784,769,0
255020,301.81,784,762,0
255030,312.41,784,768,0
255040,332.99,784,758,0
255050,367.06,784,752,0
255070,410.33,755,749,0
255073,459.95,755,752,0
255082,513.02,755,747,0
255092,566.41,755,750,0
255102,616.26,755,747,0
255112,657.50,755,750,0
255122,686.36,755,747,0
255132,706.61,755,750,0
255142,720.78,755,747,0
255152,730.75,755,750,0
255162,737.68,755,747,0
255172,742.53,755,750,0
255182,745.93,755,747,0
255192,748.31,755,750,0
255202,749.93,755,747,0
255212,751.07,755,750,0
255222,751.86,755,747,0
255233,752.46,755,750,0
255243,752.88,755,747,0
255253,753.17,755,750,0
255263,753.38,755,747,0
255273,753.56,755,751,0
255283,753.65,755,747,0
255293,753.71,755,750,0
255303,753.76,755,747,0
255313,750.32,755,750,0
255323,739.68,755,747,0
255333,719.97,755,750,0
255343,690.20,755,747,0
255353,651.18,755,750,0
255363,603.55,755,747,0
255373,549.09,755,750,0
255383,492.23,755,747,0
255393,438.38,755,750,0
255404,390.44,755,747,0
255414,350.66,755,750,0
255424,318.92,755,747,0
255434,295.29,755,750,0
255444,278.14,755,747,0
255454,266.87,755,750,0
255464,259.75,755,746,0
255474,255.93,755,750,0
255484,254.02,755,747,0
255494,253.46,755,750,0
255504,253.11,755,747,0
255514,252.95,755,750,0
255524,252.53,755,747,0
255534,252.16,755,750,0
255544,251.30,755,746,0
255554,250.48,755,750,0
255564,249.35,755,747,0
255575,248.47,755,750,0
255585,247.77,755,747,0
255595,247.28,755,750,0
255605,247.11,755,747,0
255616,247.47,755,749,0
255625,247.97,755,747,0
255635,249.05,755,750,0
255645,250.66,755,747,0
255655,252.61,755,749,0
255665,255.25,755,747,0
255675,258.01,755,750,0
255685,261.13,755,747,0
255695,264.22,755,749,0
255705,267.46,755,747,0
255715,270.45,755,750,0
255725,273.40,755,747,0
255735,275.85,755,749,0
255745,278.04,755,747,0
255755,279.96,755,750,0
255765,281.81,755,747,0
255775,283.11,755,749,0
255785,284.45,755,747,0
255795,286.16,755,750,0
255814,289.62,745,749,0
255817,297.79,745,749,0
255826,314.40,745,748,0
255836,343.46,745,750,0
255846,383.91,745,748,0
255856,431.94,745,749,0
255866,484.84,745,748,0
255876,539.70,745,750,0
255886,592.42,745,748,0
255896,638.28,745,749,0
255906,672.91,745,748,0
255916,697.15,745,750,0
255926,714.16,745,748,0
255936,726.03,745,749,0
255946,734.33,745,748,0
255956,740.15,745,749,0
255966,744.26,745,748,0
255976,747.10,745,749,0
255986,749.08,745,748,0
255996,750.47,745,749,0
256006,751.49,745,748,0
256016,752.16,745,749,0
256026,752.62,745,748,0
256036,752.95,745,749,0
256046,753.22,745,748,0
256056,753.37,745,750,0
256066,753.47,745,748,0
256076,753.50,745,749,0
256087,753.57,745,748,0
256097,750.10,745,749,0
256107,739.57,745,748,0
256117,719.17,745,749,0
256128,689.03,745,748,0
256137,649.17,745,749,0
256147,601.03,745,748,0
256157,545.39,745,749,0
256167,487.76,745,748,0
256177,432.59,745,749,0
256187,384.54,745,748,0
256197,344.14,745,749,0
256207,312.64,745,748,0
256217,288.88,745,749,0
256227,272.71,745,748,0
256237,261.83,745,749,0
256247,255.96,745,748,0
256257,252.59,745,749,0
256267,251.64,745,747,0
256277,251.02,745,749,0
256287,251.10,745,748,0
256297,250.34,745,749,0
256307,249.68,745,747,0
256317,247.93,745,749,0
256327,246.41,745,748,0
256337,244.02,745,749,0
256347,242.21,745,747,0
256357,240.05,745,749,0
256367,238.88,745,748,0
256377,237.63,745,749,0
256387,237.57,745,747,0
256397,237.70,745,749,0
256407,239.12,745,748,0
256417,240.71,745,749,0
256428,243.33,745,748,0
256438,245.93,745,749,0
256448,249.64,745,749,0
256458,252.96,745,748,0
256468,257.00,745,748,0
256478,260.39,745,749,0
256488,264.26,745,749,0
256498,267.22,745,748,0
256508,270.63,745,748,0
256518,273.01,745,748,0
256528,275.75,745,749,0
256538,277.37,745,748,0
256548,279.27,745,748,0
256558,279.92,745,749,0
256568,280.84,745,749,0
256578,280.63,745,748,0
256588,281.17,745,749,0
256599,282.15,745,748,0
256618,286.78,804,747,0
256621,298.24,804,747,0
256630,322.00,804,749,0
256641,358.73,804,747,0
256651,405.14,804,750,0
256661,457.34,804,747,0
256671,513.12,804,750,0
256681,568.67,804,747,0
256691,619.26,804,750,0
256701,659.59,804,747,0
256711,687.83,804,750,0
256721,707.60,804,747,0
256731,721.47,804,750,0
256741,731.15,804,747,0
256751,737.87,804,750,0
256761,742.54,804,747,0
256771,745.81,804,750,0
256781,748.09,804,747,0
256791,749.65,804,750,0
256801,750.70,804,747,0
256812,751.47,804,750,0
256822,752.02,804,747,0
256832,752.40,804,750,0
256842,752.62,804,747,0
256852,752.82,804,750,0
256862,752.96,804,747,0
256872,753.06,804,750,0
256882,747.94,804,747,0
256892,734.54,804,750,0
256902,711.07,804,747,0
256912,677.58,804,750,0
256922,634.25,804,746,0
256932,582.70,804,750,0
256942,524.20,804,747,0
256952,465.99,804,750,0
256962,412.29,804,747,0
256972,366.60,804,750,0
256983,329.82,804,746,0
256993,302.62,804,750,0
257003,283.88,804,746,0
257013,272.64,804,750,0
257024,266.79,804,747,0
257033,265.27,804,750,0
257043,265.96,804,746,0
257053,267.77,804,750,0
257063,269.51,804,747,0
257073,270.64,804,750,0
257083,270.41,804,746,0
257093,268.91,804,750,0
257103,265.98,804,747,0
257113,262.17,804,750,0
257123,257.49,804,746,0
257133,252.46,804,750,0
257143,247.18,804,747,0
257153,242.45,804,750,0
257163,238.16,804,746,0
257173,234.68,804,750,0
257183,232.25,804,747,0
257193,230.85,804,750,0
257203,230.42,804,746,0
257213,231.07,804,750,0
257223,232.37,804,747,0
257233,234.53,804,750,0
257243,237.16,804,746,0
257253,240.20,804,750,0
257263,243.57,804,747,0
257273,247.13,804,750,0
257283,250.69,804,746,0
257293,254.47,804,750,0
257303,258.14,804,747,0
257313,261.91,804,750,0
257324,265.32,804,746,0
257334,268.61,804,750,0
257344,271.64,804,747,0
257354,274.28,804,750,0
257364,276.60,804,747,0
257374,278.47,804,750,0
257384,280.00,804,747,0
257394,281.37,804,750,0
257404,283.83,804,747,0
257414,288.94,804,750,0
257424,300.02,804,747,0
257434,321.10,804,750,0
257454,356.04,835,748,0
257457,400.56,835,749,0
257466,451.69,835,748,0
257476,506.08,835,749,0
257486,560.91,835,748,0
257496,612.03,835,749,0
257506,654.49,835,748,0
257516,684.26,835,749,0
257526,705.09,835,747,0
257537,719.64,835,749,0
257547,729.86,835,748,0
257557,736.97,835,749,0
257567,742.00,835,748,0
257577,745.47,835,748,0
257587,747.90,835,748,0
257597,749.56,835,749,0
257607,750.76,835,748,0
257617,751.56,835,748,0
257627,752.16,835,748,0
257637,752.54,835,749,0
257647,752.85,835,748,0
257657,753.03,835,748,0
257667,753.19,835,748,0
257677,747.26,835,749,0
257687,732.70,835,748,0
257697,707.12,835,748,0
257708,671.25,835,749,0
257718,625.15,835,748,0
257728,570.98,835,749,0
257738,509.65,835,747,0
257748,450.02,835,750,0
257758,395.54,835,748,0
257768,351.02,835,749,0
257778,316.17,835,747,0
257788,292.59,835,749,0
257798,277.80,835,748,0
257808,271.86,835,749,0
257818,271.39,835,747,0
257828,275.81,835,749,0
257838,281.83,835,748,0
257848,289.16,835,749,0
257858,294.94,835,747,0
257868,299.97,835,749,0
257879,302.21,835,747,0
257889,302.75,835,749,0
257899,300.51,835,747,0
257909,296.93,835,750,0
257920,291.29,835,747,0
257929,285.59,835,749,0
257939,278.81,835,747,0
257949,272.91,835,750,0
257959,266.98,835,747,0
257969,262.74,835,749,0
257979,258.88,835,747,0
257989,256.86,835,749,0
257999,255.40,835,747,0
258009,255.92,835,749,0
258019,256.85,835,747,0
258029,259.38,835,749,0
258039,261.88,835,747,0
258049,265.90,835,750,0
258059,269.70,835,747,0
258069,274.46,835,750,0
258079,278.65,835,747,0
258089,283.39,835,750,0
258099,287.26,835,747,0
258109,291.42,835,749,0
258119,294.38,835,747,0
258129,297.44,835,750,0
258139,299.11,835,747,0
258149,300.66,835,750,0
258159,301.06,835,747,0
258169,302.24,835,749,0
258179,304.31,835,747,0
258189,311.25,835,750,0
258199,325.53,835,747,0
258209,353.40,835,750,0
258220,392.11,835,747,0
258239,438.96,786,746,0
258242,490.27,786,747,0
258251,543.89,786,750,0
258262,595.35,786,746,0
258271,640.98,786,750,0
258281,674.71,786,747,0
258291,698.37,786,750,0
258301,714.89,786,746,0
258311,726.49,786,750,0
258321,734.57,786,747,0
258331,740.27,786,750,0
258341,744.22,786,746,0
258351,747.03,786,750,0
258361,748.95,786,747,0
258371,750.33,786,750,0
258381,751.26,786,746,0
258391,751.95,786,750,0
258401,752.40,786,747,0
258411,752.75,786,750,0
258421,752.95,786,746,0
258432,751.81,786,750,0
258441,744.50,786,747,0
258451,728.32,786,750,0
258461,701.31,786,746,0
258471,663.89,786,750,0
258481,616.65,786,747,0
258491,561.34,786,750,0
258501,500.72,786,746,0
258511,441.66,786,750,0
258521,388.36,786,747,0
258531,344.71,786,750,0
258541,311.24,786,746,0
258551,288.58,786,750,0
258561,275.17,786,747,0
258571,270.23,786,750,0
258581,271.23,786,746,0
258591,276.82,786,750,0
258601,284.29,786,746,0
258611,292.69,786,750,0
258621,299.81,786,746,0
258631,305.52,786,750,0
258641,308.37,786,746,0
258651,309.11,786,750,0
258661,306.85,786,747,0
258671,302.61,786,750,0
258681,296.26,786,746,0
258691,289.24,786,750,0
258701,281.37,786,746,0
258711,273.84,786,750,0
258721,266.35,786,746,0
258732,260.16,786,750,0
258742,254.97,786,746,0
258752,251.33,786,750,0
258762,248.88,786,747,0
258772,247.97,786,750,0
258782,248.37,786,746,0
258792,250.01,786,750,0
258802,252.45,786,747,0
258812,255.83,786,750,0
258822,259.70,786,746,0
258832,264.12,786,750,0
258842,268.62,786,747,0
258852,273.19,786,750,0
258862,277.51,786,746,0
258872,281.73,786,750,0
258882,285.54,786,747,0
258892,288.98,786,750,0
258903,291.73,786,747,0
258913,293.99,786,750,0
258923,295.67,786,747,0
258933,297.70,786,750,0
258944,301.43,786,747,0
258953,309.14,786,750,0
258963,324.74,786,747,0
258973,353.28,786,750,0
258983,392.71,786,747,0
259002,439.68,763,746,0
259005,491.38,763,748,0
259014,544.66,763,749,0
259024,596.32,763,748,0
259034,641.65,763,749,0
259044,675.23,763,748,0
259054,698.73,763,749,0
259064,715.23,763,748,0
259074,726.73,763,749,0
259084,734.78,763,748,0
259094,740.42,763,749,0
259104,744.41,763,748,0
259115,747.16,763,749,0
259124,749.12,763,747,0
259134,750.50,763,749,0
259144,751.51,763,748,0
259154,752.17,763,749,0
259164,752.63,763,748,0
259174,752.96,763,749,0
259184,753.23,763,748,0
259194,753.37,763,749,0
259204,753.48,763,748,0
259214,753.55,763,749,0
259224,753.64,763,748,0
259234,753.66,763,749,0
259244,749.22,763,747,0
259254,736.77,763,749,0
259264,715.07,763,748,0
259274,683.59,763,748,0
259284,643.56,763,748,0
259294,595.90,763,749,0
259304,542.23,763,748,0
259314,487.99,763,749,0
259324,438.32,763,748,0
259334,395.54,763,750,0
259344,360.92,763,748,0
259354,333.34,763,749,0
259364,312.84,763,748,0
259374,297.72,763,749,0
259384,287.35,763,748,0
259394,279.70,763,749,0
259404,274.17,763,748,0
259415,269.37,763,749,0
259425,265.70,763,748,0
259435,261.63,763,749,0
259445,257.97,763,748,0
259456,253.69,763,749,0
259465,250.19,763,748,0
259475,246.36,763,749,0
259485,243.64,763,748,0
259495,241.09,763,749,0
259505,239.95,763,748,0
259515,239.19,763,749,0
259525,240.03,763,748,0
259535,241.05,763,749,0
259545,243.48,763,748,0
259555,245.99,763,749,0
259565,249.68,763,748,0
259575,253.16,763,749,0
259585,257.53,763,748,0
259595,261.36,763,749,0
259605,265.71,763,748,0
259615,269.31,763,749,0
259625,273.20,763,749,0
259635,276.01,763,749,0
259645,278.97,763,748,0
259655,280.60,763,749,0
259665,282.39,763,749,0
259675,283.05,763,749,0
259685,283.80,763,748,0
259695,283.48,763,749,0
259705,283.51,763,748,0
259715,283.18,763,749,0
259725,284.93,763,748,0
259735,289.84,763,749,0
259745,302.83,763,748,0
259765,327.78,763,748,0
259768,365.86,763,750,0
259777,412.53,763,748,0
259787,465.34,763,750,0
259798,520.74,763,748,0
259807,575.68,763,750,0
259817,625.02,763,748,0
259827,663.71,763,750,0
259837,690.80,763,748,0
259847,709.76,763,749,0
259857,723.03,763,748,0
259867,732.32,763,750,0
259877,738.83,763,748,0
259887,743.38,763,749,0
259897,746.56,763,748,0
259907,748.80,763,750,0
259917,750.36,763,748,0
259927,751.45,763,749,0
259937,752.21,763,748,0
259947,752.75,763,750,0
259957,753.13,763,748,0
259968,753.39,763,750,0
259977,753.57,763,748,0
259987,753.70,763,750,0
259997,753.79,763,748,0
260007,753.85,763,750,0
260017,753.90,763,748,0
260027,753.93,763,750,0
260037,747.99,763,748,0
260047,734.07,763,750,0
260057,710.30,763,748,0
260067,677.43,763,750,0
260077,635.30,763,748,0
260087,585.71,763,750,0
260097,529.22,763,748,0
260107,473.87,763,750,0
260117,422.27,763,748,0
260127,377.92,763,750,0
260137,340.27,763,748,0
260147,310.79,763,750,0
260157,287.49,763,748,0
260167,270.80,763,750,0
260177,258.18,763,748,0
260187,249.77,763,750,0
260197,243.24,763,748,0
260207,239.22,763,750,0
260217,235.60,763,748,0
260227,233.40,763,750,0
260237,230.88,763,748,0
260247,229.33,763,750,0
260257,227.35,763,748,0
260268,226.51,763,750,0
260278,225.33,763,747,0
260288,225.40,763,750,0
260298,225.33,763,747,0
260308,226.77,763,750,0
260318,228.13,763,748,0
260328,230.70,763,750,0
260338,233.06,763,747,0
260348,236.60,763,750,0
260358,239.89,763,748,0
260368,244.08,763,750,0
260378,247.61,763,747,0
260388,251.84,763,750,0
260398,255.49,763,748,0
260408,259.63,763,750,0
260418,262.83,763,747,0
260428,266.35,763,750,0
260439,268.90,763,747,0
260449,271.72,763,750,0
260459,273.52,763,747,0
260469,275.38,763,750,0
260480,276.21,763,747,0
260489,277.17,763,750,0
260499,277.12,763,747,0
260509,277.56,763,750,0
260519,278.12,763,747,0
260529,281.47,763,750,0
260548,289.60,783,749,0
260551,308.96,783,750,0
260560,342.83,783,747,0
260570,387.32,783,751,0
260580,438.57,783,747,0
260590,494.20,783,751,0
260600,550.75,783,747,0
260610,604.74,783,751,0
260620,649.52,783,747,0
260630,680.86,783,751,0
260640,702.80,783,747,0
260651,718.16,783,751,0
260660,728.91,783,747,0
260670,736.44,783,751,0
260680,741.71,783,747,0
260690,745.40,783,751,0
260700,747.98,783,747,0
260710,749.78,783,751,0
260720,751.05,783,747,0
260730,751.93,783,751,0
260740,752.55,783,747,0
260750,752.99,783,751,0
260760,753.29,783,747,0
260770,753.50,783,751,0
260780,753.65,783,747,0
260790,753.76,783,751,0
260800,753.83,783,747,0
260810,753.88,783,751,0
260820,752.03,783,747,0
260830,744.35,783,751,0
260840,727.57,783,747,0
260850,700.66,783,751,0
260860,663.52,783,747,0
260870,617.38,783,751,0
260880,563.05,783,747,0
260890,503.98,783,751,0
260900,445.31,783,746,0
260910,392.03,783,750,0
260920,345.95,783,747,0
260930,308.55,783,751,0
260940,279.03,783,747,0
260951,257.29,783,751,0
260961,241.86,783,747,0
260971,231.75,783,750,0
260981,225.26,783,747,0
260992,221.71,783,750,0
261001,219.49,783,747,0
261011,218.18,783,750,0
261021,217.01,783,747,0
261031,215.90,783,750,0
261041,214.73,783,747,0
261051,213.57,783,750,0
261061,212.45,783,747,0
261071,211.59,783,750,0
261081,211.15,783,747,0
261091,211.24,783,750,0
261101,211.98,783,747,0
261111,213.27,783,750,0
261121,215.03,783,747,0
261131,217.34,783,750,0
261141,220.15,783,747,0
261151,223.23,783,750,0
261161,226.72,783,747,0
261171,230.36,783,750,0
261181,234.11,783,747,0
261191,237.85,783,750,0
261201,241.54,783,747,0
261211,245.06,783,750,0
261221,248.39,783,747,0
261231,251.27,783,750,0
261241,253.93,783,747,0
261251,256.22,783,750,0
261261,258.26,783,747,0
261271,259.77,783,750,0
261281,260.95,783,747,0
261292,261.74,783,750,0
261302,262.63,783,748,0
261312,264.11,783,750,0
261331,268.36,783,749,0
261335,278.88,783,749,0
261343,299.36,783,748,0
261353,334.01,783,749,0
261363,379.39,783,748,0
261373,431.90,783,750,0
261383,488.72,783,748,0
261393,546.27,783,749,0
261403,599.98,783,748,0
261413,645.50,783,750,0
261423,678.05,783,748,0
261433,700.79,783,749,0
261443,716.71,783,749,0
261453,727.85,783,750,0
261463,735.66,783,748,0
261473,741.12,783,749,0
261483,744.94,783,748,0
261493,747.61,783,750,0
261504,749.53,783,749,0
261513,750.87,783,749,0
261523,751.85,783,749,0
261533,752.54,783,749,0
261543,753.02,783,749,0
261553,753.31,783,749,0
261563,753.52,783,748,0
261573,753.66,783,750,0
261583,749.35,783,749,0
261593,736.82,783,749,0
261603,714.24,783,748,0
261613,680.83,783,750,0
261623,637.46,783,748,0
261633,585.17,783,749,0
261643,525.85,783,748,0
261653,465.29,783,750,0
261663,409.70,783,749,0
261673,362.05,783,749,0
261683,325.01,783,748,0
261693,298.22,783,749,0
261703,281.78,783,748,0
261713,273.49,783,749,0
261723,272.49,783,748,0
261733,275.55,783,750,0
261743,281.77,783,748,0
261753,288.23,783,749,0
261763,294.63,783,748,0
261773,298.86,783,750,0
261783,301.38,783,748,0
261793,300.84,783,749,0
261804,298.49,783,749,0
261814,293.50,783,749,0
261824,287.61,783,749,0
261834,280.05,783,749,0
261844,272.71,783,749,0
261854,265.00,783,749,0
261864,258.61,783,749,0
261874,252.56,783,749,0
261884,248.49,783,749,0
261894,245.26,783,749,0
261904,244.24,783,749,0
261914,243.95,783,749,0
261924,245.64,783,749,0
261934,247.67,783,749,0
261944,251.20,783,749,0
261954,254.57,783,749,0
261964,258.98,783,749,0
261975,262.93,783,749,0
261985,267.54,783,750,0
261995,271.23,783,748,0
262005,275.36,783,750,0
262016,278.47,783,748,0
262025,281.80,783,750,0
262035,283.79,783,748,0
262045,285.91,783,750,0
262055,287.35,783,748,0
262065,290.37,783,750,0
262075,295.70,783,748,0
262085,308.09,783,750,0
262095,330.52,783,748,0
262105,366.49,783,750,0
262115,411.22,783,749,0
262134,462.24,803,747,0
262137,516.04,803,749,0
262146,570.03,803,750,0
262156,619.30,803,748,0
262166,659.63,803,750,0
262176,687.85,803,748,0
262187,707.65,803,751,0
262196,721.52,803,748,0
262206,731.26,803,750,0
262216,738.08,803,748,0
262226,742.90,803,751,0
262236,746.27,803,748,0
262246,748.63,803,750,0
262256,750.29,803,748,0
262266,751.44,803,751,0
262276,752.25,803,748,0
262286,752.82,803,750,0
262296,753.17,803,748,0
262306,753.42,803,751,0
262316,753.60,803,748,0
262326,752.30,803,750,0
262336,743.85,803,748,0
262346,726.07,803,750,0
262356,696.91,803,748,0
262366,657.51,803,750,0
262376,607.94,803,748,0
262386,550.31,803,750,0
262396,487.26,803,748,0
262406,427.06,803,750,0
262416,372.74,803,748,0
262426,328.67,803,750,0
262436,294.31,803,748,0
262446,271.12,803,750,0
262456,256.86,803,748,0
262466,251.24,803,750,0
262476,251.04,803,748,0
262487,255.74,803,750,0
262497,262.12,803,748,0
262507,269.76,803,751,0
262517,276.00,803,747,0
262528,281.10,803,750,0
262537,283.38,803,748,0
262547,283.87,803,751,0
262557,281.47,803,747,0
262567,277.60,803,750,0
262577,271.68,803,748,0
262587,265.52,803,751,0
262597,258.59,803,747,0
262607,252.50,803,750,0
262617,246.43,803,748,0
262627,242.02,803,751,0
262637,238.33,803,747,0
262647,236.51,803,751,0
262657,235.55,803,748,0
262667,236.41,803,751,0
262677,237.83,803,748,0
262687,240.71,803,751,0
262697,243.84,803,747,0
262707,248.04,803,751,0
262717,251.93,803,747,0
262727,256.41,803,750,0
262737,260.44,803,747,0
262747,265.11,803,751,0
262757,269.06,803,747,0
262767,273.12,803,751,0
262777,276.30,803,747,0
262787,279.76,803,751,0
262797,282.28,803,748,0
262807,284.77,803,751,0
262817,286.29,803,747,0
262828,288.95,803,751,0
262838,293.42,803,747,0
262848,303.58,803,751,0
262858,322.82,803,747,0
262868,356.39,803,751,0
262887,399.56,753,750,0
262890,449.62,753,752,0
262899,503.30,753,747,0
262909,557.98,753,751,0
262919,609.33,753,747,0
262929,652.73,753,751,0
262939,683.11,753,748,0
262949,704.38,753,751,0
262959,719.27,753,747,0
262969,729.69,753,751,0
262979,736.98,753,748,0
262989,742.09,753,751,0
262999,745.66,753,747,0
263009,748.16,753,751,0
263019,749.91,753,747,0
263029,751.14,753,751,0
263040,752.00,753,748,0
263049,752.60,753,751,0
263059,753.02,753,747,0
263069,753.31,753,751,0
263079,753.52,753,748,0
263089,753.66,753,751,0
263099,753.76,753,747,0
263109,753.84,753,751,0
263119,753.88,753,748,0
263129,753.40,753,751,0
263139,746.94,753,747,0
263149,731.70,753,751,0
263159,706.29,753,748,0
263169,671.23,753,751,0
263179,627.06,753,747,0
263189,575.32,753,751,0
263199,517.49,753,748,0
263209,460.56,753,751,0
263219,408.58,753,747,0
263229,364.22,753,751,0
263239,327.85,753,748,0
263249,299.61,753,751,0
263259,278.34,753,747,0
263269,263.50,753,751,0
263279,253.70,753,748,0
263289,248.18,753,751,0
263299,244.83,753,747,0
263309,242.91,753,751,0
263319,241.69,753,748,0
263329,240.76,753,751,0
263340,239.71,753,747,0
263350,238.34,753,750,0
263360,236.48,753,748,0
263370,234.80,753,750,0
263380,233.53,753,748,0
263390,232.60,753,751,0
263400,232.29,753,748,0
263410,232.46,753,750,0
263420,233.57,753,748,0
263430,235.15,753,751,0
263440,237.55,753,748,0
263450,240.21,753,750,0
263460,243.54,753,748,0
263470,247.10,753,751,0
263480,251.10,753,748,0
263490,254.93,753,750,0
263500,258.98,753,748,0
263511,262.76,753,750,0
263521,266.64,753,748,0
263531,269.92,753,750,0
263541,273.16,753,748,0
263552,275.64,753,749,0
263561,278.06,753,748,0
263571,279.59,753,750,0
263581,281.00,753,748,0
263591,281.64,753,750,0
263601,282.86,753,749,0
263611,285.13,753,750,0
263621,291.91,753,750,0
263641,306.08,753,748,0
263644,335.20,753,751,0
263653,375.60,753,750,0
263663,424.23,753,750,0
263673,477.82,753,750,0
263683,533.84,753,751,0
263693,588.23,753,751,0
263703,636.81,753,752,0
263713,672.01,753,751,0
263724,696.69,753,752,0
263734,713.97,753,750,0
263744,726.06,753,751,0
263754,734.49,753,749,0
263764,740.43,753,751,0
263774,744.58,753,749,0
263784,747.50,753,751,0
263794,749.49,753,749,0
263804,750.93,753,751,0
263814,751.94,753,749,0
263824,752.64,753,751,0
263834,753.09,753,748,0
263844,753.41,753,751,0
263854,753.63,753,749,0
263864,753.78,753,750,0
263874,753.85,753,748,0
263884,753.94,753,751,0
263895,754.00,753,748,0
263905,754.04,753,751,0
263915,754.03,753,748,0
263925,749.13,753,751,0
263936,735.55,753,748,0
263945,712.97,753,750,0
263955,680.45,753,748,0
263965,639.26,753,751,0
263975,589.68,753,748,0
263985,533.85,753,751,0
263995,477.07,753,748,0
264005,425.02,753,751,0
264015,378.47,753,748,0
264025,339.84,753,750,0
264035,308.00,753,748,0
264045,283.83,753,751,0
264055,264.98,753,748,0
264065,251.83,753,750,0
264075,241.94,753,748,0
264085,235.70,753,751,0
264095,230.99,753,748,0
264105,228.46,753,751,0
264115,226.40,753,748,0
264125,225.81,753,751,0
264135,225.18,753,748,0
264145,225.77,753,751,0
264155,226.05,753,748,0
264165,227.45,753,751,0
264175,228.69,753,748,0
264185,230.88,753,751,0
264195,232.72,753,748,0
264205,235.59,753,751,0
264215,238.15,753,748,0
264225,241.66,753,751,0
264236,244.72,753,747,0
264246,248.36,753,751,0
264256,251.51,753,748,0
264266,255.17,753,751,0
264276,258.16,753,747,0
264286,261.59,753,751,0
264296,264.32,753,748,0
264306,267.44,753,751,0
264316,269.88,753,747,0
264326,272.66,753,751,0
264336,274.65,753,748,0
264346,276.77,753,751,0
264356,277.91,753,747,0
264366,279.22,753,751,0
264376,279.63,753,748,0
264386,280.68,753,751,0
264396,282.66,753,748,0
264407,288.98,753,751,0
264426,302.48,786,750,0
264429,330.54,786,751,0
264438,370.23,786,747,0
264449,418.59,786,751,0
264459,472.12,786,748,0
264469,528.27,786,751,0
264479,583.09,786,747,0
264489,632.39,786,750,0
264499,668.92,786,748,0
264509,694.53,786,751,0
264519,712.45,786,748,0
264529,725.00,786,750,0
264539,733.83,786,748,0
264549,740.01,786,751,0
264559,744.34,786,748,0
264569,747.32,786,750,0
264579,749.41,786,748,0
264589,750.87,786,751,0
264599,751.90,786,748,0
264609,752.57,786,750,0
264620,753.09,786,748,0
264630,753.45,786,750,0
264640,753.70,786,748,0
264650,753.83,786,750,0
264660,753.97,786,749,0
264670,754.06,786,750,0
264680,754.13,786,748,0
264690,754.13,786,750,0
264700,750.54,786,748,0
264710,739.83,786,750,0
264720,720.25,786,748,0
264730,690.95,786,750,0
264740,652.82,786,748,0
264750,606.76,786,750,0
264760,554.03,786,748,0
264770,499.17,786,749,0
264780,447.39,786,748,0
264791,401.07,786,750,0
264801,362.44,786,748,0
264811,330.72,786,749,0
264821,306.12,786,749,0
264832,287.01,786,749,0
264841,273.29,786,748,0
264851,262.75,786,749,0
264861,255.41,786,749,0
264871,249.20,786,749,0
264881,244.64,786,748,0
264891,240.08,786,749,0
264901,236.50,786,749,0
264911,232.62,786,749,0
264921,229.65,786,749,0
264931,226.50,786,749,0
264941,224.55,786,749,0
264951,222.67,786,749,0
264961,222.13,786,748,0
264971,221.92,786,749,0
264981,223.23,786,749,0
264991,224.66,786,749,0
265001,227.38,786,749,0
265011,230.13,786,749,0
265021,234.21,786,749,0
265031,238.17,786,749,0
265041,242.92,786,749,0
265051,247.10,786,749,0
265061,251.91,786,748,0
265071,256.01,786,749,0
265081,260.29,786,749,0
265091,263.42,786,749,0
265101,266.47,786,748,0
265111,268.25,786,749,0
265121,269.81,786,749,0
265132,269.86,786,748,0
265142,269.65,786,749,0
265152,268.04,786,749,0
265162,266.18,786,749,0
265172,263.22,786,748,0
265182,260.62,786,749,0
265192,258.04,786,749,0
265202,258.71,786,750,0
265212,264.24,786,748,0
265222,279.73,786,749,0
265241,309.25,815,748,0
265244,351.99,815,751,0
265253,403.38,815,748,0
265263,460.82,815,750,0
265273,519.93,815,748,0
265283,577.30,815,750,0
265293,627.61,815,748,0
265303,665.65,815,750,0
265313,692.29,815,748,0
265323,710.97,815,750,0
265333,724.01,815,748,0
265344,733.18,815,750,0
265353,739.55,815,748,0
265363,744.06,815,750,0
265373,747.17,815,748,0
265383,749.39,815,750,0
265393,750.90,815,748,0
265403,752.00,815,750,0
265413,752.73,815,748,0
265423,753.28,815,750,0
265433,753.63,815,748,0
265443,753.91,815,750,0
265453,754.07,815,748,0
265463,754.22,815,750,0
265473,753.59,815,748,0
265483,747.55,815,750,0
265493,732.04,815,748,0
265503,706.48,815,750,0
265513,670.25,815,748,0
265523,625.35,815,750,0
265533,572.06,815,748,0
265543,513.50,815,750,0
265553,455.36,815,748,0
265563,403.78,815,750,0
265573,360.00,815,748,0
265583,326.27,815,750,0
265593,300.69,815,748,0
265603,283.98,815,750,0
265613,273.15,815,748,0
265623,268.05,815,750,0
265633,265.42,815,748,0
265644,265.21,815,750,0
265654,264.80,815,748,0
265664,264.65,815,750,0
265674,262.87,815,748,0
265684,260.59,815,751,0
265694,256.34,815,748,0
265704,251.95,815,750,0
265714,246.31,815,747,0
265724,241.16,815,751,0
265734,235.50,815,748,0
265744,231.11,815,750,0
265754,226.92,815,748,0
265764,224.41,815,751,0
265774,222.36,815,748,0
265784,222.12,815,750,0
265794,222.39,815,748,0
265804,224.50,815,751,0
265815,226.79,815,747,0
265825,230.50,815,750,0
265835,234.12,815,747,0
265845,238.54,815,750,0
265856,242.62,815,747,0
265865,247.19,815,751,0
265875,250.82,815,747,0
265885,254.69,815,751,0
265895,257.57,815,747,0
265905,260.48,815,750,0
265915,262.48,815,747,0
265925,264.39,815,751,0
265935,265.35,815,747,0
265945,266.23,815,750,0
265955,266.03,815,747,0
265965,265.68,815,750,0
265975,264.49,815,747,0
265985,263.57,815,750,0
265995,262.50,815,747,0
266005,263.51,815,750,0
266015,268.37,815,747,0
266025,281.63,815,750,0
266035,306.56,815,747,0
266054,345.52,813,746,0
266057,393.92,813,748,0
266066,448.84,813,750,0
266076,506.62,813,747,0
266086,563.78,813,751,0
266096,615.31,813,747,0
266106,656.92,813,751,0
266116,686.04,813,747,0
266126,706.43,813,751,0
266136,720.70,813,747,0
266146,730.69,813,751,0
266156,737.68,813,747,0
266166,742.58,813,751,0
266176,746.01,813,747,0
266186,748.40,813,751,0
266196,750.08,813,747,0
266206,751.26,813,751,0
266216,752.08,813,747,0
266226,752.66,813,751,0
266236,753.06,813,747,0
266246,753.34,813,751,0
266256,753.54,813,747,0
266266,748.02,813,751,0
266276,732.93,813,747,0
266286,707.19,813,751,0
266296,670.11,813,747,0
266306,622.63,813,751,0
266316,565.96,813,747,0
266327,502.16,813,751,0
266337,438.64,813,747,0
266347,381.23,813,750,0
266357,332.86,813,747,0
266368,295.58,813,750,0
266377,269.30,813,747,0
266387,253.70,813,750,0
266397,246.89,813,747,0
266407,246.96,813,750,0
266417,251.78,813,747,0
266427,259.09,813,750,0
266437,267.16,813,747,0
266447,274.53,813,750,0
266457,280.03,813,747,0
266467,283.10,813,750,0
266477,283.67,813,747,0
266487,281.63,813,750,0
266497,277.41,813,747,0
266507,271.50,813,750,0
266517,264.58,813,747,0
266527,256.99,813,750,0
266537,249.41,813,747,0
266547,242.26,813,750,0
266557,236.14,813,747,0
266567,231.00,813,750,0
266577,227.14,813,747,0
266587,224.61,813,750,0
266597,223.57,813,746,0
266607,223.87,813,750,0
266617,225.58,813,747,0
266627,228.24,813,750,0
266637,231.98,813,747,0
266647,236.31,813,750,0
266657,241.28,813,747,0
266668,246.34,813,750,0
266678,251.46,813,747,0
266688,256.08,813,750,0
266698,260.60,813,748,0
266708,264.32,813,749,0
266718,267.65,813,747,0
266728,269.94,813,750,0
266738,271.72,813,748,0
266748,272.53,813,749,0
266758,273.57,813,747,0
266768,275.33,813,750,0
266778,280.59,813,748,0
266788,291.77,813,749,0
266798,312.79,813,747,0
266808,347.57,813,750,0
266818,392.79,813,748,0
266838,444.54,783,747,0
266841,499.96,783,749,0
266850,555.34,783,749,0
266860,606.93,783,749,0
266870,650.53,783,749,0
266881,681.57,783,748,0
266891,703.30,783,748,0
266901,718.51,783,749,0
266911,729.16,783,748,0
266921,736.61,783,749,0
266931,741.83,783,748,0
266941,745.48,783,749,0
266951,748.04,783,748,0
266961,749.82,783,749,0
266971,751.08,783,749,0
266981,751.95,783,749,0
266991,752.57,783,748,0
267001,752.05,783,749,0
267011,745.18,783,748,0
267021,729.27,783,749,0
267031,702.06,783,748,0
267041,663.98,783,749,0
267052,615.13,783,747,0
267062,557.45,783,750,0
267072,493.07,783,747,0
267082,429.92,783,749,0
267092,372.13,783,747,0
267102,324.39,783,750,0
267112,287.12,783,747,0
267122,262.18,783,749,0
267132,247.73,783,747,0
267142,243.65,783,750,0
267152,246.67,783,747,0
267162,255.81,783,749,0
267172,267.53,783,747,0
267182,281.13,783,750,0
267192,293.30,783,747,0
267202,304.27,783,749,0
267212,311.60,783,747,0
267223,316.52,783,750,0
267233,317.18,783,747,0
267243,315.24,783,750,0
267253,309.90,783,747,0
267264,303.03,783,750,0
267273,293.93,783,747,0
267283,284.87,783,750,0
267293,274.79,783,747,0
267303,265.90,783,750,0
267313,257.31,783,747,0
267323,250.66,783,750,0
267333,245.11,783,747,0
267343,241.77,783,750,0
267353,239.44,783,747,0
267363,239.27,783,750,0
267373,240.00,783,747,0
267383,242.53,783,750,0
267393,245.46,783,747,0
267403,249.61,783,750,0
267413,253.54,783,747,0
267423,258.18,783,750,0
267433,262.07,783,747,0
267443,266.29,783,750,0
267453,269.59,783,747,0
267463,272.84,783,750,0
267473,274.99,783,747,0
267483,277.56,783,750,0
267493,279.71,783,747,0
267503,283.91,783,750,0
267513,291.05,783,747,0
267523,304.88,783,750,0
267533,328.06,783,747,0
267543,364.73,783,750,0
267553,410.02,783,747,0
267564,461.44,783,750,0
267583,515.31,746,749,0
267586,568.75,746,752,0
267595,617.77,746,747,0
267606,658.59,746,750,0
267615,687.17,746,746,0
267625,707.22,746,750,0
267635,721.25,746,747,0
267645,731.08,746,750,0
267655,737.95,746,746,0
267665,742.77,746,751,0
267675,746.14,746,747,0
267685,748.50,746,750,0
267695,750.15,746,746,0
267705,751.30,746,751,0
267715,752.11,746,747,0
267725,752.68,746,750,0
267735,752.47,746,746,0
267745,747.10,746,750,0
267755,733.53,746,747,0
267765,709.80,746,750,0
267776,675.70,746,746,0
267785,632.08,746,750,0
267795,579.73,746,746,0
267805,520.79,746,750,0
267815,461.28,746,746,0
267825,406.08,746,750,0
267835,358.53,746,746,0
267845,320.57,746,750,0
267855,292.46,746,746,0
267865,274.32,746,750,0
267875,264.97,746,746,0
267885,263.35,746,750,0
267895,267.36,746,747,0
267905,275.69,746,750,0
267915,285.90,746,746,0
267925,296.60,746,750,0
267935,306.32,746,747,0
267945,314.24,746,750,0
267955,319.48,746,746,0
267965,322.17,746,750,0
267975,321.86,746,747,0
267985,319.20,746,750,0
267995,314.43,746,746,0
268005,308.34,746,750,0
268015,301.21,746,747,0
268025,293.65,746,750,0
268035,285.91,746,746,0
268045,278.82,746,750,0
268055,272.49,746,747,0
268065,267.24,746,750,0
268076,262.93,746,747,0
268086,259.99,746,750,0
268096,258.28,746,747,0
268106,257.81,746,750,0
268116,258.30,746,747,0
268126,259.62,746,750,0
268136,261.62,746,747,0
268146,264.05,746,750,0
268156,266.86,746,747,0
268166,269.73,746,750,0
268176,272.51,746,747,0
268186,274.93,746,750,0
268196,277.27,746,747,0
268206,279.24,746,750,0
268216,281.14,746,747,0
268226,282.81,746,750,0
268236,285.40,746,747,0
268247,289.74,746,750,0
268257,298.26,746,748,0
268267,313.05,746,749,0
268277,337.76,746,748,0
268288,374.82,746,749,0
268297,420.52,746,748,0
268316,471.28,733,747,0
268319,524.38,733,750,0
268328,576.25,733,749,0
268338,623.70,733,748,0
268348,662.62,733,749,0
268358,689.99,733,748,0
268368,709.15,733,749,0
268378,722.56,733,748,0
268388,731.99,733,749,0
268398,738.60,733,748,0
268408,743.22,733,749,0
268418,746.45,733,748,0
268428,748.72,733,749,0
268438,750.30,733,748,0
268448,751.41,733,749,0
268459,752.19,733,748,0
268468,752.69,733,749,0
268478,751.88,733,748,0
268488,745.40,733,749,0
268498,731.35,733,748,0
268508,708.10,733,749,0
268518,675.93,733,748,0
268528,634.68,733,749,0
268538,585.83,733,748,0
268548,531.28,733,749,0
268558,477.41,733,748,0
268568,427.06,733,749,0
268578,383.80,733,748,0
268588,348.07,733,749,0
268598,321.61,733,748,0
268608,303.21,733,749,0
268618,293.25,733,748,0
268628,289.36,733,748,0
268638,291.27,733,748,0
268648,296.24,733,749,0
268658,303.93,733,748,0
268668,311.79,733,749,0
268678,319.87,733,748,0
268688,326.08,733,749,0
268698,330.94,733,748,0
268708,332.97,733,748,0
268718,333.41,733,748,0
268728,331.14,733,749,0
268738,327.67,733,748,0
268748,322.20,733,748,0
268759,316.31,733,748,0
268769,309.45,733,749,0
268779,303.27,733,749,0
268789,296.85,733,748,0
268800,291.71,733,749,0
268809,286.78,733,749,0
268819,283.55,733,749,0
268829,280.60,733,748,0
268839,279.30,733,749,0
268849,278.01,733,749,0
268859,278.09,733,749,0
268869,278.07,733,748,0
268879,279.29,733,749,0
268889,280.06,733,749,0
268899,281.80,733,749,0
268909,282.84,733,748,0
268919,284.91,733,749,0
268929,286.22,733,749,0
268939,288.30,733,749,0
268949,289.58,733,748,0
268959,291.33,733,749,0
268969,292.35,733,748,0
268979,293.96,733,749,0
268989,295.13,733,748,0
268999,297.96,733,749,0
269009,302.34,733,748,0
269019,311.28,733,749,0
269029,325.68,733,748,0
269039,349.44,733,749,0
269049,383.42,733,748,0
269059,426.49,733,749,0
269078,474.60,762,748,0
269081,525.16,762,751,0
269090,574.53,762,748,0
269100,620.31,762,750,0
269110,658.45,762,748,0
269120,687.03,762,750,0
269130,707.03,762,748,0
269140,721.08,762,750,0
269150,730.91,762,748,0
269160,737.80,762,750,0
269170,742.61,762,748,0
269180,746.03,762,750,0
269190,748.42,762,748,0
269200,750.09,762,750,0
269210,749.00,762,748,0
269220,743.04,762,750,0
269230,729.87,762,748,0
269240,708.87,762,749,0
269250,678.91,762,748,0
269260,641.05,762,750,0
269271,595.22,762,748,0
269281,545.35,762,750,0
269291,494.16,762,747,0
269301,446.03,762,750,0
269312,402.31,762,747,0
269321,366.13,762,750,0
269331,336.82,762,748,0
269341,316.09,762,750,0
269351,302.26,762,747,0
269361,295.97,762,750,0
269371,294.95,762,748,0
269381,299.08,762,750,0
269391,305.66,762,747,0
269401,314.67,762,750,0
269411,323.60,762,747,0
269421,332.68,762,750,0
269431,339.93,762,747,0
269441,345.87,762,750,0
269451,349.03,762,747,0
269461,350.61,762,750,0
269471,349.40,762,747,0
269481,346.84,762,750,0
269491,342.09,762,747,0
269501,336.79,762,750,0
269511,330.17,762,747,0
269521,323.86,762,750,0
269531,316.92,762,747,0
269541,310.98,762,750,0
269551,305.12,762,747,0
269561,300.62,762,750,0
269571,296.41,762,748,0
269581,293.76,762,750,0
269591,291.34,762,747,0
269601,290.38,762,750,0
269612,289.54,762,747,0
269622,289.81,762,751,0
269632,290.16,762,747,0
269642,291.23,762,750,0
269652,292.15,762,747,0
269662,293.77,762,751,0
269672,294.96,762,747,0
269682,296.77,762,750,0
269692,298.08,762,747,0
269702,299.81,762,751,0
269712,301.03,762,747,0
269722,302.39,762,750,0
269732,303.13,762,747,0
269742,304.16,762,751,0
269752,304.50,762,747,0
269762,305.55,762,750,0
269772,306.93,762,747,0
269783,310.55,762,751,0
269793,317.07,762,747,0
269803,329.13,762,751,0
269813,347.95,762,747,0
269824,376.08,762,751,0
269833,413.26,762,747,0
269852,457.54,774,746,0
269855,505.25,774,749,0
269864,553.64,774,751,0
269874,599.44,774,747,0
269884,640.11,774,751,0
269894,673.03,774,747,0
269904,697.24,774,751,0
269914,714.18,774,747,0
269924,726.08,774,751,0
269934,734.42,774,747,0
269944,738.75,774,750,0
269954,737.88,774,748,0
269964,730.20,774,751,0
269974,714.97,774,747,0
269984,691.79,774,750,0
269995,660.96,774,747,0
270004,623.17,774,751,0
270014,580.39,774,747,0
270024,535.40,774,751,0
270034,491.27,774,747,0
270044,450.00,774,750,0
270054,413.36,774,747,0
270064,381.88,774,751,0
270074,356.07,774,747,0
270084,336.21,774,750,0
270094,322.26,774,747,0
270104,313.82,774,751,0
270114,310.53,774,747,0
270124,311.27,774,751,0
270134,315.43,774,747,0
270144,321.90,774,750,0
270154,330.03,774,747,0
270164,338.68,774,750,0
270174,347.13,774,747,0
270184,354.46,774,751,0
270194,360.41,774,747,0
270204,364.57,774,750,0
270214,366.80,774,747,0
270224,366.86,774,750,0
270234,365.15,774,747,0
270244,361.54,774,750,0
270254,356.58,774,747,0
270264,350.58,774,750,0
270274,344.06,774,747,0
270284,337.19,774,750,0
270295,330.44,774,747,0
270305,323.88,774,750,0
270315,318.26,774,748,0
270325,313.21,774,750,0
270336,309.29,774,748,0
270345,306.12,774,750,0
270355,304.15,774,748,0
270365,302.82,774,750,0
270375,302.53,774,748,0
270385,302.54,774,750,0
270395,303.41,774,748,0
270405,304.27,774,750,0
270415,305.82,774,748,0
270425,307.29,774,750,0
270435,309.13,774,748,0
270445,310.59,774,750,0
270455,312.34,774,748,0
270465,313.78,774,750,0
270475,315.52,774,748,0
270485,316.73,774,750,0
270495,318.14,774,748,0
270505,319.13,774,750,0
270515,320.38,774,748,0
270525,321.08,774,750,0
270535,321.95,774,748,0
270545,322.40,774,750,0
270555,323.48,774,748,0
270565,325.18,774,750,0
270575,329.41,774,748,0
270585,336.96,774,749,0
270595,349.96,774,748,0
270605,369.77,774,750,0
270615,398.47,774,748,0
270635,435.96,782,747,0
270638,479.43,782,750,0
270647,525.37,782,749,0
270657,571.20,782,749,0
270667,614.17,782,749,0
270678,651.83,782,749,0
270687,681.84,782,749,0
270697,703.27,782,749,0
270707,718.28,782,749,0
270717,728.82,782,749,0
270727,734.53,782,749,0
270737,734.67,782,749,0
270747,727.61,782,749,0
270757,713.50,782,749,0
270767,691.75,782,749,0
270777,663.20,782,749,0
270787,627.78,782,749,0
270797,588.55,782,749,0
270807,547.28,782,749,0
270817,507.68,782,749,0
270827,470.36,782,749,0
270837,437.85,782,749,0
270848,409.70,782,749,0
270857,387.59,782,749,0
270867,370.48,782,748,0
270877,359.58,782,749,0
270887,353.32,782,749,0
270897,352.54,782,749,0
270907,355.12,782,748,0
270917,361.77,782,749,0
270927,369.98,782,749,0
270937,380.14,782,749,0
270947,389.96,782,749,0
270957,399.91,782,749,0
270967,407.87,782,749,0
270977,414.55,782,749,0
270987,418.20,782,749,0
270997,420.03,782,749,0
271007,418.47,782,749,0
271017,415.16,782,749,0
271027,409.03,782,748,0
271037,401.86,782,749,0
271047,392.90,782,749,0
271057,383.80,782,749,0
271067,373.92,782,749,0
271077,365.03,782,749,0
271087,356.06,782,749,0
271097,348.76,782,749,0
271107,341.80,782,749,0
271117,336.80,782,749,0
271127,332.36,782,749,0
271137,329.77,782,749,0
271148,327.48,782,748,0
271158,326.95,782,750,0
271168,326.49,782,748,0
271178,327.59,782,750,0
271188,328.36,782,748,0
271198,330.31,782,750,0
271208,331.84,782,748,0
271218,334.38,782,750,0
271228,336.23,782,748,0
271238,338.78,782,750,0
271248,340.30,782,748,0
271258,342.27,782,750,0
271268,343.13,782,748,0
271278,344.21,782,750,0
271288,344.10,782,748,0
271298,344.50,782,750,0
271308,344.44,782,748,0
271319,346.45,782,751,0
271329,350.38,782,748,0
271339,359.57,782,751,0
271349,374.91,782,748,0
271360,400.27,782,751,0
271369,435.24,782,749,0
271379,477.17,782,751,0
271398,522.21,764,750,0
271401,568.39,764,752,0
271410,612.11,764,748,0
271420,651.17,764,751,0
271430,681.89,764,748,0
271440,703.44,764,751,0
271450,718.52,764,748,0
271460,729.12,764,751,0
271470,736.54,764,748,0
271480,741.74,764,751,0
271490,745.37,764,748,0
271500,747.96,764,751,0
271510,749.73,764,748,0
271520,750.97,764,751,0
271531,751.83,764,748,0
271540,752.44,764,751,0
271550,752.82,764,748,0
271560,749.92,764,751,0
271570,741.03,764,748,0
271580,725.59,764,751,0
271590,702.27,764,748,0
271600,672.02,764,751,0
271610,634.94,764,749,0
271620,592.87,764,751,0
271630,549.37,764,749,0
271640,508.93,764,751,0
271650,472.86,764,749,0
271660,443.93,764,751,0
271670,421.45,764,748,0
271680,406.45,764,751,0
271690,397.06,764,749,0
271700,393.44,764,751,0
271710,393.26,764,748,0
271720,396.31,764,751,0
271730,400.29,764,748,0
271740,404.92,764,751,0
271750,408.41,764,748,0
271760,410.90,764,751,0
271770,411.02,764,748,0
271780,409.56,764,751,0
271790,405.36,764,748,0
271800,399.85,764,751,0
271810,392.48,764,749,0
271820,384.62,764,752,0
271831,375.82,764,748,0
271841,367.35,764,751,0
271851,358.93,764,748,0
271861,351.75,764,751,0
271872,345.05,764,747,0
271881,339.98,764,751,0
271891,335.53,764,748,0
271901,332.41,764,751,0
271911,330.15,764,748,0
271921,328.99,764,751,0
271931,328.18,764,748,0
271941,328.17,764,751,0
