Time,PPG,IBI,GSR,GSR_Event
872201,320.00,783,752,0
872211,320.64,783,745,0
872221,319.29,783,754,0
872231,315.09,783,745,0
872241,309.28,783,753,0
872251,301.05,783,745,0
872261,291.65,783,754,0
872271,283.70,783,744,0
872281,280.32,783,753,0
872291,277.91,783,744,0
872301,276.44,783,756,0
872311,274.89,783,744,0
872321,274.28,783,753,0
872331,273.72,783,745,0
872341,273.85,783,754,0
872351,274.41,783,744,0
872361,276.22,783,753,0
872371,278.38,783,745,0
872381,281.57,783,754,0
872391,284.70,783,745,0
872401,288.34,783,755,0
872411,291.76,783,745,0
872421,294.96,783,754,0
872431,297.28,783,743,0
872441,299.56,783,753,0
872451,301.10,783,745,0
872461,302.87,783,756,0
872471,304.20,783,744,0
872481,305.55,783,753,0
872492,306.50,783,740,0
872502,307.89,783,760,0
872512,309.34,783,736,0
872522,311.47,783,754,0
872532,314.88,783,736,0
872542,321.65,783,755,0
872552,334.10,783,736,0
872562,355.75,783,754,0
872582,389.34,753,753,0
872585,431.32,753,754,0
872594,478.84,753,747,0
872604,528.82,753,753,0
872614,578.54,753,748,0
872624,624.54,753,754,0
872634,662.73,753,746,0
872644,689.56,753,753,0
872654,708.38,753,748,0
872664,721.51,753,754,0
872674,730.78,753,746,0
872684,737.19,753,753,0
872694,741.72,753,748,0
872705,744.85,753,753,0
872715,747.12,753,749,0
872725,748.63,753,752,0
872735,749.73,753,750,0
872745,750.41,753,751,0
872755,750.97,753,749,0
872765,751.28,753,752,0
872775,751.50,753,751,0
872785,751.56,753,751,0
872795,748.31,753,749,0
872805,736.47,753,752,0
872815,715.50,753,750,0
872825,683.77,753,751,0
872835,643.59,753,749,0
872845,594.30,753,752,0
872855,538.88,753,750,0
872865,480.67,753,751,0
872876,428.14,753,752,0
872886,382.03,753,750,0
872896,346.79,753,752,0
872906,319.73,753,750,0
872916,303.61,753,752,0
872926,294.38,753,750,0
872936,293.41,753,752,0
872946,295.73,753,750,0
872956,302.45,753,752,0
872966,308.75,753,750,0
872976,316.24,753,752,0
872986,320.75,753,750,0
872996,324.77,753,752,0
873006,324.84,753,751,0
873016,323.82,753,751,0
873026,319.33,753,750,0
873036,314.56,753,752,0
873047,306.98,753,750,0
873057,300.25,753,752,0
873067,291.91,753,750,0
873077,285.51,753,752,0
873088,278.88,753,749,0
873097,274.85,753,752,0
873107,271.21,753,750,0
873117,270.42,753,752,0
873127,269.86,753,750,0
873137,271.92,753,752,0
873147,273.74,753,750,0
873157,277.68,753,752,0
873167,280.82,753,750,0
873177,285.29,753,752,0
873187,288.63,753,750,0
873197,293.07,753,752,0
873207,295.96,753,749,0
873217,299.92,753,752,0
873227,302.17,753,750,0
873237,305.16,753,752,0
873247,306.44,753,750,0
873257,308.45,753,752,0
873267,308.66,753,750,0
873277,309.62,753,752,0
873287,308.75,753,750,0
873297,308.87,753,753,0
873307,308.43,753,750,0
873317,311.30,753,752,0
873327,317.64,753,750,0
873337,333.31,753,753,0
873347,359.27,753,750,0
873357,397.25,753,753,0
873376,442.43,795,751,0
873379,492.92,795,756,0
873388,544.41,795,749,0
873398,594.60,795,753,0
873408,638.09,795,750,0
873418,672.18,795,753,0
873428,696.04,795,749,0
873438,712.79,795,753,0
873448,724.51,795,750,0
873458,732.75,795,753,0
873468,738.53,795,749,0
873478,742.57,795,753,0
873488,745.40,795,749,0
873498,747.38,795,753,0
873508,748.77,795,749,0
873518,749.74,795,753,0
873528,750.42,795,750,0
873538,750.89,795,753,0
873548,751.22,795,749,0
873559,751.46,795,755,0
873569,751.62,795,747,0
873579,751.73,795,756,0
873589,751.56,795,743,0
873600,746.16,795,756,0
873609,732.01,795,747,0
873619,708.14,795,756,0
873629,673.68,795,743,0
873639,629.81,795,756,0
873649,577.41,795,747,0
873659,518.91,795,756,0
873669,460.31,795,743,0
873679,407.37,795,756,0
873689,361.88,795,747,0
873699,326.51,795,756,0
873709,300.39,795,743,0
873719,283.69,795,757,0
873729,273.97,795,747,0
873739,270.98,795,756,0
873749,271.67,795,744,0
873759,275.45,795,756,0
873769,279.82,795,741,0
873779,284.63,795,757,0
873789,287.91,795,743,0
873799,290.25,795,756,0
873809,290.35,795,741,0
873819,289.60,795,756,0
873829,287.11,795,742,0
873839,284.20,795,756,0
873849,280.41,795,741,0
873859,277.33,795,757,0
873869,274.19,795,744,0
873879,272.03,795,756,0
873889,270.05,795,740,0
873900,269.39,795,756,0
873910,269.32,795,737,0
873920,270.34,795,757,0
873930,271.95,795,738,0
873940,274.32,795,755,0
873950,276.97,795,737,0
873960,280.19,795,757,0
873970,283.61,795,737,0
873980,286.94,795,756,0
873990,290.09,795,737,0
874000,292.63,795,757,0
874010,294.88,795,737,0
874020,296.55,795,756,0
874030,297.58,795,737,0
874040,298.05,795,756,0
874050,298.21,795,737,0
874060,297.89,795,756,0
874071,297.58,795,742,0
874081,296.68,795,754,0
874091,296.26,795,746,0
874101,295.15,795,754,0
874112,294.51,795,746,0
874121,293.50,795,754,0
874131,293.86,795,746,0
874141,295.75,795,754,0
874151,303.32,795,745,0
874161,317.37,795,754,0
874180,343.83,804,753,0
874183,381.64,804,754,0
874192,428.25,804,749,0
874202,479.47,804,754,0
874212,533.25,804,747,0
874222,584.64,804,753,0
874232,631.25,804,749,0
874242,667.60,804,754,0
874252,693.18,804,747,0
874262,711.04,804,753,0
874272,723.59,804,749,0
874283,732.28,804,753,0
874292,738.45,804,747,0
874302,742.73,804,753,0
874312,745.81,804,749,0
874322,747.88,804,753,0
874332,749.42,804,747,0
874342,750.45,804,753,0
874352,751.26,804,749,0
874362,751.74,804,753,0
874372,752.16,804,747,0
874382,752.37,804,753,0
874392,752.60,804,749,0
874402,752.68,804,753,0
874412,752.82,804,747,0
874422,752.83,804,753,0
874432,751.59,804,749,0
874442,742.89,804,753,0
874452,725.82,804,751,0
874462,697.97,804,753,0
874472,661.17,804,749,0
874482,614.32,804,752,0
874492,560.61,804,751,0
874502,501.28,804,753,0
874512,445.61,804,749,0
874522,394.30,804,752,0
874532,352.72,804,750,0
874542,318.39,804,754,0
874552,294.70,804,749,0
874562,277.18,804,752,0
874572,267.91,804,750,0
874583,261.98,804,752,0
874593,261.43,804,752,0
874603,261.26,804,751,0
874613,263.88,804,752,0
874624,264.86,804,751,0
874633,267.34,804,752,0
874643,267.41,804,751,0
874653,268.66,804,752,0
874663,267.48,804,750,0
874673,267.76,804,751,0
874683,266.08,804,751,0
874693,266.22,804,752,0
874703,265.00,804,751,0
874713,265.94,804,752,0
874723,265.57,804,751,0
874733,267.59,804,753,0
874743,268.31,804,751,0
874753,271.39,804,752,0
874763,273.12,804,751,0
874773,276.85,804,753,0
874783,278.83,804,751,0
874793,282.43,804,753,0
874803,284.06,804,751,0
874813,287.21,804,752,0
874823,288.26,804,751,0
874833,290.80,804,753,0
874843,290.99,804,751,0
874853,292.53,804,752,0
874863,291.95,804,750,0
874873,292.73,804,753,0
874883,291.66,804,751,0
874893,292.06,804,752,0
874903,290.28,804,750,0
874913,290.03,804,753,0
874933,288.13,753,751,0
874936,287.45,753,754,0
874945,285.56,753,750,0
874955,285.05,753,753,0
874966,283.06,753,749,0
874975,282.91,753,753,0
874985,281.44,753,750,0
874995,281.44,753,753,0
875005,280.66,753,749,0
875015,281.06,753,753,0
875025,280.23,753,750,0
875035,281.02,753,754,0
875045,281.53,753,749,0
875055,285.83,753,753,0
875065,293.34,753,750,0
875075,310.12,753,753,0
875085,337.68,753,749,0
875104,377.72,0,748,0
875107,425.08,0,745,0
875116,477.90,0,754,0
875126,531.71,0,749,0
875137,584.64,0,759,0
875147,630.91,0,743,0
875157,667.15,0,758,0
875167,692.48,0,737,0
875177,710.25,0,756,0
875187,722.69,0,745,0
875197,731.44,0,758,0
875207,737.56,0,737,0
875217,741.85,0,756,0
875227,744.85,0,744,0
875237,747.00,0,758,0
875247,748.50,0,737,0
875257,749.55,0,756,0
875267,750.28,0,744,0
875277,750.80,0,758,0
875287,751.16,0,737,0
875297,751.41,0,756,0
875308,751.59,0,739,0
875318,751.71,0,756,0
875328,751.76,0,737,0
875338,751.79,0,756,0
875348,751.81,0,739,0
875358,750.15,0,756,0
875368,741.92,0,737,0
875378,724.59,0,756,0
875388,697.28,0,739,0
875398,660.43,0,756,0
875408,614.70,0,737,0
875418,561.17,0,756,0
875428,503.22,0,738,0
875438,447.18,0,756,0
875448,396.69,0,737,0
875458,353.84,0,756,0
875468,319.64,0,738,0
875479,293.52,0,755,0
875489,275.62,0,744,0
875499,263.61,0,753,0
875509,257.30,0,746,0
875520,254.16,0,754,0
875529,253.94,0,744,0
875539,254.43,0,753,0
875549,256.40,0,746,0
875559,257.35,0,754,0
875569,259.13,0,745,0
875579,259.26,0,753,0
875589,260.39,0,746,0
875599,260.48,0,754,0
875609,261.28,0,744,0
875619,261.07,0,753,0
875629,262.29,0,746,0
875639,262.63,0,754,0
875649,264.24,0,744,0
875659,265.24,0,753,0
875669,267.78,0,747,0
875679,269.65,0,754,0
875689,273.14,0,746,0
875699,275.58,0,753,0
875709,279.27,0,747,0
875719,281.93,0,754,0
875729,285.72,0,746,0
875739,287.95,0,753,0
875749,291.01,0,746,0
875759,292.08,0,754,0
875769,294.15,0,746,0
875779,294.58,0,753,0
875789,295.82,0,746,0
875799,295.10,0,754,0
875809,295.41,0,746,0
875820,294.22,0,753,0
875830,294.37,0,748,0
875840,292.54,0,753,0
875859,292.08,755,751,0
875863,289.70,755,750,0
875871,289.15,755,751,0
875881,286.96,755,752,0
875891,286.46,755,752,0
875901,284.13,755,750,0
875911,283.88,755,751,0
875921,281.99,755,752,0
875931,282.51,755,752,0
875941,281.03,755,750,0
875951,281.66,755,751,0
875961,280.52,755,751,0
875971,281.52,755,752,0
875981,280.72,755,750,0
875991,282.05,755,751,0
876001,281.78,755,751,0
876011,284.41,755,752,0
876021,287.25,755,750,0
876032,296.39,755,753,0
876041,310.80,755,751,0
876060,338.37,0,750,0
876062,376.75,0,751,0
876072,424.22,0,753,0
876082,475.63,0,750,0
876092,529.95,0,753,0
876102,581.78,0,750,0
876112,629.42,0,753,0
876122,666.19,0,751,0
876132,692.02,0,753,0
876142,710.01,0,750,0
876152,722.70,0,753,0
876162,731.53,0,751,0
876172,737.80,0,753,0
876182,742.10,0,750,0
876192,745.16,0,753,0
876203,747.25,0,750,0
876212,748.81,0,753,0
876222,749.81,0,750,0
876232,750.55,0,753,0
876242,751.03,0,750,0
876252,751.45,0,753,0
876262,751.70,0,750,0
876272,751.92,0,753,0
876282,752.03,0,750,0
876292,752.19,0,753,0
876302,752.22,0,750,0
876312,752.11,0,753,0
876322,744.79,0,750,0
876332,729.77,0,753,0
876342,703.82,0,750,0
876352,668.95,0,753,0
876362,624.01,0,750,0
876372,572.15,0,753,0
876382,513.30,0,750,0
876392,457.84,0,753,0
876402,405.95,0,750,0
876412,363.75,0,753,0
876422,328.89,0,750,0
876432,304.58,0,752,0
876442,286.67,0,750,0
876452,276.99,0,753,0
876462,270.78,0,750,0
876472,270.38,0,752,0
876482,270.69,0,750,0
876492,273.61,0,753,0
876503,275.23,0,750,0
876513,277.69,0,753,0
876523,278.00,0,750,0
876533,278.77,0,754,0
876544,276.65,0,750,0
876553,275.34,0,753,0
876563,271.98,0,750,0
876573,269.97,0,754,0
876583,266.98,0,749,0
876593,265.79,0,753,0
876603,263.88,0,749,0
876613,264.09,0,754,0
876623,263.63,0,749,0
876633,265.33,0,753,0
876643,266.56,0,750,0
876653,269.82,0,754,0
876663,272.27,0,750,0
876673,276.48,0,753,0
876683,279.55,0,750,0
876693,283.80,0,754,0
876703,286.56,0,750,0
876713,289.73,0,753,0
876723,291.10,0,750,0
876733,293.08,0,754,0
876743,293.06,0,750,0
876753,293.73,0,753,0
876763,292.74,0,750,0
876773,292.73,0,754,0
876783,291.40,0,750,0
876793,290.98,0,754,0
876803,289.18,0,750,0
876813,288.74,0,754,0
876823,287.15,0,749,0
876833,286.76,0,753,0
876844,285.16,0,750,0
876854,284.81,0,754,0
876864,283.58,0,749,0
876874,283.49,0,759,0
876884,282.62,0,742,0
876894,282.90,0,754,0
876904,282.38,0,749,0
876914,282.78,0,759,0
876924,282.54,0,742,0
876934,283.32,0,754,0
876944,283.53,0,749,0
876954,285.04,0,760,0
876964,287.17,0,742,0
876974,293.16,0,753,0
876984,303.70,0,749,0
876994,323.55,0,759,0
877014,355.10,953,759,0
877017,397.33,953,756,0
877026,445.83,953,737,0
877036,498.38,953,756,0
877046,551.11,953,738,0
877057,601.52,953,755,0
877067,644.61,953,745,0
877077,676.65,953,754,0
877087,699.17,953,747,0
877097,714.98,953,754,0
877107,726.08,953,745,0
877117,733.82,953,754,0
877127,739.27,953,747,0
877137,743.09,953,754,0
877147,745.81,953,745,0
877157,747.62,953,754,0
877167,748.89,953,747,0
877177,749.78,953,754,0
877187,750.45,953,745,0
877197,750.87,953,754,0
877207,751.17,953,747,0
877217,751.33,953,754,0
877228,747.80,953,747,0
877238,735.60,953,753,0
877248,714.55,953,748,0
877258,682.76,953,753,0
877268,642.67,953,750,0
877278,593.79,953,753,0
877288,539.42,953,748,0
877298,482.89,953,753,0
877308,432.61,953,750,0
877318,388.46,953,753,0
877328,355.32,953,747,0
877338,329.98,953,753,0
877348,315.37,953,750,0
877358,306.82,953,753,0
877368,306.36,953,747,0
877378,308.61,953,753,0
877388,315.45,953,750,0
877399,321.49,953,752,0
877409,328.97,953,750,0
877419,333.27,953,751,0
877429,337.04,953,752,0
877440,336.47,953,751,0
877449,335.26,953,750,0
877459,329.74,953,751,0
877469,324.25,953,752,0
877479,315.43,953,751,0
877489,307.89,953,751,0
877499,298.32,953,751,0
877509,291.07,953,752,0
877519,282.60,953,751,0
877529,277.28,953,750,0
877539,271.45,953,751,0
877549,269.13,953,752,0
877559,266.18,953,751,0
877569,266.68,953,750,0
877579,266.61,953,751,0
877589,269.60,953,752,0
877599,271.65,953,751,0
877609,276.21,953,752,0
877619,279.53,953,751,0
877629,284.90,953,752,0
877639,288.23,953,751,0
877649,293.22,953,752,0
877659,296.02,953,752,0
877669,300.17,953,752,0
877679,301.92,953,751,0
877689,304.90,953,752,0
877699,305.49,953,751,0
877709,307.49,953,752,0
877719,307.25,953,751,0
877729,308.46,953,752,0
877740,307.55,953,750,0
877750,308.24,953,753,0
877760,306.71,953,750,0
877770,306.67,953,753,0
877780,304.67,953,750,0
877790,304.17,953,753,0
877800,301.85,953,750,0
877810,301.42,953,753,0
877820,300.31,953,750,0
877830,303.09,953,753,0
877840,308.46,953,750,0
877850,322.68,953,753,0
877860,346.22,953,750,0
877879,383.01,866,749,0
877882,427.41,866,751,0
877891,477.77,866,753,0
877901,529.48,866,749,0
877911,581.02,866,753,0
877921,626.87,866,750,0
877931,664.28,866,753,0
877941,690.43,866,750,0
877952,708.77,866,754,0
877961,721.57,866,750,0
877971,730.57,866,753,0
877981,736.83,866,750,0
877991,741.25,866,754,0
878001,744.30,866,750,0
878011,746.48,866,753,0
878021,747.97,866,749,0
878031,749.05,866,754,0
878041,749.76,866,750,0
878051,750.31,866,753,0
878061,750.64,866,749,0
878071,750.92,866,754,0
878081,751.07,866,750,0
878091,747.75,866,753,0
878101,736.04,866,749,0
878111,715.54,866,754,0
878121,684.61,866,749,0
878131,645.43,866,753,0
878141,597.34,866,749,0
878151,543.15,866,754,0
878161,486.58,866,750,0
878171,435.53,866,753,0
878181,390.42,866,749,0
878191,355.49,866,754,0
878201,328.26,866,749,0
878211,311.38,866,753,0
878221,301.02,866,749,0
878231,298.40,866,753,0
878241,299.10,866,749,0
878252,304.12,866,753,0
878262,309.23,866,749,0
878272,315.42,866,753,0
878282,319.54,866,749,0
878292,323.06,866,759,0
878302,323.34,866,749,0
878312,322.55,866,754,0
878322,318.57,866,748,0
878332,313.82,866,759,0
878342,306.84,866,749,0
878352,299.86,866,754,0
878362,291.67,866,749,0
878372,284.44,866,759,0
878382,276.72,866,749,0
878392,270.98,866,754,0
878402,265.71,866,749,0
878412,262.71,866,759,0
878423,260.27,866,740,0
878433,259.93,866,760,0
878443,260.25,866,736,0
878453,262.32,866,757,0
878464,264.62,866,738,0
878473,268.25,866,760,0
878483,271.69,866,735,0
878493,275.81,866,757,0
878503,279.55,866,738,0
878513,283.67,866,760,0
878523,287.16,866,735,0
878533,290.50,866,757,0
878543,292.92,866,738,0
878553,295.39,866,760,0
878563,296.98,866,735,0
878573,298.45,866,758,0
878583,299.08,866,738,0
878593,299.87,866,760,0
878603,300.21,866,735,0
878613,300.66,866,758,0
878623,300.33,866,737,0
878633,300.06,866,757,0
878643,299.19,866,734,0
878653,298.45,866,758,0
878663,297.28,866,737,0
878673,296.30,866,757,0
878683,295.39,866,735,0
878693,296.09,866,758,0
878703,299.41,866,738,0
878713,308.20,866,757,0
878723,324.77,866,734,0
878733,354.11,866,758,0
878752,394.19,873,756,0
878755,441.70,873,755,0
878764,493.26,873,737,0
878774,546.11,873,757,0
878784,596.52,873,738,0
878794,640.98,873,755,0
878804,674.16,873,743,0
878814,697.42,873,757,0
878824,713.71,873,737,0
878834,725.11,873,755,0
878844,733.09,873,743,0
878854,738.68,873,757,0
878864,742.63,873,738,0
878874,745.36,873,755,0
878884,747.26,873,743,0
878894,748.60,873,757,0
878904,749.58,873,737,0
878914,750.22,873,755,0
878924,750.67,873,742,0
878935,750.94,873,754,0
878945,751.17,873,747,0
878955,751.29,873,754,0
878965,751.46,873,747,0
878976,751.54,873,753,0
878985,751.63,873,747,0
878995,746.81,873,754,0
879005,735.26,873,746,0
879015,713.62,873,753,0
879025,683.35,873,747,0
879035,643.56,873,753,0
879045,596.89,873,746,0
879055,543.05,873,753,0
879065,489.85,873,746,0
879075,439.20,873,753,0
879085,397.27,873,746,0
879095,361.96,873,753,0
879105,336.13,873,746,0
879115,316.59,873,753,0
879125,305.36,873,746,0
879135,297.92,873,753,0
879145,295.93,873,747,0
879155,294.67,873,753,0
879165,296.05,873,746,0
879175,296.34,873,753,0
879185,297.65,873,747,0
879195,296.43,873,753,0
879205,295.74,873,746,0
879215,292.65,873,754,0
879225,290.22,873,747,0
879235,285.87,873,753,0
879245,282.78,873,746,0
879255,278.05,873,754,0
879265,275.55,873,747,0
879276,272.04,873,752,0
879286,270.91,873,749,0
879296,269.01,873,752,0
879306,269.91,873,751,0
879316,270.06,873,751,0
879326,273.04,873,749,0
879336,274.70,873,752,0
879346,278.82,873,750,0
879356,281.10,873,751,0
879366,285.70,873,749,0
879376,288.15,873,752,0
879386,292.30,873,750,0
879396,294.18,873,751,0
879406,297.60,873,749,0
879416,298.71,873,752,0
879426,301.32,873,750,0
879436,301.48,873,751,0
879447,303.18,873,752,0
879457,302.61,873,751,0
879467,303.59,873,752,0
879477,302.42,873,750,0
879488,302.73,873,753,0
879497,301.09,873,751,0
879507,301.11,873,752,0
879517,299.15,873,750,0
879527,299.06,873,753,0
879537,297.11,873,751,0
879547,297.21,873,752,0
879557,295.52,873,750,0
879567,295.75,873,753,0
879577,294.24,873,751,0
879587,295.15,873,753,0
879597,295.15,873,750,0
879607,299.35,873,753,0
879617,305.80,873,751,0
879627,321.76,873,752,0
879637,347.59,873,750,0
879656,386.11,904,749,0
879660,431.51,904,750,0
879668,482.78,904,753,0
879678,534.88,904,750,0
879688,586.60,904,753,0
879698,631.85,904,750,0
879708,667.81,904,753,0
879718,692.94,904,750,0
879728,710.57,904,753,0
879738,722.87,904,750,0
879748,731.52,904,753,0
879758,737.54,904,750,0
879768,741.79,904,753,0
879778,744.68,904,750,0
879788,746.75,904,753,0
879798,748.15,904,750,0
879808,749.18,904,753,0
879818,749.85,904,750,0
879828,750.37,904,753,0
879838,750.69,904,750,0
879848,750.95,904,753,0
879858,751.10,904,750,0
879868,751.24,904,753,0
879878,751.30,904,750,0
879888,751.38,904,753,0
879898,751.39,904,750,0
879908,747.76,904,753,0
879918,735.96,904,750,0
879928,715.96,904,752,0
879938,685.59,904,750,0
879948,647.10,904,753,0
879959,599.80,904,750,0
879969,546.63,904,753,0
879979,491.24,904,749,0
879989,440.98,904,754,0
880000,395.77,904,749,0
880009,360.06,904,753,0
880019,331.02,904,749,0
880029,311.17,904,753,0
880039,296.64,904,748,0
880049,288.99,904,753,0
880059,283.81,904,749,0
880069,282.54,904,753,0
880079,281.48,904,748,0
880089,282.45,904,753,0
880099,282.06,904,749,0
880109,282.42,904,753,0
880119,280.75,904,748,0
880129,279.84,904,753,0
880139,277.36,904,749,0
880149,275.97,904,754,0
880159,273.15,904,748,0
880169,271.65,904,753,0
880179,269.27,904,749,0
880189,268.67,904,754,0
880199,267.57,904,749,0
880209,268.21,904,753,0
880219,268.11,904,749,0
880229,269.83,904,754,0
880239,271.00,904,749,0
880249,273.74,904,753,0
880259,275.40,904,749,0
880269,278.33,904,754,0
880279,280.03,904,749,0
880289,282.85,904,753,0
880300,284.39,904,748,0
880310,286.72,904,755,0
880320,287.92,904,745,0
880330,289.91,904,760,0
880340,290.75,904,735,0
880350,292.41,904,755,0
880360,292.89,904,746,0
880370,294.04,904,760,0
880380,294.24,904,736,0
880390,295.15,904,755,0
880400,295.06,904,746,0
880410,295.39,904,760,0
880420,294.63,904,735,0
880430,294.57,904,754,0
880440,293.58,904,746,0
880450,293.28,904,760,0
880460,292.12,904,736,0
880471,291.53,904,759,0
880481,290.34,904,736,0
880491,290.07,904,758,0
880501,289.79,904,738,0
880512,291.35,904,758,0
880521,295.02,904,736,0
880531,304.23,904,757,0
880541,321.73,904,738,0
880561,352.41,904,736,0
880564,393.52,904,748,0
880573,441.75,904,754,0
880583,493.98,904,747,0
880593,547.43,904,754,0
880603,598.30,904,746,0
880613,642.61,904,754,0
880623,675.43,904,747,0
880633,698.31,904,754,0
880643,714.38,904,745,0
880653,725.53,904,754,0
880663,733.43,904,746,0
880673,738.92,904,754,0
880684,742.88,904,747,0
880694,745.58,904,754,0
880704,747.59,904,748,0
880714,748.96,904,753,0
880724,750.00,904,750,0
880734,750.64,904,753,0
880744,751.22,904,748,0
880754,751.54,904,753,0
880764,751.85,904,750,0
880774,751.94,904,754,0
880784,752.08,904,748,0
880794,752.15,904,753,0
880804,749.70,904,750,0
880814,739.63,904,753,0
880824,721.53,904,748,0
880834,692.87,904,753,0
880844,656.14,904,750,0
880855,610.11,904,752,0
880865,558.22,904,751,0
880875,502.53,904,751,0
880885,451.45,904,752,0
880896,404.90,904,751,0
880905,368.50,904,751,0
880915,338.70,904,751,0
880925,319.20,904,752,0
880935,304.96,904,751,0
880945,298.63,904,751,0
880955,294.71,904,751,0
880965,295.57,904,752,0
880975,295.91,904,751,0
880985,298.81,904,751,0
880995,299.47,904,751,0
881005,301.26,904,752,0
881015,299.98,904,751,0
881025,299.51,904,751,0
881035,296.23,904,751,0
881045,294.19,904,752,0
881055,289.50,904,751,0
881065,286.52,904,753,0
881075,281.74,904,751,0
881085,279.29,904,752,0
881095,275.47,904,751,0
881105,274.30,904,753,0
881115,272.03,904,751,0
881125,272.66,904,752,0
881135,272.21,904,751,0
881145,274.42,904,753,0
881155,275.32,904,751,0
881165,278.87,904,752,0
881175,280.88,904,751,0
881185,284.99,904,753,0
881196,287.26,904,750,0
881206,291.34,904,753,0
881216,293.51,904,750,0
881226,297.17,904,753,0
881236,298.49,904,750,0
881246,301.30,904,753,0
881256,301.94,904,750,0
881266,303.97,904,753,0
881276,303.89,904,750,0
881286,305.25,904,753,0
881296,304.54,904,750,0
881306,305.23,904,753,0
881316,303.96,904,750,0
881326,304.27,904,753,0
881336,302.78,904,750,0
881346,302.84,904,753,0
881356,301.01,904,750,0
881367,300.83,904,753,0
881377,299.00,904,750,0
881387,298.70,904,753,0
881397,296.86,904,750,0
881408,296.73,904,754,0
881417,295.70,904,750,0
881427,297.76,904,753,0
881437,301.52,904,749,0
881447,312.42,904,754,0
881457,330.51,904,750,0
881467,362.80,904,753,0
881486,404.34,926,752,0
881489,453.10,926,759,0
881498,504.67,926,749,0
881508,557.40,926,753,0
881518,606.35,926,749,0
881528,649.23,926,753,0
881538,679.85,926,750,0
881548,701.32,926,754,0
881558,716.35,926,749,0
881568,726.92,926,754,0
881579,734.27,926,748,0
881588,739.46,926,754,0
881598,743.05,926,748,0
881608,745.61,926,754,0
881618,747.35,926,748,0
881628,748.62,926,754,0
881638,749.46,926,748,0
881648,750.09,926,753,0
881658,750.50,926,748,0
881668,750.82,926,753,0
881678,751.00,926,748,0
881688,751.17,926,753,0
881698,751.25,926,748,0
881708,748.56,926,754,0
881718,738.32,926,748,0
881728,719.67,926,753,0
881738,690.92,926,748,0
881748,653.45,926,758,0
881758,607.41,926,748,0
881768,555.17,926,753,0
881778,499.92,926,748,0
881788,448.82,926,758,0
881798,403.23,926,748,0
881808,366.99,926,753,0
881818,338.75,926,748,0
881828,319.71,926,758,0
881838,307.15,926,748,0
881848,301.49,926,753,0
881858,299.33,926,748,0
881868,300.95,926,757,0
881879,303.11,926,741,0
881889,306.25,926,760,0
881899,308.14,926,735,0
881909,309.39,926,758,0
881920,308.71,926,736,0
881929,307.43,926,760,0
881939,304.21,926,734,0
881949,300.64,926,758,0
881959,295.86,926,736,0
881969,291.36,926,760,0
881979,286.54,926,734,0
881989,282.35,926,758,0
881999,278.34,926,737,0
882009,275.71,926,760,0
882019,273.36,926,734,0
882029,272.39,926,758,0
882039,271.89,926,736,0
882049,272.91,926,760,0
882059,274.39,926,735,0
882069,276.89,926,758,0
882079,279.45,926,737,0
882089,282.87,926,757,0
882099,286.17,926,735,0
882109,289.89,926,758,0
882119,293.01,926,737,0
882129,296.18,926,756,0
882139,298.57,926,736,0
882149,300.80,926,757,0
882159,302.27,926,737,0
882169,303.56,926,756,0
882179,303.95,926,737,0
882189,304.48,926,757,0
882199,304.51,926,737,0
882209,304.66,926,756,0
882220,304.50,926,738,0
882230,304.44,926,757,0
882240,304.35,926,737,0
882250,304.24,926,756,0
882260,304.04,926,741,0
882270,303.60,926,757,0
882280,302.91,926,737,0
882290,301.78,926,755,0
882300,301.03,926,741,0
882310,300.29,926,757,0
882320,301.02,926,737,0
882330,303.76,926,755,0
882340,312.01,926,741,0
882350,327.74,926,756,0
882360,355.20,926,737,0
882379,393.58,893,737,0
882382,439.82,893,751,0
882391,490.41,893,755,0
882401,542.61,893,746,0
882411,592.36,893,753,0
882421,636.78,893,747,0
882432,671.26,893,754,0
882441,695.44,893,746,0
882451,712.28,893,753,0
882461,724.15,893,747,0
882471,732.42,893,754,0
882481,738.25,893,746,0
882491,742.29,893,753,0
882501,745.20,893,747,0
882511,747.20,893,754,0
882521,748.64,893,746,0
882531,749.56,893,754,0
882541,750.29,893,747,0
882551,750.76,893,754,0
882561,751.09,893,746,0
882571,751.23,893,754,0
882581,750.56,893,747,0
882591,743.45,893,754,0
882601,728.87,893,747,0
882611,704.44,893,753,0
882621,671.44,893,747,0
882631,629.22,893,754,0
882641,580.60,893,747,0
882651,526.29,893,754,0
882661,474.69,893,747,0
882671,426.95,893,754,0
882681,388.40,893,747,0
882691,357.29,893,754,0
882701,336.46,893,747,0
882711,322.22,893,754,0
882721,316.41,893,747,0
882732,314.62,893,753,0
882742,318.33,893,748,0
882752,322.43,893,753,0
882762,328.95,893,750,0
882772,333.29,893,752,0
882782,338.00,893,748,0
882792,339.03,893,753,0
882802,339.58,893,750,0
882812,336.06,893,752,0
882822,332.53,893,748,0
882832,325.64,893,753,0
882842,319.66,893,750,0
882852,311.19,893,752,0
882862,304.58,893,748,0
882872,296.56,893,753,0
882882,291.34,893,750,0
882892,285.36,893,752,0
882903,282.47,893,751,0
882913,279.03,893,751,0
882923,278.85,893,752,0
882933,277.99,893,751,0
882944,280.01,893,753,0
882953,280.86,893,751,0
882963,284.20,893,752,0
882973,286.07,893,751,0
882983,290.12,893,753,0
882993,292.44,893,751,0
883003,296.72,893,752,0
883013,299.12,893,750,0
883023,303.24,893,753,0
883033,305.23,893,751,0
883043,308.89,893,752,0
883053,310.29,893,751,0
883063,313.16,893,753,0
883073,313.84,893,751,0
883083,316.07,893,752,0
883093,316.22,893,751,0
883103,317.87,893,752,0
883113,317.31,893,750,0
883123,318.33,893,751,0
883133,317.20,893,751,0
883143,317.61,893,752,0
883153,315.76,893,750,0
883163,315.62,893,752,0
883173,313.37,893,751,0
883183,313.09,893,752,0
883193,311.43,893,750,0
883203,313.02,893,752,0
883213,315.67,893,751,0
883223,325.54,893,752,0
883233,341.96,893,750,0
883244,372.49,893,753,0
883263,411.99,884,751,0
883266,459.00,884,754,0
883275,508.76,884,750,0
883286,560.13,884,754,0
883295,607.92,884,750,0
883305,650.03,884,753,0
883315,680.41,884,750,0
883325,701.71,884,754,0
883335,716.63,884,750,0
883345,727.11,884,753,0
883355,734.41,884,750,0
883365,739.56,884,754,0
883375,743.12,884,750,0
883385,745.65,884,753,0
883395,747.39,884,750,0
883405,748.64,884,754,0
883415,749.48,884,750,0
883425,750.11,884,753,0
883435,750.50,884,750,0
883445,750.82,884,754,0
883456,747.32,884,749,0
883465,738.57,884,753,0
883475,720.05,884,750,0
883485,692.31,884,753,0
883495,654.59,884,749,0
883505,608.98,884,752,0
883515,555.72,884,750,0
883525,500.99,884,753,0
883535,446.78,884,749,0
883545,400.47,884,753,0
883555,361.63,884,750,0
883565,333.58,884,753,0
883575,313.78,884,749,0
883585,303.86,884,753,0
883595,300.13,884,750,0
883605,303.43,884,753,0
883615,309.39,884,749,0
883625,318.79,884,753,0
883635,327.34,884,750,0
883645,336.49,884,753,0
883655,342.52,884,749,0
883665,347.46,884,753,0
883675,348.82,884,750,0
883685,349.00,884,753,0
883695,345.70,884,749,0
883705,341.59,884,753,0
883715,334.69,884,750,0
883725,328.18,884,754,0
883735,319.85,884,749,0
883745,312.61,884,754,0
883756,304.50,884,749,0
883766,298.35,884,754,0
883776,292.29,884,749,0
883786,288.47,884,757,0
883796,284.90,884,744,0
883806,283.99,884,754,0
883816,283.09,884,749,0
883826,284.22,884,756,0
883836,285.31,884,744,0
883846,288.22,884,754,0
883856,290.72,884,749,0
883866,294.36,884,756,0
883876,297.30,884,744,0
883886,301.24,884,754,0
883896,304.17,884,749,0
883906,307.46,884,756,0
883916,309.46,884,744,0
883927,311.77,884,760,0
883937,312.78,884,736,0
883947,313.83,884,759,0
883957,313.71,884,736,0
883968,313.80,884,757,0
883977,313.13,884,736,0
883987,312.79,884,759,0
883997,311.87,884,736,0
884007,311.31,884,758,0
884017,310.40,884,736,0
884027,309.81,884,759,0
884037,308.75,884,735,0
884047,307.97,884,758,0
884057,306.61,884,736,0
884067,305.91,884,759,0
884077,305.68,884,736,0
884087,307.36,884,758,0
884097,311.92,884,736,0
884107,322.70,884,759,0
884117,342.12,884,735,0
884136,374.66,873,736,0
884140,416.33,873,747,0
884148,464.23,873,758,0
884158,515.08,873,736,0
884168,566.27,873,757,0
884178,613.97,873,739,0
884188,654.65,873,758,0
884198,683.73,873,736,0
884208,704.04,873,757,0
884218,718.26,873,739,0
884228,728.21,873,757,0
884238,735.17,873,736,0
884248,740.05,873,757,0
884258,743.46,873,739,0
884268,745.90,873,757,0
884278,747.56,873,737,0
884288,748.67,873,757,0
884298,749.50,873,739,0
884308,750.08,873,755,0
884318,750.44,873,737,0
884328,750.65,873,757,0
884338,746.90,873,738,0
884348,735.74,873,755,0
884358,715.93,873,736,0
884368,686.94,873,757,0
884378,649.63,873,738,0
884388,604.44,873,755,0
884398,553.14,873,737,0
884408,500.90,873,757,0
884418,453.23,873,738,0
884428,412.27,873,755,0
884439,380.39,873,744,0
884449,356.83,873,754,0
884459,342.87,873,747,0
884469,335.62,873,754,0
884480,335.39,873,746,0
884489,338.57,873,754,0
884499,345.00,873,747,0
884509,351.13,873,754,0
884519,357.95,873,746,0
884529,362.04,873,754,0
884539,365.24,873,746,0
884549,364.40,873,754,0
884559,362.43,873,746,0
884569,357.08,873,754,0
884579,351.27,873,747,0
884589,342.53,873,754,0
884599,334.40,873,746,0
884609,324.77,873,754,0
884619,316.61,873,747,0
884629,307.64,873,754,0
884639,301.06,873,746,0
884649,294.23,873,754,0
884659,290.17,873,746,0
884669,285.92,873,754,0
884679,284.57,873,746,0
884689,283.20,873,753,0
884699,284.30,873,746,0
884709,285.07,873,754,0
884719,288.26,873,746,0
884729,290.75,873,754,0
884739,295.03,873,746,0
884749,298.15,873,754,0
884759,302.99,873,746,0
884769,306.38,873,754,0
884780,311.11,873,747,0
884790,313.78,873,753,0
884800,317.70,873,749,0
884810,319.68,873,752,0
884820,322.69,873,750,0
884830,323.51,873,753,0
884840,325.67,873,749,0
884850,325.43,873,752,0
884860,326.71,873,750,0
884870,326.03,873,754,0
884880,327.05,873,749,0
884890,325.92,873,752,0
884900,326.29,873,750,0
884910,324.49,873,753,0
884920,324.47,873,749,0
884930,323.21,873,752,0
884940,325.46,873,750,0
884951,329.61,873,752,0
884961,342.24,873,752,0
884971,363.47,873,751,0
884990,397.74,854,750,0
884994,439.61,854,751,0
885003,487.68,854,754,0
885013,537.15,854,750,0
885023,586.65,854,754,0
885033,630.77,854,750,0
885043,667.09,854,754,0
885053,692.48,854,750,0
885063,710.25,854,754,0
885073,722.65,854,750,0
885083,731.37,854,754,0
885093,737.43,854,750,0
885103,741.71,854,754,0
885113,744.63,854,750,0
885123,746.71,854,753,0
885133,748.13,854,750,0
885143,749.16,854,753,0
885153,749.84,854,750,0
885164,750.36,854,754,0
885174,750.68,854,749,0
885184,749.88,854,754,0
885194,742.58,854,750,0
885204,727.54,854,753,0
885214,702.61,854,749,0
885224,669.08,854,754,0
885234,626.41,854,750,0
885244,576.88,854,754,0
885254,521.88,854,749,0
885264,469.59,854,754,0
885274,421.71,854,749,0
885284,382.58,854,754,0
885294,351.08,854,749,0
885304,329.67,854,754,0
885314,315.54,854,749,0
885324,309.76,854,754,0
885335,308.51,854,749,0
885345,312.17,854,756,0
885355,317.39,854,745,0
885365,324.47,854,759,0
885376,330.33,854,736,0
885385,336.02,854,755,0
885395,338.93,854,746,0
885405,340.53,854,760,0
885415,339.17,854,736,0
885425,336.76,854,755,0
885435,331.82,854,745,0
885445,326.22,854,760,0
885455,319.00,854,736,0
885465,312.31,854,755,0
885475,304.97,854,745,0
885485,298.90,854,760,0
885495,292.93,854,736,0
885505,288.88,854,754,0
885515,285.79,854,746,0
885525,284.56,854,760,0
885535,283.71,854,736,0
885545,284.83,854,759,0
885555,286.03,854,746,0
885565,288.60,854,760,0
885575,290.90,854,736,0
885585,293.85,854,759,0
885595,296.42,854,746,0
885605,299.77,854,760,0
885615,302.28,854,736,0
885625,305.37,854,759,0
885635,307.49,854,746,0
885645,310.21,854,760,0
885655,312.16,854,736,0
885665,314.38,854,759,0
885676,315.86,854,735,0
885686,317.48,854,757,0
885696,318.50,854,738,0
885706,319.50,854,757,0
885716,319.95,854,736,0
885726,320.40,854,757,0
885736,320.06,854,738,0
885746,319.36,854,757,0
885756,318.31,854,737,0
885766,317.23,854,757,0
885776,315.88,854,738,0
885786,314.54,854,757,0
885796,314.12,854,737,0
885806,316.23,854,757,0
885816,322.50,854,738,0
885826,335.94,854,757,0
885846,359.78,855,756,0
885849,395.59,855,754,0
885858,439.47,855,747,0
885868,488.19,855,754,0
885878,538.83,855,747,0
885889,588.42,855,754,0
885899,633.04,855,748,0
885909,668.64,855,753,0
885919,693.65,855,750,0
885929,711.11,855,753,0
885939,723.42,855,748,0
885949,731.95,855,753,0
885959,738.01,855,750,0
885969,742.16,855,753,0
885979,745.16,855,748,0
885989,747.17,855,752,0
885999,748.66,855,750,0
886009,749.62,855,752,0
886019,750.38,855,748,0
886029,750.82,855,753,0
886039,751.22,855,750,0
886049,745.97,855,752,0
886060,734.06,855,751,0
886070,711.89,855,751,0
886080,681.41,855,752,0
886090,641.21,855,751,0
886100,594.52,855,753,0
886110,540.88,855,751,0
886120,489.32,855,752,0
886130,440.75,855,751,0
886140,401.87,855,753,0
886150,370.24,855,751,0
886160,349.89,855,752,0
886170,336.64,855,751,0
886180,332.72,855,753,0
886190,332.93,855,751,0
886200,339.08,855,752,0
886210,345.87,855,751,0
886220,355.21,855,753,0
886231,362.09,855,750,0
886241,368.83,855,753,0
886251,371.33,855,750,0
886261,372.69,855,753,0
886272,369.35,855,750,0
886281,365.26,855,753,0
886291,357.08,855,750,0
886301,348.87,855,753,0
886311,337.81,855,750,0
886321,328.35,855,753,0
886331,317.40,855,750,0
886341,309.05,855,753,0
886351,299.82,855,749,0
886361,294.01,855,753,0
886371,288.00,855,750,0
886381,285.52,855,753,0
886391,283.30,855,750,0
886401,284.80,855,753,0
886411,286.06,855,751,0
886421,290.28,855,753,0
886431,293.50,855,750,0
886441,298.96,855,753,0
886451,302.92,855,751,0
886461,308.04,855,753,0
886471,310.82,855,750,0
886481,314.77,855,753,0
886491,316.73,855,751,0
886501,319.98,855,753,0
886511,321.40,855,750,0
886521,324.19,855,753,0
886531,324.95,855,751,0
886541,327.07,855,753,0
886551,327.00,855,750,0
886561,327.99,855,753,0
886572,326.96,855,750,0
886582,326.93,855,753,0
886592,325.19,855,750,0
886602,325.52,855,754,0
886612,326.39,855,749,0
886622,332.83,855,753,0
886632,344.50,855,750,0
886642,367.66,855,754,0
886652,401.88,855,749,0
886671,444.90,826,749,0
886674,492.24,826,743,0
886683,542.19,826,754,0
886693,590.34,826,749,0
886703,634.68,826,754,0
886713,669.75,826,749,0
886723,694.34,826,754,0
886733,711.55,826,749,0
886743,723.64,826,754,0
886753,732.06,826,749,0
886763,737.96,826,754,0
886773,742.09,826,749,0
886784,745.02,826,756,0
886793,747.07,826,749,0
886803,748.51,826,754,0
886813,749.51,826,749,0
886823,750.26,826,756,0
886833,750.78,826,749,0
886843,748.87,826,754,0
886853,739.87,826,749,0
886863,722.59,826,755,0
886873,695.59,826,749,0
886883,660.01,826,754,0
886893,615.57,826,749,0
886903,564.61,826,755,0
886913,509.78,826,749,0
886923,458.72,826,753,0
886933,412.95,826,749,0
886943,376.62,826,754,0
886953,348.62,826,747,0
886963,331.12,826,753,0
886973,321.14,826,749,0
886983,319.56,826,754,0
886993,322.56,826,747,0
887003,330.58,826,753,0
887013,339.40,826,749,0
887023,349.53,826,754,0
887033,357.60,826,747,0
887043,364.79,826,754,0
887053,368.28,826,749,0
887063,369.70,826,754,0
887073,366.92,826,748,0
887084,362.14,826,759,0
887094,354.08,826,737,0
887104,344.93,826,759,0
887114,333.77,826,735,0
887124,322.91,826,757,0
887134,311.45,826,738,0
887144,301.89,826,760,0
887154,293.13,826,735,0
887164,286.58,826,757,0
887174,281.48,826,738,0
887184,279.02,826,760,0
887194,278.03,826,735,0
887204,279.22,826,758,0
887214,281.04,826,739,0
887224,284.46,826,760,0
887234,288.26,826,734,0
887244,292.94,826,758,0
887255,297.33,826,738,0
887265,301.95,826,758,0
887275,306.25,826,738,0
887285,310.33,826,757,0
887296,314.05,826,738,0
887305,317.63,826,758,0
887315,320.53,826,738,0
887325,322.81,826,758,0
887335,324.75,826,738,0
887345,325.99,826,757,0
887355,326.63,826,738,0
887365,326.31,826,758,0
887375,326.13,826,737,0
887385,326.57,826,757,0
887395,329.27,826,738,0
887405,336.17,826,758,0
887415,350.91,826,737,0
887425,376.73,826,757,0
887435,413.41,826,739,0
887445,457.05,826,758,0
887464,505.08,793,756,0
887468,554.55,793,754,0
887476,602.17,793,741,0
887486,643.86,793,755,0
887496,676.09,793,746,0
887506,698.65,793,754,0
887516,714.48,793,741,0
887526,725.57,793,754,0
887536,733.37,793,746,0
887546,738.79,793,754,0
887556,742.66,793,741,0
887566,745.34,793,755,0
887576,747.25,793,746,0
887586,748.55,793,754,0
887596,749.50,793,740,0
887606,750.16,793,755,0
887616,750.67,793,746,0
887626,750.94,793,754,0
887636,751.22,793,747,0
887646,749.05,793,755,0
887656,741.41,793,745,0
887666,724.96,793,754,0
887676,699.94,793,747,0
887686,666.23,793,755,0
887696,624.63,793,745,0
887706,575.20,793,754,0
887716,523.20,793,747,0
887726,472.01,793,755,0
887736,427.26,793,745,0
887746,389.13,793,754,0
887756,360.12,793,747,0
887767,338.78,793,754,0
887777,327.02,793,746,0
887787,320.54,793,754,0
887797,320.68,793,748,0
887808,323.18,793,753,0
887817,328.95,793,746,0
887827,333.64,793,754,0
887837,339.23,793,748,0
887847,341.48,793,753,0
887857,343.43,793,746,0
887867,341.33,793,754,0
887877,338.88,793,748,0
887887,332.78,793,753,0
887897,327.06,793,746,0
887907,318.73,793,754,0
887917,312.21,793,748,0
887927,303.96,793,753,0
887937,298.32,793,746,0
887947,292.01,793,754,0
887957,288.96,793,748,0
887967,285.54,793,753,0
887977,285.47,793,749,0
887987,284.94,793,754,0
887997,287.62,793,748,0
888007,289.57,793,753,0
888017,294.12,793,750,0
888027,297.47,793,754,0
888037,302.90,793,748,0
888047,306.49,793,753,0
888057,311.57,793,749,0
888067,314.57,793,754,0
888077,318.90,793,747,0
888087,320.90,793,753,0
888097,324.06,793,749,0
888108,324.81,793,752,0
888118,326.93,793,751,0
888128,326.43,793,752,0
888138,327.16,793,752,0
888148,325.40,793,751,0
888158,325.06,793,751,0
888168,322.47,793,752,0
888178,321.82,793,752,0
888188,319.90,793,751,0
888198,321.94,793,751,0
888208,326.25,793,752,0
888218,339.59,793,752,0
888228,362.00,793,751,0
888238,397.44,793,751,0
888257,440.04,793,750,0
888260,488.71,793,754,0
888269,538.68,793,751,0
888279,588.54,793,753,0
888289,632.65,793,751,0
888299,668.37,793,753,0
888309,693.29,793,751,0
888320,710.77,793,753,0
888329,722.97,793,751,0
888339,731.55,793,753,0
888349,737.51,793,750,0
888359,741.73,793,753,0
888369,744.64,793,751,0
888379,746.76,793,753,0
888389,748.21,793,750,0
888399,749.30,793,753,0
888409,750.02,793,751,0
888419,750.57,793,753,0
888429,750.92,793,750,0
888439,751.20,793,753,0
888449,751.31,793,751,0
888459,751.47,793,753,0
888469,751.50,793,750,0
888479,750.71,793,753,0
888489,743.34,793,751,0
888499,728.75,793,753,0
888509,703.80,793,750,0
888519,670.43,793,753,0
888529,627.44,793,750,0
888539,578.07,793,753,0
888549,522.55,793,750,0
888559,469.88,793,753,0
888569,420.38,793,750,0
888579,380.19,793,753,0
888589,346.58,793,750,0
888599,323.18,793,753,0
888609,305.68,793,750,0
888620,296.43,793,753,0
888630,290.56,793,749,0
888640,289.92,793,753,0
888650,289.73,793,750,0
888660,292.08,793,753,0
888670,292.79,793,749,0
888680,294.44,793,753,0
888690,293.62,793,750,0
888700,293.26,793,753,0
888710,290.66,793,750,0
888720,289.00,793,753,0
888730,285.53,793,750,0
888740,283.57,793,753,0
888750,280.31,793,750,0
888760,279.19,793,753,0
888770,277.33,793,750,0
888780,277.62,793,753,0
888791,277.22,793,749,0
888801,279.08,793,754,0
888811,280.26,793,749,0
888821,283.35,793,753,0
888832,285.43,793,748,0
888841,289.33,793,754,0
888851,292.02,793,749,0
888861,296.00,793,754,0
888871,298.53,793,748,0
888881,301.97,793,753,0
888891,303.74,793,749,0
888901,306.04,793,753,0
888911,306.59,793,748,0
888921,307.87,793,753,0
888931,307.48,793,749,0
888941,307.81,793,753,0
888951,306.88,793,748,0
888961,307.22,793,754,0
888971,306.29,793,748,0
888981,306.29,793,754,0
888991,304.92,793,748,0
889001,304.39,793,753,0
889011,302.64,793,749,0
889021,301.85,793,754,0
889031,299.88,793,748,0
889041,299.79,793,753,0
889051,300.07,793,749,0
889061,304.93,793,753,0
889071,315.11,793,749,0
889081,336.29,793,753,0
889100,369.42,843,753,0
889103,412.54,843,760,0
889112,461.23,843,743,0
889122,513.83,843,760,0
889132,565.91,843,749,0
889142,614.80,843,758,0
889152,655.10,843,744,0
889162,684.13,843,760,0
889172,704.49,843,736,0
889182,718.79,843,757,0
889192,728.79,843,744,0
889202,735.80,843,760,0
889212,740.70,843,736,0
889222,744.13,843,757,0
889232,746.54,843,745,0
889242,748.22,843,760,0
889252,749.35,843,736,0
889262,750.19,843,756,0
889272,750.78,843,746,0
889282,751.19,843,760,0
889292,751.47,843,737,0
889303,751.67,843,759,0
889313,751.81,843,737,0
889323,751.91,843,757,0
889333,751.90,843,739,0
889344,751.88,843,758,0
889353,746.95,843,737,0
889363,734.28,843,756,0
889373,711.82,843,739,0
889383,679.60,843,757,0
889393,638.15,843,737,0
889403,588.82,843,756,0
889413,532.65,843,739,0
889423,476.18,843,757,0
889433,423.33,843,736,0
889443,377.93,843,756,0
889453,340.66,843,739,0
889463,312.05,843,757,0
889473,290.95,843,736,0
889483,277.16,843,756,0
889493,268.84,843,739,0
889503,265.16,843,758,0
889513,264.13,843,737,0
889523,265.12,843,756,0
889533,266.58,843,739,0
889543,268.47,843,757,0
889553,269.78,843,737,0
889563,270.83,843,756,0
889573,271.05,843,739,0
889583,270.95,843,757,0
889593,270.41,843,737,0
889603,270.20,843,756,0
889613,270.01,843,739,0
889623,270.31,843,757,0
889633,270.94,843,737,0
889644,272.16,843,757,0
889654,274.04,843,739,0
889664,276.17,843,756,0
889674,279.03,843,745,0
889684,281.90,843,754,0
889694,285.01,843,739,0
889704,287.92,843,756,0
889714,291.29,843,744,0
889724,293.77,843,754,0
889734,296.46,843,738,0
889744,297.95,843,756,0
889754,299.85,843,744,0
889764,300.62,843,754,0
889774,301.46,843,738,0
889784,301.24,843,756,0
889794,301.60,843,744,0
889804,300.99,843,754,0
889815,301.16,843,747,0
889825,300.09,843,754,0
889844,300.32,744,753,0
889847,299.15,744,752,0
889857,299.45,744,751,0
889867,298.54,744,752,0
889877,299.19,744,752,0
889887,298.15,744,751,0
889897,298.71,744,753,0
889907,297.38,744,752,0
889917,298.17,744,752,0
889927,296.79,744,751,0
889937,297.19,744,753,0
889947,295.98,744,752,0
889957,298.00,744,752,0
889967,301.04,744,751,0
889977,311.19,744,753,0
889987,327.67,744,752,0
889997,357.90,744,752,0
890016,397.79,0,751,0
890018,445.77,0,754,0
890028,496.88,0,751,0
890038,549.89,0,754,0
890048,599.38,0,751,0
890058,643.45,0,753,0
890068,676.06,0,751,0
890078,698.97,0,753,0
890088,714.96,0,751,0
890098,726.20,0,753,0
890108,734.03,0,750,0
890118,739.55,0,753,0
890128,743.33,0,751,0
890138,746.01,0,753,0
890148,747.85,0,750,0
890158,749.23,0,753,0
890168,750.10,0,751,0
890178,750.76,0,753,0
890188,751.17,0,750,0
890199,751.55,0,753,0
890209,751.73,0,750,0
890219,751.85,0,753,0
890229,751.85,0,750,0
890240,747.74,0,754,0
890249,735.22,0,750,0
890259,713.81,0,753,0
890269,681.64,0,750,0
890279,640.60,0,754,0
890289,590.41,0,750,0
890299,533.97,0,753,0
890309,475.44,0,750,0
890319,422.21,0,754,0
890329,374.62,0,750,0
890339,337.36,0,753,0
890349,307.94,0,750,0
890359,288.93,0,754,0
890369,276.14,0,750,0
890379,271.34,0,753,0
890389,269.78,0,750,0
890399,272.89,0,753,0
890409,276.18,0,749,0
890419,281.57,0,753,0
890429,284.87,0,750,0
890439,288.64,0,753,0
890449,289.56,0,749,0
890459,290.46,0,753,0
890469,288.52,0,750,0
890479,286.91,0,753,0
890489,283.04,0,749,0
890499,280.50,0,753,0
890509,276.66,0,750,0
890519,274.71,0,753,0
890529,271.97,0,749,0
890540,271.55,0,753,0
890550,270.70,0,748,0
890560,272.46,0,754,0
890570,273.56,0,749,0
890580,276.44,0,753,0
890590,278.45,0,749,0
890600,282.09,0,753,0
890610,284.76,0,748,0
890620,288.52,0,753,0
890630,290.63,0,748,0
890640,293.70,0,753,0
890650,295.55,0,748,0
890660,298.04,0,753,0
890670,299.10,0,748,0
890680,300.78,0,753,0
890690,301.19,0,749,0
890700,302.29,0,753,0
890711,302.08,0,747,0
890721,302.44,0,759,0
890731,301.75,0,737,0
890741,301.61,0,759,0
890752,300.53,0,734,0
890761,300.20,0,758,0
890771,298.90,0,738,0
890781,298.24,0,759,0
890791,296.97,0,734,0
890801,296.55,0,759,0
890811,295.44,0,738,0
890821,294.88,0,759,0
890831,293.67,0,734,0
890841,293.21,0,758,0
890851,292.21,0,739,0
890861,292.02,0,759,0
890871,292.01,0,734,0
890881,294.79,0,757,0
890891,300.90,0,740,0
890901,314.09,0,760,0
890911,336.47,0,734,0
890931,372.25,914,734,0
890934,416.70,914,747,0
890943,466.93,914,756,0
890953,519.41,914,742,0
890963,571.49,914,755,0
890973,619.04,914,738,0
890983,658.71,914,756,0
890993,686.53,914,742,0
891003,705.96,914,755,0
891013,719.55,914,737,0
891023,729.03,914,756,0
891033,735.71,914,741,0
891043,740.38,914,755,0
891053,743.65,914,737,0
891063,745.90,914,756,0
891073,747.52,914,741,0
891083,748.65,914,755,0
891094,749.48,914,746,0
891103,750.02,914,756,0
891113,750.44,914,740,0
891123,746.80,914,755,0
891133,736.66,914,745,0
891143,717.56,914,756,0
891153,689.32,914,740,0
891163,651.47,914,755,0
891173,605.86,914,745,0
891183,552.71,914,756,0
891193,498.07,914,739,0
891203,445.38,914,755,0
891213,399.62,914,745,0
891223,361.59,914,756,0
891233,333.34,914,739,0
891243,313.35,914,755,0
891253,302.83,914,744,0
891264,298.98,914,754,0
891273,301.47,914,739,0
891283,306.95,914,755,0
891293,315.36,914,744,0
891303,323.57,914,754,0
891313,331.54,914,738,0
891323,336.74,914,755,0
891333,340.50,914,744,0
891343,340.69,914,754,0
891353,338.90,914,738,0
891363,333.79,914,755,0
891373,327.77,914,743,0
891383,319.74,914,754,0
891393,311.63,914,738,0
891403,302.70,914,755,0
891413,295.37,914,743,0
891423,288.28,914,754,0
891433,283.52,914,745,0
891443,279.38,914,756,0
891453,277.72,914,743,0
891463,276.95,914,755,0
891473,278.46,914,745,0
891483,280.38,914,756,0
891493,284.04,914,743,0
891503,287.11,914,754,0
891513,291.58,914,745,0
891523,295.35,914,756,0
891533,300.13,914,743,0
891543,303.56,914,754,0
891553,307.64,914,745,0
891564,310.23,914,754,0
891574,313.98,914,746,0
891584,315.91,914,754,0
891594,318.77,914,747,0
891604,319.78,914,753,0
891614,321.90,914,747,0
891624,322.15,914,753,0
891634,323.43,914,747,0
891644,322.36,914,753,0
891654,322.47,914,746,0
891664,320.53,914,754,0
891674,319.90,914,747,0
891684,317.14,914,753,0
891694,315.81,914,746,0
891704,313.34,914,754,0
891714,314.48,914,747,0
891724,317.42,914,753,0
891735,328.05,914,749,0
891745,345.95,914,752,0
891764,377.68,834,751,0
891767,418.32,834,750,0
891777,466.18,834,753,0
891787,516.27,834,750,0
891797,567.32,834,753,0
891807,614.02,834,749,0
891817,654.60,834,753,0
891827,683.56,834,750,0
891837,703.92,834,753,0
891847,718.13,834,749,0
891857,728.12,834,753,0
891867,735.11,834,750,0
891877,740.05,834,753,0
891887,743.42,834,749,0
891897,745.82,834,753,0
891907,747.42,834,750,0
891917,748.58,834,753,0
891927,748.02,834,749,0
891937,743.26,834,753,0
891948,729.81,834,749,0
891958,707.75,834,752,0
891968,675.21,834,749,0
891978,634.13,834,753,0
891988,583.99,834,748,0
891998,529.10,834,752,0
892008,471.94,834,749,0
892018,420.10,834,753,0
892028,373.87,834,748,0
892038,337.91,834,753,0
892048,309.99,834,748,0
892058,293.02,834,753,0
892068,283.37,834,748,0
892078,282.96,834,753,0
892088,287.34,834,748,0
892098,298.08,834,753,0
892108,310.27,834,749,0
892119,325.11,834,754,0
892129,338.06,834,748,0
892139,350.34,834,753,0
892149,358.42,834,749,0
892160,364.17,834,754,0
892169,364.46,834,748,0
892179,362.27,834,754,0
892189,355.50,834,749,0
892199,347.34,834,754,0
892209,336.18,834,748,0
892219,325.11,834,753,0
892229,312.86,834,749,0
892239,302.10,834,754,0
892249,291.36,834,748,0
892259,283.54,834,754,0
892269,276.39,834,749,0
892279,272.33,834,754,0
892289,269.23,834,748,0
892299,269.25,834,754,0
892309,269.99,834,749,0
892319,273.03,834,754,0
892329,275.77,834,747,0
892339,280.38,834,754,0
892349,284.34,834,749,0
892359,289.46,834,753,0
892369,293.35,834,748,0
892379,298.05,834,754,0
892389,301.29,834,748,0
892399,305.06,834,753,0
892409,307.23,834,748,0
892419,310.03,834,753,0
892429,311.44,834,749,0
892439,313.36,834,753,0
892449,313.85,834,748,0
892460,314.84,834,757,0
892470,314.55,834,740,0
892480,314.60,834,760,0
892490,313.69,834,734,0
892500,313.10,834,758,0
892510,311.74,834,741,0
892520,312.12,834,760,0
892530,314.48,834,734,0
892540,322.65,834,758,0
892550,337.97,834,742,0
892560,365.28,834,760,0
892579,403.34,815,758,0
892582,449.14,815,755,0
892591,498.90,815,736,0
892601,550.14,815,757,0
892611,598.66,815,738,0
892621,641.87,815,758,0
892631,674.65,815,736,0
892641,697.60,815,757,0
892651,713.62,815,738,0
892661,724.83,815,758,0
892672,732.64,815,737,0
892681,738.19,815,757,0
892691,741.99,815,738,0
892701,744.65,815,758,0
892711,746.51,815,737,0
892721,747.90,815,757,0
892731,748.83,815,738,0
892741,749.48,815,757,0
892751,749.89,815,737,0
892761,750.27,815,757,0
892771,750.49,815,738,0
892781,747.13,815,757,0
892791,736.59,815,736,0
892801,717.81,815,757,0
892811,689.33,815,738,0
892821,651.51,815,757,0
892831,605.25,815,737,0
892841,551.60,815,757,0
892851,495.58,815,738,0
892861,442.48,815,757,0
892871,395.10,815,737,0
892881,356.12,815,757,0
892891,326.08,815,737,0
892901,305.23,815,756,0
892911,292.99,815,737,0
892921,288.02,815,757,0
892931,288.49,815,737,0
892941,293.01,815,756,0
892951,299.69,815,737,0
892961,307.07,815,757,0
892972,313.91,815,738,0
892982,318.95,815,755,0
892992,322.35,815,743,0
893002,323.15,815,754,0
893012,322.07,815,746,0
893022,318.75,815,755,0
893032,314.54,815,743,0
893042,308.64,815,754,0
893052,303.30,815,746,0
893062,297.21,815,755,0
893072,292.43,815,742,0
893082,287.20,815,755,0
893092,283.97,815,746,0
893102,280.89,815,755,0
893112,279.94,815,742,0
893122,278.84,815,755,0
893132,280.05,815,745,0
893143,281.15,815,753,0
893153,284.45,815,746,0
893163,286.80,815,753,0
893173,291.19,815,747,0
893184,294.35,815,752,0
893193,298.78,815,747,0
893203,301.59,815,754,0
893213,305.57,815,747,0
893223,307.41,815,752,0
893233,310.38,815,746,0
893243,310.86,815,754,0
893253,312.88,815,747,0
893263,313.00,815,752,0
893273,314.20,815,746,0
893283,313.45,815,754,0
893293,314.22,815,747,0
893303,313.12,815,753,0
893313,313.47,815,746,0
893323,311.92,815,754,0
893333,312.07,815,747,0
893343,310.46,815,753,0
893353,311.01,815,748,0
893363,310.88,815,754,0
893373,315.03,815,747,0
893383,322.39,815,753,0
893393,339.50,815,748,0
893412,366.27,833,745,0
893415,404.80,833,752,0
893424,449.56,833,752,0
893434,499.54,833,751,0
893444,549.99,833,753,0
893454,599.28,833,750,0
893464,641.54,833,752,0
893474,674.50,833,751,0
893484,697.58,833,753,0
893494,713.86,833,750,0
893504,725.22,833,752,0
893514,733.21,833,751,0
893524,738.72,833,752,0
893534,742.66,833,750,0
893544,745.38,833,752,0
893554,747.32,833,751,0
893564,748.60,833,752,0
893574,749.57,833,750,0
893584,750.22,833,752,0
893594,750.71,833,751,0
893604,750.97,833,752,0
893614,751.23,833,749,0
893624,751.38,833,752,0
893634,751.52,833,750,0
893644,751.54,833,752,0
893655,748.89,833,752,0
893665,738.12,833,751,0
893675,718.93,833,752,0
893685,688.95,833,750,0
893696,650.44,833,753,0
893705,602.95,833,751,0
893715,549.39,833,752,0
893725,492.06,833,750,0
893735,439.84,833,753,0
893745,392.58,833,751,0
893755,355.59,833,752,0
893765,325.80,833,750,0
893775,306.10,833,753,0
893785,292.14,833,751,0
893795,286.27,833,752,0
893805,283.23,833,751,0
893815,285.18,833,753,0
893825,287.05,833,751,0
893835,291.41,833,752,0
893845,293.69,833,751,0
893855,296.91,833,753,0
893865,297.19,833,750,0
893875,298.04,833,751,0
893885,295.97,833,751,0
893895,294.78,833,753,0
893905,291.12,833,750,0
893915,288.94,833,751,0
893925,284.97,833,750,0
893935,283.18,833,753,0
893945,280.13,833,750,0
893955,279.87,833,752,0
893965,278.67,833,751,0
893975,280.10,833,753,0
893985,280.54,833,750,0
893996,283.63,833,753,0
894006,285.29,833,750,0
894016,288.89,833,753,0
894026,290.51,833,749,0
894036,293.70,833,753,0
894046,294.99,833,750,0
894056,297.56,833,753,0
894066,297.91,833,749,0
894076,299.56,833,752,0
894086,299.31,833,750,0
894096,300.50,833,753,0
894106,299.84,833,750,0
894116,300.49,833,753,0
894126,299.48,833,750,0
894136,300.07,833,753,0
894146,298.98,833,750,0
894156,299.41,833,753,0
894167,298.13,833,750,0
894177,298.31,833,753,0
894187,297.01,833,749,0
894197,297.14,833,753,0
894208,295.81,833,749,0
894217,296.21,833,753,0
894227,295.68,833,750,0
894237,297.87,833,753,0
894247,302.03,833,749,0
894257,312.78,833,753,0
894267,330.63,833,750,0
894286,362.03,874,749,0
894289,402.86,874,736,0
894298,451.12,874,754,0
894308,502.55,874,749,0
894318,554.97,874,754,0
894328,604.01,874,749,0
894338,647.08,874,754,0
894348,678.47,874,749,0
894358,700.49,874,754,0
894368,715.85,874,749,0
894379,726.61,874,757,0
894388,734.14,874,749,0
894398,739.46,874,754,0
894408,743.13,874,749,0
894418,745.71,874,757,0
894428,747.51,874,749,0
894438,748.81,874,754,0
894448,749.68,874,749,0
894458,750.29,874,756,0
894468,750.72,874,750,0
894478,751.06,874,754,0
894488,751.26,874,749,0
894498,751.39,874,756,0
894508,751.49,874,750,0
894518,751.60,874,754,0
894528,747.48,874,749,0
894538,736.45,874,755,0
894548,715.53,874,746,0
894558,685.50,874,754,0
894568,645.58,874,749,0
894578,597.62,874,754,0
894588,542.06,874,748,0
894598,485.86,874,754,0
894608,431.99,874,749,0
894618,385.88,874,754,0
894628,347.04,874,749,0
894638,318.19,874,754,0
894648,296.96,874,749,0
894658,284.41,874,754,0
894668,277.22,874,749,0
894679,275.74,874,759,0
894689,276.67,874,739,0
894699,280.24,874,760,0
894709,283.64,874,735,0
894720,287.56,874,758,0
894729,290.01,874,740,0
894739,291.89,874,760,0
894749,292.01,874,735,0
894759,291.45,874,758,0
894769,289.34,874,739,0
894779,287.23,874,760,0
894789,284.37,874,735,0
894799,281.95,874,758,0
894809,279.39,874,741,0
894819,277.82,874,760,0
894829,276.37,874,735,0
894839,276.09,874,758,0
894849,275.80,874,742,0
894859,276.85,874,760,0
894869,278.01,874,736,0
894879,280.02,874,758,0
894889,281.77,874,737,0
894899,284.45,874,760,0
894909,286.72,874,735,0
894919,289.50,874,758,0
894929,291.71,874,737,0
894939,294.15,874,760,0
894949,295.74,874,736,0
894959,297.40,874,758,0
894969,298.22,874,736,0
894979,299.49,874,760,0
894989,299.90,874,735,0
894999,300.36,874,759,0
895009,300.12,874,736,0
895020,300.26,874,757,0
895030,300.09,874,738,0
895040,300.02,874,758,0
895050,299.67,874,737,0
895060,299.56,874,756,0
895070,299.00,874,738,0
895080,298.66,874,758,0
895090,298.08,874,737,0
895100,297.58,874,756,0
895110,297.49,874,738,0
895120,298.63,874,758,0
895130,303.16,874,737,0
895140,313.27,874,756,0
895150,331.61,874,738,0
895169,362.29,883,737,0
895172,403.30,883,747,0
895181,451.17,883,754,0
895191,502.76,883,740,0
895201,554.65,883,755,0
895211,603.70,883,744,0
895221,646.30,883,754,0
895232,677.88,883,746,0
895241,699.95,883,755,0
895251,715.43,883,744,0
895261,726.23,883,754,0
895271,733.83,883,746,0
895281,739.11,883,755,0
895291,742.85,883,743,0
895301,745.42,883,754,0
895311,747.27,883,746,0
895321,748.52,883,756,0
895331,749.43,883,743,0
895341,750.03,883,754,0
895351,750.49,883,746,0
895361,750.77,883,756,0
895371,751.01,883,743,0
895381,748.70,883,754,0
895391,740.77,883,746,0
895401,723.65,883,754,0
895411,697.57,883,742,0
895421,661.62,883,754,0
895431,617.59,883,745,0
895441,565.43,883,754,0
895451,510.06,883,742,0
895461,455.44,883,754,0
895471,407.56,883,745,0
895481,366.68,883,754,0
895491,335.45,883,741,0
895501,312.30,883,754,0
895511,298.92,883,745,0
895521,291.88,883,754,0
895532,291.83,883,746,0
895542,294.66,883,753,0
895552,301.32,883,747,0
895562,307.91,883,753,0
895572,315.52,883,749,0
895582,320.60,883,753,0
895592,325.26,883,747,0
895602,326.12,883,753,0
895612,326.52,883,748,0
895622,323.19,883,753,0
895632,320.09,883,747,0
895642,314.06,883,753,0
895652,309.03,883,749,0
895662,302.42,883,754,0
895672,297.75,883,747,0
895682,292.04,883,753,0
895692,289.03,883,748,0
895703,285.25,883,752,0
895713,284.57,883,750,0
895723,283.16,883,752,0
895733,284.35,883,751,0
895744,284.85,883,751,0
895753,287.85,883,750,0
895763,289.74,883,752,0
895773,293.76,883,751,0
895783,296.19,883,751,0
895793,300.59,883,750,0
895803,303.11,883,752,0
895813,307.24,883,751,0
895823,309.14,883,751,0
895833,312.57,883,750,0
895843,313.77,883,752,0
895853,316.28,883,751,0
895863,316.54,883,751,0
895873,318.22,883,749,0
895883,317.68,883,752,0
895893,318.59,883,751,0
895903,317.09,883,752,0
895913,317.10,883,752,0
895923,315.10,883,752,0
895933,314.56,883,750,0
895943,312.12,883,752,0
895953,311.78,883,752,0
895963,310.78,883,752,0
895973,314.01,883,750,0
895983,319.92,883,752,0
895993,334.86,883,751,0
896012,358.22,843,749,0
896015,394.45,843,753,0
896024,437.86,843,751,0
896034,487.14,843,754,0
896044,537.37,843,751,0
896054,587.15,843,752,0
896064,630.95,843,751,0
896074,667.18,843,753,0
896084,692.54,843,750,0
896094,710.33,843,752,0
896104,722.66,843,751,0
896114,731.33,843,753,0
896124,737.36,843,750,0
896134,741.63,843,752,0
896144,744.57,843,751,0
896154,746.67,843,752,0
896164,748.10,843,750,0
896174,749.14,843,752,0
896184,749.83,843,751,0
896194,747.74,843,752,0
896204,737.44,843,750,0
896215,718.88,843,753,0
896225,689.47,843,750,0
896235,651.40,843,753,0
896245,603.71,843,749,0
896256,549.41,843,753,0
896265,491.17,843,750,0
896275,437.89,843,752,0
896285,389.58,843,750,0
896295,352.08,843,753,0
896305,322.61,843,750,0
896315,304.81,843,752,0
896325,294.76,843,750,0
896335,294.19,843,753,0
896345,298.16,843,750,0
896355,308.14,843,752,0
896365,318.81,843,750,0
896375,331.90,843,753,0
896385,343.07,843,750,0
896395,354.32,843,753,0
896405,361.42,843,750,0
896415,366.83,843,753,0
896425,367.22,843,750,0
896435,366.08,843,753,0
896445,360.49,843,750,0
896455,353.70,843,753,0
896465,343.20,843,750,0
896475,333.24,843,753,0
896485,321.38,843,750,0
896495,311.50,843,753,0
896505,300.81,843,750,0
896515,293.24,843,753,0
896525,285.75,843,750,0
896535,281.71,843,753,0
896545,277.85,843,750,0
896556,277.34,843,753,0
896566,276.94,843,750,0
896576,279.49,843,754,0
896586,281.57,843,749,0
896596,285.77,843,754,0
896606,288.97,843,750,0
896616,293.91,843,754,0
896626,297.53,843,749,0
896636,302.22,843,753,0
896646,305.28,843,750,0
896656,309.35,843,754,0
896666,311.82,843,749,0
896676,315.09,843,754,0
896686,316.48,843,750,0
896696,318.56,843,754,0
896706,318.99,843,750,0
896716,320.11,843,754,0
896727,319.39,843,749,0
896737,319.40,843,754,0
896747,318.30,843,749,0
896757,319.19,843,754,0
896768,321.36,843,747,0
896777,329.01,843,754,0
896787,342.89,843,749,0
896797,368.64,843,754,0
896807,405.01,843,747,0
896826,449.45,814,748,0
896829,497.83,814,739,0
896838,548.06,814,759,0
896848,596.17,814,735,0
896858,639.49,814,759,0
896868,673.03,814,739,0
896878,696.51,814,759,0
896888,712.90,814,735,0
896898,724.41,814,759,0
896908,732.48,814,739,0
896918,738.12,814,760,0
896928,742.03,814,735,0
896939,744.76,814,758,0
896948,746.68,814,741,0
896958,748.02,814,760,0
896968,748.91,814,735,0
896978,749.58,814,758,0
896988,749.28,814,741,0
896998,744.31,814,760,0
897008,731.06,814,734,0
897018,708.41,814,758,0
897028,676.23,814,742,0
897038,635.36,814,760,0
897048,586.14,814,734,0
897058,531.15,814,758,0
897068,475.31,814,743,0
897078,424.69,814,760,0
897088,381.20,814,735,0
897098,347.07,814,759,0
897108,321.97,814,736,0
897118,306.98,814,760,0
897128,299.96,814,735,0
897138,300.53,814,759,0
897148,305.81,814,736,0
897158,315.30,814,760,0
897168,325.75,814,736,0
897178,336.71,814,759,0
897188,345.67,814,736,0
897198,353.18,814,760,0
897208,357.33,814,736,0
897218,358.77,814,759,0
897228,356.66,814,736,0
897239,352.09,814,757,0
897249,344.95,814,738,0
897259,336.39,814,757,0
897269,326.50,814,737,0
897280,316.37,814,756,0
897289,306.14,814,738,0
897299,296.97,814,757,0
897309,289.14,814,737,0
897319,282.67,814,756,0
897329,278.01,814,738,0
897339,274.92,814,757,0
897349,273.70,814,737,0
897359,274.09,814,757,0
897369,275.35,814,738,0
897379,277.64,814,757,0
897389,280.92,814,737,0
897399,284.72,814,756,0
897409,288.70,814,737,0
897419,292.86,814,757,0
897429,297.06,814,737,0
897439,301.16,814,756,0
897449,305.18,814,739,0
897459,308.64,814,757,0
897469,311.41,814,738,0
897479,313.73,814,757,0
897489,315.52,814,738,0
897499,316.48,814,757,0
897509,316.94,814,738,0
897519,316.70,814,757,0
897529,317.30,814,738,0
897539,319.78,814,757,0
897549,326.32,814,738,0
897559,339.64,814,757,0
897569,363.88,814,738,0
897580,399.70,814,756,0
897590,443.50,814,742,0
897609,491.91,783,743,0
897612,542.38,783,753,0
897622,591.51,783,753,0
897631,635.71,783,747,0
897641,670.51,783,754,0
897651,694.96,783,747,0
897661,712.03,783,753,0
897671,724.06,783,747,0
897681,732.40,783,754,0
897691,738.32,783,747,0
897701,742.38,783,754,0
897711,745.31,783,747,0
897721,747.28,783,754,0
897731,748.74,783,747,0
897741,749.67,783,753,0
897751,750.41,783,747,0
897761,750.85,783,754,0
897771,751.24,783,747,0
897781,751.42,783,753,0
897792,750.22,783,749,0
897801,742.70,783,754,0
897811,727.58,783,747,0
897821,702.03,783,754,0
897831,667.86,783,748,0
897841,624.45,783,754,0
897851,574.34,783,747,0
897861,518.57,783,754,0
897871,465.38,783,748,0
897881,415.94,783,754,0
897891,375.93,783,747,0
897901,343.25,783,753,0
897911,321.15,783,748,0
897921,305.89,783,754,0
897931,299.66,783,747,0
897941,297.49,783,753,0
897951,301.12,783,748,0
897961,305.62,783,753,0
897971,312.77,783,747,0
897981,317.98,783,753,0
897991,323.73,783,747,0
898001,326.17,783,753,0
898011,328.09,783,747,0
898021,326.26,783,753,0
898031,324.34,783,748,0
898041,319.10,783,753,0
898051,314.31,783,747,0
898061,307.27,783,753,0
898071,301.71,783,748,0
898081,294.89,783,753,0
898092,290.64,783,749,0
898102,285.69,783,752,0
898112,284.33,783,751,0
898122,282.56,783,752,0
898132,283.93,783,752,0
898142,284.85,783,753,0
898152,288.63,783,751,0
898162,291.27,783,752,0
898172,295.99,783,752,0
898182,298.56,783,753,0
898192,302.76,783,751,0
898202,304.64,783,753,0
898212,307.79,783,752,0
898222,308.67,783,753,0
898232,310.99,783,751,0
898242,311.21,783,753,0
898252,312.95,783,752,0
898263,312.49,783,752,0
898273,313.59,783,752,0
898283,312.68,783,751,0
898293,313.29,783,753,0
898304,311.70,783,751,0
898313,311.79,783,753,0
898323,310.14,783,751,0
898333,311.43,783,753,0
898343,313.36,783,750,0
898353,321.52,783,752,0
898363,335.55,783,751,0
898373,363.16,783,753,0
898393,400.74,783,752,0
898396,446.72,783,754,0
898405,496.13,783,750,0
898415,547.86,783,754,0
898425,596.93,783,749,0
898435,641.27,783,754,0
898445,674.44,783,750,0
898455,697.75,783,754,0
898465,714.03,783,749,0
898476,725.46,783,754,0
898486,733.47,783,749,0
898496,739.11,783,754,0
898506,742.98,783,749,0
898516,745.68,783,754,0
898526,747.54,783,749,0
898536,748.88,783,754,0
898546,749.73,783,749,0
898556,750.32,783,754,0
898566,750.74,783,750,0
898576,751.08,783,754,0
898586,751.27,783,749,0
898596,751.40,783,754,0
898606,751.50,783,750,0
898616,751.60,783,754,0
898626,746.45,783,749,0
898636,733.93,783,754,0
898647,711.28,783,748,0
898657,679.22,783,759,0
898667,637.41,783,740,0
898677,587.66,783,759,0
898688,530.76,783,736,0
898697,474.35,783,758,0
898707,421.23,783,742,0
898717,376.59,783,760,0
898727,339.94,783,736,0
898737,313.00,783,758,0
898747,293.89,783,743,0
898757,282.86,783,760,0
898767,277.08,783,736,0
898777,276.41,783,757,0
898787,277.62,783,744,0
898797,280.90,783,759,0
898807,284.02,783,736,0
898817,287.61,783,756,0
898827,289.57,783,744,0
898837,290.99,783,760,0
898847,290.52,783,736,0
898857,289.51,783,758,0
898867,287.00,783,745,0
898877,284.81,783,760,0
898887,281.74,783,736,0
898897,279.46,783,759,0
898907,276.88,783,745,0
898917,275.63,783,760,0
898927,274.67,783,736,0
898937,275.15,783,759,0
898947,275.58,783,746,0
898957,277.25,783,760,0
898967,278.97,783,736,0
898977,281.77,783,759,0
898988,284.28,783,736,0
898998,287.32,783,757,0
899008,290.06,783,738,0
899018,292.91,783,758,0
899028,295.38,783,737,0
899038,297.88,783,757,0
899048,299.59,783,737,0
899058,301.00,783,757,0
899068,301.98,783,737,0
899078,302.80,783,757,0
899088,303.16,783,738,0
899098,302.94,783,758,0
899108,302.40,783,737,0
899118,301.85,783,757,0
899128,301.04,783,737,0
899138,300.04,783,757,0
899148,299.34,783,737,0
899159,300.01,783,756,0
899169,303.69,783,740,0
899179,312.36,783,756,0
899198,329.91,806,754,0
899202,360.54,806,752,0
899211,401.65,806,749,0
899221,449.50,806,753,0
899231,501.33,806,750,0
899241,553.86,806,752,0
899251,604.05,806,748,0
899261,647.10,806,753,0
899271,678.66,806,750,0
899281,700.62,806,753,0
899291,716.08,806,748,0
899301,726.81,806,754,0
899311,734.41,806,750,0
899321,739.64,806,753,0
899331,743.39,806,748,0
899341,745.93,806,753,0
899351,747.80,806,750,0
899361,749.01,806,753,0
899372,749.95,806,751,0
899382,750.52,806,752,0
899392,751.01,806,752,0
899402,751.26,806,751,0
899412,751.48,806,753,0
899422,751.55,806,752,0
899432,751.69,806,752,0
899442,749.72,806,751,0
899452,742.91,806,753,0
899462,727.25,806,752,0
899472,702.87,806,752,0
899482,668.28,806,751,0
899492,625.51,806,752,0
899502,574.14,806,752,0
899512,519.37,806,752,0
899522,463.72,806,751,0
899532,414.52,806,752,0
899543,371.12,806,751,0
899553,337.74,806,753,0
899563,311.50,806,751,0
899573,295.11,806,753,0
899584,283.93,806,750,0
899593,280.35,806,753,0
899603,278.83,806,751,0
899613,281.67,806,753,0
899623,284.04,806,750,0
899633,288.44,806,753,0
899643,290.50,806,750,0
899653,293.22,806,753,0
899663,292.77,806,750,0
899673,292.97,806,753,0
899683,290.45,806,751,0
899693,288.94,806,753,0
899703,285.27,806,750,0
899713,283.31,806,753,0
899723,280.09,806,751,0
899733,279.07,806,753,0
899743,276.99,806,751,0
899753,277.08,806,753,0
899763,276.41,806,751,0
899773,278.18,806,753,0
899783,278.81,806,750,0
899793,281.61,806,753,0
899803,283.05,806,750,0
899813,286.42,806,753,0
899823,288.53,806,750,0
899833,292.14,806,753,0
899843,294.11,806,751,0
899853,297.64,806,753,0
899863,299.12,806,750,0
899873,301.95,806,753,0
899884,302.91,806,750,0
899894,304.99,806,753,0
899904,305.34,806,750,0
899914,306.61,806,753,0
899924,306.04,806,750,0
899934,306.67,806,753,0
899944,305.53,806,750,0
899954,305.37,806,753,0
899964,303.63,806,750,0
899974,303.14,806,753,0
899984,301.21,806,750,0
899994,301.32,806,753,0
900004,301.78,806,750,0
900014,307.46,806,753,0
900024,318.21,806,750,0
900043,340.35,845,749,0
900046,374.66,845,740,0
900055,418.90,845,754,0
900065,468.13,845,750,0
900075,520.89,845,754,0
900085,572.44,845,749,0
900096,620.74,845,754,0
900105,660.03,845,750,0
900115,687.58,845,754,0
900125,706.86,845,750,0
900135,720.40,845,754,0
900145,729.88,845,750,0
900155,736.52,845,754,0
900165,741.16,845,750,0
900175,744.41,845,754,0
900185,746.69,845,750,0
900195,748.28,845,754,0
900205,749.40,845,750,0
900215,750.18,845,754,0
900225,750.72,845,750,0
900235,751.11,845,754,0
900245,751.38,845,750,0
900255,751.56,845,754,0
900265,747.32,845,749,0
900275,736.98,845,754,0
900285,716.59,845,749,0
900295,686.63,845,754,0
900305,646.50,845,749,0
900315,598.35,845,754,0
900325,542.31,845,749,0
900335,485.35,845,754,0
900345,429.70,845,749,0
900355,382.05,845,754,0
900365,342.05,845,749,0
900375,312.63,845,754,0
900385,291.31,845,749,0
900396,279.78,845,754,0
900406,274.36,845,747,0
900416,275.49,845,760,0
900426,279.37,845,737,0
900436,286.16,845,760,0
900446,292.50,845,748,0
900456,299.38,845,759,0
900466,303.72,845,738,0
900476,307.19,845,760,0
900486,307.69,845,748,0
900496,307.10,845,759,0
900506,304.37,845,738,0
900516,301.13,845,760,0
900526,296.20,845,749,0
900536,291.77,845,759,0
900546,286.74,845,738,0
900556,282.88,845,760,0
900567,279.06,845,735,0
900577,276.60,845,758,0
900587,274.66,845,737,0
900597,274.03,845,758,0
900608,273.89,845,737,0
900617,274.95,845,758,0
900627,276.30,845,737,0
900637,278.61,845,758,0
900647,281.55,845,738,0
900657,285.12,845,758,0
900667,288.47,845,736,0
900677,291.88,845,758,0
900687,294.96,845,737,0
900697,298.19,845,758,0
900707,300.70,845,736,0
900717,302.51,845,758,0
900727,303.85,845,737,0
900737,305.57,845,759,0
900747,306.68,845,736,0
900757,307.59,845,758,0
900767,307.89,845,737,0
900777,308.01,845,758,0
900787,307.70,845,736,0
900797,307.11,845,758,0
900807,305.92,845,738,0
900817,304.83,845,758,0
900827,304.11,845,736,0
900837,304.98,845,758,0
900847,308.93,845,738,0
900857,318.68,845,758,0
900867,336.39,845,735,0
900886,366.27,843,736,0
900889,406.56,843,747,0
900898,453.66,843,756,0
900908,504.38,843,737,0
900918,555.82,843,757,0
900928,604.22,843,741,0
900938,646.54,843,756,0
900948,678.09,843,745,0
900958,700.18,843,757,0
900968,715.68,843,740,0
900978,726.53,843,756,0
900988,734.13,843,745,0
900998,739.41,843,757,0
901008,743.10,843,740,0
901018,745.64,843,756,0
901028,747.42,843,745,0
901038,748.62,843,758,0
901048,749.51,843,740,0
901058,750.08,843,756,0
901068,747.53,843,744,0
901079,737.47,843,755,0
901089,718.86,843,746,0
901099,689.67,843,754,0
901109,651.71,843,746,0
901120,604.14,843,754,0
901129,550.06,843,746,0
901139,492.70,843,754,0
901149,439.56,843,746,0
901159,391.78,843,754,0
901169,354.13,843,746,0
901179,324.73,843,754,0
901189,306.86,843,747,0
901199,296.40,843,754,0
901209,294.74,843,746,0
901219,297.52,843,754,0
901229,305.98,843,746,0
901239,315.41,843,754,0
901249,326.86,843,746,0
901259,336.07,843,754,0
901269,345.09,843,747,0
901279,350.12,843,754,0
901289,353.64,843,747,0
901299,352.59,843,754,0
901309,350.19,843,746,0
901319,343.96,843,754,0
901329,337.50,843,747,0
901339,328.31,843,754,0
901349,320.11,843,747,0
901359,310.39,843,754,0
901369,302.90,843,747,0
901379,294.96,843,754,0
901389,289.92,843,746,0
901399,284.50,843,754,0
901409,282.12,843,747,0
901420,279.56,843,754,0
901430,280.07,843,749,0
901440,279.97,843,752,0
901450,282.59,843,750,0
901460,284.34,843,752,0
901470,288.78,843,749,0
901480,291.80,843,753,0
901490,296.92,843,750,0
901500,300.20,843,752,0
901510,305.54,843,749,0
901520,308.76,843,752,0
901530,313.21,843,750,0
901540,315.16,843,752,0
901550,318.33,843,748,0
901560,319.21,843,752,0
901570,321.21,843,750,0
901580,320.46,843,752,0
901591,320.92,843,751,0
901601,319.10,843,751,0
901611,319.03,843,753,0
901621,317.99,843,751,0
901632,320.22,843,753,0
901641,324.01,843,752,0
901651,335.24,843,753,0
901661,353.47,843,752,0
901671,385.85,843,754,0
901690,426.31,804,751,0
901693,473.40,804,754,0
901702,522.53,804,751,0
901712,572.64,804,754,0
901722,618.56,804,751,0
901732,658.42,804,754,0
901742,686.54,804,751,0
901752,706.31,804,754,0
901762,720.06,804,751,0
901772,729.73,804,754,0
901782,736.45,804,751,0
901792,741.24,804,754,0
901803,744.51,804,751,0
901812,746.85,804,754,0
901822,748.43,804,751,0
901832,749.63,804,754,0
901842,750.39,804,751,0
901852,749.16,804,754,0
901862,740.11,804,751,0
901872,722.85,804,754,0
901882,694.52,804,750,0
901892,657.64,804,754,0
901902,610.82,804,751,0
901912,557.30,804,754,0
901922,498.45,804,751,0
901932,443.76,804,754,0
901942,393.69,804,751,0
901952,354.18,804,753,0
901962,322.46,804,750,0
901972,302.69,804,754,0
901982,290.74,804,751,0
901992,289.06,804,753,0
902002,292.47,804,751,0
902012,302.44,804,753,0
902022,313.97,804,751,0
902032,328.46,804,753,0
902042,340.67,804,751,0
902052,352.68,804,753,0
902062,360.23,804,751,0
902072,366.04,804,753,0
902082,366.50,804,751,0
902092,364.98,804,753,0
902103,358.60,804,750,0
902113,351.48,804,754,0
902123,341.05,804,750,0
902133,330.96,804,754,0
902144,319.10,804,750,0
902153,309.51,804,754,0
902163,299.37,804,750,0
902173,292.06,804,753,0
902183,284.80,804,750,0
902193,280.70,804,753,0
902203,277.11,804,750,0
902213,276.35,804,753,0
902223,275.64,804,750,0
902233,277.51,804,753,0
902243,279.15,804,751,0
902253,282.92,804,753,0
902263,285.90,804,750,0
902273,290.69,804,753,0
902283,294.30,804,750,0
902293,299.14,804,753,0
902303,302.44,804,750,0
902313,306.81,804,754,0
902323,309.44,804,750,0
902333,312.91,804,753,0
902343,314.52,804,750,0
902353,317.15,804,754,0
902363,317.70,804,750,0
902373,318.99,804,753,0
902383,318.40,804,750,0
902393,319.01,804,754,0
902403,319.00,804,750,0
902413,322.39,804,753,0
902423,328.74,804,750,0
902433,343.86,804,754,0
902444,369.15,804,750,0
902454,406.17,804,753,0
902464,450.09,804,749,0
902483,499.18,793,748,0
902487,549.10,793,738,0
902495,597.88,793,758,0
902505,640.56,793,741,0
902515,673.95,793,760,0
902525,697.32,793,736,0
902535,713.73,793,758,0
902545,725.21,793,742,0
902555,733.25,793,760,0
902565,738.87,793,736,0
902575,742.81,793,757,0
902585,745.52,793,743,0
902595,747.42,793,760,0
902605,748.75,793,736,0
902615,749.68,793,757,0
902625,750.34,793,743,0
902635,750.79,793,760,0
902645,751.11,793,735,0
902656,751.34,793,758,0
902665,746.82,793,744,0
902675,735.17,793,760,0
902685,713.86,793,735,0
902695,683.18,793,758,0
902705,643.22,793,744,0
902715,595.67,793,760,0
902725,541.21,793,736,0
902735,486.59,793,759,0
902745,435.16,793,745,0
902755,391.82,793,760,0
902765,356.69,793,736,0
902775,331.33,793,759,0
902785,313.87,793,745,0
902795,304.91,793,760,0
902805,301.81,793,736,0
902815,304.01,793,759,0
902825,308.51,793,736,0
902835,315.00,793,760,0
902845,320.83,793,737,0
902855,326.28,793,759,0
902865,329.28,793,735,0
902875,330.70,793,760,0
902885,329.20,793,737,0
902895,326.06,793,759,0
902905,320.55,793,735,0
902915,314.47,793,760,0
902925,307.13,793,738,0
902935,300.32,793,759,0
902945,293.15,793,735,0
902956,287.28,793,757,0
902966,281.97,793,738,0
902976,278.33,793,757,0
902986,275.83,793,737,0
902996,275.07,793,757,0
903006,275.09,793,738,0
903016,276.61,793,757,0
903026,279.08,793,737,0
903036,282.36,793,757,0
903046,286.02,793,738,0
903056,289.83,793,757,0
903066,293.69,793,737,0
903076,297.30,793,757,0
903086,300.51,793,738,0
903096,303.23,793,757,0
903106,305.69,793,737,0
903116,307.67,793,757,0
903127,309.48,793,739,0
903137,310.58,793,756,0
903147,311.95,793,744,0
903157,312.48,793,754,0
903168,313.32,793,747,0
903177,313.44,793,756,0
903187,314.25,793,744,0
903197,315.42,793,754,0
903207,320.56,793,747,0
903217,330.17,793,756,0
903227,349.62,793,743,0
903237,381.15,793,755,0
903257,422.42,773,753,0
903260,469.39,773,753,0
903269,520.19,773,749,0
903279,570.36,773,753,0
903289,617.91,773,751,0
903299,657.75,773,754,0
903309,686.07,773,749,0
903319,705.85,773,753,0
903329,719.74,773,751,0
903340,729.42,773,752,0
903350,736.28,773,752,0
903360,741.04,773,752,0
903370,744.45,773,753,0
903380,746.76,773,751,0
903390,748.46,773,752,0
903400,749.61,773,752,0
903410,750.45,773,753,0
903420,751.00,773,751,0
903430,751.43,773,752,0
903440,751.69,773,752,0
903450,751.95,773,753,0
903460,752.05,773,751,0
903470,752.12,773,752,0
903480,750.89,773,752,0
903490,745.52,773,753,0
903500,731.14,773,751,0
903511,707.99,773,753,0
903521,674.35,773,750,0
903531,632.72,773,753,0
903541,582.40,773,750,0
903552,527.85,773,753,0
903561,471.84,773,750,0
903571,422.43,773,753,0
903581,378.93,773,750,0
903591,345.65,773,753,0
903601,319.31,773,751,0
903611,302.76,773,753,0
903621,291.22,773,750,0
903631,286.87,773,753,0
903641,284.72,773,751,0
903651,286.82,773,753,0
903661,288.42,773,751,0
903671,291.85,773,753,0
903681,293.01,773,751,0
903691,295.19,773,754,0
903701,294.36,773,751,0
903711,293.95,773,753,0
903721,290.84,773,750,0
903731,288.92,773,754,0
903741,285.08,773,751,0
903751,282.92,773,753,0
903761,279.21,773,750,0
903771,277.78,773,754,0
903781,275.27,773,751,0
903791,275.32,773,753,0
903801,274.37,773,750,0
903811,276.40,773,754,0
903821,277.44,773,751,0
903831,280.65,773,753,0
903841,282.60,773,750,0
903852,286.53,773,754,0
903862,288.73,773,750,0
903872,292.58,773,753,0
903882,294.12,773,749,0
903892,296.96,773,754,0
903902,298.00,773,750,0
903912,300.27,773,753,0
903922,300.92,773,749,0
903932,302.74,773,754,0
903942,302.82,773,750,0
903952,303.99,773,754,0
903962,303.43,773,749,0
903972,303.95,773,754,0
903982,303.06,773,750,0
903992,303.22,773,753,0
904002,302.12,773,749,0
904012,303.11,773,754,0
904023,304.92,773,749,0
904033,312.45,773,754,0
904043,326.41,773,749,0
904062,352.99,806,748,0
904066,390.36,806,738,0
904075,436.33,806,758,0
904085,486.41,806,738,0
904095,539.05,806,758,0
904105,589.60,806,737,0
904115,635.19,806,758,0
904125,670.06,806,738,0
904135,694.52,806,758,0
904145,711.59,806,737,0
904155,723.58,806,758,0
904165,731.94,806,737,0
904175,737.83,806,758,0
904185,741.91,806,738,0
904195,744.81,806,759,0
904205,746.79,806,737,0
904215,748.23,806,758,0
904225,749.19,806,738,0
904236,749.90,806,758,0
904246,750.40,806,738,0
904256,750.80,806,757,0
904266,751.11,806,744,0
904276,751.38,806,755,0
904286,751.57,806,738,0
904296,751.74,806,757,0
904306,749.12,806,744,0
904316,739.01,806,755,0
904326,720.24,806,737,0
904336,691.54,806,757,0
904346,653.88,806,743,0
904356,607.37,806,755,0
904366,553.94,806,737,0
904376,497.52,806,757,0
904386,444.73,806,742,0
904396,397.46,806,755,0
904407,359.13,806,746,0
904417,328.62,806,755,0
904427,307.78,806,747,0
904437,293.53,806,755,0
904448,286.47,806,747,0
904457,283.24,806,754,0
904467,284.24,806,747,0
904477,285.54,806,755,0
904487,288.81,806,747,0
904497,290.32,806,754,0
904507,292.54,806,747,0
904517,291.99,806,755,0
904527,291.74,806,747,0
904537,289.20,806,754,0
904547,287.60,806,747,0
904557,284.08,806,755,0
904567,282.21,806,747,0
904577,279.19,806,754,0
904587,278.28,806,747,0
904597,276.52,806,755,0
904607,277.14,806,746,0
904617,276.97,806,754,0
904627,279.08,806,747,0
904637,280.17,806,755,0
904647,283.37,806,747,0
904657,285.49,806,754,0
904667,289.24,806,747,0
904677,291.40,806,755,0
904687,295.22,806,746,0
904697,297.26,806,754,0
904707,300.52,806,747,0
904717,301.87,806,755,0
904727,304.61,806,747,0
904737,305.41,806,754,0
904748,307.77,806,748,0
904758,307.84,806,753,0
904768,309.30,806,750,0
904778,308.61,806,752,0
904788,309.24,806,751,0
904798,307.58,806,753,0
904808,307.54,806,750,0
904818,305.06,806,752,0
904828,304.36,806,751,0
904838,301.98,806,753,0
904848,301.73,806,750,0
904858,300.14,806,752,0
904868,302.03,806,751,0
904878,305.15,806,754,0
904888,315.90,806,750,0
904898,334.10,806,753,0
904918,366.73,855,751,0
904921,408.17,855,751,0
904930,457.06,855,753,0
904940,508.43,855,750,0
904950,561.14,855,753,0
904961,609.83,855,750,0
904971,652.05,855,754,0
904981,681.86,855,750,0
904991,702.78,855,754,0
905001,717.37,855,749,0
905011,727.63,855,754,0
905021,734.81,855,749,0
905031,739.88,855,754,0
905041,743.43,855,749,0
905051,745.96,855,753,0
905061,747.69,855,750,0
905071,748.98,855,754,0
905081,749.84,855,750,0
905091,750.49,855,754,0
905101,750.90,855,750,0
905111,751.19,855,754,0
905121,751.39,855,750,0
905132,749.21,855,754,0
905142,739.08,855,749,0
905152,720.11,855,754,0
905162,690.34,855,749,0
905172,651.58,855,754,0
905182,603.49,855,749,0
905192,548.66,855,754,0
905202,489.83,855,749,0
905212,435.28,855,754,0
905222,386.47,855,749,0
905232,347.89,855,754,0
905242,317.66,855,749,0
905252,297.88,855,754,0
905262,285.19,855,749,0
905272,280.59,855,754,0
905282,280.07,855,749,0
905292,284.25,855,754,0
905303,289.02,855,748,0
905313,295.18,855,756,0
905323,299.76,855,742,0
905333,303.90,855,760,0
905344,305.30,855,734,0
905353,305.94,855,756,0
905363,303.60,855,742,0
905373,300.68,855,760,0
905383,295.72,855,734,0
905393,290.92,855,756,0
905403,285.33,855,743,0
905413,280.90,855,760,0
905423,276.30,855,734,0
905433,273.55,855,756,0
905443,271.12,855,744,0
905453,270.48,855,760,0
905463,270.12,855,735,0
905473,271.33,855,755,0
905483,272.30,855,744,0
905493,274.48,855,760,0
905503,276.27,855,735,0
905513,278.89,855,760,0
905523,280.98,855,745,0
905533,283.90,855,760,0
905543,286.07,855,735,0
905553,288.88,855,760,0
905563,290.76,855,745,0
905573,293.10,855,760,0
905583,294.61,855,735,0
905593,296.40,855,760,0
905603,297.14,855,746,0
905613,298.21,855,760,0
905623,298.36,855,736,0
905633,298.77,855,760,0
905644,298.24,855,735,0
905654,297.91,855,758,0
905664,297.04,855,738,0
905674,296.34,855,758,0
905684,295.38,855,737,0
905694,294.75,855,758,0
905704,293.88,855,738,0
905714,293.32,855,759,0
905724,293.09,855,737,0
905734,294.05,855,758,0
905744,296.86,855,738,0
905754,303.89,855,758,0
905764,317.85,855,737,0
905774,342.03,855,758,0
905793,378.66,876,756,0
905796,423.63,876,755,0
905805,473.84,876,745,0
905815,526.56,876,759,0
905825,577.99,876,739,0
905835,624.62,876,757,0
905845,662.67,876,745,0
905856,689.38,876,755,0
905865,708.12,876,739,0
905875,721.24,876,757,0
905885,730.43,876,744,0
905895,736.90,876,755,0
905905,741.43,876,738,0
905915,744.60,876,757,0
905925,746.82,876,744,0
905935,748.37,876,755,0
905945,749.46,876,738,0
905955,750.18,876,757,0
905965,750.68,876,744,0
905975,749.06,876,755,0
905985,742.02,876,738,0
905995,726.63,876,757,0
906005,702.14,876,743,0
906015,667.60,876,755,0
906025,624.82,876,747,0
906035,574.04,876,757,0
906045,519.30,876,742,0
906055,464.83,876,755,0
906065,416.28,876,746,0
906075,374.79,876,757,0
906085,343.40,876,742,0
906095,320.52,876,755,0
906105,307.47,876,746,0
906115,301.50,876,757,0
906125,302.51,876,741,0
906135,307.07,876,756,0
906145,315.36,876,746,0
906156,323.87,876,754,0
906166,333.12,876,747,0
906176,339.60,876,755,0
906186,345.08,876,747,0
906196,346.68,876,753,0
906206,346.56,876,747,0
906216,342.58,876,755,0
906226,337.78,876,747,0
906236,329.87,876,753,0
906246,322.50,876,747,0
906256,313.22,876,755,0
906266,306.08,876,747,0
906276,297.96,876,754,0
906286,292.48,876,747,0
906296,286.55,876,755,0
906306,283.73,876,747,0
906316,280.60,876,754,0
906327,280.50,876,748,0
906337,279.67,876,753,0
906347,281.82,876,750,0
906357,282.99,876,752,0
906368,286.72,876,752,0
906377,289.12,876,753,0
906387,293.71,876,750,0
906397,296.58,876,752,0
906407,301.34,876,751,0
906417,304.11,876,753,0
906427,308.58,876,750,0
906437,310.85,876,752,0
906447,314.53,876,751,0
906457,315.87,876,753,0
906467,318.65,876,750,0
906477,319.06,876,752,0
906487,320.84,876,751,0
906497,320.33,876,753,0
906507,321.22,876,750,0
906517,319.61,876,752,0
906527,319.38,876,751,0
906537,316.70,876,752,0
906547,315.93,876,750,0
906557,313.29,876,752,0
906567,313.38,876,751,0
906577,313.78,876,752,0
906587,320.70,876,750,0
906597,332.88,876,752,0
906607,357.30,876,751,0
906627,392.57,833,751,0
906630,437.05,833,755,0
906639,485.59,833,750,0
906649,537.10,833,753,0
906659,586.27,833,750,0
906669,631.70,833,754,0
906679,667.66,833,750,0
906689,692.88,833,753,0
906699,710.49,833,750,0
906710,722.86,833,754,0
906719,731.47,833,750,0
906729,737.54,833,753,0
906739,741.71,833,750,0
906749,744.67,833,754,0
906759,746.70,833,750,0
906769,748.16,833,754,0
906779,749.14,833,750,0
906789,747.68,833,754,0
906799,738.65,833,750,0
906809,721.48,833,753,0
906819,693.40,833,750,0
906829,656.29,833,754,0
906839,609.36,833,750,0
906849,555.68,833,754,0
906859,497.15,833,750,0
906869,442.33,833,754,0
906880,392.05,833,750,0
906889,352.39,833,753,0
906899,321.24,833,750,0
906909,302.10,833,754,0
906919,291.18,833,750,0
906929,290.57,833,753,0
906939,295.24,833,750,0
906949,306.66,833,753,0
906959,319.23,833,750,0
906969,334.55,833,753,0
906979,347.41,833,750,0
906989,359.76,833,754,0
906999,367.29,833,750,0
907009,373.07,833,753,0
907019,373.27,833,750,0
907029,371.51,833,754,0
907039,364.85,833,750,0
907049,357.14,833,753,0
907059,345.82,833,750,0
907069,335.16,833,754,0
907079,322.43,833,750,0
907089,311.59,833,753,0
907099,300.05,833,750,0
907109,291.47,833,753,0
907119,282.97,833,750,0
907129,277.84,833,753,0
907139,272.91,833,750,0
907149,271.44,833,753,0
907159,270.11,833,750,0
907169,271.79,833,753,0
907180,273.05,833,749,0
907190,276.94,833,753,0
907200,280.04,833,749,0
907210,285.04,833,753,0
907220,288.72,833,749,0
907230,294.07,833,754,0
907240,297.74,833,749,0
907250,302.40,833,753,0
907260,305.24,833,749,0
907270,309.20,833,753,0
907280,311.49,833,749,0
907290,314.52,833,754,0
907300,315.60,833,749,0
907310,317.65,833,753,0
907320,318.10,833,749,0
907330,319.18,833,754,0
907340,318.40,833,749,0
907351,318.37,833,754,0
907361,317.48,833,749,0
907371,319.10,833,753,0
907381,323.01,833,746,0
907392,334.06,833,759,0
907401,353.42,833,749,0
907411,386.25,833,754,0
907430,427.62,804,756,0
907433,475.35,804,759,0
907442,525.47,804,736,0
907452,575.69,804,760,0
907462,621.64,804,734,0
907472,660.53,804,758,0
907482,687.76,804,737,0
907492,706.82,804,760,0
907502,720.16,804,734,0
907512,729.54,804,758,0
907522,736.11,804,737,0
907532,740.66,804,760,0
907542,743.80,804,734,0
907552,746.05,804,758,0
907563,747.62,804,738,0
907572,748.76,804,760,0
907582,749.52,804,734,0
907592,750.09,804,758,0
907602,750.49,804,738,0
907612,747.43,804,760,0
907622,736.72,804,734,0
907632,717.00,804,758,0
907642,687.39,804,737,0
907652,649.13,804,760,0
907662,602.29,804,734,0
907672,548.76,804,758,0
907682,492.95,804,737,0
907692,441.19,804,760,0
907702,395.75,804,734,0
907712,359.48,804,759,0
907722,332.04,804,737,0
907732,314.28,804,758,0
907742,304.55,804,734,0
907752,302.42,804,759,0
907762,305.25,804,737,0
907772,312.25,804,758,0
907782,320.70,804,734,0
907792,329.75,804,759,0
907802,337.49,804,736,0
907812,343.60,804,758,0
907822,346.68,804,734,0
907832,347.42,804,759,0
907842,345.02,804,736,0
907852,340.56,804,758,0
907863,333.70,804,737,0
907873,325.56,804,759,0
907883,316.65,804,737,0
907893,307.54,804,757,0
907904,298.94,804,742,0
907913,291.50,804,759,0
907923,285.35,804,737,0
907933,280.49,804,757,0
907943,277.73,804,741,0
907953,276.14,804,759,0
907963,276.48,804,737,0
907973,277.41,804,757,0
907983,279.86,804,741,0
907993,282.73,804,759,0
908003,286.54,804,737,0
908013,290.11,804,757,0
908023,294.40,804,740,0
908033,298.35,804,759,0
908043,302.53,804,737,0
908053,305.89,804,758,0
908063,309.35,804,740,0
908073,312.07,804,756,0
908083,314.45,804,737,0
908093,315.77,804,758,0
908103,317.04,804,740,0
908113,317.29,804,756,0
908123,317.20,804,737,0
908133,316.20,804,758,0
908143,315.54,804,740,0
908153,314.48,804,756,0
908163,314.25,804,737,0
908173,315.20,804,758,0
908183,320.63,804,740,0
908193,332.18,804,756,0
908204,354.63,804,746,0
908214,388.94,804,755,0
908233,432.07,803,753,0
908236,480.48,803,752,0
908246,531.68,803,750,0
908255,581.83,803,754,0
908265,628.04,803,748,0
908275,665.10,803,753,0
908285,691.13,803,750,0
908295,709.30,803,754,0
908305,722.15,803,748,0
908315,731.07,803,753,0
908325,737.39,803,750,0
908335,741.73,803,755,0
908345,744.85,803,748,0
908355,746.95,803,753,0
908365,748.51,803,750,0
908375,749.51,803,755,0
908385,750.30,803,748,0
908395,750.77,803,753,0
908405,751.18,803,750,0
908416,751.38,803,752,0
908425,751.61,803,748,0
908435,751.69,803,753,0
908445,750.92,803,750,0
908455,743.10,803,752,0
908465,727.94,803,748,0
908475,702.33,803,753,0
908485,668.16,803,750,0
908495,624.31,803,752,0
908505,574.08,803,748,0
908515,517.91,803,753,0
908525,465.27,803,750,0
908535,416.03,803,752,0
908545,376.33,803,747,0
908555,343.75,803,753,0
908565,322.10,803,750,0
908575,306.55,803,753,0
908585,299.74,803,751,0
908595,296.31,803,753,0
908605,298.79,803,749,0
908615,301.59,803,753,0
908625,306.99,803,751,0
908635,310.03,803,753,0
908645,313.88,803,749,0
908655,314.26,803,753,0
908665,314.82,803,751,0
908675,311.66,803,753,0
908685,309.11,803,749,0
908695,303.89,803,753,0
908705,299.94,803,751,0
908716,294.00,803,751,0
908726,290.10,803,752,0
908736,284.97,803,751,0
908746,282.54,803,753,0
908756,279.25,803,750,0
908766,278.83,803,752,0
908776,277.64,803,751,0
908786,279.46,803,753,0
908796,280.31,803,749,0
908806,283.90,803,752,0
908816,286.16,803,751,0
908826,290.53,803,753,0
908836,292.94,803,750,0
908846,297.46,803,752,0
908856,299.68,803,751,0
908866,303.37,803,753,0
908876,304.55,803,750,0
908887,307.04,803,753,0
908897,307.37,803,750,0
908907,309.10,803,753,0
908917,308.30,803,749,0
908928,308.98,803,753,0
908937,307.66,803,750,0
908947,307.93,803,753,0
908957,306.24,803,749,0
908967,305.95,803,753,0
908977,303.95,803,750,0
908987,304.18,803,753,0
908997,304.17,803,750,0
909007,309.05,803,753,0
909017,317.95,803,750,0
909027,337.76,803,753,0
909046,368.99,813,752,0
909049,410.95,813,755,0
909058,458.49,813,750,0
909068,510.42,813,753,0
909078,561.76,813,750,0
909088,610.78,813,754,0
909099,651.56,813,749,0
909108,681.52,813,754,0
909118,702.49,813,750,0
909128,717.22,813,754,0
909138,727.48,813,749,0
909148,734.71,813,754,0
909158,739.72,813,750,0
909168,743.28,813,754,0
909178,745.77,813,749,0
909188,747.55,813,754,0
909198,748.76,813,750,0
909208,749.64,813,754,0
909218,750.27,813,749,0
909228,750.74,813,754,0
909238,751.03,813,750,0
909248,751.24,813,753,0
909258,751.34,813,749,0
909268,751.45,813,754,0
909278,748.96,813,750,0
909288,741.34,813,754,0
909298,724.18,813,749,0
909308,697.98,813,754,0
909318,661.73,813,749,0
909328,617.71,813,753,0
909338,565.60,813,749,0
909348,510.78,813,754,0
909358,455.90,813,750,0
909368,408.32,813,753,0
909378,367.46,813,749,0
909388,336.55,813,754,0
909399,312.73,813,749,0
909409,297.94,813,753,0
909419,288.66,813,749,0
909429,285.63,813,754,0
909440,284.89,813,746,0
909449,287.32,813,753,0
909459,289.45,813,749,0
909469,292.75,813,754,0
909479,294.24,813,747,0
909489,295.62,813,753,0
909499,294.75,813,749,0
909509,293.80,813,754,0
909519,290.94,813,747,0
909529,288.56,813,754,0
909539,284.75,813,749,0
909549,281.95,813,754,0
909559,278.41,813,747,0
909569,276.53,813,754,0
909579,274.40,813,749,0
909589,274.02,813,754,0
909599,273.63,813,748,0
909609,274.94,813,758,0
909619,276.20,813,749,0
909629,278.97,813,754,0
909639,281.16,813,748,0
909649,284.42,813,758,0
909659,286.82,813,749,0
909669,290.04,813,754,0
909679,292.30,813,748,0
909689,295.04,813,758,0
909699,296.44,813,749,0
909709,298.54,813,754,0
909719,299.53,813,749,0
909729,301.05,813,757,0
909740,301.25,813,739,0
909750,301.90,813,760,0
909760,301.59,813,734,0
909770,301.71,813,758,0
909780,300.90,813,737,0
909790,300.63,813,760,0
909800,299.41,813,734,0
909810,298.52,813,758,0
909820,297.25,813,737,0
909830,297.00,813,760,0
909840,297.77,813,734,0
909850,302.08,813,758,0
909860,311.70,813,737,0
909879,330.91,833,734,0
909882,363.72,833,746,0
909891,406.40,833,759,0
909901,455.27,833,738,0
909911,507.90,833,758,0
909921,560.60,833,738,0
909931,610.09,833,759,0
909941,652.24,833,738,0
909952,682.04,833,757,0
909961,702.90,833,738,0
909971,717.50,833,759,0
909981,727.72,833,738,0
909991,734.92,833,757,0
910001,739.96,833,738,0
910011,743.48,833,759,0
910021,745.95,833,737,0
910031,747.72,833,757,0
910041,748.92,833,738,0
910051,749.76,833,759,0
910061,750.35,833,737,0
910071,750.80,833,758,0
910081,751.07,833,738,0
910091,751.27,833,759,0
910101,746.60,833,737,0
910111,733.78,833,758,0
910121,711.47,833,742,0
910131,679.32,833,759,0
910141,637.69,833,737,0
910151,587.60,833,758,0
910161,530.76,833,741,0
910171,473.15,833,759,0
910181,419.96,833,737,0
910191,373.64,833,758,0
910201,336.64,833,741,0
910211,308.97,833,759,0
910221,290.68,833,737,0
910231,280.19,833,758,0
910241,277.18,833,741,0
910252,278.80,833,756,0
910262,284.73,833,745,0
910272,291.32,833,755,0
910282,299.24,833,747,0
910292,305.64,833,755,0
910302,311.45,833,745,0
910312,314.19,833,755,0
910322,315.89,833,747,0
910332,314.12,833,755,0
910342,311.73,833,745,0
910352,306.79,833,755,0
910362,302.36,833,747,0
910372,295.99,833,755,0
910382,290.72,833,745,0
910392,284.68,833,755,0
910402,281.13,833,747,0
910412,277.32,833,755,0
910423,275.94,833,747,0
910433,274.16,833,754,0
910443,275.27,833,749,0
910453,275.96,833,753,0
910464,279.01,833,750,0
910473,280.98,833,754,0
910483,285.23,833,749,0
910493,287.90,833,753,0
910503,292.52,833,750,0
910513,295.19,833,754,0
910523,299.59,833,749,0
910533,301.86,833,753,0
910543,305.59,833,750,0
910553,307.04,833,754,0
910563,309.94,833,748,0
910573,310.52,833,753,0
910583,312.42,833,750,0
910593,312.12,833,754,0
910603,313.28,833,748,0
910613,312.26,833,753,0
910623,312.65,833,750,0
910633,310.83,833,752,0
910643,310.66,833,748,0
910653,308.45,833,753,0
910663,308.14,833,750,0
910673,306.64,833,752,0
910683,308.68,833,748,0
910693,312.50,833,753,0
910703,324.52,833,750,0
910713,344.25,833,752,0
910732,378.12,853,753,0
910735,420.17,853,750,0
910744,469.06,853,752,0
910754,519.91,853,751,0
910764,571.50,853,751,0
910774,618.28,853,752,0
910784,658.18,853,753,0
910794,686.20,853,751,0
910804,705.85,853,753,0
910814,719.57,853,752,0
910824,729.21,853,752,0
910834,735.88,853,751,0
910844,740.59,853,753,0
910854,743.84,853,752,0
910864,746.20,853,752,0
910874,747.81,853,751,0
910884,748.98,853,753,0
910894,749.76,853,752,0
910904,749.40,853,752,0
910914,742.17,853,751,0
910924,727.12,853,753,0
910935,701.15,853,750,0
910945,666.31,853,753,0
910955,621.60,853,750,0
910965,570.03,853,753,0
910976,512.17,853,750,0
910985,457.35,853,753,0
910995,406.50,853,749,0
911005,365.94,853,753,0
911015,333.38,853,750,0
911025,312.48,853,754,0
911035,299.31,853,749,0
911045,296.30,853,753,0
911055,298.27,853,750,0
911065,306.85,853,753,0
911075,316.62,853,749,0
911085,329.33,853,753,0
911095,339.95,853,750,0
911105,350.68,853,754,0
911115,357.03,853,749,0
911125,361.91,853,753,0
911135,361.68,853,750,0
911145,360.02,853,753,0
911155,353.71,853,749,0
911165,346.86,853,753,0
911175,336.57,853,750,0
911185,327.10,853,753,0
911195,315.88,853,750,0
911205,306.83,853,753,0
911215,297.07,853,750,0
911225,290.28,853,753,0
911235,283.64,853,750,0
911245,280.57,853,753,0
911255,277.44,853,750,0
911265,277.40,853,753,0
911276,277.11,853,749,0
911286,279.56,853,753,0
911296,281.45,853,750,0
911306,285.30,853,754,0
911316,288.00,853,749,0
911326,292.93,853,753,0
911336,296.42,853,749,0
911346,301.52,853,754,0
911356,304.92,853,749,0
911366,309.49,853,753,0
911376,312.30,853,750,0
911386,315.90,853,754,0
911396,317.34,853,749,0
911406,319.64,853,753,0
911416,319.66,853,750,0
911426,320.41,853,754,0
911436,319.30,853,749,0
911447,319.08,853,754,0
911457,317.94,853,749,0
911467,319.46,853,754,0
911477,323.52,853,749,0
911488,335.07,853,757,0
911497,354.67,853,749,0
911507,387.69,853,754,0
911517,429.09,853,749,0
911537,476.89,804,744,0
911540,526.98,804,740,0
911549,576.96,804,758,0
911559,622.53,804,738,0
911569,661.20,804,759,0
911579,688.35,804,737,0
911589,707.40,804,758,0
911599,720.70,804,738,0
911609,730.00,804,759,0
911619,736.47,804,737,0
911629,741.05,804,758,0
911639,744.16,804,738,0
911649,746.34,804,759,0
911660,747.87,804,738,0
911670,748.94,804,757,0
911680,746.60,804,743,0
911690,736.82,804,755,0
911700,718.32,804,747,0
911710,689.94,804,757,0
911720,652.28,804,744,0
911730,605.27,804,755,0
911740,551.23,804,747,0
911750,493.95,804,757,0
911760,439.79,804,743,0
911770,390.83,804,755,0
911780,351.24,804,747,0
911790,320.52,804,757,0
911800,300.82,804,743,0
911810,289.78,804,755,0
911820,288.09,804,746,0
911831,292.43,804,755,0
911841,303.40,804,747,0
911851,316.01,804,755,0
911861,331.39,804,748,0
911872,344.95,804,754,0
911881,357.86,804,747,0
911891,366.52,804,755,0
911901,373.13,804,747,0
911911,374.17,804,754,0
911921,373.26,804,747,0
911931,367.35,804,755,0
911941,360.65,804,747,0
911951,350.30,804,754,0
911961,340.39,804,747,0
911971,328.40,804,755,0
911981,318.51,804,747,0
911991,307.60,804,754,0
912001,299.49,804,747,0
912011,291.20,804,754,0
912021,286.47,804,747,0
912031,281.79,804,754,0
912041,280.61,804,749,0
912051,279.27,804,755,0
912061,281.16,804,747,0
912071,282.44,804,754,0
912081,286.42,804,749,0
912091,289.34,804,755,0
912101,294.42,804,747,0
912111,297.90,804,754,0
912121,303.11,804,749,0
912131,306.42,804,755,0
912141,311.22,804,747,0
912151,313.69,804,754,0
912161,317.34,804,749,0
912172,318.52,804,752,0
912182,320.85,804,751,0
912192,320.68,804,752,0
912202,321.68,804,752,0
912212,320.53,804,751,0
912222,321.44,804,750,0
912232,321.65,804,752,0
912242,326.77,804,752,0
912252,335.54,804,751,0
912262,354.71,804,751,0
912272,384.11,804,752,0
912282,424.06,804,752,0
912292,469.34,804,751,0
912311,519.04,775,752,0
912314,568.10,775,751,0
912323,614.96,775,754,0
912333,654.10,775,749,0
912343,683.43,775,753,0
912353,703.91,775,751,0
912363,718.30,775,753,0
912373,728.28,775,750,0
912384,735.27,775,753,0
912393,740.11,775,751,0
912403,743.55,775,753,0
912413,745.91,775,750,0
912423,747.61,775,754,0
912433,748.76,775,751,0
912443,749.60,775,753,0
912453,750.15,775,750,0
912463,750.58,775,754,0
912473,747.83,775,751,0
912483,740.00,775,754,0
912493,722.55,775,750,0
912503,696.33,775,753,0
912513,659.93,775,750,0
912523,615.81,775,753,0
912533,563.28,775,750,0
912543,508.55,775,753,0
912553,453.53,775,750,0
912563,406.14,775,753,0
912573,365.26,775,750,0
912583,335.27,775,753,0
912593,313.03,775,750,0
912603,301.53,775,753,0
912613,296.15,775,750,0
912623,298.76,775,753,0
912633,303.97,775,750,0
912643,313.75,775,753,0
912653,322.87,775,750,0
912663,333.15,775,753,0
912673,339.92,775,750,0
912684,346.03,775,753,0
912694,347.56,775,750,0
912704,347.82,775,753,0
912714,343.59,775,750,0
912724,338.53,775,754,0
912734,330.06,775,750,0
912744,322.15,775,753,0
912754,312.12,775,749,0
912764,303.73,775,753,0
912774,294.51,775,750,0
912784,287.97,775,753,0
912794,281.38,775,750,0
912804,277.79,775,754,0
912814,274.38,775,750,0
912824,274.10,775,753,0
912834,273.77,775,750,0
912844,276.11,775,754,0
912855,277.88,775,749,0
912865,281.64,775,753,0
912875,284.66,775,749,0
912885,289.14,775,754,0
912896,292.35,775,749,0
912905,296.92,775,754,0
912915,299.94,775,749,0
912925,303.86,775,754,0
912935,306.26,775,749,0
912945,309.44,775,753,0
912955,311.02,775,749,0
912965,313.11,775,754,0
912975,313.51,775,749,0
912985,314.56,775,753,0
912995,314.30,775,749,0
913005,315.11,775,754,0
913015,315.72,775,749,0
913025,320.05,775,753,0
913035,328.35,775,749,0
913045,346.33,775,754,0
913055,375.54,775,749,0
913065,415.15,775,754,0
913084,460.92,773,753,0
913087,510.92,773,759,0
913096,561.13,773,736,0
913106,609.30,773,759,0
913116,650.14,773,745,0
913126,680.53,773,760,0
913136,701.80,773,736,0
913146,716.69,773,759,0
913156,727.11,773,746,0
913166,734.45,773,759,0
913176,739.54,773,736,0
913186,743.07,773,760,0
913196,745.49,773,746,0
913206,747.23,773,759,0
913216,748.45,773,736,0
913226,749.30,773,760,0
913236,749.89,773,735,0
913246,750.35,773,759,0
913256,750.72,773,736,0
913266,750.98,773,760,0
913276,751.15,773,735,0
913286,747.94,773,759,0
913296,736.94,773,736,0
913306,716.82,773,759,0
913316,686.40,773,734,0
913326,647.19,773,759,0
913336,599.18,773,736,0
913346,544.31,773,760,0
913356,487.13,773,734,0
913367,434.08,773,758,0
913377,387.64,773,738,0
913387,350.42,773,758,0
913397,322.05,773,737,0
913408,303.26,773,758,0
913417,292.26,773,738,0
913427,288.19,773,758,0
913437,288.82,773,737,0
913447,292.60,773,758,0
913457,297.82,773,738,0
913467,303.15,773,758,0
913477,307.65,773,737,0
913487,310.67,773,758,0
913497,311.62,773,737,0
913507,310.79,773,758,0
913517,308.37,773,737,0
913527,304.62,773,758,0
913537,299.63,773,737,0
913547,294.08,773,758,0
913557,288.32,773,737,0
913567,282.56,773,758,0
913577,277.68,773,739,0
913587,274.39,773,758,0
913597,272.52,773,737,0
913607,271.85,773,758,0
913617,272.45,773,739,0
913627,273.99,773,758,0
913637,276.26,773,737,0
913647,278.11,773,757,0
913657,280.69,773,739,0
913667,283.57,773,758,0
913677,286.66,773,737,0
913687,288.82,773,758,0
913697,289.81,773,737,0
913708,291.41,773,757,0
913718,295.75,773,744,0
913728,299.29,773,754,0
913738,303.02,773,747,0
913748,306.10,773,755,0
913758,309.63,773,743,0
913768,311.67,773,753,0
913778,313.14,773,746,0
913788,313.31,773,755,0
913798,314.59,773,744,0
913808,315.53,773,755,0
913818,319.31,773,747,0
913828,325.90,773,755,0
913838,341.40,773,744,0
913848,366.05,773,755,0
913867,401.44,783,754,0
913870,443.31,783,753,0
913879,490.40,783,747,0
913889,538.92,783,755,0
913899,587.42,783,748,0
913909,631.39,783,754,0
913920,667.66,783,750,0
913929,692.96,783,755,0
913939,710.80,783,748,0
913949,723.20,783,754,0
913959,731.97,783,750,0
913969,737.98,783,755,0
913979,742.31,783,748,0
913989,745.26,783,754,0
913999,747.41,783,750,0
914009,748.79,783,755,0
914019,749.84,783,748,0
914029,750.49,783,754,0
914039,751.03,783,750,0
914049,751.28,783,755,0
914059,751.58,783,748,0
914069,751.70,783,754,0
914079,751.19,783,750,0
914089,743.55,783,753,0
914099,728.64,783,748,0
914109,703.08,783,754,0
914119,668.60,783,750,0
914129,623.93,783,753,0
914139,572.48,783,748,0
914149,514.35,783,754,0
914159,459.39,783,750,0
914169,407.50,783,752,0
914179,365.35,783,748,0
914189,330.79,783,754,0
914199,307.67,783,749,0
914209,291.65,783,753,0
914220,285.16,783,751,0
914230,282.92,783,752,0
914240,287.10,783,752,0
914250,292.04,783,751,0
914260,299.83,783,753,0
914270,305.67,783,752,0
914280,311.94,783,752,0
914290,314.49,783,751,0
914300,316.78,783,753,0
914310,315.09,783,752,0
914320,313.69,783,752,0
914330,308.90,783,751,0
914340,304.69,783,753,0
914350,298.01,783,752,0
914360,293.25,783,752,0
914370,287.09,783,751,0
914380,283.55,783,753,0
914391,278.93,783,750,0
914401,277.36,783,753,0
914411,275.24,783,750,0
914421,276.11,783,753,0
914432,276.16,783,750,0
914441,278.90,783,753,0
914451,280.47,783,749,0
914461,284.32,783,753,0
914471,286.66,783,750,0
914481,290.92,783,753,0
914491,293.43,783,749,0
914501,297.63,783,753,0
914511,299.80,783,750,0
914521,303.42,783,753,0
914531,304.79,783,749,0
914541,307.38,783,753,0
914551,307.74,783,750,0
914561,309.45,783,753,0
914571,308.76,783,749,0
914581,309.26,783,753,0
914591,307.55,783,750,0
914601,307.43,783,753,0
914611,305.93,783,749,0
914621,307.24,783,753,0
914631,309.52,783,750,0
914641,318.79,783,753,0
914651,334.67,783,749,0
914661,364.13,783,753,0
914680,403.30,813,752,0
914683,450.31,813,754,0
914692,500.53,813,749,0
914702,552.57,813,754,0
914712,601.26,813,750,0
914722,644.55,813,754,0
914732,676.57,813,750,0
914742,699.03,813,754,0
914752,714.75,813,749,0
914762,725.80,813,754,0
914772,733.49,813,749,0
914782,738.91,813,753,0
914792,742.67,813,750,0
914802,745.34,813,754,0
914812,747.17,813,749,0
914822,748.49,813,754,0
914832,749.37,813,750,0
914842,750.03,813,754,0
914852,750.45,813,749,0
914862,750.79,813,754,0
914872,747.34,813,750,0
914882,737.38,813,753,0
914892,717.12,813,748,0
914903,686.87,813,753,0
914913,644.74,813,748,0
914923,595.45,813,753,0
914933,534.15,813,741,0
914944,472.57,813,757,0
914953,414.71,813,749,0
914963,366.54,813,753,0
914973,327.89,813,748,0
914983,302.34,813,757,0
914993,284.88,813,748,0
915003,281.70,813,753,0
915013,284.23,813,749,0
915023,292.01,813,757,0
915033,301.22,813,749,0
915043,312.21,813,753,0
915053,321.40,813,748,0
915063,328.95,813,756,0
915073,333.73,813,749,0
915083,337.28,813,754,0
915093,337.54,813,749,0
915103,336.35,813,758,0
915113,332.34,813,739,0
915123,328.08,813,754,0
915133,322.53,813,749,0
915143,316.54,813,758,0
915153,308.28,813,740,0
915163,300.22,813,754,0
915173,291.33,813,750,0
915183,283.73,813,757,0
915193,276.14,813,741,0
915203,271.00,813,754,0
915213,266.41,813,750,0
915223,264.27,813,757,0
915233,262.82,813,741,0
915244,263.65,813,761,0
915254,265.00,813,735,0
915264,268.00,813,759,0
915274,271.04,813,737,0
915284,274.93,813,758,0
915294,278.34,813,735,0
915304,282.26,813,759,0
915314,285.57,813,737,0
915324,289.00,813,758,0
915334,291.66,813,735,0
915344,294.33,813,759,0
915354,296.59,813,737,0
915364,298.90,813,759,0
915374,300.51,813,735,0
915384,302.16,813,759,0
915394,303.23,813,738,0
915404,304.32,813,759,0
915415,304.69,813,739,0
915425,305.00,813,759,0
915435,305.77,813,739,0
915445,307.90,813,758,0
915456,313.80,813,745,0
915465,325.69,813,759,0
915475,347.00,813,739,0
915485,381.15,813,758,0
915505,424.27,824,755,0
915508,472.87,824,754,0
915517,524.68,824,749,0
915527,575.43,824,755,0
915537,622.53,824,751,0
915547,661.54,824,756,0
915557,689.02,824,749,0
915567,708.22,824,755,0
915577,721.74,824,751,0
915587,731.07,824,756,0
915597,737.69,824,749,0
915607,742.24,824,755,0
915617,745.51,824,751,0
915628,747.72,824,753,0
915638,749.34,824,752,0
915648,750.40,824,753,0
915658,751.22,824,753,0
915668,747.21,824,751,0
915678,737.42,824,752,0
915688,717.45,824,752,0
915698,688.60,824,753,0
915708,649.08,824,751,0
915718,602.04,824,752,0
915728,546.53,824,753,0
915738,490.70,824,753,0
915748,435.25,824,752,0
915758,388.24,824,752,0
915768,348.06,824,753,0
915778,319.58,824,753,0
915788,298.79,824,751,0
915799,289.17,824,754,0
915809,285.65,824,751,0
915819,290.51,824,754,0
915829,298.07,824,751,0
915840,310.22,824,754,0
915849,321.56,824,751,0
915859,334.33,824,755,0
915869,343.49,824,751,0
915879,351.83,824,754,0
915889,355.31,824,751,0
915899,357.36,824,755,0
915909,354.42,824,751,0
915919,350.48,824,755,0
915929,342.49,824,751,0
915939,334.80,824,755,0
915949,324.40,824,751,0
915959,315.50,824,755,0
915969,305.06,824,751,0
915979,297.50,824,755,0
915989,289.34,824,751,0
915999,284.35,824,755,0
916009,279.06,824,751,0
916019,277.24,824,755,0
916029,275.11,824,751,0
916039,276.15,824,754,0
916049,276.32,824,751,0
916059,279.31,824,755,0
916069,281.19,824,751,0
916079,285.37,824,755,0
916089,288.05,824,751,0
916099,292.70,824,755,0
916109,295.49,824,751,0
916119,299.93,824,754,0
916129,302.22,824,751,0
916140,305.88,824,755,0
916150,307.38,824,751,0
916160,309.83,824,755,0
916170,309.93,824,750,0
916180,310.89,824,755,0
916190,309.68,824,751,0
916200,309.65,824,754,0
916210,308.00,824,751,0
916220,308.38,824,755,0
916230,309.13,824,751,0
916240,315.00,824,755,0
916250,325.84,824,750,0
916260,347.58,824,755,0
916270,379.59,824,751,0
916280,421.71,824,754,0
916299,469.11,795,754,0
916302,520.21,795,762,0
916311,570.37,795,751,0
916321,617.49,795,755,0
916331,656.21,795,751,0
916341,685.21,795,755,0
916352,705.46,795,748,0
916361,719.68,795,755,0
916371,729.55,795,750,0
916381,736.45,795,755,0
916391,741.29,795,749,0
916401,744.72,795,755,0
916411,747.07,795,750,0
916421,748.77,795,755,0
916431,748.15,795,749,0
916441,742.53,795,755,0
916451,727.59,795,750,0
916461,703.03,795,755,0
916471,667.66,795,748,0
916481,623.45,795,755,0
916491,570.26,795,750,0
916501,512.45,795,755,0
916511,453.52,795,749,0
916521,400.65,795,760,0
916531,354.81,795,750,0
916541,320.07,795,755,0
916551,294.59,795,749,0
916561,280.40,795,759,0
916571,274.66,795,750,0
916581,277.98,795,755,0
916591,286.69,795,749,0
916601,300.58,795,760,0
916611,315.62,795,750,0
916621,332.06,795,755,0
916631,346.32,795,749,0
916641,359.08,795,759,0
916652,367.88,795,738,0
916662,373.40,795,761,0
916672,374.35,795,736,0
916682,372.06,795,759,0
916692,365.96,795,739,0
916702,358.08,795,761,0
916712,347.43,795,736,0
916722,336.03,795,759,0
916732,323.89,795,739,0
916742,312.82,795,761,0
916752,302.29,795,735,0
916762,293.33,795,759,0
916772,285.56,795,739,0
916782,280.12,795,761,0
916792,275.97,795,735,0
916802,273.84,795,759,0
916812,272.64,795,739,0
916823,273.09,795,760,0
916833,274.52,795,739,0
916843,276.81,795,759,0
916853,279.99,795,740,0
916864,283.64,795,758,0
916873,287.65,795,739,0
916883,291.78,795,760,0
916893,296.30,795,740,0
916903,300.24,795,758,0
916913,304.11,795,739,0
916923,307.04,795,760,0
916933,310.02,795,740,0
916943,311.95,795,758,0
916953,313.55,795,739,0
916963,314.15,795,760,0
916973,315.39,795,740,0
916983,316.99,795,758,0
916993,320.81,795,739,0
917003,328.67,795,760,0
917013,344.58,795,740,0
917023,371.32,795,758,0
917033,408.90,795,746,0
917043,453.28,795,760,0
917062,502.14,763,757,0
917065,552.33,763,757,0
917074,600.79,763,748,0
917084,643.24,763,756,0
917094,676.08,763,748,0
917104,699.03,763,756,0
917114,715.18,763,748,0
917124,726.48,763,756,0
917134,734.44,763,748,0
917144,739.88,763,756,0
917154,743.81,763,748,0
917164,746.53,763,756,0
917174,748.47,763,748,0
917184,749.74,763,756,0
917194,750.72,763,748,0
917204,751.40,763,756,0
917214,750.38,763,748,0
917224,742.34,763,757,0
917234,726.38,763,748,0
917244,699.78,763,756,0
917254,664.57,763,748,0
917264,619.83,763,756,0
917274,568.62,763,748,0
917284,512.08,763,756,0
917294,459.04,763,749,0
917304,410.34,763,756,0
917314,371.80,763,748,0
917324,341.04,763,756,0
917335,321.70,763,749,0
917345,309.53,763,754,0
917355,307.23,763,751,0
917365,309.30,763,754,0
917376,317.78,763,752,0
917385,327.41,763,755,0
917395,339.71,763,751,0
917405,349.48,763,753,0
917415,359.24,763,752,0
917425,364.78,763,755,0
917435,369.05,763,751,0
917445,368.05,763,754,0
917455,365.80,763,752,0
917465,359.09,763,754,0
917475,352.29,763,751,0
917485,342.13,763,754,0
917495,332.71,763,752,0
917505,321.31,763,754,0
917515,312.56,763,751,0
917525,302.79,763,754,0
917535,296.25,763,752,0
917545,289.19,763,753,0
917555,285.92,763,751,0
917565,282.39,763,754,0
917575,282.44,763,753,0
917585,281.75,763,753,0
917595,284.18,763,751,0
917605,285.63,763,754,0
917615,289.85,763,752,0
917625,292.60,763,753,0
917635,297.65,763,751,0
917645,300.80,763,754,0
917655,305.96,763,753,0
917665,308.84,763,752,0
917676,313.30,763,754,0
917686,315.36,763,752,0
917696,318.81,763,754,0
917706,319.81,763,751,0
917716,322.26,763,755,0
917726,322.66,763,752,0
917736,325.89,763,754,0
917746,329.69,763,751,0
917756,340.54,763,754,0
917766,357.57,763,752,0
917776,388.38,763,755,0
917786,427.44,763,751,0
917796,473.55,763,755,0
917815,522.03,753,753,0
917818,571.91,753,757,0
917827,617.75,753,751,0
917837,657.94,753,755,0
917847,686.29,753,751,0
917857,706.17,753,755,0
917867,720.05,753,751,0
917877,729.81,753,755,0
917888,736.59,753,751,0
917897,741.39,753,755,0
917907,744.70,753,751,0
917917,747.10,753,755,0
917927,748.74,753,751,0
917937,749.93,753,755,0
917947,750.73,753,751,0
917957,751.32,753,755,0
917967,751.70,753,751,0
917977,752.00,753,755,0
917987,752.04,753,751,0
917997,748.26,753,755,0
918007,736.10,753,751,0
918017,715.58,753,754,0
918027,684.81,753,751,0
918037,645.74,753,755,0
918047,597.73,753,751,0
918057,543.85,753,755,0
918067,488.10,753,751,0
918077,438.01,753,755,0
918087,393.44,753,751,0
918097,359.11,753,755,0
918107,332.37,753,751,0
918117,316.28,753,755,0
918127,306.59,753,751,0
918137,304.79,753,755,0
918147,306.09,753,751,0
918157,312.11,753,755,0
918167,317.95,753,751,0
918177,325.38,753,755,0
918188,330.11,753,750,0
918198,334.32,753,755,0
918208,334.78,753,750,0
918218,334.20,753,755,0
918228,329.98,753,750,0
918238,325.49,753,755,0
918248,318.27,753,750,0
918258,311.55,753,755,0
918268,303.54,753,750,0
918278,297.04,753,755,0
918288,290.21,753,750,0
918298,285.56,753,755,0
918308,280.94,753,750,0
918318,278.98,753,755,0
918328,277.02,753,750,0
918338,277.48,753,755,0
918348,277.94,753,750,0
918359,280.31,753,755,0
918369,282.36,753,746,0
918379,285.77,753,761,0
918389,288.49,753,736,0
918400,292.46,753,761,0
918409,295.37,753,746,0
918419,299.07,753,761,0
918429,301.71,753,736,0
918439,304.88,753,761,0
918449,306.76,753,746,0
918459,308.89,753,761,0
918469,309.91,753,736,0
918479,311.35,753,761,0
918489,312.36,753,746,0
918499,315.51,753,761,0
918509,321.61,753,737,0
918519,334.97,753,761,0
918529,357.31,753,747,0
918539,392.14,753,761,0
918549,435.00,753,737,0
918568,483.52,753,734,0
918572,534.15,753,749,0
918580,584.12,753,759,0
918590,629.17,753,739,0
918600,666.27,753,760,0
918610,692.25,753,739,0
918620,710.47,753,759,0
918630,723.19,753,740,0
918640,732.05,753,760,0
918650,738.25,753,738,0
918660,742.63,753,759,0
918670,745.66,753,740,0
918680,747.77,753,760,0
918690,749.26,753,739,0
918700,750.34,753,759,0
918710,751.05,753,740,0
918720,751.55,753,760,0
918730,751.90,753,738,0
918740,752.19,753,759,0
918750,752.39,753,740,0
918760,750.04,753,760,0
918770,741.07,753,738,0
918780,722.97,753,759,0
918790,695.08,753,739,0
918800,657.64,753,759,0
918810,611.46,753,738,0
918820,558.09,753,759,0
918830,500.94,753,740,0
918840,445.88,753,759,0
918850,397.19,753,738,0
918860,356.59,753,759,0
918871,325.64,753,742,0
918881,303.51,753,757,0
918891,290.20,753,747,0
918901,283.80,753,756,0
918912,283.99,753,748,0
918921,287.38,753,757,0
918931,293.52,753,747,0
918941,299.15,753,756,0
918951,305.40,753,748,0
918961,309.05,753,757,0
918971,311.91,753,747,0
918981,311.21,753,756,0
918991,309.99,753,749,0
919001,306.22,753,757,0
919011,302.38,753,747,0
919021,296.53,753,756,0
919031,291.65,753,748,0
919041,285.97,753,757,0
919051,281.99,753,747,0
919061,277.41,753,756,0
919071,275.19,753,748,0
919081,272.86,753,756,0
919091,272.86,753,747,0
919101,272.64,753,756,0
919111,274.68,753,748,0
919121,276.23,753,756,0
919131,279.63,753,747,0
919141,282.10,753,756,0
919151,286.66,753,748,0
919161,289.93,753,756,0
919171,294.49,753,747,0
919181,297.39,753,756,0
919191,301.39,753,748,0
919201,303.71,753,756,0
919212,306.89,753,748,0
919222,307.61,753,756,0
919232,309.35,753,750,0
919242,308.86,753,754,0
919252,309.63,753,752,0
919262,308.93,753,756,0
919272,311.01,753,750,0
919282,314.48,753,754,0
919292,325.56,753,752,0
919302,343.65,753,756,0
919312,376.16,753,751,0
919331,417.21,763,750,0
919334,465.49,763,755,0
919343,516.17,763,754,0
919353,567.93,763,753,0
919363,615.23,763,753,0
919373,656.39,763,754,0
919383,685.33,763,754,0
919393,705.67,763,754,0
919403,719.87,763,753,0
919413,729.85,763,754,0
919424,736.75,763,752,0
919433,741.67,763,753,0
919443,745.07,763,752,0
919453,747.53,763,754,0
919463,749.17,763,752,0
919473,750.41,763,753,0
919483,751.19,763,753,0
919493,751.82,763,754,0
919503,752.17,763,752,0
919513,752.46,763,753,0
919523,752.58,763,753,0
919533,749.36,763,754,0
919543,737.13,763,751,0
919553,716.56,763,753,0
919563,684.93,763,752,0
919573,644.88,763,754,0
919583,595.08,763,751,0
919593,539.04,763,755,0
919603,479.67,763,753,0
919613,426.20,763,754,0
919623,377.88,763,752,0
919633,340.46,763,755,0
919643,310.58,763,753,0
919653,292.15,763,754,0
919663,280.28,763,752,0
919673,277.45,763,755,0
919683,278.21,763,752,0
919693,284.36,763,754,0
919703,290.43,763,752,0
919713,298.78,763,755,0
919724,304.42,763,751,0
919734,310.34,763,755,0
919744,312.25,763,751,0
919754,313.72,763,755,0
919764,311.10,763,751,0
919774,308.59,763,754,0
919784,302.71,763,751,0
919794,297.83,763,755,0
919804,290.81,763,751,0
919814,285.94,763,754,0
919824,279.83,763,751,0
919834,276.36,763,755,0
919844,272.23,763,751,0
919854,271.22,763,754,0
919864,269.74,763,751,0
919874,270.93,763,755,0
919884,271.17,763,751,0
919895,273.73,763,755,0
919905,275.27,763,751,0
919915,278.79,763,755,0
919925,280.91,763,750,0
919936,284.54,763,755,0
919945,286.73,763,751,0
919955,290.41,763,755,0
919965,292.56,763,750,0
919975,295.78,763,755,0
919985,297.17,763,751,0
919995,299.56,763,755,0
920005,300.17,763,750,0
920015,301.62,763,755,0
920025,301.22,763,751,0
920035,301.84,763,755,0
920045,300.90,763,750,0
920055,301.40,763,755,0
920065,301.41,763,751,0
920075,305.32,763,755,0
920085,312.98,763,751,0
920095,329.66,763,755,0
920105,356.37,763,750,0
920124,395.13,793,749,0
920127,440.95,793,736,0
920136,492.05,793,759,0
920146,543.85,793,740,0
920156,594.08,793,755,0
920166,637.99,793,751,0
920176,672.49,793,758,0
920186,696.64,793,741,0
920196,713.55,793,755,0
920206,725.38,793,751,0
920216,733.67,793,758,0
920226,739.43,793,741,0
920236,743.46,793,755,0
920246,746.28,793,750,0
920256,748.25,793,759,0
920266,749.59,793,741,0
920276,750.53,793,762,0
920286,751.18,793,751,0
920296,751.69,793,759,0
920306,746.94,793,741,0
920316,734.53,793,761,0
920326,712.17,793,750,0
920336,680.28,793,758,0
920346,638.28,793,740,0
920356,587.71,793,762,0
920366,529.21,793,750,0
920376,470.52,793,758,0
920386,414.61,793,741,0
920396,366.34,793,762,0
920407,326.12,793,736,0
920417,296.39,793,760,0
920427,275.96,793,738,0
920437,265.38,793,759,0
920448,262.05,793,739,0
920457,265.77,793,760,0
920467,273.17,793,738,0
920477,283.53,793,759,0
920487,294.39,793,739,0
920497,305.33,793,760,0
920507,314.19,793,738,0
920517,320.60,793,759,0
920527,323.94,793,739,0
920537,324.94,793,760,0
920547,322.94,793,738,0
920557,318.89,793,759,0
920567,312.97,793,739,0
920577,306.25,793,760,0
920587,298.89,793,738,0
920597,291.76,793,760,0
920607,284.93,793,739,0
920617,279.25,793,760,0
920627,274.38,793,738,0
920637,270.88,793,759,0
920647,268.52,793,739,0
920657,267.72,793,760,0
920667,267.72,793,738,0
920677,268.83,793,759,0
920687,270.85,793,739,0
920697,273.68,793,760,0
920707,276.65,793,738,0
920717,279.97,793,759,0
920727,283.28,793,739,0
920737,286.71,793,760,0
920748,290.35,793,740,0
920758,293.46,793,758,0
920768,296.97,793,746,0
920778,299.63,793,756,0
920788,302.66,793,748,0
920798,304.82,793,758,0
920808,307.06,793,745,0
920818,307.77,793,756,0
920828,308.87,793,748,0
920838,308.39,793,758,0
920848,308.32,793,745,0
920858,306.59,793,756,0
920868,306.24,793,749,0
920878,306.13,793,758,0
920888,309.95,793,745,0
920898,318.11,793,756,0
920908,335.60,793,748,0
920919,363.88,793,756,0
920938,403.64,814,755,0
920941,449.95,814,752,0
920950,500.88,814,753,0
920961,552.26,814,753,0
920971,601.51,814,754,0
920981,643.87,814,752,0
920991,676.65,814,755,0
921001,699.51,814,751,0
921011,715.56,814,754,0
921021,726.71,814,752,0
921031,734.55,814,755,0
921041,739.96,814,751,0
921051,743.83,814,754,0
921061,746.49,814,752,0
921071,748.40,814,755,0
921081,747.72,814,751,0
921091,742.75,814,754,0
921101,728.51,814,752,0
921111,705.26,814,754,0
921121,670.89,814,751,0
921132,627.81,814,755,0
921142,575.20,814,751,0
921152,518.39,814,755,0
921162,459.26,814,751,0
921172,406.38,814,755,0
921182,359.55,814,751,0
921192,324.03,814,755,0
921202,297.28,814,751,0
921212,282.50,814,755,0
921222,275.28,814,751,0
921232,277.68,814,755,0
921242,284.42,814,751,0
921252,296.94,814,755,0
921262,309.94,814,751,0
921272,325.00,814,755,0
921282,337.30,814,751,0
921292,349.08,814,755,0
921303,356.09,814,751,0
921313,361.16,814,755,0
921323,361.11,814,750,0
921333,359.28,814,755,0
921344,352.85,814,750,0
921353,345.91,814,755,0
921363,335.61,814,750,0
921373,325.95,814,755,0
921383,314.53,814,750,0
921393,304.85,814,755,0
921403,294.48,814,750,0
921413,286.58,814,755,0
921423,278.61,814,751,0
921433,273.67,814,755,0
921443,268.88,814,750,0
921453,267.07,814,755,0
921463,265.59,814,750,0
921473,266.83,814,755,0
921483,267.82,814,750,0
921493,270.83,814,755,0
921503,273.20,814,751,0
921513,277.30,814,755,0
921523,280.34,814,750,0
921533,284.65,814,755,0
921543,287.67,814,750,0
921553,291.93,814,755,0
921563,294.60,814,750,0
921573,298.28,814,755,0
921583,300.34,814,751,0
921593,303.02,814,755,0
921603,303.70,814,750,0
921613,305.25,814,755,0
921623,305.43,814,750,0
921633,307.53,814,755,0
921644,310.33,814,750,0
921654,318.16,814,756,0
921664,331.74,814,744,0
921674,356.29,814,761,0
921684,391.99,814,736,0
921694,436.39,814,757,0
921713,485.13,775,759,0
921716,536.31,775,760,0
921725,585.71,775,740,0
921735,630.93,775,761,0
921745,667.34,775,738,0
921755,692.91,775,759,0
921765,710.72,775,740,0
921775,723.19,775,761,0
921785,731.88,775,737,0
921795,738.04,775,759,0
921805,742.27,775,740,0
921815,745.28,775,761,0
921825,747.34,775,737,0
921835,748.86,775,759,0
921845,747.88,775,740,0
921856,740.71,775,760,0
921865,724.69,775,737,0
921875,698.89,775,759,0
921885,663.05,775,740,0
921895,617.61,775,760,0
921905,563.64,775,737,0
921915,504.82,775,759,0
921925,446.50,775,740,0
921935,393.12,775,760,0
921945,347.10,775,737,0
921955,310.47,775,759,0
921965,283.89,775,740,0
921975,267.21,775,760,0
921985,259.22,775,737,0
921995,259.15,775,759,0
922005,265.11,775,740,0
922015,275.79,775,760,0
922025,289.05,775,739,0
922035,303.52,775,759,0
922045,317.21,775,740,0
922055,329.23,775,760,0
922065,338.68,775,739,0
922075,344.99,775,759,0
922085,347.65,775,740,0
922095,346.73,775,760,0
922105,342.78,775,739,0
922115,336.55,775,759,0
922125,328.45,775,740,0
922135,318.85,775,760,0
922145,308.95,775,739,0
922156,299.02,775,759,0
922166,290.27,775,744,0
922176,281.92,775,756,0
922186,275.69,775,748,0
922196,270.64,775,756,0
922206,267.83,775,744,0
922216,266.08,775,756,0
922226,266.87,775,748,0
922236,268.07,775,756,0
922246,271.35,775,744,0
922256,274.33,775,756,0
922266,279.24,775,748,0
922276,283.37,775,756,0
922286,288.45,775,744,0
922296,292.08,775,756,0
922306,296.52,775,748,0
922316,299.23,775,756,0
922327,302.72,775,748,0
922337,303.96,775,756,0
922347,306.59,775,749,0
922357,308.25,775,755,0
922368,313.32,775,751,0
922377,320.64,775,756,0
922387,336.05,775,749,0
922397,359.43,775,755,0
922407,395.60,775,751,0
922417,438.75,775,756,0
922427,487.81,775,749,0
922446,537.67,733,749,0
922449,587.27,733,756,0
922458,631.29,733,754,0
922468,667.80,733,753,0
922478,693.28,733,753,0
922488,711.19,733,754,0
922498,723.65,733,754,0
922508,732.45,733,752,0
922518,738.58,733,753,0
922528,742.95,733,754,0
922539,745.92,733,752,0
922548,748.04,733,753,0
922558,749.44,733,753,0
922568,750.51,733,754,0
922578,751.13,733,752,0
922588,748.56,733,752,0
922598,737.29,733,753,0
922608,717.36,733,754,0
922618,686.44,733,752,0
922628,647.44,733,752,0
