Time,PPG,IBI,GSR,GSR_Event
10906,981.38,0,775,0
10926,981.78,0,777,0
10929,981.07,0,779,0
10938,981.57,0,780,0
10948,980.84,0,778,0
10958,981.19,0,779,0
10968,980.75,0,778,0
10978,981.16,0,779,0
10988,980.34,0,778,0
10998,981.40,0,779,0
11009,980.72,0,778,0
11019,981.62,0,779,0
11029,980.75,0,778,0
11039,981.51,0,779,0
11049,980.58,0,779,0
11059,981.35,0,779,0
11069,980.39,0,778,0
11079,981.26,0,779,0
11089,980.32,0,779,0
11099,981.21,0,779,0
11109,980.25,0,778,0
11119,981.20,0,779,0
11129,980.28,0,779,0
11139,981.14,0,779,0
11149,980.20,0,778,0
11159,981.13,0,779,0
11169,980.19,0,779,0
11180,981.07,0,779,0
11190,980.24,0,778,0
11200,981.15,0,779,0
11210,980.29,0,779,0
11220,981.23,0,778,0
11230,980.48,0,779,0
11240,981.45,0,779,0
11250,980.63,0,779,0
11260,981.43,0,778,0
11270,980.70,0,779,0
11280,981.60,0,779,0
11290,980.69,0,779,0
11300,981.47,0,778,0
11310,980.69,0,779,0
11320,981.60,0,779,0
11330,980.77,0,779,0
11340,981.57,0,778,0
11351,980.71,0,779,0
11361,981.36,0,778,0
11371,980.48,0,780,0
11381,981.15,0,778,0
11392,980.29,0,779,0
11401,980.89,0,778,0
11411,980.02,0,780,0
11421,980.83,0,778,0
11431,980.28,0,779,0
11441,980.93,0,778,0
11451,980.22,0,780,0
11461,981.05,0,778,0
11471,980.57,0,779,0
11481,981.21,0,778,0
11491,980.46,0,780,0
11501,981.22,0,778,0
11511,980.64,0,780,0
11521,981.18,0,778,0
11531,980.31,0,780,0
11541,980.95,0,778,0
11551,980.32,0,780,0
11561,980.87,0,778,0
11571,980.09,0,780,0
11581,980.88,0,778,0
11591,980.40,0,780,0
11601,981.09,0,778,0
11611,980.42,0,780,0
11621,981.20,0,778,0
11631,980.71,0,780,0
11641,981.31,0,778,0
11651,980.45,0,780,0
11661,981.08,0,778,0
11671,980.42,0,780,0
11681,980.85,0,778,0
11692,980.17,0,780,0
11702,980.50,0,777,0
11712,980.14,0,780,0
11722,980.52,0,778,0
11732,980.07,0,780,0
11742,980.60,0,777,0
11752,980.42,0,780,0
11762,980.64,0,777,0
11772,980.53,0,780,0
11782,980.80,0,777,0
11792,980.78,0,780,0
11802,980.89,0,777,0
11812,980.66,0,780,0
11822,980.85,0,777,0
11832,980.81,0,780,0
11842,980.82,0,777,0
11852,980.58,0,780,0
11863,980.57,0,777,0
11873,980.49,0,780,0
11883,980.47,0,777,0
11893,980.29,0,780,0
11904,980.24,0,777,0
11913,980.13,0,780,0
11923,980.09,0,777,0
11933,980.11,0,780,0
11943,980.07,0,777,0
11953,980.01,0,780,0
11963,979.88,0,777,0
11973,979.87,0,780,0
11983,979.87,0,777,0
11993,979.82,0,780,0
12003,979.66,0,777,0
12013,979.63,0,780,0
12023,979.57,0,777,0
12033,979.53,0,780,0
12043,979.41,0,776,0
12053,979.42,0,780,0
12063,979.42,0,777,0
12073,979.55,0,780,0
12083,979.60,0,777,0
12093,979.81,0,780,0
12103,979.95,0,777,0
12113,980.18,0,780,0
12123,980.25,0,777,0
12133,980.39,0,780,0
12143,980.36,0,777,0
12153,980.42,0,780,0
12163,980.38,0,777,0
12173,980.44,0,780,0
12183,980.31,0,777,0
12193,980.34,0,780,0
12204,980.15,0,777,0
12214,980.49,0,780,0
12224,980.17,0,778,0
12234,980.68,0,780,0
12244,980.26,0,777,0
12254,980.44,0,780,0
12264,980.01,0,777,0
12274,980.61,0,780,0
12284,979.82,0,777,0
12294,980.13,0,780,0
12304,979.15,0,777,0
12314,979.92,0,780,0
12324,979.30,0,777,0
12334,979.72,0,780,0
12344,978.78,0,777,0
12354,979.62,0,780,0
12364,979.05,0,777,0
12375,979.89,0,780,0
12385,979.19,0,778,0
12395,980.12,0,780,0
12405,979.79,0,778,0
12416,980.79,0,780,0
12425,980.17,0,777,0
12435,981.15,0,780,0
12445,980.50,0,778,0
12455,981.34,0,780,0
12465,980.68,0,778,0
12475,981.46,0,780,0
12485,980.68,0,778,0
12495,981.46,0,780,0
12505,980.77,0,778,0
12515,981.44,0,780,0
12525,980.58,0,778,0
12535,981.30,0,780,0
12545,980.53,0,778,0
12555,981.23,0,780,0
12565,980.39,0,778,0
12575,981.13,0,780,0
12585,980.32,0,778,0
12595,980.99,0,780,0
12605,980.18,0,778,0
12615,980.98,0,779,0
12625,980.17,0,778,0
12635,980.85,0,780,0
12645,980.00,0,778,0
12655,980.85,0,779,0
12665,980.08,0,778,0
12675,980.74,0,780,0
12685,979.88,0,778,0
12695,980.73,0,779,0
12705,979.91,0,778,0
12716,980.71,0,779,0
12726,979.77,0,778,0
12736,980.57,0,779,0
12746,979.62,0,779,0
12756,980.34,0,778,0
12766,979.42,0,778,0
12776,980.32,0,778,0
12786,979.37,0,779,0
12796,980.29,0,778,0
12806,979.47,0,778,0
12816,980.53,0,778,0
12826,979.69,0,779,0
12836,980.59,0,778,0
12846,979.73,0,779,0
12856,980.71,0,778,0
12866,979.77,0,779,0
12876,980.61,0,778,0
12887,979.83,0,779,0
12897,980.78,0,778,0
12907,979.95,0,779,0
12917,980.90,0,778,0
12928,980.03,0,780,0
12937,980.88,0,778,0
12947,979.97,0,780,0
12957,980.75,0,778,0
12967,979.84,0,779,0
12977,980.57,0,778,0
12987,979.55,0,779,0
12997,980.41,0,777,0
13007,979.60,0,780,0
13017,980.45,0,778,0
13027,979.50,0,780,0
13037,980.42,0,778,0
13047,979.61,0,780,0
13057,980.46,0,778,0
13067,979.50,0,780,0
13077,980.42,0,778,0
13087,979.61,0,780,0
13097,980.33,0,777,0
13107,979.24,0,780,0
13117,980.03,0,777,0
13127,979.12,0,780,0
13137,979.77,0,777,0
13147,978.68,0,780,0
13157,979.59,0,778,0
13167,978.81,0,779,0
13177,979.60,0,777,0
13187,978.65,0,780,0
13197,979.57,0,777,0
13207,978.88,0,780,0
13217,979.73,0,778,0
13228,978.91,0,780,0
13238,979.84,0,777,0
13248,979.12,0,780,0
13258,979.85,0,777,0
13268,979.21,0,780,0
13278,980.43,0,777,0
13288,980.05,0,780,0
13298,980.80,0,777,0
13308,980.39,0,780,0
13318,981.60,0,777,0
13328,981.25,0,780,0
13338,981.82,0,776,0
13348,980.97,0,781,0
13358,981.67,0,777,0
13368,981.00,0,780,0
13378,981.34,0,777,0
13388,980.55,0,780,0
13399,980.90,0,777,0
13409,980.50,0,780,0
13419,980.61,0,776,0
13429,980.00,0,781,0
13440,980.21,0,777,0
13449,979.72,0,780,0
13459,979.76,0,776,0
13469,979.53,0,780,0
13479,979.50,0,776,0
13489,979.27,0,780,0
13499,979.19,0,776,0
13509,979.09,0,780,0
13519,979.15,0,776,0
13529,978.97,0,780,0
13539,978.94,0,777,0
13549,978.91,0,780,0
13559,979.03,0,776,0
13569,978.89,0,780,0
13579,978.88,0,776,0
13589,978.83,0,780,0
13599,978.92,0,777,0
13609,978.90,0,780,0
13619,978.98,0,777,0
13629,979.03,0,780,0
13639,979.23,0,776,0
13649,979.25,0,780,0
13659,979.35,0,776,0
13669,979.41,0,780,0
13679,979.50,0,777,0
13689,979.48,0,780,0
13699,979.55,0,776,0
13709,979.56,0,780,0
13719,979.65,0,777,0
13729,979.58,0,780,0
13740,979.54,0,776,0
13750,979.50,0,780,0
13760,979.40,0,777,0
13770,979.32,0,780,0
13780,979.18,0,777,0
13790,979.08,0,780,0
13800,978.97,0,777,0
13810,978.98,0,780,0
13820,978.86,0,777,0
13830,978.94,0,780,0
13840,978.87,0,777,0
13850,979.00,0,780,0
13860,978.91,0,777,0
13870,979.02,0,780,0
13880,978.93,0,777,0
13890,979.04,0,780,0
13900,978.90,0,777,0
13911,979.19,0,780,0
13921,978.83,0,777,0
13931,979.40,0,780,0
13941,978.98,0,778,0
13952,979.58,0,779,0
13961,979.49,0,777,0
13971,980.25,0,780,0
13981,979.70,0,777,0
13991,980.60,0,780,0
14001,980.08,0,777,0
14011,981.08,0,780,0
14021,980.29,0,777,0
14031,980.97,0,780,0
14041,980.30,0,777,0
14051,981.24,0,780,0
14061,980.35,0,777,0
14071,981.02,0,779,0
14081,980.37,0,777,0
14100,981.24,0,776,0
14103,980.18,0,779,0
14121,980.64,0,777,0
14125,979.64,0,780,0
14134,980.52,0,778,0
14144,979.63,0,779,0
14154,980.17,0,778,0
14164,979.31,0,780,0
14174,980.41,0,778,0
14184,979.82,0,779,0
14194,980.77,0,778,0
14204,979.90,0,780,0
14214,980.87,0,778,0
14224,980.27,0,779,0
14234,981.17,0,778,0
14244,980.26,0,780,0
14254,981.13,0,778,0
14264,980.36,0,779,0
14274,981.20,0,778,0
14284,980.24,0,780,0
14295,980.98,0,778,0
14305,980.04,0,780,0
14315,980.89,0,777,0
14325,980.19,0,780,0
14336,980.91,0,777,0
14345,979.95,0,780,0
14355,980.74,0,777,0
14365,980.00,0,780,0
14375,980.77,0,777,0
14385,979.77,0,780,0
14395,980.31,0,777,0
14405,979.70,0,780,0
14415,980.56,0,777,0
14425,979.58,0,780,0
14435,980.18,0,777,0
14445,979.57,0,780,0
14455,980.38,0,777,0
14465,979.32,0,780,0
14475,979.78,0,777,0
14485,979.12,0,780,0
14495,979.98,0,777,0
14505,979.13,0,780,0
14515,979.78,0,777,0
14525,979.29,0,780,0
14535,980.32,0,777,0
14545,979.66,0,780,0
14555,980.49,0,777,0
14565,980.09,0,780,0
14575,981.09,0,777,0
14585,980.38,0,780,0
14595,981.04,0,777,0
14605,980.51,0,780,0
14615,981.30,0,777,0
14625,980.40,0,780,0
14636,980.75,0,776,0
14646,979.92,0,780,0
14656,980.29,0,777,0
14666,979.60,0,780,0
14676,979.68,0,776,0
14686,978.75,0,780,0
14696,979.04,0,777,0
14706,978.51,0,780,0
14716,978.74,0,776,0
14726,978.22,0,780,0
14736,978.41,0,777,0
14746,978.25,0,780,0
14756,978.69,0,776,0
14766,978.31,0,780,0
14776,978.52,0,777,0
14786,978.32,0,780,0
14796,978.69,0,776,0
14807,978.57,0,780,0
14817,978.66,0,777,0
14827,978.55,0,780,0
14837,978.90,0,776,0
14848,978.84,0,780,0
14857,978.97,0,777,0
14867,978.94,0,780,0
14877,979.00,0,776,0
14887,979.04,0,780,0
14897,979.12,0,777,0
14907,979.08,0,780,0
14917,979.10,0,776,0
14927,979.07,0,780,0
14937,979.01,0,776,0
14947,978.88,0,780,0
14957,978.83,0,776,0
14967,978.79,0,780,0
14977,978.81,0,777,0
14987,978.74,0,780,0
14997,978.78,0,776,0
15007,978.84,0,780,0
15017,978.89,0,777,0
15027,978.84,0,780,0
15037,978.84,0,777,0
15047,978.89,0,780,0
15057,978.92,0,777,0
15067,978.86,0,780,0
15077,978.86,0,776,0
15087,978.90,0,780,0
15097,978.89,0,777,0
15107,978.79,0,780,0
15117,978.73,0,776,0
15127,978.77,0,780,0
15137,978.75,0,776,0
15148,978.78,0,780,0
15158,978.72,0,776,0
15168,978.89,0,780,0
15178,978.62,0,777,0
15188,978.86,0,780,0
15198,978.90,0,777,0
15208,979.19,0,780,0
15218,978.88,0,777,0
15228,979.21,0,780,0
15238,979.24,0,777,0
15248,979.81,0,780,0
15258,979.31,0,777,0
15268,979.56,0,780,0
15278,979.43,0,777,0
15297,979.95,1176,775,0
15300,979.06,1176,780,0
15309,979.22,1176,780,0
15319,978.51,1176,777,0
15329,979.26,1176,780,0
15339,978.49,1176,777,0
15349,978.77,1176,780,0
15360,978.24,1176,778,0
15369,979.45,1176,780,0
15379,978.85,1176,778,0
15389,979.79,1176,780,0
15399,979.08,1176,778,0
15418,980.17,0,776,0
15421,979.35,0,779,0
15430,980.10,0,779,0
15440,979.09,0,779,0
15450,979.79,0,779,0
15460,978.91,0,778,0
15470,979.58,0,779,0
15480,978.51,0,779,0
15490,979.30,0,779,0
15500,978.39,0,778,0
15510,979.26,0,779,0
15520,978.45,0,779,0
15531,979.39,0,779,0
15540,978.63,0,778,0
15550,979.60,0,779,0
15560,978.90,0,779,0
15570,979.92,0,779,0
15580,979.13,0,778,0
15590,980.12,0,779,0
15600,979.27,0,779,0
15610,980.17,0,779,0
15620,979.35,0,778,0
15630,980.27,0,779,0
15640,979.33,0,779,0
15650,980.22,0,779,0
15660,979.34,0,778,0
15670,980.22,0,779,0
15680,979.34,0,779,0
15690,980.18,0,779,0
15700,979.23,0,779,0
15710,980.15,0,779,0
15720,979.24,0,779,0
15730,980.11,0,779,0
15740,979.18,0,779,0
15750,980.03,0,779,0
15760,979.08,0,779,0
15770,980.00,0,779,0
15780,979.10,0,779,0
15790,979.97,0,779,0
15800,979.08,0,779,0
15810,980.04,0,779,0
15820,979.17,0,779,0
15831,980.23,0,779,0
15841,979.44,0,779,0
15851,980.25,0,778,0
15861,979.44,0,780,0
15872,980.34,0,778,0
15881,979.47,0,779,0
15891,980.27,0,778,0
15901,979.33,0,780,0
15911,980.13,0,778,0
15921,979.32,0,779,0
15931,980.04,0,778,0
15941,979.17,0,780,0
15951,979.98,0,778,0
15961,979.13,0,779,0
15971,979.82,0,778,0
15981,978.93,0,780,0
15991,979.81,0,778,0
16001,979.01,0,779,0
16011,979.73,0,778,0
16021,978.87,0,780,0
16031,979.72,0,778,0
16041,978.82,0,780,0
16051,979.52,0,778,0
16061,978.55,0,780,0
16071,979.33,0,778,0
16081,978.41,0,780,0
16091,979.10,0,778,0
16101,978.17,0,780,0
16111,979.06,0,778,0
16121,978.19,0,780,0
16131,978.95,0,778,0
16141,978.06,0,780,0
16151,978.94,0,778,0
16161,978.06,0,780,0
16172,978.90,0,777,0
16182,978.20,0,780,0
16192,979.00,0,777,0
16202,978.23,0,780,0
16212,979.02,0,777,0
16222,978.33,0,780,0
16232,979.13,0,777,0
16242,978.28,0,780,0
16252,978.88,0,777,0
16262,978.27,0,780,0
16272,978.92,0,777,0
16282,978.04,0,780,0
16292,978.63,0,777,0
16302,978.01,0,780,0
16312,978.69,0,776,0
16322,977.89,0,780,0
16332,978.56,0,777,0
16343,978.09,0,780,0
16353,978.75,0,776,0
16363,978.31,0,780,0
16373,978.69,0,776,0
16384,978.40,0,780,0
16393,979.14,0,776,0
16403,978.71,0,780,0
16413,979.05,0,777,0
16423,978.91,0,780,0
16433,979.36,0,777,0
16443,979.26,0,780,0
16453,979.39,0,777,0
16463,979.10,0,780,0
16473,979.46,0,777,0
16483,979.32,0,780,0
16493,979.44,0,777,0
16503,979.14,0,780,0
16513,979.52,0,776,0
16523,979.41,0,780,0
16533,979.54,0,776,0
16543,979.21,0,780,0
16553,979.19,0,776,0
16563,978.79,0,780,0
16573,978.72,0,777,0
16583,978.25,0,780,0
16593,978.17,0,776,0
16603,977.74,0,780,0
16613,977.69,0,776,0
16623,977.61,0,780,0
16633,977.77,0,776,0
16643,977.54,0,780,0
16653,977.63,0,777,0
16663,977.66,0,780,0
16673,977.89,0,776,0
16684,977.88,0,780,0
16694,977.96,0,776,0
16704,978.01,0,780,0
16714,978.18,0,776,0
16724,978.17,0,780,0
16734,978.20,0,776,0
16744,978.23,0,780,0
16754,978.25,0,777,0
16764,978.26,0,780,0
16774,978.31,0,776,0
16784,978.39,0,780,0
16794,978.31,0,776,0
16804,978.26,0,781,0
16814,978.23,0,776,0
16824,978.20,0,780,0
16834,978.06,0,776,0
16844,978.00,0,780,0
16855,977.87,0,777,0
16865,977.99,0,780,0
16875,977.78,0,777,0
16885,978.06,0,780,0
16896,977.74,0,778,0
16905,977.69,0,780,0
16915,977.31,0,777,0
16925,977.56,0,781,0
16935,977.01,0,777,0
16945,977.01,0,780,0
16955,976.28,0,777,0
16965,976.71,0,780,0
16975,976.28,0,778,0
16985,976.37,0,780,0
16995,975.66,0,777,0
17005,976.19,0,780,0
17015,975.83,0,777,0
17025,975.97,0,780,0
17035,975.33,0,777,0
17045,975.96,0,780,0
17055,975.67,0,777,0
17065,976.59,0,780,0
17075,976.50,0,777,0
17085,977.46,0,780,0
17095,977.45,0,777,0
17105,978.52,0,780,0
17115,978.53,0,777,0
17125,979.57,0,780,0
17135,978.89,0,777,0
17145,979.48,0,780,0
17155,979.12,0,777,0
17165,979.90,0,780,0
17175,979.03,0,778,0
17185,979.53,0,780,0
17196,978.69,0,778,0
17206,979.47,0,780,0
17216,978.68,0,778,0
17226,979.12,0,780,0
17236,978.40,0,778,0
17246,979.27,0,780,0
17256,978.46,0,778,0
17266,979.31,0,780,0
17276,978.61,0,778,0
17286,979.42,0,779,0
17296,978.73,0,778,0
17306,979.50,0,780,0
17316,978.71,0,779,0
17326,979.48,0,780,0
17336,978.78,0,778,0
17346,979.53,0,780,0
17356,978.73,0,779,0
17367,979.58,0,779,0
17377,978.76,0,779,0
17387,979.61,0,779,0
17397,978.74,0,779,0
17408,979.55,0,778,0
17417,978.65,0,779,0
17427,979.44,0,779,0
17437,978.45,0,779,0
17447,979.35,0,778,0
17457,978.43,0,779,0
17467,979.29,0,779,0
17477,978.34,0,779,0
17487,979.31,0,779,0
17497,978.45,0,779,0
17507,979.38,0,779,0
17517,978.50,0,779,0
17527,979.46,0,779,0
17537,978.64,0,779,0
17547,979.56,0,779,0
17557,978.62,0,779,0
17567,979.55,0,779,0
17577,978.57,0,780,0
17587,979.43,0,779,0
17597,978.49,0,779,0
17607,979.41,0,779,0
17617,978.47,0,780,0
17627,979.36,0,779,0
17637,978.39,0,779,0
17647,979.39,0,779,0
17657,978.46,0,780,0
17667,979.26,0,779,0
17677,978.20,0,779,0
17687,979.13,0,779,0
17697,978.14,0,780,0
17708,978.96,0,778,0
17718,978.07,0,780,0
17728,978.99,0,778,0
17738,978.09,0,781,0
17748,979.01,0,778,0
17758,978.15,0,780,0
17768,979.09,0,778,0
17778,978.16,0,780,0
17788,978.93,0,778,0
17798,978.09,0,780,0
17808,979.01,0,778,0
17818,978.06,0,780,0
17828,978.82,0,778,0
17838,977.97,0,780,0
17848,978.92,0,778,0
17858,977.79,0,778,0
17868,978.62,0,779,0
17879,977.58,0,780,0
17889,978.18,0,777,0
17899,977.31,0,780,0
17909,978.20,0,780,0
17920,977.37,0,780,0
17929,978.29,0,779,0
17939,977.39,0,780,0
17949,978.30,0,777,0
17959,977.82,0,780,0
17969,978.48,0,777,0
17979,977.56,0,780,0
17989,978.34,0,777,0
17999,977.55,0,780,0
18009,978.07,0,777,0
18019,977.28,0,780,0
18029,978.01,0,777,0
18039,977.45,0,780,0
18049,978.04,0,777,0
18059,977.26,0,780,0
18069,978.12,0,777,0
18079,977.62,0,780,0
18089,978.20,0,777,0
18099,977.37,0,780,0
18109,978.03,0,777,0
18119,977.38,0,780,0
18129,977.86,0,777,0
18139,977.05,0,780,0
18149,977.68,0,777,0
18159,977.05,0,780,0
18169,977.59,0,777,0
18179,976.77,0,780,0
18189,977.52,0,777,0
18199,976.98,0,780,0
18209,977.63,0,777,0
18220,977.14,0,780,0
18230,977.70,0,777,0
18240,977.49,0,780,0
18250,977.94,0,777,0
18260,977.53,0,780,0
18270,978.10,0,777,0
18280,977.86,0,780,0
18290,978.07,0,777,0
18300,977.92,0,780,0
18310,978.20,0,777,0
18320,978.23,0,780,0
18330,978.33,0,776,0
18340,978.15,0,780,0
18350,978.40,0,777,0
18360,978.41,0,780,0
18370,978.50,0,777,0
18380,978.35,0,780,0
18391,978.37,0,777,0
18401,978.26,0,780,0
18411,978.18,0,776,0
18421,977.91,0,780,0
18432,977.73,0,777,0
18441,977.51,0,780,0
18451,977.31,0,776,0
18461,977.18,0,780,0
18471,977.04,0,777,0
18481,976.90,0,780,0
18491,976.76,0,776,0
18501,976.83,0,780,0
18511,976.84,0,777,0
18521,976.80,0,780,0
18531,976.73,0,776,0
18541,976.86,0,780,0
18551,976.90,0,776,0
18561,976.89,0,780,0
18571,976.79,0,776,0
18581,976.85,0,780,0
18591,976.86,0,777,0
18601,976.94,0,780,0
18611,976.92,0,776,0
18621,977.03,0,780,0
18631,977.06,0,776,0
18641,977.17,0,780,0
18651,977.12,0,777,0
18661,977.21,0,780,0
18671,977.11,0,776,0
18681,977.16,0,780,0
18691,977.15,0,776,0
18701,977.28,0,780,0
18711,977.20,0,776,0
18721,977.27,0,780,0
18732,977.14,0,777,0
18742,977.53,0,780,0
18752,977.20,0,777,0
18762,977.65,0,780,0
18772,977.20,0,778,0
18782,977.35,0,780,0
18792,976.91,0,777,0
18802,977.41,0,780,0
18812,976.60,0,778,0
18822,976.93,0,780,0
18832,976.05,0,777,0
18842,976.85,0,780,0
18852,976.34,0,778,0
18862,976.84,0,780,0
18872,976.03,0,777,0
18882,976.88,0,780,0
18892,976.31,0,778,0
18903,977.38,0,779,0
18913,976.71,0,779,0
18923,977.74,0,780,0
18933,977.47,0,780,0
18944,978.57,0,780,0
18953,976.94,0,779,0
18963,977.30,0,780,0
18973,975.93,0,778,0
18983,976.42,0,779,0
18993,975.35,0,777,0
19003,975.89,0,780,0
19013,974.94,0,778,0
19023,976.71,0,779,0
19033,976.54,0,778,0
19043,977.66,0,780,0
19053,977.17,0,778,0
19063,978.10,0,779,0
19073,977.47,0,778,0
19083,978.19,0,780,0
19093,977.45,0,778,0
19103,978.25,0,779,0
19113,977.45,0,779,0
19123,978.09,0,780,0
19133,977.29,0,778,0
19143,978.06,0,779,0
19153,977.27,0,779,0
19163,977.96,0,780,0
19173,977.20,0,778,0
19183,978.13,0,779,0
19193,977.40,0,779,0
19203,978.10,0,780,0
19213,977.30,0,778,0
19223,978.11,0,779,0
19233,977.30,0,779,0
19244,978.11,0,779,0
19254,977.26,0,779,0
19264,978.21,0,779,0
19274,977.51,0,779,0
19284,978.47,0,778,0
19294,977.69,0,779,0
19304,978.68,0,779,0
19314,977.83,0,779,0
19324,978.83,0,778,0
19334,978.06,0,779,0
19344,979.12,0,778,0
19354,978.22,0,779,0
19364,978.84,0,779,0
19374,977.69,0,779,0
19384,978.43,0,779,0
19394,977.27,0,779,0
19404,977.96,0,778,0
19415,976.99,0,780,0
19425,977.93,0,778,0
19435,977.44,0,780,0
19445,978.94,0,778,0
19456,978.23,0,779,0
19465,979.40,0,778,0
19475,978.72,0,780,0
19485,979.66,0,777,0
19495,978.65,0,780,0
19505,979.36,0,778,0
19515,978.13,0,780,0
19525,978.95,0,777,0
19535,977.89,0,780,0
19545,978.53,0,778,0
19555,977.51,0,780,0
19565,978.34,0,777,0
19575,977.43,0,780,0
19585,978.11,0,778,0
19595,977.18,0,780,0
19605,977.98,0,777,0
19615,977.04,0,780,0
19625,977.80,0,777,0
19635,976.92,0,780,0
19645,977.89,0,777,0
19655,977.06,0,780,0
19665,977.99,0,777,0
19675,977.26,0,780,0
19685,978.30,0,777,0
19695,977.52,0,780,0
19705,978.39,0,777,0
19715,977.50,0,780,0
19725,978.47,0,777,0
19735,977.56,0,780,0
19745,978.29,0,777,0
19756,977.56,0,780,0
19766,978.25,0,777,0
19776,977.27,0,780,0
19786,977.96,0,777,0
19796,977.16,0,780,0
19806,977.88,0,777,0
19816,976.98,0,780,0
19826,977.45,0,777,0
19836,976.85,0,780,0
19846,977.62,0,777,0
19856,976.79,0,780,0
19866,977.37,0,777,0
19876,976.79,0,779,0
19886,977.02,0,778,0
19896,975.90,0,780,0
19906,976.27,0,777,0
19916,975.59,0,780,0
19927,976.14,0,776,0
19937,975.67,0,780,0
19947,975.94,0,776,0
19957,976.13,0,780,0
19968,976.91,0,776,0
19977,976.59,0,780,0
19987,976.93,0,776,0
19997,976.78,0,780,0
20007,976.84,0,776,0
20017,976.55,0,781,0
20027,976.51,0,776,0
20037,976.44,0,780,0
20047,976.53,0,776,0
20057,976.32,0,781,0
20067,976.36,0,776,0
20077,976.33,0,780,0
20087,976.53,0,776,0
20097,976.33,0,781,0
20107,976.40,0,776,0
20117,976.45,0,780,0
20127,976.62,0,776,0
20137,976.60,0,780,0
20147,976.77,0,776,0
20157,976.84,0,780,0
20167,977.10,0,776,0
20177,977.11,0,781,0
20187,977.29,0,776,0
20197,977.38,0,780,0
20207,977.43,0,776,0
20217,977.30,0,780,0
20227,977.38,0,776,0
20237,977.40,0,780,0
20247,977.41,0,776,0
20257,977.24,0,780,0
20268,977.17,0,776,0
20278,977.12,0,780,0
20288,977.04,0,776,0
20298,976.90,0,780,0
20308,976.76,0,776,0
20318,976.62,0,780,0
20328,976.47,0,776,0
20338,976.42,0,780,0
20348,976.25,0,777,0
20358,976.22,0,780,0
20368,976.11,0,776,0
20378,976.16,0,780,0
20388,976.11,0,777,0
20398,976.12,0,780,0
20408,976.00,0,776,0
20418,976.09,0,780,0
20428,976.02,0,777,0
20439,976.10,0,780,0
20449,975.90,0,777,0
20459,976.27,0,780,0
20469,976.02,0,777,0
20480,976.70,0,780,0
20489,976.92,0,777,0
20499,977.63,0,780,0
20509,977.48,0,778,0
20519,978.37,0,780,0
20529,978.39,0,777,0
20539,979.34,0,780,0
20549,978.68,0,778,0
20559,979.16,0,780,0
20569,978.81,0,777,0
20579,979.56,0,780,0
20589,978.70,0,778,0
20599,979.05,0,780,0
20609,978.65,0,777,0
20619,979.31,0,780,0
20629,978.45,0,778,0
20639,978.83,0,780,0
20649,977.85,0,778,0
20659,978.15,0,780,0
20669,977.04,0,778,0
20679,977.24,0,780,0
20689,976.22,0,778,0
20699,976.59,0,780,0
20709,975.55,0,778,0
20719,976.37,0,780,0
20729,975.79,0,778,0
20739,976.41,0,780,0
20749,975.52,0,778,0
20759,976.43,0,780,0
20769,975.83,0,778,0
20780,976.70,0,780,0
20790,975.93,0,778,0
20800,976.81,0,780,0
20810,976.39,0,779,0
20820,977.48,0,779,0
20830,976.82,0,778,0
20840,977.77,0,779,0
20850,977.16,0,779,0
20860,978.09,0,779,0
20870,977.51,0,778,0
20880,978.34,0,779,0
20890,977.55,0,779,0
20900,978.42,0,779,0
20910,977.82,0,779,0
20920,978.56,0,780,0
20930,977.75,0,779,0
20940,978.51,0,779,0
20951,977.67,0,779,0
20961,978.50,0,779,0
20971,977.58,0,779,0
20981,978.26,0,779,0
20992,977.33,0,780,0
21001,978.09,0,779,0
21011,977.16,0,779,0
21021,978.05,0,779,0
21031,977.05,0,780,0
21041,977.85,0,779,0
21051,976.87,0,779,0
21061,977.81,0,779,0
21071,976.84,0,779,0
21081,977.66,0,779,0
21091,976.69,0,779,0
21101,977.60,0,778,0
21111,976.65,0,779,0
21121,977.57,0,779,0
21131,976.63,0,779,0
21141,977.59,0,779,0
21151,976.69,0,779,0
21161,977.55,0,778,0
21171,976.62,0,779,0
21181,977.55,0,779,0
21191,976.52,0,779,0
21201,977.35,0,778,0
21211,976.39,0,779,0
21221,977.30,0,779,0
21231,976.35,0,779,0
21241,977.28,0,778,0
21251,976.42,0,779,0
21261,977.45,0,779,0
21271,976.59,0,779,0
21281,977.48,0,779,0
21292,976.74,0,779,0
21302,977.72,0,778,0
21312,976.86,0,779,0
21322,977.80,0,778,0
21332,976.88,0,780,0
21342,977.73,0,778,0
21352,976.82,0,780,0
21362,977.56,0,778,0
21372,976.58,0,780,0
21382,977.26,0,778,0
21392,976.20,0,780,0
21402,977.04,0,778,0
21412,976.13,0,780,0
21422,976.90,0,778,0
21432,975.95,0,780,0
21442,976.86,0,778,0
21452,976.05,0,780,0
21463,976.89,0,777,0
21473,976.28,0,780,0
21483,977.22,0,777,0
21493,976.51,0,780,0
21504,977.35,0,777,0
21513,976.77,0,780,0
21523,977.74,0,777,0
21533,977.05,0,780,0
21543,977.55,0,777,0
21553,976.95,0,780,0
21563,977.74,0,777,0
21573,976.96,0,780,0
21583,977.36,0,777,0
21593,976.65,0,780,0
21603,977.40,0,777,0
21613,976.64,0,780,0
21623,977.05,0,777,0
21633,976.39,0,780,0
21643,977.17,0,777,0
21653,976.43,0,780,0
21663,976.90,0,777,0
21673,976.29,0,780,0
21683,977.10,0,777,0
21693,976.39,0,780,0
21703,976.87,0,777,0
21713,976.31,0,780,0
21723,977.20,0,777,0
21733,976.63,0,780,0
21743,977.17,0,777,0
21753,976.69,0,780,0
21763,977.64,0,777,0
21773,977.02,0,780,0
21783,977.57,0,777,0
21793,977.06,0,780,0
21804,977.60,0,777,0
21814,977.20,0,780,0
21824,977.36,0,777,0
21834,976.82,0,780,0
21844,977.09,0,777,0
21854,976.46,0,780,0
21864,976.45,0,777,0
21874,976.15,0,780,0
21884,976.10,0,776,0
21894,975.77,0,780,0
21904,975.67,0,777,0
21914,975.64,0,780,0
21924,975.75,0,776,0
21934,975.52,0,780,0
21944,975.54,0,777,0
21954,975.55,0,780,0
21964,975.68,0,776,0
21975,975.69,0,780,0
21985,975.74,0,777,0
21995,975.82,0,780,0
22005,975.96,0,776,0
22016,976.01,0,780,0
22025,976.05,0,777,0
22035,976.12,0,780,0
22045,976.09,0,776,0
22055,976.10,0,780,0
22065,976.16,0,777,0
22075,976.32,0,780,0
22085,976.23,0,776,0
22095,976.20,0,780,0
22105,976.23,0,777,0
22115,976.33,0,780,0
22125,976.23,0,776,0
22135,976.20,0,780,0
22145,976.19,0,776,0
22155,976.26,0,780,0
22165,976.18,0,776,0
22175,976.13,0,780,0
22185,976.00,0,777,0
22195,976.05,0,780,0
22205,975.90,0,776,0
22215,975.85,0,780,0
22225,975.72,0,777,0
22235,975.72,0,780,0
22245,975.59,0,776,0
22255,975.67,0,780,0
22265,975.60,0,777,0
22275,975.63,0,780,0
22285,975.53,0,776,0
22295,975.58,0,780,0
22305,975.54,0,777,0
22316,975.68,0,780,0
22326,975.39,0,777,0
22336,975.70,0,780,0
22346,975.32,0,778,0
22356,975.87,0,780,0
22366,975.91,0,777,0
22376,976.45,0,780,0
22386,976.14,0,778,0
22396,977.00,0,780,0
22406,976.87,0,777,0
22425,977.85,0,776,0
22428,976.91,0,779,0
22437,977.20,0,779,0
22447,976.19,0,778,0
22457,976.86,0,780,0
22467,975.96,0,778,0
22477,976.27,0,779,0
22487,975.25,0,778,0
22497,976.07,0,780,0
22507,975.45,0,778,0
22517,976.43,0,779,0
22528,975.79,0,778,0
22537,976.67,0,780,0
22547,976.08,0,778,0
22557,977.08,0,779,0
22567,976.54,0,779,0
22577,977.45,0,780,0
22587,976.89,0,778,0
22597,977.69,0,779,0
22607,976.97,0,778,0
22617,977.75,0,780,0
22627,977.05,0,778,0
22637,977.77,0,779,0
22647,976.94,0,778,0
22657,977.64,0,780,0
22667,976.89,0,778,0
22677,977.57,0,779,0
22687,976.75,0,778,0
22697,977.51,0,779,0
22707,976.85,0,778,0
22717,977.58,0,779,0
22727,976.80,0,778,0
22737,977.59,0,779,0
22747,976.94,0,778,0
22757,977.65,0,779,0
22767,976.81,0,778,0
22777,977.47,0,779,0
22787,976.73,0,778,0
22797,977.41,0,779,0
22807,976.60,0,778,0
22817,977.36,0,779,0
22828,976.57,0,779,0
22838,977.43,0,779,0
22848,976.61,0,779,0
22858,977.41,0,778,0
22868,976.56,0,779,0
22878,977.29,0,779,0
22888,976.31,0,779,0
22898,977.11,0,778,0
22908,976.09,0,779,0
22918,976.88,0,779,0
22928,975.93,0,779,0
22938,976.81,0,778,0
22948,975.88,0,779,0
22958,976.77,0,779,0
22968,975.90,0,779,0
22978,976.83,0,778,0
22988,975.89,0,779,0
22999,976.78,0,778,0
23009,976.03,0,780,0
23019,976.97,0,778,0
23029,976.12,0,780,0
23040,977.07,0,778,0
23049,976.41,0,780,0
23059,977.44,0,778,0
23069,976.67,0,780,0
23079,977.49,0,778,0
23089,976.83,0,780,0
23099,977.74,0,778,0
23109,976.83,0,780,0
23119,977.57,0,778,0
23129,976.80,0,779,0
23139,977.63,0,778,0
23149,976.71,0,780,0
23159,977.44,0,778,0
23169,976.67,0,779,0
23179,977.49,0,778,0
23189,976.53,0,780,0
23199,977.27,0,778,0
23209,976.33,0,780,0
23219,977.09,0,778,0
23229,976.12,0,780,0
23239,976.86,0,778,0
23249,975.96,0,780,0
23259,976.74,0,778,0
23269,975.79,0,780,0
23279,976.71,0,778,0
23289,975.90,0,780,0
23299,976.66,0,778,0
23309,975.69,0,780,0
23319,976.55,0,778,0
23329,975.66,0,780,0
23340,976.40,0,777,0
23350,975.68,0,780,0
23360,976.46,0,777,0
23370,975.68,0,780,0
23380,976.38,0,777,0
23390,975.66,0,780,0
23400,976.49,0,777,0
23410,975.70,0,780,0
23420,976.18,0,777,0
23430,975.57,0,780,0
23440,976.38,0,777,0
23450,975.71,0,780,0
23460,976.31,0,777,0
23470,975.79,0,780,0
23480,976.67,0,777,0
23490,976.00,0,780,0
23500,976.55,0,777,0
23511,975.92,0,780,0
23521,976.41,0,777,0
23531,975.95,0,780,0
23541,976.18,0,777,0
23552,975.70,0,780,0
23561,976.34,0,777,0
23571,976.03,0,780,0
23581,976.40,0,777,0
23591,976.37,0,780,0
23601,976.82,0,777,0
23611,976.78,0,780,0
23621,976.98,0,777,0
23631,976.73,0,780,0
23641,977.02,0,777,0
23651,976.93,0,780,0
23661,976.99,0,777,0
23671,976.65,0,780,0
23681,976.93,0,777,0
23691,976.78,0,780,0
23701,976.89,0,777,0
23711,976.58,0,780,0
23721,976.53,0,777,0
23731,976.25,0,780,0
23741,976.26,0,777,0
23751,975.88,0,780,0
23761,975.83,0,777,0
23771,975.45,0,780,0
23781,975.36,0,777,0
23791,975.21,0,780,0
23801,975.23,0,777,0
23811,974.91,0,780,0
23821,974.89,0,777,0
23831,974.80,0,780,0
23841,974.90,0,777,0
23852,974.89,0,780,0
23862,974.96,0,777,0
23872,975.02,0,780,0
23882,975.18,0,777,0
23892,975.21,0,780,0
23902,975.32,0,777,0
23912,975.40,0,780,0
23922,975.36,0,777,0
23932,975.38,0,780,0
23942,975.44,0,777,0
23952,975.52,0,780,0
23962,975.49,0,777,0
23972,975.52,0,780,0
23982,975.58,0,777,0
23992,975.66,0,780,0
24002,975.55,0,777,0
24012,975.51,0,780,0
24023,975.44,0,777,0
24033,975.53,0,780,0
24043,975.32,0,777,0
24053,975.61,0,780,0
24064,975.30,0,778,0
24073,975.30,0,780,0
24083,974.99,0,777,0
24093,975.25,0,780,0
24103,974.79,0,778,0
24113,974.77,0,780,0
24123,974.11,0,777,0
24133,974.59,0,780,0
24143,974.33,0,778,0
24153,974.49,0,780,0
24163,974.00,0,777,0
24173,974.64,0,780,0
24183,974.45,0,778,0
24193,974.61,0,780,0
24203,974.17,0,777,0
24213,974.81,0,780,0
24223,974.61,0,778,0
24233,975.41,0,780,0
24243,975.33,0,777,0
24253,976.22,0,780,0
24263,976.24,0,777,0
24283,977.11,0,776,0
24286,976.35,0,779,0
24295,977.06,0,779,0
24305,976.05,0,779,0
24315,976.34,0,779,0
24325,975.55,0,778,0
24335,976.16,0,779,0
24345,975.17,0,779,0
24355,976.23,0,779,0
24365,975.69,0,778,0
24375,976.77,0,779,0
24385,976.02,0,779,0
24395,976.87,0,779,0
24406,976.05,0,779,0
24415,976.94,0,779,0
24425,976.01,0,779,0
24435,976.74,0,779,0
24445,975.79,0,779,0
24455,976.54,0,779,0
24465,975.56,0,779,0
24475,976.46,0,779,0
24485,975.60,0,779,0
24495,976.36,0,779,0
24505,975.40,0,779,0
24515,976.26,0,779,0
24525,975.41,0,779,0
24535,976.23,0,779,0
24545,975.26,0,779,0
24555,976.13,0,779,0
24565,975.32,0,779,0
24576,976.25,0,779,0
24585,975.36,0,779,0
24595,976.28,0,779,0
24605,975.47,0,778,0
24615,976.40,0,779,0
24625,975.55,0,779,0
24635,976.50,0,779,0
24645,975.58,0,779,0
24655,976.48,0,779,0
24665,975.60,0,779,0
24675,976.54,0,779,0
24685,975.65,0,779,0
24695,976.52,0,779,0
24705,975.60,0,779,0
24715,976.53,0,779,0
24725,975.64,0,779,0
24735,976.48,0,779,0
24745,975.52,0,779,0
24755,976.39,0,779,0
24765,975.46,0,779,0
24775,976.31,0,779,0
24785,975.40,0,779,0
24795,976.31,0,779,0
24805,975.45,0,779,0
24815,976.34,0,779,0
24825,975.42,0,779,0
24835,976.33,0,779,0
24845,975.46,0,779,0
24855,976.35,0,779,0
24865,975.43,0,779,0
24876,976.41,0,778,0
24886,975.65,0,780,0
24896,976.48,0,778,0
24906,975.65,0,780,0
24916,976.57,0,778,0
24926,975.71,0,780,0
24936,976.53,0,778,0
24946,975.60,0,780,0
24956,976.36,0,778,0
24966,975.61,0,779,0
24976,976.37,0,778,0
24986,975.53,0,780,0
24996,976.40,0,778,0
25006,975.64,0,779,0
25016,976.35,0,778,0
25026,975.51,0,780,0
25036,976.30,0,778,0
25047,975.40,0,780,0
25057,976.14,0,778,0
25067,975.28,0,780,0
25077,975.80,0,777,0
25088,974.96,0,780,0
25097,975.74,0,778,0
25107,974.92,0,780,0
25117,975.59,0,777,0
25127,974.72,0,780,0
25137,975.49,0,777,0
25147,975.00,0,780,0
25157,975.69,0,777,0
25167,974.84,0,780,0
25177,975.66,0,777,0
25187,975.16,0,780,0
25197,975.88,0,777,0
25207,975.10,0,780,0
25217,975.93,0,777,0
25227,975.39,0,780,0
25237,976.05,0,777,0
25247,975.22,0,780,0
25257,975.92,0,777,0
25267,975.22,0,780,0
25277,975.71,0,777,0
25287,974.77,0,780,0
25297,975.40,0,777,0
25307,974.68,0,780,0
25317,975.16,0,777,0
25327,974.30,0,780,0
25337,975.02,0,777,0
25347,974.37,0,780,0
25357,974.86,0,777,0
25367,974.05,0,780,0
25377,974.76,0,776,0
25388,974.19,0,780,0
25398,974.73,0,777,0
25408,974.26,0,780,0
25418,974.78,0,776,0
25428,974.59,0,780,0
25438,975.40,0,777,0
25448,975.15,0,780,0
25458,975.79,0,776,0
25468,975.68,0,780,0
25478,976.25,0,777,0
25488,976.26,0,780,0
25498,976.61,0,777,0
25508,976.30,0,780,0
25518,976.81,0,777,0
25528,976.70,0,780,0
25538,976.92,0,776,0
25548,976.51,0,780,0
25559,976.44,0,777,0
25569,976.23,0,780,0
25579,976.20,0,777,0
25589,975.58,0,780,0
25600,975.41,0,777,0
25609,975.16,0,780,0
25619,975.07,0,776,0
25629,974.96,0,780,0
25639,974.89,0,777,0
25649,974.84,0,780,0
25659,974.93,0,777,0
25669,974.95,0,780,0
25679,974.92,0,777,0
25689,974.95,0,780,0
25699,975.00,0,777,0
25709,974.96,0,780,0
25719,974.93,0,777,0
25729,974.86,0,780,0
25739,974.86,0,777,0
25749,974.82,0,780,0
25759,974.79,0,777,0
25769,974.81,0,780,0
25779,974.87,0,777,0
25789,974.86,0,780,0
25799,974.86,0,777,0
25809,974.90,0,780,0
25819,974.97,0,777,0
25829,974.98,0,780,0
25839,974.94,0,777,0
25849,974.96,0,780,0
25859,975.02,0,777,0
25869,975.01,0,780,0
25879,974.96,0,777,0
25889,974.98,0,780,0
25900,974.94,0,777,0
25910,975.00,0,780,0
25920,974.87,0,777,0
25930,974.91,0,780,0
25940,974.55,0,777,0
25950,974.34,0,781,0
25960,974.03,0,777,0
25970,974.02,0,780,0
25980,973.50,0,777,0
25990,973.31,0,780,0
26000,972.96,0,777,0
26010,973.31,0,780,0
26020,973.09,0,777,0
26030,973.11,0,780,0
26040,972.86,0,777,0
26050,973.24,0,780,0
26060,973.04,0,777,0
26071,973.46,0,780,0
26081,972.89,0,778,0
26091,973.74,0,780,0
26101,973.52,0,778,0
26112,974.13,0,780,0
26121,973.79,0,778,0
26131,974.80,0,780,0
26141,974.30,0,778,0
26151,975.28,0,779,0
26161,974.43,0,778,0
26171,975.37,0,780,0
26181,974.62,0,778,0
26191,975.37,0,779,0
26201,974.40,0,778,0
26211,975.23,0,780,0
26221,974.43,0,778,0
26231,975.29,0,779,0
26241,974.43,0,778,0
26251,975.37,0,780,0
26261,974.62,0,778,0
26271,975.46,0,779,0
26281,974.72,0,778,0
26291,975.71,0,780,0
26301,974.98,0,778,0
26311,975.84,0,779,0
26321,975.12,0,778,0
26331,976.15,0,780,0
26341,975.42,0,778,0
26351,976.15,0,779,0
26361,975.34,0,778,0
26371,976.22,0,780,0
26381,975.38,0,778,0
26391,976.04,0,780,0
26401,975.17,0,778,0
26412,975.93,0,779,0
26422,975.22,0,778,0
26432,976.01,0,779,0
26442,975.07,0,779,0
26452,975.95,0,779,0
26462,975.32,0,778,0
26472,976.21,0,779,0
26482,975.50,0,779,0
26492,976.34,0,779,0
26502,975.64,0,778,0
26512,976.69,0,779,0
26522,975.88,0,779,0
26532,976.65,0,779,0
26542,975.81,0,778,0
26552,976.68,0,779,0
26562,975.75,0,779,0
26572,976.42,0,779,0
26583,975.35,0,779,0
26593,976.15,0,779,0
26603,975.16,0,780,0
26613,975.88,0,778,0
26624,975.10,0,780,0
26633,976.10,0,779,0
26643,975.21,0,780,0
26653,976.18,0,778,0
26663,975.48,0,779,0
26673,976.54,0,779,0
26683,975.65,0,780,0
26693,976.31,0,778,0
26703,975.45,0,779,0
26713,976.43,0,779,0
26723,975.48,0,780,0
26733,976.20,0,778,0
26743,975.32,0,780,0
26753,976.34,0,779,0
26763,975.51,0,779,0
26773,976.30,0,778,0
26783,975.48,0,780,0
26793,976.37,0,778,0
26803,975.40,0,779,0
26813,976.14,0,778,0
26823,975.24,0,780,0
26833,976.07,0,778,0
26843,975.02,0,779,0
26853,975.66,0,779,0
26863,974.82,0,780,0
26873,975.73,0,779,0
26883,974.74,0,780,0
26893,975.42,0,780,0
26903,974.65,0,780,0
26913,975.61,0,780,0
26924,974.83,0,780,0
26934,975.74,0,779,0
26944,974.92,0,780,0
26954,975.93,0,778,0
26964,975.39,0,780,0
26974,976.35,0,778,0
26984,975.51,0,780,0
26994,976.35,0,778,0
27004,975.60,0,780,0
27014,976.58,0,779,0
27024,975.72,0,780,0
27034,976.36,0,778,0
27044,975.61,0,780,0
27054,976.67,0,778,0
27064,975.91,0,780,0
27074,976.67,0,778,0
27084,975.95,0,780,0
27095,976.65,0,778,0
27105,975.69,0,780,0
27115,976.08,0,777,0
27125,975.07,0,780,0
27136,975.43,0,777,0
27145,974.23,0,780,0
27155,974.55,0,777,0
27165,973.83,0,780,0
27175,974.31,0,777,0
27185,973.40,0,780,0
27195,973.92,0,777,0
27205,973.48,0,780,0
27215,974.19,0,777,0
27225,973.40,0,780,0
27235,974.01,0,777,0
27245,973.62,0,780,0
27255,974.29,0,777,0
27265,973.48,0,780,0
27275,974.02,0,777,0
27285,973.54,0,780,0
27295,974.15,0,777,0
27305,973.68,0,780,0
27315,974.50,0,777,0
27325,974.22,0,780,0
27335,975.01,0,777,0
27345,974.67,0,780,0
27355,975.58,0,777,0
27365,975.36,0,780,0
27375,975.77,0,777,0
27385,975.15,0,780,0
27395,975.92,0,777,0
27405,975.56,0,780,0
27415,975.95,0,777,0
27425,975.32,0,780,0
27436,975.61,0,777,0
27446,975.43,0,780,0
27456,975.56,0,777,0
27466,974.96,0,780,0
27476,975.06,0,776,0
27486,974.66,0,780,0
27496,974.59,0,777,0
27506,974.37,0,780,0
27516,974.30,0,776,0
27526,974.17,0,780,0
27536,974.07,0,776,0
27546,974.01,0,780,0
27556,974.05,0,777,0
27566,973.99,0,780,0
27576,973.91,0,776,0
27586,973.85,0,780,0
27596,973.85,0,776,0
27607,973.85,0,780,0
27617,973.81,0,777,0
27627,973.83,0,780,0
27637,973.83,0,777,0
27648,973.93,0,780,0
27657,973.91,0,776,0
27667,973.98,0,780,0
27677,973.94,0,777,0
27687,974.04,0,780,0
27697,974.12,0,776,0
27707,974.30,0,780,0
27717,974.25,0,777,0
27727,974.39,0,780,0
27737,974.40,0,776,0
27747,974.58,0,780,0
27757,974.58,0,777,0
27767,974.62,0,780,0
27777,974.56,0,776,0
27787,974.65,0,780,0
27797,974.50,0,777,0
27807,974.48,0,780,0
27817,974.25,0,777,0
27827,974.17,0,780,0
27837,973.95,0,777,0
27847,973.92,0,780,0
27857,973.73,0,777,0
27867,973.73,0,780,0
27877,973.55,0,777,0
27887,973.64,0,780,0
27897,973.54,0,777,0
27907,973.59,0,780,0
27917,973.46,0,777,0
27927,973.58,0,780,0
27937,973.53,0,777,0
27948,973.80,0,780,0
27958,973.47,0,777,0
27968,973.93,0,780,0
27978,973.48,0,777,0
27988,974.07,0,780,0
27998,973.96,0,777,0
28008,974.49,0,780,0
28018,973.91,0,777,0
28028,974.71,0,780,0
28038,974.28,0,777,0
28048,975.23,0,780,0
28058,974.34,0,777,0
28068,974.97,0,780,0
28078,974.42,0,777,0
28088,975.28,0,780,0
28098,974.43,0,778,0
28108,975.03,0,780,0
28119,974.16,0,778,0
28129,975.01,0,780,0
28139,974.28,0,778,0
28149,974.84,0,780,0
28160,974.12,0,779,0
28169,975.02,0,780,0
28179,974.33,0,778,0
28189,975.30,0,780,0
28199,974.70,0,779,0
28209,975.52,0,780,0
28219,974.93,0,778,0
28229,975.77,0,780,0
28239,975.02,0,779,0
28249,975.79,0,780,0
28259,975.12,0,778,0
28269,975.81,0,780,0
28279,974.97,0,779,0
28289,975.66,0,780,0
28299,974.95,0,778,0
28309,975.65,0,779,0
28319,974.81,0,778,0
28329,975.47,0,778,0
28339,974.77,0,777,0
28349,975.48,0,779,0
28359,974.65,0,777,0
28369,975.40,0,778,0
28379,974.77,0,777,0
28389,975.56,0,779,0
28399,974.84,0,778,0
28409,975.70,0,779,0
28419,975.15,0,778,0
28429,976.00,0,779,0
28439,975.27,0,778,0
28449,976.09,0,779,0
28460,975.29,0,779,0
28470,976.06,0,779,0
28480,975.01,0,779,0
28490,975.61,0,779,0
28500,974.66,0,779,0
28510,975.32,0,779,0
28520,974.24,0,779,0
28530,975.02,0,779,0
28540,973.99,0,779,0
28550,974.85,0,779,0
28560,974.08,0,779,0
28570,975.17,0,779,0
28580,974.43,0,779,0
28590,975.50,0,779,0
28600,974.71,0,779,0
28610,975.78,0,779,0
28620,974.95,0,779,0
28631,975.78,0,778,0
28641,974.90,0,780,0
28651,975.70,0,778,0
28661,974.81,0,780,0
28672,975.64,0,777,0
28681,974.80,0,780,0
28691,975.68,0,778,0
28701,974.79,0,780,0
28711,975.49,0,777,0
28721,974.70,0,780,0
28731,975.48,0,778,0
28741,974.65,0,780,0
28751,975.40,0,777,0
28761,974.64,0,780,0
28771,975.43,0,778,0
28781,974.57,0,780,0
28791,975.30,0,777,0
28801,974.48,0,780,0
28811,975.19,0,778,0
28821,974.32,0,780,0
28831,975.08,0,777,0
28841,974.16,0,780,0
28851,974.84,0,778,0
28861,973.99,0,780,0
28871,974.76,0,777,0
28881,973.89,0,780,0
28891,974.61,0,778,0
28901,973.74,0,780,0
28911,974.68,0,777,0
28921,973.87,0,780,0
28931,974.55,0,778,0
28941,973.70,0,780,0
28951,974.61,0,778,0
28961,973.82,0,780,0
28972,974.61,0,777,0
28982,973.91,0,780,0
28992,974.62,0,777,0
29002,973.84,0,780,0
29012,974.48,0,777,0
29022,973.65,0,780,0
29032,974.19,0,777,0
29042,973.23,0,780,0
29052,973.72,0,777,0
29062,973.07,0,780,0
29072,973.69,0,777,0
29082,972.97,0,780,0
29092,973.62,0,777,0
29102,973.14,0,780,0
29112,973.82,0,777,0
29122,973.11,0,781,0
29132,973.80,0,777,0
29143,973.35,0,780,0
29153,973.93,0,777,0
29163,973.48,0,781,0
29173,973.89,0,777,0
29184,973.67,0,780,0
29193,974.45,0,777,0
29203,974.10,0,781,0
29213,974.54,0,777,0
29223,974.38,0,780,0
29233,974.91,0,777,0
29243,974.81,0,780,0
29253,975.04,0,777,0
29263,974.73,0,780,0
29273,975.15,0,777,0
29283,975.02,0,780,0
29293,975.23,0,777,0
29303,974.86,0,780,0
29313,975.29,0,777,0
29323,975.07,0,780,0
29333,975.18,0,777,0
29343,974.74,0,780,0
29353,974.69,0,776,0
29363,974.18,0,780,0
29373,974.13,0,777,0
29383,973.58,0,780,0
29393,973.49,0,776,0
29403,972.96,0,780,0
29413,972.88,0,777,0
29423,972.70,0,780,0
29433,972.88,0,777,0
29443,972.53,0,780,0
29453,972.58,0,777,0
29463,972.50,0,780,0
29473,972.78,0,776,0
29484,972.76,0,780,0
29494,972.83,0,776,0
29504,972.84,0,780,0
29514,973.14,0,776,0
29524,973.19,0,780,0
29534,973.34,0,777,0
29544,973.33,0,780,0
29554,973.36,0,777,0
29564,973.46,0,780,0
29574,973.54,0,777,0
29584,973.55,0,780,0
29594,973.56,0,777,0
29604,973.56,0,780,0
29614,973.56,0,776,0
29624,973.52,0,780,0
29634,973.45,0,776,0
29644,973.44,0,780,0
29655,973.40,0,777,0
29665,973.41,0,780,0
29675,973.28,0,777,0
29685,973.37,0,780,0
29696,973.09,0,777,0
29705,972.93,0,780,0
29715,972.70,0,777,0
29725,972.70,0,780,0
29735,972.23,0,777,0
29745,972.08,0,780,0
29755,971.75,0,777,0
29765,972.00,0,780,0
29775,971.74,0,777,0
29785,971.73,0,780,0
29795,971.51,0,777,0
29805,971.87,0,780,0
29815,971.74,0,777,0
29825,971.82,0,780,0
29835,971.66,0,777,0
29845,972.02,0,780,0
29855,971.88,0,777,0
29865,972.30,0,780,0
29875,972.38,0,777,0
29885,972.87,0,780,0
29895,972.82,0,777,0
29905,973.35,0,780,0
29915,973.50,0,777,0
29925,973.99,0,780,0
29935,973.65,0,777,0
29945,973.97,0,780,0
29955,973.98,0,777,0
29965,974.41,0,780,0
29975,973.99,0,777,0
29985,974.21,0,780,0
29996,973.72,0,777,0
30006,974.40,0,780,0
30016,973.64,0,778,0
30026,973.92,0,780,0
30036,973.43,0,778,0
30046,974.07,0,780,0
30056,973.32,0,778,0
30066,974.13,0,780,0
30076,973.36,0,778,0
30086,974.32,0,780,0
30096,973.54,0,778,0
30106,974.28,0,780,0
30116,973.51,0,778,0
30126,974.47,0,780,0
30136,973.60,0,778,0
30146,974.32,0,780,0
30156,973.54,0,778,0
30167,974.36,0,780,0
30177,973.70,0,778,0
30187,974.56,0,779,0
30197,973.75,0,779,0
30208,974.72,0,779,0
30217,974.12,0,778,0
30227,974.94,0,779,0
30237,974.19,0,779,0
30247,974.99,0,779,0
30257,974.26,0,778,0
30267,975.13,0,779,0
30277,974.32,0,779,0
30287,975.08,0,779,0
30297,974.41,0,778,0
30307,975.32,0,779,0
30317,974.54,0,779,0
30327,975.28,0,779,0
30337,974.59,0,778,0
30347,975.40,0,779,0
30357,974.47,0,779,0
30367,975.10,0,779,0
30377,974.17,0,779,0
30387,974.76,0,779,0
30397,973.76,0,779,0
30407,974.39,0,779,0
30417,973.50,0,779,0
30427,974.21,0,779,0
30437,973.29,0,779,0
30447,974.10,0,779,0
30457,973.34,0,779,0
30467,974.10,0,779,0
30477,973.17,0,779,0
30487,973.97,0,779,0
30497,973.21,0,779,0
30508,974.09,0,779,0
30518,973.33,0,779,0
30528,974.35,0,778,0
30538,973.73,0,779,0
30548,974.63,0,778,0
30558,973.84,0,779,0
30568,974.79,0,778,0
30578,973.99,0,780,0
30588,974.72,0,778,0
30598,973.74,0,779,0
30608,974.54,0,778,0
30618,973.69,0,779,0
30628,974.43,0,778,0
30638,973.49,0,779,0
30648,974.33,0,778,0
30658,973.54,0,779,0
30668,974.32,0,778,0
30679,973.50,0,780,0
30689,974.33,0,778,0
30699,973.51,0,780,0
30709,974.34,0,778,0
30720,973.47,0,780,0
30729,974.27,0,778,0
30739,973.46,0,780,0
30749,974.22,0,778,0
30759,973.43,0,780,0
30769,974.33,0,778,0
30779,973.50,0,780,0
30789,974.34,0,778,0
30799,973.51,0,780,0
30809,974.30,0,778,0
30819,973.39,0,780,0
30829,974.13,0,778,0
30839,973.19,0,780,0
30849,973.91,0,778,0
30859,972.91,0,780,0
30869,973.66,0,777,0
30879,972.78,0,780,0
30889,973.44,0,777,0
30899,972.50,0,780,0
30909,973.33,0,777,0
30919,972.55,0,780,0
30929,973.33,0,777,0
30939,972.46,0,780,0
30949,973.31,0,777,0
30959,972.57,0,780,0
30969,973.34,0,777,0
30979,972.47,0,780,0
30989,973.27,0,777,0
30999,972.50,0,780,0
31009,973.21,0,777,0
31020,972.59,0,780,0
31030,973.40,0,777,0
31040,972.72,0,780,0
31050,973.49,0,777,0
31060,972.96,0,780,0
31070,973.87,0,776,0
31080,973.27,0,780,0
31090,973.79,0,777,0
31100,973.29,0,781,0
31110,974.06,0,776,0
31120,973.40,0,780,0
31130,973.84,0,777,0
31140,973.24,0,780,0
31150,973.94,0,777,0
31160,973.23,0,780,0
31170,973.63,0,777,0
31180,973.06,0,780,0
31191,973.51,0,776,0
31201,973.10,0,780,0
31211,973.29,0,777,0
31221,972.94,0,780,0
31232,973.30,0,776,0
31241,972.83,0,780,0
31251,973.01,0,777,0
31261,972.83,0,780,0
31271,972.84,0,776,0
31281,972.55,0,780,0
31291,972.47,0,777,0
31301,972.41,0,780,0
31311,972.50,0,776,0
31321,972.22,0,780,0
31331,972.20,0,777,0
31341,972.18,0,780,0
31351,972.34,0,776,0
31361,972.11,0,780,0
31371,972.16,0,777,0
31381,972.20,0,780,0
31391,972.44,0,776,0
31401,972.48,0,781,0
31411,972.72,0,777,0
31421,972.80,0,780,0
31431,973.08,0,776,0
31441,973.10,0,781,0
31451,973.33,0,777,0
31461,973.44,0,780,0
31471,973.52,0,776,0
31481,973.45,0,781,0
31491,973.66,0,777,0
31501,973.76,0,780,0
31511,973.88,0,777,0
31521,973.83,0,781,0
31532,973.88,0,777,0
31542,973.92,0,780,0
31552,973.94,0,776,0
31562,973.83,0,781,0
31572,973.71,0,777,0
31582,973.58,0,780,0
31592,973.45,0,776,0
31602,973.40,0,781,0
31612,973.28,0,777,0
31622,973.11,0,780,0
31632,972.95,0,777,0
31642,972.96,0,780,0
31652,972.93,0,777,0
31662,972.91,0,780,0
31672,972.81,0,777,0
31682,972.87,0,780,0
31692,972.86,0,777,0
31703,972.95,0,780,0
31713,972.83,0,777,0
31723,972.97,0,781,0
31733,972.64,0,777,0
31744,972.92,0,780,0
31753,972.94,0,777,0
31763,973.22,0,780,0
31773,972.89,0,777,0
31783,973.31,0,780,0
31793,973.35,0,777,0
31803,973.93,0,780,0
31813,973.39,0,777,0
31823,973.66,0,780,0
31833,973.59,0,777,0
31843,974.10,0,780,0
31853,973.51,0,777,0
31863,973.66,0,780,0
31873,973.55,0,777,0
31883,973.98,0,780,0
31893,973.35,0,777,0
31903,973.46,0,780,0
31913,972.76,0,778,0
31923,972.83,0,780,0
31933,972.03,0,777,0
31943,971.98,0,780,0
31953,971.21,0,778,0
31963,971.19,0,780,0
31973,970.36,0,777,0
31983,970.90,0,780,0
31993,970.50,0,778,0
32003,970.69,0,780,0
32013,970.06,0,777,0
32023,970.68,0,780,0
32033,970.43,0,778,0
32044,971.29,0,780,0
32054,970.65,0,778,0
32064,971.52,0,780,0
32074,971.54,0,778,0
32084,972.49,0,779,0
32094,972.00,0,778,0
32104,972.99,0,780,0
32114,972.43,0,778,0
32124,973.37,0,779,0
32134,972.58,0,778,0
32144,973.22,0,780,0
32154,972.55,0,778,0
32164,973.37,0,779,0
32174,972.49,0,778,0
32184,973.16,0,780,0
32194,972.51,0,778,0
32204,973.43,0,779,0
32215,972.83,0,779,0
32225,973.61,0,779,0
32235,972.91,0,779,0
32245,973.88,0,779,0
32256,973.10,0,779,0
32265,973.80,0,779,0
32275,972.96,0,779,0
32285,973.66,0,779,0
32295,972.73,0,779,0
32305,973.46,0,779,0
32315,972.50,0,779,0
32325,973.34,0,779,0
32335,972.51,0,779,0
32345,973.30,0,779,0
32355,972.44,0,779,0
32365,973.29,0,779,0
32375,972.48,0,779,0
32385,973.28,0,779,0
32395,972.38,0,779,0
32405,973.25,0,779,0
32415,972.49,0,779,0
32425,973.46,0,779,0
32435,972.68,0,779,0
32445,973.63,0,779,0
32455,972.93,0,779,0
32465,973.89,0,779,0
32475,973.11,0,779,0
32485,974.06,0,779,0
32495,973.19,0,779,0
32505,974.03,0,779,0
32515,973.16,0,779,0
32525,974.06,0,779,0
32535,973.18,0,779,0
32545,974.03,0,779,0
32556,973.12,0,779,0
32566,974.07,0,778,0
32576,973.28,0,780,0
32586,974.01,0,778,0
32596,973.15,0,780,0
32606,974.13,0,779,0
32616,973.32,0,779,0
32626,974.13,0,778,0
32636,973.27,0,780,0
32646,974.22,0,779,0
32656,973.51,0,779,0
32666,974.26,0,778,0
32676,973.32,0,780,0
32686,974.21,0,779,0
32696,973.42,0,779,0
32706,974.02,0,778,0
32716,973.03,0,780,0
32727,973.79,0,778,0
32737,972.91,0,780,0
32747,973.62,0,778,0
32757,972.58,0,780,0
32768,973.13,0,777,0
32777,972.15,0,779,0
32787,972.83,0,778,0
32797,971.90,0,780,0
32807,972.53,0,777,0
32817,971.47,0,780,0
32827,972.19,0,778,0
32837,971.44,0,780,0
32847,972.21,0,777,0
32857,971.21,0,780,0
32867,971.96,0,778,0
32877,971.20,0,780,0
32887,972.04,0,777,0
32897,971.17,0,780,0
32907,972.02,0,778,0
32917,971.33,0,780,0
32927,972.22,0,777,0
32937,971.68,0,780,0
32947,972.85,0,778,0
32957,972.34,0,780,0
32967,973.31,0,777,0
32977,972.87,0,780,0
32987,974.11,0,778,0
32997,973.61,0,780,0
33007,974.37,0,777,0
33017,973.74,0,780,0
33027,974.81,0,778,0
33037,974.18,0,780,0
33047,974.85,0,777,0
33057,974.17,0,780,0
33068,974.98,0,777,0
33078,974.17,0,780,0
33088,974.59,0,777,0
33098,973.68,0,780,0
33108,974.08,0,777,0
33118,972.98,0,780,0
33128,973.20,0,777,0
33138,972.41,0,780,0
33148,972.80,0,777,0
33158,971.83,0,780,0
33168,972.18,0,777,0
33178,971.70,0,780,0
33188,972.26,0,777,0
33198,971.41,0,780,0
33208,971.89,0,777,0
33218,971.45,0,780,0
33228,972.04,0,777,0
33239,971.60,0,780,0
33249,971.89,0,777,0
33259,971.75,0,780,0
33269,972.26,0,777,0
33280,971.96,0,780,0
33289,972.45,0,777,0
33299,972.44,0,780,0
33309,972.69,0,777,0
33319,972.74,0,780,0
33329,972.99,0,777,0
33339,973.12,0,780,0
33349,973.17,0,776,0
33359,972.99,0,780,0
33369,973.08,0,777,0
33379,973.06,0,780,0
33389,973.00,0,777,0
33399,972.83,0,780,0
33409,972.92,0,777,0
33419,972.90,0,780,0
33429,972.89,0,776,0
33439,972.75,0,780,0
33449,972.70,0,777,0
33459,972.57,0,780,0
33469,972.49,0,776,0
33479,972.30,0,780,0
33489,972.29,0,777,0
33499,972.16,0,780,0
33509,972.07,0,776,0
33519,972.05,0,780,0
33529,972.12,0,777,0
33539,972.04,0,780,0
33549,971.99,0,776,0
33559,971.95,0,780,0
33569,972.05,0,777,0
33580,972.08,0,780,0
33590,972.05,0,776,0
33600,972.12,0,780,0
33610,972.22,0,777,0
33620,972.32,0,780,0
33630,972.40,0,776,0
33640,972.49,0,780,0
33650,972.52,0,777,0
33660,972.62,0,780,0
33670,972.60,0,776,0
33680,972.68,0,780,0
33690,972.60,0,777,0
33700,972.59,0,780,0
33710,972.59,0,776,0
33720,972.63,0,780,0
33730,972.52,0,777,0
33740,972.54,0,780,0
33751,972.42,0,777,0
33761,972.51,0,780,0
33771,972.14,0,777,0
33781,972.31,0,780,0
33792,971.83,0,777,0
33801,971.67,0,780,0
33811,971.17,0,777,0
33821,971.38,0,780,0
33831,970.79,0,777,0
33841,970.81,0,780,0
33851,970.10,0,777,0
33861,970.67,0,780,0
33871,970.34,0,778,0
33881,970.49,0,780,0
33891,969.87,0,777,0
33901,970.51,0,780,0
33911,970.32,0,778,0
33921,970.52,0,780,0
33931,969.98,0,777,0
33941,970.67,0,780,0
33951,970.51,0,778,0
33961,971.39,0,780,0
33971,971.31,0,777,0
33981,972.25,0,780,0
33991,972.30,0,778,0
34001,973.28,0,780,0
34011,973.33,0,777,0
34021,974.39,0,780,0
34031,973.93,0,778,0
34041,974.51,0,780,0
34051,974.35,0,777,0
34061,975.19,0,780,0
34071,974.58,0,777,0
34081,975.00,0,780,0
34092,974.10,0,778,0
34102,974.71,0,780,0
34112,973.90,0,778,0
34122,974.10,0,780,0
34132,973.30,0,779,0
34142,974.07,0,780,0
34152,973.32,0,778,0
34162,974.17,0,780,0
34172,973.43,0,779,0
34182,974.33,0,780,0
34192,973.67,0,778,0
34202,974.37,0,780,0
34212,973.40,0,779,0
34222,974.14,0,780,0
34232,973.41,0,778,0
34242,974.15,0,779,0
34252,973.29,0,779,0
34263,974.02,0,779,0
34273,973.20,0,779,0
34283,973.99,0,779,0
34293,973.01,0,779,0
34304,973.74,0,779,0
34313,972.87,0,779,0
34323,973.55,0,779,0
34333,972.57,0,779,0
34343,973.39,0,779,0
34353,972.54,0,779,0
34363,973.49,0,779,0
34373,972.62,0,779,0
34383,973.55,0,779,0
34393,972.78,0,779,0
34403,973.79,0,779,0
34413,972.95,0,779,0
34423,973.82,0,779,0
34433,972.98,0,779,0
34443,973.93,0,779,0
34453,973.05,0,779,0
34463,973.85,0,779,0
34473,972.99,0,779,0
34483,973.90,0,779,0
34493,972.94,0,779,0
34503,973.73,0,779,0
34513,972.74,0,779,0
34523,973.50,0,779,0
34533,972.50,0,779,0
34543,973.29,0,779,0
34553,972.35,0,779,0
34563,973.27,0,779,0
34573,972.33,0,779,0
34583,973.18,0,779,0
34593,972.27,0,779,0
34604,973.21,0,778,0
34614,972.25,0,780,0
34624,973.08,0,778,0
34634,972.24,0,780,0
34644,973.11,0,778,0
34654,972.18,0,780,0
34664,973.07,0,778,0
34674,972.32,0,780,0
34684,973.25,0,778,0
34694,972.28,0,779,0
34704,972.84,0,779,0
34714,972.07,0,779,0
34724,972.99,0,779,0
34734,972.05,0,780,0
34744,972.89,0,780,0
34754,972.24,0,779,0
34764,973.24,0,779,0
34775,972.52,0,779,0
34785,973.35,0,778,0
34795,972.43,0,780,0
34805,973.33,0,777,0
34816,972.63,0,780,0
34825,973.47,0,779,0
34835,972.60,0,780,0
34845,973.58,0,778,0
34855,972.93,0,780,0
34865,974.11,0,778,0
34875,973.39,0,779,0
34885,974.05,0,778,0
34895,973.22,0,780,0
34905,974.27,0,778,0
34915,973.37,0,780,0
34925,974.03,0,778,0
34935,973.04,0,780,0
34945,973.84,0,778,0
34955,972.86,0,780,0
34965,973.46,0,778,0
34975,972.46,0,781,0
34985,973.01,0,777,0
34995,971.81,0,780,0
35005,972.38,0,777,0
35015,971.37,0,780,0
35025,971.90,0,777,0
35035,970.73,0,780,0
35045,971.37,0,777,0
35055,970.66,0,780,0
35065,971.36,0,777,0
35075,970.31,0,780,0
35085,971.07,0,778,0
35095,970.41,0,780,0
35105,971.23,0,777,0
35116,970.52,0,780,0
35126,971.39,0,777,0
35136,970.93,0,780,0
35146,971.81,0,777,0
35156,971.35,0,780,0
35166,972.40,0,777,0
35176,971.98,0,780,0
35186,972.67,0,777,0
35196,972.26,0,780,0
35206,973.21,0,777,0
35216,972.80,0,780,0
35226,973.33,0,777,0
35236,972.80,0,780,0
35246,973.72,0,777,0
35256,973.20,0,780,0
35266,973.66,0,777,0
35276,973.03,0,780,0
35287,973.54,0,776,0
35297,973.16,0,780,0
35307,973.24,0,777,0
35317,972.61,0,780,0
35328,972.81,0,776,0
35337,972.23,0,780,0
35347,972.29,0,776,0
35357,972.03,0,780,0
35367,972.02,0,776,0
35377,971.76,0,780,0
35387,971.74,0,776,0
35397,971.69,0,780,0
35407,971.83,0,777,0
35417,971.62,0,780,0
35427,971.56,0,777,0
35437,971.52,0,780,0
35447,971.67,0,776,0
35457,971.42,0,780,0
35467,971.43,0,777,0
35477,971.38,0,780,0
35487,971.53,0,776,0
35497,971.54,0,780,0
35507,971.72,0,776,0
35517,971.80,0,780,0
35527,972.08,0,776,0
35537,972.14,0,780,0
35547,972.35,0,777,0
35557,972.42,0,780,0
35567,972.47,0,776,0
35577,972.33,0,780,0
35587,972.44,0,776,0
35597,972.44,0,780,0
35607,972.44,0,779,0
35617,972.30,0,780,0
35628,972.38,0,778,0
35638,972.36,0,780,0
35648,972.29,0,777,0
35658,972.12,0,780,0
35668,972.08,0,778,0
35678,972.02,0,780,0
35688,971.97,0,778,0
35698,971.93,0,780,0
35708,972.00,0,778,0
35718,972.04,0,780,0
35728,972.03,0,777,0
35738,972.02,0,780,0
35748,971.97,0,777,0
35758,971.85,0,780,0
35768,971.77,0,778,0
35778,971.71,0,780,0
35788,971.67,0,779,0
35799,971.68,0,780,0
35809,971.65,0,780,0
35819,971.88,0,780,0
35829,971.70,0,778,0
35840,971.96,0,780,0
35849,972.10,0,778,0
35859,972.42,0,780,0
35869,972.16,0,778,0
35879,972.54,0,780,0
35889,972.59,0,778,0
35899,973.19,0,780,0
35909,972.62,0,777,0
35919,972.69,0,780,0
35929,972.48,0,778,0
35939,972.89,0,780,0
35949,972.28,0,777,0
35959,972.33,0,780,0
35969,972.14,0,777,0
35979,972.66,0,780,0
35989,972.29,0,778,0
35999,972.59,0,780,0
36009,972.07,0,778,0
36019,972.18,0,780,0
36029,971.52,0,778,0
36039,971.58,0,780,0
36049,970.98,0,778,0
36059,970.94,0,780,0
36069,970.19,0,777,0
36079,970.65,0,780,0
36089,970.37,0,778,0
36099,970.60,0,780,0
36109,970.12,0,777,0
36119,970.68,0,779,0
36129,929.34,0,775,0
36140,858.99,0,777,0
36150,767.71,0,775,0
36160,662.67,0,777,0
36170,547.35,0,776,0
36180,457.72,0,777,0
36190,385.46,0,775,0
36200,367.41,0,778,0
36210,387.30,0,776,0
36220,433.75,0,777,0
36230,498.80,0,775,0
36240,576.86,0,778,0
36250,631.50,0,776,0
36260,669.75,0,777,0
36270,696.53,0,776,0
36280,715.27,0,778,0
36290,728.39,0,776,0
36300,737.57,0,777,0
36311,744.00,0,776,0
36321,748.50,0,777,0
36331,751.65,0,776,0
36341,753.85,0,777,0
36352,755.40,0,776,0
36361,756.48,0,777,0
36371,757.24,0,776,0
36381,757.76,0,777,0
36391,758.14,0,777,0
36401,758.39,0,777,0
36411,758.58,0,776,0
36421,758.70,0,777,0
36431,758.79,0,777,0
36441,758.81,0,777,0
36451,758.83,0,776,0
36461,758.83,0,777,0
36471,758.84,0,777,0
36481,758.80,0,777,0
36491,758.78,0,776,0
36501,758.76,0,777,0
36511,758.79,0,776,0
36521,758.77,0,777,0
36531,758.75,0,776,0
36541,758.74,0,777,0
36551,758.77,0,776,0
36561,758.76,0,777,0
36571,758.74,0,777,0
36581,758.74,0,777,0
36591,758.77,0,776,0
36601,758.80,0,777,0
36611,758.82,0,776,0
36621,758.83,0,777,0
36631,758.88,0,776,0
36641,758.87,0,777,0
36652,758.87,0,777,0
36662,758.86,0,777,0
36672,758.86,0,777,0
36682,758.82,0,777,0
36692,758.79,0,777,0
36702,758.77,0,777,0
36712,758.79,0,777,0
36722,758.77,0,777,0
36732,758.75,0,777,0
36742,758.74,0,777,0
36752,758.78,0,777,0
36762,758.76,0,776,0
36772,758.74,0,777,0
36782,758.74,0,777,0
36792,758.77,0,777,0
36802,758.75,0,776,0
36812,758.74,0,777,0
36823,758.73,0,776,0
36833,758.77,0,778,0
36843,758.75,0,776,0
36853,758.74,0,778,0
36864,758.73,0,776,0
36873,758.77,0,778,0
36883,758.75,0,776,0
36893,758.74,0,778,0
36903,758.73,0,776,0
36913,758.77,0,778,0
36923,758.75,0,776,0
36933,758.74,0,778,0
36943,758.73,0,776,0
36953,758.77,0,778,0
36963,758.80,0,776,0
36973,758.81,0,778,0
36983,758.83,0,776,0
36993,758.88,0,777,0
37003,758.87,0,776,0
37013,758.87,0,778,0
37023,758.86,0,776,0
37033,758.86,0,778,0
37043,758.82,0,776,0
37053,758.79,0,778,0
37063,758.77,0,776,0
37073,758.79,0,777,0
37083,758.77,0,777,0
37093,758.75,0,777,0
37103,758.74,0,777,0
37113,758.78,0,777,0
37123,758.76,0,777,0
37133,758.70,0,777,0
37143,758.62,0,778,0
37153,758.56,0,777,0
37164,758.48,0,777,0
37174,758.38,0,778,0
37184,758.26,0,777,0
37194,758.19,0,778,0
37204,758.13,0,777,0
37214,758.13,0,778,0
37224,758.14,0,777,0
37234,758.14,0,777,0
37244,758.14,0,777,0
37254,758.18,0,778,0
37264,758.21,0,777,0
37274,758.28,0,777,0
37284,758.28,0,777,0
37294,758.33,0,778,0
37304,758.36,0,777,0
37314,758.42,0,778,0
37324,758.47,0,777,0
37335,758.54,0,778,0
37345,758.59,0,777,0
37355,758.67,0,778,0
37365,758.73,0,777,0
37376,758.81,0,778,0
37385,758.87,0,777,0
37395,758.91,0,778,0
37405,758.93,0,777,0
37415,758.95,0,778,0
37425,758.97,0,776,0
37435,758.98,0,777,0
37445,758.98,0,776,0
37455,758.99,0,778,0
37465,758.99,0,776,0
37475,758.99,0,777,0
37485,759.00,0,775,0
37495,759.00,0,778,0
37505,758.96,0,775,0
37515,758.93,0,778,0
37525,758.86,0,777,0
37535,758.78,0,778,0
37545,758.71,0,776,0
37555,758.67,0,777,0
37565,758.64,0,777,0
37575,758.62,0,777,0
37585,758.61,0,776,0
37595,758.64,0,777,0
37605,758.70,0,777,0
37615,758.71,0,778,0
37625,758.71,0,775,0
37635,758.71,0,778,0
37645,758.75,0,775,0
37655,758.79,0,778,0
37665,758.81,0,775,0
37676,758.82,0,778,0
37686,758.88,0,775,0
37696,758.87,0,778,0
37706,758.87,0,775,0
37716,758.86,0,778,0
37726,758.86,0,775,0
37736,758.82,0,778,0
37746,758.74,0,775,0
37756,758.65,0,778,0
37766,758.63,0,775,0
37776,758.57,0,778,0
37786,758.53,0,775,0
37796,758.50,0,778,0
37806,758.48,0,775,0
37816,758.46,0,778,0
37826,758.45,0,775,0
37836,758.44,0,778,0
37847,758.44,0,775,0
37857,758.39,0,778,0
37867,758.32,0,775,0
37877,758.31,0,778,0
37888,758.34,0,775,0
37897,758.37,0,778,0
37907,758.34,0,775,0
37917,758.33,0,778,0
37927,758.31,0,775,0
37937,758.31,0,778,0
37947,758.26,0,775,0
37957,758.18,0,778,0
37967,758.17,0,775,0
37977,758.16,0,778,0
37987,758.16,0,775,0
37997,758.15,0,778,0
38007,758.15,0,775,0
38017,758.15,0,778,0
38027,758.15,0,775,0
38037,758.10,0,778,0
38047,758.07,0,775,0
38057,758.05,0,778,0
38067,758.04,0,775,0
38077,758.02,0,778,0
38087,758.06,0,775,0
38097,758.13,0,778,0
38107,758.22,0,775,0
38117,758.32,0,778,0
38127,758.44,0,775,0
38137,758.57,0,778,0
38147,758.70,0,775,0
38157,758.79,0,778,0
38167,758.85,0,775,0
38177,758.90,0,778,0
38188,758.93,0,775,0
38198,758.95,0,778,0
38208,758.96,0,776,0
38218,758.98,0,778,0
38228,758.98,0,776,0
38238,758.99,0,778,0
38248,758.99,0,776,0
38258,758.99,0,777,0
38278,759.00,0,777,0
38281,758.95,0,777,0
38290,758.93,0,777,0
38300,758.90,0,777,0
38310,758.89,0,777,0
38320,758.88,0,777,0
38330,758.87,0,777,0
38340,755.10,0,777,0
38350,745.68,0,777,0
38360,729.41,0,777,0
38370,706.18,0,776,0
38380,675.91,0,777,0
38390,639.68,0,777,0
38401,598.04,0,777,0
38411,555.98,0,777,0
38421,516.13,0,776,0
38431,480.78,0,777,0
38441,450.37,0,776,0
38451,425.96,0,777,0
38461,406.60,0,776,0
38471,392.36,0,777,0
38481,382.10,0,776,0
38491,375.38,0,777,0
38501,370.85,0,776,0
38511,368.50,0,777,0
38521,366.93,0,776,0
38531,366.18,0,777,0
38541,365.23,0,776,0
38551,364.17,0,777,0
38561,362.41,0,776,0
38572,360.36,0,777,0
38582,357.25,0,776,0
38592,353.92,0,777,0
38602,349.96,0,775,0
38612,346.07,0,778,0
38622,341.85,0,776,0
38632,338.04,0,777,0
38642,334.21,0,775,0
38652,331.15,0,778,0
38662,328.28,0,775,0
38672,326.18,0,777,0
38682,324.41,0,775,0
38692,323.52,0,778,0
38702,322.89,0,776,0
38712,323.01,0,777,0
38722,323.35,0,776,0
38732,324.36,0,778,0
38743,325.54,0,775,0
38753,327.39,0,778,0
38763,329.97,0,775,0
38773,334.61,0,778,0
38784,342.31,0,775,0
38793,354.82,0,778,0
38803,373.47,0,775,0
38813,400.33,0,778,0
38823,436.02,0,775,0
38833,478.18,0,778,0
38852,523.51,575,777,0
38855,569.17,575,778,0
38864,612.49,575,775,0
38874,651.09,575,778,0
38884,682.52,575,775,0
38894,705.42,575,778,0
38904,721.49,575,775,0
38914,732.75,575,778,0
38924,740.62,575,775,0
38934,746.14,575,778,0
38944,749.99,575,775,0
38955,752.70,575,778,0
38964,754.59,575,775,0
38974,753.21,575,778,0
38984,745.78,575,775,0
38994,730.67,575,778,0
39004,707.37,575,775,0
39014,675.76,575,778,0
39024,635.93,575,775,0
39034,588.77,575,778,0
39044,538.05,575,775,0
39054,488.02,575,778,0
39064,441.56,575,775,0
39074,400.76,575,778,0
39084,366.98,575,775,0
39094,341.44,575,778,0
39104,324.21,575,775,0
39114,315.15,575,778,0
39124,313.39,575,774,0
39134,318.16,575,778,0
39144,327.92,575,775,0
39154,341.49,575,778,0
39164,357.16,575,774,0
39174,373.65,575,778,0
39184,389.53,575,774,0
39194,403.90,575,778,0
39204,415.84,575,774,0
39214,424.93,575,778,0
39224,430.65,575,774,0
39234,433.16,575,778,0
39244,432.34,575,774,0
39255,428.59,575,778,0
39265,422.24,575,775,0
39275,413.86,575,778,0
39285,403.83,575,774,0
39296,392.87,575,778,0
39305,381.33,575,774,0
39315,369.96,575,778,0
39325,358.92,575,774,0
39335,348.70,575,778,0
39345,339.36,575,775,0
39355,331.28,575,778,0
39365,324.60,575,774,0
39375,319.27,575,778,0
39385,315.21,575,775,0
39395,312.49,575,778,0
39405,310.84,575,774,0
39415,310.25,575,778,0
39425,310.52,575,775,0
39435,311.56,575,778,0
39445,313.62,575,774,0
39455,317.38,575,778,0
39465,324.04,575,775,0
39475,334.91,575,778,0
39485,351.78,575,774,0
39495,376.57,575,778,0
39505,410.73,575,775,0
39515,452.73,575,778,0
39525,499.09,575,775,0
39535,546.72,575,778,0
39545,592.96,575,775,0
39555,635.10,575,778,0
39565,670.47,575,775,0
39575,696.99,575,778,0
39585,715.55,575,775,0
39596,728.58,575,778,0
39615,737.71,763,777,0
39617,744.10,763,778,0
39627,748.57,763,776,0
39638,751.70,763,777,0
39647,753.89,763,775,0
39657,755.42,763,778,0
39667,756.50,763,776,0
39677,753.69,763,778,0
39687,744.74,763,775,0
39697,727.76,763,778,0
39707,701.95,763,776,0
39717,667.21,763,778,0
39727,624.50,763,775,0
39737,574.55,763,778,0
39747,522.31,763,776,0
39757,471.43,763,778,0
39767,425.45,763,775,0
39777,386.61,763,778,0
39787,356.56,763,776,0
39797,335.30,763,777,0
39808,323.26,763,776,0
39817,319.28,763,778,0
39827,322.67,763,775,0
39837,331.72,763,777,0
39847,345.09,763,776,0
39857,360.71,763,778,0
39867,377.30,763,775,0
39877,393.11,763,777,0
39887,407.43,763,776,0
39897,419.00,763,778,0
39907,427.57,763,775,0
39917,432.46,763,778,0
39927,433.99,763,776,0
39937,432.07,763,778,0
39947,427.29,763,776,0
39957,419.79,763,778,0
39967,410.38,763,776,0
39977,399.21,763,777,0
39987,387.27,763,775,0
39997,374.85,763,777,0
40007,362.68,763,776,0
40017,350.73,763,778,0
40027,339.88,763,775,0
40037,330.02,763,777,0
40047,321.74,763,776,0
40057,314.75,763,777,0
40067,309.38,763,775,0
40077,305.28,763,778,0
40087,302.75,763,776,0
40097,301.37,763,777,0
40108,301.77,763,776,0
40118,304.03,763,777,0
40128,309.59,763,776,0
40138,319.66,763,777,0
40148,336.43,763,777,0
40158,361.03,763,777,0
40168,395.39,763,776,0
40178,438.09,763,777,0
40188,485.89,763,777,0
40198,535.34,763,777,0
40208,583.49,763,776,0
40218,627.23,763,777,0
40228,664.53,763,777,0
40238,692.87,763,777,0
40248,712.71,763,776,0
40258,726.60,763,777,0
40268,736.32,763,777,0
40279,743.12,763,777,0
40289,747.89,763,777,0
40308,751.22,693,776,0
40310,753.60,693,778,0
40321,755.26,693,776,0
40331,756.43,693,778,0
40341,756.73,693,775,0
40351,752.74,693,778,0
40361,741.59,693,775,0
40371,722.51,693,778,0
40381,694.50,693,775,0
40391,658.09,693,778,0
40401,613.79,693,775,0
40411,563.67,693,778,0
40421,512.21,693,775,0
40431,464.15,693,778,0
40441,421.59,693,775,0
40451,387.13,693,778,0
40461,361.20,693,775,0
40471,344.56,693,778,0
40481,336.08,693,775,0
40492,335.41,693,778,0
40502,340.64,693,775,0
40512,350.57,693,778,0
40522,363.17,693,775,0
40532,377.26,693,778,0
40542,390.94,693,775,0
40552,403.43,693,778,0
40562,413.37,693,775,0
40572,420.59,693,778,0
40582,424.35,693,775,0
40592,424.98,693,778,0
40602,422.24,693,775,0
40612,416.85,693,778,0
40622,408.88,693,775,0
40632,399.23,693,778,0
40642,388.06,693,777,0
40652,376.26,693,778,0
40663,363.92,693,777,0
40673,351.95,693,778,0
40683,340.35,693,777,0
40693,329.83,693,778,0
40704,320.37,693,777,0
40713,312.50,693,778,0
40723,306.05,693,777,0
40733,301.32,693,778,0
40743,298.05,693,777,0
40753,296.37,693,778,0
40763,295.83,693,776,0
40773,296.65,693,778,0
40783,298.90,693,776,0
40793,303.34,693,778,0
40803,311.08,693,776,0
40813,323.92,693,778,0
40823,343.78,693,776,0
40833,372.65,693,778,0
40843,411.88,693,776,0
40853,457.77,693,778,0
40863,507.17,693,776,0
40873,557.05,693,779,0
40883,604.35,693,775,0
40893,646.16,693,778,0
40903,679.97,693,775,0
40913,703.68,693,778,0
40923,720.32,693,775,0
40933,731.96,693,778,0
40943,740.12,693,775,0
40953,745.83,693,778,0
40972,749.82,664,777,0
40974,752.66,664,779,0
40984,754.65,664,775,0
40994,756.00,664,778,0
41004,756.94,664,775,0
41014,757.60,664,778,0
41024,758.06,664,775,0
41034,757.32,664,778,0
41044,751.78,664,775,0
41054,739.59,664,778,0
41064,719.40,664,775,0
41074,690.95,664,778,0
41084,654.75,664,775,0
41094,611.93,664,778,0
41104,564.76,664,775,0
41114,518.16,664,778,0
41124,475.47,664,775,0
41134,439.33,664,778,0
41144,411.12,664,775,0
41154,391.15,664,778,0
41164,378.98,664,776,0
41175,373.71,664,778,0
41185,374.19,664,776,0
41195,378.80,664,778,0
41205,386.15,664,776,0
41216,394.59,664,778,0
41225,403.03,664,775,0
41235,410.22,664,778,0
41245,415.47,664,776,0
41255,418.16,664,778,0
41265,418.19,664,775,0
41275,415.52,664,778,0
41285,410.35,664,775,0
41295,402.70,664,778,0
41305,393.32,664,775,0
41315,382.51,664,778,0
41325,371.00,664,776,0
41335,359.09,664,778,0
41345,347.32,664,775,0
41355,336.16,664,778,0
41365,326.26,664,776,0
41375,317.48,664,778,0
41385,310.22,664,776,0
41395,304.37,664,778,0
41405,300.19,664,775,0
41415,297.35,664,778,0
41425,295.96,664,776,0
41435,295.71,664,778,0
41445,296.48,664,775,0
41455,298.01,664,778,0
41465,300.24,664,775,0
41475,303.08,664,778,0
41485,306.96,664,775,0
41495,312.45,664,778,0
41505,321.02,664,775,0
41516,334.60,664,777,0
41526,355.55,664,776,0
41536,385.90,664,778,0
41546,425.79,664,776,0
41556,471.66,664,777,0
41566,520.54,664,776,0
41576,569.45,664,778,0
41586,615.47,664,776,0
41596,655.44,664,778,0
41606,686.72,664,776,0
41616,708.62,664,778,0
41626,723.99,664,776,0
41646,734.79,673,775,0
41648,742.36,673,777,0
41658,747.65,673,777,0
41668,751.35,673,777,0
41678,753.91,673,777,0
41688,755.69,673,777,0
41698,756.94,673,777,0
41708,757.82,673,777,0
41718,758.39,673,777,0
41729,757.54,673,777,0
41739,751.42,673,776,0
41749,737.88,673,777,0
41759,715.37,673,776,0
41769,684.19,673,778,0
41779,644.75,673,776,0
41789,598.24,673,777,0
41799,546.87,673,776,0
41809,496.33,673,778,0
41819,450.16,673,776,0
41829,411.37,673,777,0
41839,380.66,673,776,0
41849,358.82,673,778,0
41859,345.12,673,776,0
41869,339.30,673,777,0
41879,339.51,673,776,0
41889,344.67,673,778,0
41900,352.83,673,776,0
41910,362.95,673,778,0
41920,373.12,673,776,0
41930,382.73,673,778,0
41940,390.27,673,775,0
41950,395.76,673,778,0
41960,398.10,673,776,0
41970,397.69,673,778,0
41980,394.01,673,775,0
41990,388.09,673,778,0
42000,379.66,673,776,0
42010,369.65,673,778,0
42020,357.97,673,775,0
42030,345.89,673,778,0
42040,333.45,673,776,0
42050,321.66,673,778,0
42060,310.28,673,776,0
42071,300.25,673,778,0
42081,291.48,673,775,0
42091,284.48,673,778,0
42101,278.98,673,775,0
42112,275.43,673,778,0
42121,273.33,673,775,0
42131,272.84,673,778,0
42141,273.36,673,775,0
42151,275.27,673,778,0
42161,277.72,673,775,0
42171,280.93,673,778,0
42181,284.25,673,775,0
42191,287.86,673,778,0
42201,291.29,673,775,0
42211,295.02,673,778,0
42221,298.70,673,775,0
42231,303.67,673,778,0
42241,310.50,673,775,0
42251,321.36,673,778,0
42261,337.97,673,775,0
42271,363.01,673,778,0
42281,397.80,673,775,0
42291,440.85,673,778,0
42301,488.55,673,775,0
42311,538.19,673,778,0
42321,586.47,673,775,0
42331,630.60,673,778,0
42341,667.54,673,775,0
42360,695.15,715,774,0
42362,714.52,715,775,0
42372,728.08,715,778,0
42382,737.57,715,775,0
42392,744.21,715,778,0
42402,748.91,715,775,0
42412,752.15,715,778,0
42422,754.42,715,775,0
42432,756.01,715,778,0
42442,755.10,715,775,0
42452,748.43,715,778,0
42462,734.03,715,775,0
42472,710.66,715,778,0
42482,678.02,715,775,0
42492,636.53,715,778,0
42502,587.26,715,775,0
42512,533.61,715,778,0
42522,480.20,715,775,0
42532,430.72,715,778,0
42542,387.91,715,775,0
42552,353.69,715,778,0
42562,328.71,715,775,0
42572,313.07,715,778,0
42583,305.98,715,775,0
42593,306.76,715,778,0
42603,313.73,715,775,0
42613,325.38,715,778,0
42624,339.80,715,775,0
42633,355.46,715,778,0
42643,370.62,715,775,0
42653,384.19,715,778,0
42663,394.68,715,777,0
42673,402.06,715,778,0
42683,405.77,715,775,0
42693,405.88,715,778,0
42703,402.27,715,776,0
42713,395.68,715,778,0
42723,386.39,715,776,0
42733,375.47,715,778,0
42743,362.90,715,776,0
42753,349.65,715,778,0
42763,336.08,715,775,0
42773,323.16,715,778,0
42783,310.81,715,775,0
42793,299.77,715,778,0
42803,289.85,715,776,0
42813,281.67,715,778,0
42823,275.04,715,775,0
42833,270.14,715,778,0
42843,266.71,715,775,0
42853,264.96,715,778,0
42863,264.54,715,775,0
42873,265.54,715,778,0
42883,267.35,715,775,0
42893,270.07,715,778,0
42903,273.31,715,775,0
42913,276.90,715,778,0
42924,280.53,715,775,0
42934,284.06,715,778,0
42944,287.60,715,775,0
42954,291.58,715,778,0
42964,296.72,715,776,0
42974,304.09,715,778,0
42984,315.38,715,775,0
42994,332.53,715,778,0
43004,357.57,715,776,0
43014,391.73,715,778,0
43024,434.50,715,775,0
43034,482.13,715,778,0
43044,531.72,715,776,0
43054,580.19,715,778,0
43064,624.66,715,775,0
43074,662.44,715,778,0
43094,691.66,733,777,0
43096,712.16,733,777,0
43106,726.51,733,776,0
43116,736.52,733,777,0
43126,743.52,733,776,0
43137,748.38,733,777,0
43147,751.78,733,777,0
43157,751.33,733,777,0
43167,744.63,733,777,0
43177,729.66,733,777,0
43187,705.97,733,777,0
43197,673.20,733,777,0
43207,631.95,733,777,0
43217,582.68,733,777,0
43227,529.80,733,777,0
43237,476.98,733,777,0
43247,428.17,733,777,0
43257,385.18,733,777,0
43267,349.98,733,776,0
43277,323.16,733,777,0
43287,305.58,733,777,0
43297,296.36,733,777,0
43308,295.40,733,777,0
43318,300.76,733,776,0
43328,311.64,733,777,0
43338,325.89,733,776,0
43348,342.38,733,777,0
43358,359.15,733,777,0
43368,375.09,733,777,0
43378,388.52,733,776,0
43388,399.25,733,777,0
43398,406.29,733,777,0
43408,409.85,733,777,0
43418,409.29,733,776,0
43428,405.26,733,777,0
43438,397.98,733,777,0
43448,388.26,733,777,0
43458,376.40,733,776,0
43468,363.42,733,777,0
43479,349.71,733,776,0
43489,336.60,733,777,0
43499,324.12,733,776,0
43509,312.85,733,777,0
43520,302.91,733,776,0
43529,294.88,733,777,0
43539,288.40,733,776,0
43549,284.04,733,777,0
43559,280.90,733,776,0
43569,279.34,733,777,0
43579,278.90,733,776,0
43589,279.79,733,777,0
43599,281.44,733,776,0
43609,284.05,733,777,0
43619,286.82,733,776,0
43629,290.17,733,777,0
43639,293.38,733,776,0
43649,296.65,733,777,0
43659,299.58,733,776,0
43669,302.49,733,777,0
43679,305.30,733,776,0
43689,309.24,733,778,0
43699,314.91,733,776,0
43709,324.75,733,777,0
43719,340.30,733,776,0
43729,364.34,733,778,0
43739,397.79,733,776,0
43749,439.90,733,778,0
43759,486.90,733,776,0
43769,536.13,733,778,0
43779,584.09,733,776,0
43789,628.21,733,778,0
43808,665.17,715,777,0
43810,693.41,715,778,0
43820,713.17,715,776,0
43830,727.01,715,778,0
43840,736.65,715,775,0
43850,743.44,715,778,0
43860,748.24,715,775,0
43870,751.64,715,778,0
43880,753.97,715,776,0
43890,755.61,715,778,0
43900,752.17,715,775,0
43910,741.83,715,778,0
43920,722.60,715,775,0
43930,694.13,715,778,0
43940,656.42,715,775,0
43950,610.61,715,778,0
43960,557.33,715,775,0
43970,502.76,715,778,0
43980,450.24,715,775,0
43991,403.63,715,778,0
44001,364.65,715,775,0
44011,334.97,715,778,0
44021,314.41,715,775,0
44032,303.27,715,778,0
44041,300.32,715,775,0
44051,304.42,715,778,0
44061,313.72,715,775,0
44071,326.92,715,778,0
44081,341.82,715,775,0
44091,357.21,715,778,0
44101,371.51,715,775,0
44111,383.74,715,778,0
44121,392.99,715,775,0
44131,399.04,715,778,0
44141,401.13,715,775,0
44151,399.76,715,778,0
44161,394.86,715,775,0
44171,387.27,715,778,0
44181,377.25,715,775,0
44191,365.77,715,778,0
44201,352.98,715,774,0
44211,340.05,715,778,0
44221,327.05,715,775,0
44231,314.69,715,778,0
44241,302.95,715,775,0
44251,292.64,715,778,0
44261,283.62,715,775,0
44271,276.36,715,778,0
44281,270.60,715,775,0
44291,266.86,715,778,0
44301,264.67,715,775,0
44311,264.17,715,778,0
44321,264.85,715,775,0
44332,266.82,715,778,0
44342,269.75,715,775,0
44352,273.55,715,778,0
44362,277.50,715,775,0
44372,281.81,715,778,0
44382,272.95,715,775,0
44392,267.18,715,778,0
44402,268.11,715,775,0
44412,277.89,715,778,0
44422,294.81,715,775,0
44432,316.12,715,778,0
44442,339.57,715,775,0
44452,377.59,715,778,0
44462,410.24,715,776,0
44472,438.92,715,779,0
44482,462.39,715,776,0
44492,455.89,715,778,0
44503,429.01,715,775,0
44513,388.59,715,778,0
44523,338.70,715,775,0
44533,285.35,715,778,0
44544,243.84,715,775,0
44553,222.25,715,778,0
44563,239.66,715,775,0
44573,284.38,715,778,0
44583,348.21,715,776,0
44602,425.42,794,774,0
44604,511.99,794,778,0
44614,586.09,794,778,0
44624,637.97,794,776,0
44634,674.28,794,778,0
44644,699.69,794,776,0
44654,717.49,794,778,0
44664,729.94,794,776,0
44674,738.66,794,778,0
44684,744.76,794,776,0
44694,749.03,794,778,0
44704,752.02,794,776,0
44715,754.12,794,777,0
44724,755.58,794,776,0
44734,756.61,794,778,0
44744,757.32,794,776,0
44754,757.83,794,778,0
44764,758.18,794,776,0
44774,754.87,794,778,0
44784,745.52,794,776,0
44794,728.74,794,778,0
44804,704.34,794,776,0
44814,672.36,794,778,0
44824,633.42,794,776,0
44834,588.17,794,777,0
44844,541.19,794,775,0
44854,495.75,794,777,0
44864,454.12,794,776,0
44874,417.23,794,777,0
44884,385.79,794,776,0
44894,359.71,794,777,0
44904,338.84,794,776,0
44914,322.39,794,777,0
44924,310.01,794,776,0
44934,300.84,794,777,0
44944,294.46,794,776,0
44954,290.08,794,777,0
44964,287.40,794,776,0
44974,285.78,794,777,0
44984,284.94,794,776,0
44994,284.32,794,777,0
45004,284.01,794,776,0
45015,283.49,794,777,0
45025,283.00,794,776,0
45035,282.14,794,777,0
45045,281.24,794,776,0
45056,280.27,794,777,0
45065,279.55,794,776,0
45075,278.95,794,777,0
45085,278.88,794,777,0
45095,278.96,794,777,0
45105,279.49,794,776,0
45115,280.15,794,777,0
45125,281.18,794,776,0
45135,282.11,794,777,0
45145,283.28,794,776,0
45155,284.31,794,777,0
45165,285.67,794,776,0
45175,287.01,794,776,0
45185,289.02,794,776,0
45195,291.85,794,777,0
45205,296.91,794,776,0
45215,305.03,794,776,0
45225,318.22,794,777,0
45235,337.40,794,777,0
45245,364.71,794,776,0
45255,400.75,794,777,0
45275,444.76,672,776,0
45277,492.79,672,775,0
45287,541.84,672,777,0
45297,588.77,672,776,0
45307,631.48,672,778,0
45317,667.38,672,776,0
45327,694.87,672,777,0
45337,714.11,672,776,0
45347,727.57,672,778,0
45357,737.00,672,776,0
45367,743.09,672,777,0
45377,743.23,672,776,0
45387,736.09,672,777,0
45398,720.21,672,776,0
45407,695.67,672,777,0
45417,662.21,672,776,0
45427,620.54,672,777,0
45437,571.47,672,775,0
45447,519.90,672,777,0
45457,468.59,672,776,0
45467,420.84,672,778,0
45477,377.95,672,776,0
45487,341.96,672,777,0
45497,313.30,672,776,0
45507,293.07,672,778,0
45517,280.75,672,776,0
45527,276.28,672,777,0
45537,278.51,672,776,0
45547,286.93,672,777,0
45557,299.76,672,776,0
45568,316.08,672,777,0
45577,333.84,672,776,0
45587,352.06,672,777,0
45597,369.06,672,776,0
45607,384.38,672,777,0
45617,396.52,672,776,0
45627,405.41,672,777,0
45637,410.30,672,776,0
45647,411.75,672,777,0
45657,409.43,672,776,0
45667,404.29,672,777,0
45677,396.19,672,776,0
45687,386.19,672,778,0
45697,374.35,672,776,0
45707,361.81,672,777,0
45717,348.58,672,776,0
45727,335.59,672,777,0
45737,322.82,672,775,0
45747,311.34,672,777,0
45757,300.83,672,776,0
45767,292.01,672,777,0
45777,284.42,672,775,0
45787,278.76,672,777,0
45797,274.42,672,776,0
45807,271.94,672,777,0
45817,270.28,672,776,0
45827,270.16,672,777,0
45837,270.75,672,776,0
45847,272.41,672,777,0
45857,274.47,672,776,0
45868,277.20,672,777,0
45878,279.80,672,775,0
45888,282.73,672,778,0
45898,285.34,672,775,0
45908,287.90,672,778,0
45918,290.03,672,775,0
45928,292.42,672,778,0
45938,295.51,672,775,0
45948,300.88,672,778,0
45958,309.40,672,776,0
45968,323.08,672,778,0
45978,343.54,672,775,0
45988,372.65,672,778,0
45998,410.39,672,776,0
46008,455.27,672,778,0
46018,503.49,672,775,0
46028,552.24,672,778,0
46039,598.50,672,775,0
46058,639.79,784,774,0
46060,673.71,784,776,0
46070,699.30,784,778,0
46081,717.21,784,775,0
46091,729.75,784,778,0
46101,738.52,784,775,0
46111,743.77,784,778,0
46121,743.19,784,775,0
46131,735.59,784,778,0
46141,719.60,784,775,0
46151,694.69,784,778,0
46161,660.93,784,775,0
46171,618.99,784,778,0
46181,570.35,784,775,0
46191,519.03,784,778,0
46201,468.02,784,775,0
46211,420.44,784,778,0
46221,378.40,784,775,0
46231,343.31,784,778,0
46241,315.87,784,775,0
46252,296.62,784,778,0
46262,285.68,784,775,0
46272,282.39,784,778,0
46282,285.96,784,775,0
46292,295.14,784,778,0
46302,308.69,784,775,0
46312,325.02,784,778,0
46322,342.84,784,775,0
46332,360.59,784,778,0
46342,377.21,784,775,0
46352,391.55,784,778,0
46362,403.04,784,775,0
46372,411.13,784,778,0
46382,415.80,784,775,0
46392,417.06,784,778,0
46402,415.24,784,775,0
46412,410.46,784,778,0
46423,403.25,784,775,0
46433,393.92,784,777,0
46443,383.23,784,776,0
46453,371.46,784,777,0
46464,359.28,784,776,0
46473,346.98,784,777,0
46483,335.33,784,776,0
46493,324.56,784,777,0
46503,315.18,784,776,0
46513,306.94,784,777,0
46523,300.31,784,776,0
46533,295.03,784,777,0
46543,291.17,784,776,0
46553,288.29,784,778,0
46563,286.49,784,776,0
46573,285.53,784,777,0
46583,285.58,784,776,0
46593,286.22,784,778,0
46603,287.44,784,775,0
46613,289.02,784,778,0
46623,291.16,784,776,0
46633,293.43,784,777,0
46643,295.96,784,776,0
46653,298.37,784,777,0
46663,301.22,784,776,0
46673,304.79,784,777,0
46683,310.13,784,775,0
46693,318.32,784,777,0
46703,331.17,784,776,0
46713,349.93,784,777,0
46723,376.48,784,775,0
46733,411.22,784,778,0
46743,453.63,784,776,0
46753,500.11,784,777,0
46764,547.61,784,776,0
46774,593.20,784,777,0
46784,634.54,784,776,0
46803,669.35,745,775,0
46806,696.20,745,777,0
46815,715.00,745,777,0
46825,728.16,745,777,0
46835,737.37,745,777,0
46845,743.81,745,777,0
46855,745.54,745,777,0
46865,740.79,745,777,0
46875,727.87,745,776,0
46885,706.18,745,777,0
46895,675.65,745,777,0
46905,636.76,745,777,0
46915,589.94,745,776,0
46925,539.00,745,777,0
46935,487.19,745,777,0
46945,438.23,745,777,0
46955,393.89,745,776,0
46965,356.08,745,776,0
46976,325.50,745,776,0
46985,303.28,745,777,0
46995,289.05,745,776,0
47005,282.91,745,776,0
47015,283.58,745,776,0
47025,290.48,745,776,0
47035,301.82,745,776,0
47045,316.74,745,776,0
47055,333.19,745,776,0
47065,350.58,745,776,0
47075,367.12,745,776,0
47085,382.25,745,777,0
47095,394.78,745,776,0
47105,404.66,745,777,0
47115,411.10,745,776,0
47125,414.63,745,777,0
47135,414.57,745,776,0
47145,411.83,745,777,0
47155,406.22,745,776,0
47165,398.83,745,776,0
47175,389.54,745,777,0
47185,379.26,745,777,0
47195,367.91,745,777,0
47205,356.45,745,776,0
47215,344.70,745,777,0
47225,333.48,745,777,0
47235,322.58,745,777,0
47245,312.85,745,776,0
47255,303.85,745,777,0
47265,296.27,745,777,0
47276,289.63,745,776,0
47286,284.47,745,777,0
47296,280.34,745,776,0
47306,277.71,745,777,0
47316,275.83,745,776,0
47326,275.36,745,777,0
47336,275.43,745,776,0
47346,276.54,745,777,0
47356,278.05,745,776,0
47366,280.35,745,777,0
47376,282.69,745,776,0
47386,285.78,745,777,0
47396,289.19,745,776,0
47406,294.23,745,777,0
47416,301.49,745,776,0
47426,312.79,745,777,0
47436,329.35,745,776,0
47447,353.80,745,777,0
47457,386.82,745,775,0
47467,428.92,745,777,0
47477,476.13,745,775,0
47488,525.46,745,777,0
47497,573.88,745,775,0
47507,618.87,745,777,0
47517,657.35,745,775,0
47537,687.68,733,774,0
47539,708.86,733,775,0
47549,723.73,733,777,0
47559,734.14,733,775,0
47569,741.43,733,777,0
47579,746.48,733,775,0
47589,750.07,733,778,0
47599,749.23,733,774,0
47609,741.41,733,777,0
47619,725.00,733,774,0
47629,699.16,733,777,0
47639,663.49,733,774,0
47649,618.65,733,777,0
47660,565.27,733,774,0
47670,508.10,733,777,0
47680,451.50,733,774,0
47690,398.94,733,777,0
47700,353.10,733,774,0
47710,316.08,733,777,0
47720,288.54,733,774,0
47730,271.28,733,777,0
47740,263.87,733,774,0
47750,265.45,733,777,0
47760,274.62,733,774,0
47770,290.03,733,777,0
47780,309.82,733,774,0
47790,332.42,733,777,0
47800,355.86,733,774,0
47810,378.62,733,777,0
47820,399.43,733,774,0
47831,417.17,733,777,0
47841,430.88,733,774,0
47851,440.22,733,777,0
47861,445.08,733,774,0
47872,445.40,733,777,0
47881,441.68,733,774,0
47891,434.36,733,777,0
47901,424.27,733,774,0
47911,411.97,733,777,0
47921,398.22,733,774,0
47931,383.71,733,777,0
47941,369.23,733,774,0
47951,355.27,733,777,0
47961,342.42,733,774,0
47971,330.94,733,777,0
47981,321.01,733,774,0
47991,312.69,733,777,0
48001,306.14,733,774,0
48011,301.30,733,777,0
48021,298.04,733,774,0
48031,296.14,733,777,0
48041,295.63,733,775,0
48051,296.38,733,777,0
48061,298.15,733,774,0
48071,300.72,733,777,0
48081,304.06,733,775,0
48091,307.99,733,778,0
48101,312.96,733,774,0
48111,319.66,733,777,0
48121,329.53,733,775,0
48131,343.82,733,777,0
48141,364.01,733,774,0
48151,391.74,733,777,0
48161,428.29,733,775,0
48172,471.23,733,777,0
48182,517.32,733,775,0
48192,563.51,733,777,0
48202,607.54,733,775,0
48212,646.94,733,777,0
48222,679.36,733,775,0
48232,703.03,733,778,0
48242,719.65,733,775,0
48262,731.29,725,774,0
48264,739.47,725,778,0
48274,745.20,725,777,0
48284,749.21,725,776,0
48294,752.06,725,776,0
48304,754.06,725,776,0
48314,752.88,725,777,0
48324,746.10,725,776,0
48334,731.63,725,776,0
48344,709.11,725,776,0
48354,678.09,725,777,0
48364,639.19,725,776,0
48374,592.94,725,776,0
48385,543.28,725,776,0
48395,493.91,725,776,0
48405,448.68,725,776,0
48415,409.18,725,776,0
48425,377.54,725,777,0
48435,353.98,725,776,0
48445,339.28,725,776,0
48455,332.38,725,776,0
48465,332.95,725,777,0
48475,339.18,725,776,0
48485,350.01,725,776,0
48495,363.38,725,776,0
48505,378.35,725,777,0
48515,393.03,725,776,0
48525,406.78,725,776,0
48535,417.99,725,776,0
48545,426.56,725,777,0
48556,431.67,725,776,0
48566,433.57,725,777,0
48576,431.72,725,775,0
48586,426.92,725,777,0
48596,419.06,725,775,0
48606,409.40,725,777,0
48616,397.71,725,775,0
48626,385.28,725,777,0
48636,372.25,725,775,0
48646,359.79,725,777,0
48656,347.73,725,775,0
48666,336.92,725,777,0
48676,327.05,725,775,0
48686,318.97,725,777,0
48696,312.13,725,775,0
48706,306.99,725,777,0
48716,303.05,725,775,0
48727,300.72,725,777,0
48737,299.35,725,775,0
48747,299.50,725,777,0
48757,301.06,725,775,0
48768,305.37,725,778,0
48777,312.89,725,775,0
48787,325.35,725,777,0
48797,343.97,725,775,0
48807,371.20,725,778,0
48817,407.48,725,775,0
48827,451.35,725,778,0
48837,498.90,725,775,0
48847,547.49,725,778,0
48857,594.14,725,775,0
48867,636.40,725,777,0
48877,671.38,725,775,0
48887,697.62,725,777,0
48897,715.99,725,775,0
48907,728.90,725,777,0
48917,737.93,725,775,0
48927,744.25,725,777,0
48947,748.67,685,776,0
48949,751.81,685,778,0
48959,754.01,685,775,0
48969,755.55,685,778,0
48979,756.63,685,774,0
48989,757.38,685,777,0
48999,753.80,685,774,0
49009,743.23,685,777,0
49019,724.05,685,774,0
49029,696.13,685,777,0
49039,659.66,685,774,0
49049,615.45,685,777,0
49059,564.66,685,774,0
49069,512.99,685,777,0
49079,464.48,685,774,0
49089,422.63,685,777,0
49099,388.76,685,774,0
49110,364.02,685,777,0
49119,348.24,685,774,0
49129,341.10,685,777,0
49139,341.15,685,774,0
49149,347.28,685,777,0
49159,357.40,685,774,0
49169,370.05,685,777,0
49179,383.36,685,774,0
49189,396.28,685,777,0
49199,407.30,685,774,0
49209,415.78,685,777,0
49219,421.16,685,774,0
49229,423.17,685,777,0
49239,421.79,685,774,0
49249,417.48,685,777,0
49259,410.35,685,774,0
49269,401.07,685,777,0
49280,390.08,685,774,0
49289,377.97,685,777,0
49299,365.25,685,774,0
49309,352.66,685,777,0
49319,340.42,685,774,0
49329,329.24,685,777,0
49339,319.22,685,774,0
49349,310.76,685,777,0
49359,303.84,685,774,0
49369,298.70,685,777,0
49379,295.11,685,774,0
49389,293.06,685,777,0
49399,292.19,685,774,0
49409,292.69,685,777,0
49419,294.15,685,774,0
49429,296.68,685,777,0
49439,300.72,685,774,0
49449,307.23,685,777,0
49459,317.58,685,774,0
49469,334.12,685,777,0
49479,358.81,685,774,0
49489,394.27,685,777,0
49499,437.82,685,774,0
49509,486.09,685,777,0
49519,536.12,685,774,0
49529,585.11,685,777,0
49539,629.78,685,774,0
49549,667.22,685,777,0
49559,694.45,685,774,0
49569,713.52,685,777,0
49580,726.90,685,774,0
49590,736.28,685,777,0
49609,742.84,663,776,0
49611,747.43,663,777,0
49622,750.64,663,775,0
49631,752.89,663,777,0
49641,754.47,663,774,0
49651,755.53,663,777,0
49661,756.27,663,775,0
49671,756.79,663,777,0
49681,757.19,663,774,0
49691,757.48,663,777,0
49701,757.72,663,775,0
49711,757.93,663,777,0
49721,756.24,663,774,0
49731,749.82,663,777,0
49741,737.28,663,775,0
49751,717.91,663,777,0
49761,691.66,663,774,0
49771,659.07,663,777,0
49781,621.20,663,775,0
49792,580.64,663,776,0
49801,541.49,663,774,0
49811,505.94,663,776,0
49821,475.58,663,774,0
49831,451.06,663,776,0
49841,432.27,663,774,0
49851,418.18,663,776,0
49861,408.44,663,775,0
49871,401.75,663,776,0
49881,397.32,663,774,0
49891,393.84,663,776,0
49901,390.76,663,775,0
49911,387.49,663,777,0
49921,383.91,663,774,0
49931,379.35,663,776,0
49941,373.80,663,775,0
49951,367.05,663,777,0
49961,359.45,663,775,0
49971,350.91,663,777,0
49981,341.73,663,775,0
49991,331.99,663,776,0
50001,322.35,663,774,0
50011,313.03,663,776,0
50021,304.58,663,774,0
50031,297.12,663,777,0
50041,291.13,663,775,0
50051,286.55,663,776,0
50061,283.55,663,775,0
50071,281.89,663,777,0
50081,281.54,663,775,0
50092,282.23,663,776,0
50102,284.09,663,775,0
50112,286.68,663,776,0
50122,290.42,663,775,0
50132,295.61,663,776,0
50142,303.31,663,775,0
50152,314.79,663,776,0
50162,331.99,663,775,0
50172,356.77,663,776,0
50182,391.08,663,775,0
50192,433.74,663,777,0
50202,481.39,663,775,0
50212,530.95,663,776,0
50222,579.56,663,775,0
50232,624.26,663,777,0
50242,662.33,663,775,0
50262,691.33,652,774,0
50264,711.63,652,777,0
50274,725.84,652,776,0
50284,735.79,652,776,0
50294,742.71,652,776,0
50305,747.55,652,776,0
50315,750.94,652,775,0
50325,753.32,652,777,0
50335,754.94,652,775,0
50345,754.91,652,777,0
50355,749.45,652,775,0
50365,735.95,652,777,0
50375,712.26,652,775,0
50385,678.24,652,777,0
50395,634.11,652,775,0
50405,580.89,652,776,0
50415,520.71,652,775,0
50425,459.38,652,777,0
50435,401.20,652,775,0
50445,350.22,652,777,0
50455,307.81,652,775,0
50465,275.60,652,777,0
50476,253.78,652,775,0
50486,242.44,652,777,0
50496,240.08,652,774,0
50506,245.67,652,777,0
50516,257.13,652,774,0
50526,273.20,652,777,0
50536,291.36,652,774,0
50546,310.19,652,777,0
50556,327.83,652,774,0
50566,343.66,652,776,0
50576,356.10,652,774,0
50586,365.11,652,777,0
50596,370.18,652,774,0
50606,371.84,652,776,0
50616,369.70,652,774,0
50626,364.56,652,777,0
50636,356.47,652,774,0
50647,346.55,652,777,0
50657,334.99,652,774,0
50667,322.69,652,777,0
50677,309.80,652,774,0
50688,297.26,652,777,0
50697,285.14,652,774,0
50707,274.17,652,777,0
50717,264.39,652,774,0
50727,256.30,652,777,0
50737,249.78,652,774,0
50747,245.13,652,777,0
50757,242.09,652,774,0
50767,240.78,652,777,0
50777,240.59,652,774,0
50787,241.65,652,777,0
50797,243.69,652,774,0
50807,247.42,652,777,0
50817,253.38,652,774,0
50827,263.42,652,777,0
50837,279.11,652,774,0
50847,303.08,652,777,0
50857,337.13,652,774,0
50867,382.13,652,777,0
50877,433.69,652,774,0
50887,488.64,652,777,0
50897,543.31,652,774,0
50907,594.73,652,776,0
50917,639.60,652,774,0
50927,675.25,652,777,0
50937,700.24,652,774,0
50947,717.74,652,777,0
50966,729.99,705,776,0
50968,738.61,705,778,0
50978,744.68,705,774,0
50988,748.89,705,777,0
50998,751.84,705,774,0
51008,753.90,705,777,0
51018,755.39,705,774,0
51028,754.71,705,777,0
51038,748.29,705,774,0
51048,733.46,705,777,0
51058,708.55,705,774,0
51068,673.28,705,777,0
51078,628.24,705,774,0
51088,574.34,705,777,0
51098,514.50,705,774,0
51108,454.22,705,777,0
51118,398.10,705,774,0
51128,349.77,705,777,0
51138,311.09,705,774,0
51148,282.99,705,777,0
51159,265.77,705,774,0
51169,259.02,705,777,0
51179,261.50,705,774,0
51189,271.51,705,777,0
51200,287.17,705,774,0
51209,306.53,705,777,0
51219,327.59,705,774,0
51229,348.54,705,777,0
51239,367.84,705,774,0
51249,384.26,705,777,0
51259,396.86,705,774,0
51269,405.22,705,777,0
51279,409.10,705,774,0
51289,408.94,705,777,0
51299,404.89,705,774,0
51309,397.42,705,777,0
51319,387.22,705,774,0
51329,374.90,705,777,0
51339,361.13,705,774,0
51349,346.69,705,777,0
51359,331.95,705,774,0
51369,317.35,705,777,0
51379,303.58,705,774,0
51389,290.97,705,777,0
51399,280.01,705,774,0
51409,270.75,705,777,0
51419,263.54,705,774,0
51429,259.09,705,777,0
51439,259.02,705,774,0
51449,264.89,705,777,0
51459,278.38,705,774,0
51469,302.05,705,777,0
51479,338.21,705,774,0
51489,385.29,705,777,0
51500,439.03,705,774,0
51510,495.55,705,777,0
51520,551.27,705,775,0
51530,603.05,705,777,0
51540,647.26,705,775,0
51550,680.78,705,777,0
51569,704.25,603,776,0
51571,720.67,603,776,0
51581,732.17,603,775,0
51591,740.22,603,777,0
51601,745.85,603,775,0
51611,749.80,603,777,0
51621,752.56,603,775,0
51631,754.49,603,777,0
51641,755.84,603,775,0
51651,755.55,603,777,0
51671,749.47,0,775,0
51673,733.47,0,777,0
51683,707.44,0,776,0
51693,670.75,0,776,0
51703,624.07,0,776,0
51713,568.34,0,776,0
51723,506.52,0,776,0
51733,444.22,0,776,0
51743,387.75,0,776,0
51753,338.97,0,776,0
51763,300.32,0,776,0
51773,272.15,0,776,0
51783,254.88,0,776,0
51793,247.37,0,775,0
51803,248.85,0,776,0
51813,257.04,0,776,0
51823,270.31,0,776,0
51833,286.37,0,776,0
51843,303.75,0,775,0
51853,320.24,0,776,0
51863,334.95,0,776,0
51873,346.32,0,776,0
51884,354.28,0,776,0
51894,358.06,0,775,0
51904,358.04,0,777,0
51914,354.26,0,775,0
51924,347.71,0,777,0
51934,338.28,0,775,0
51944,327.40,0,777,0
51954,315.19,0,775,0
51964,302.88,0,776,0
51974,290.53,0,775,0
51984,279.10,0,777,0
51994,268.35,0,775,0
52004,259.08,0,776,0
52014,250.87,0,775,0
52024,244.31,0,777,0
52034,238.77,0,775,0
52044,234.81,0,776,0
52055,232.04,0,775,0
52065,231.43,0,777,0
52075,233.40,0,775,0
52085,239.79,0,777,0
52096,252.11,0,775,0
52105,272.61,0,777,0
52115,303.07,0,775,0
52125,345.82,0,777,0
52135,397.34,0,775,0
52145,453.90,0,777,0
52155,511.57,0,775,0
52165,566.94,0,777,0
52185,616.89,514,776,0
52187,658.41,514,778,0
52197,688.59,514,774,0
52207,709.71,514,777,0
52217,724.50,514,775,0
52227,734.85,514,777,0
52237,742.09,514,775,0
52247,747.17,514,777,0
52257,750.72,514,774,0
52268,753.20,514,777,0
52278,754.94,514,774,0
52288,755.47,514,777,0
52298,750.70,514,774,0
52308,737.89,514,777,0
52318,715.68,514,774,0
52328,683.51,514,777,0
52338,641.53,514,774,0
52348,590.45,514,777,0
52358,532.25,514,774,0
52368,472.52,514,777,0
52378,415.66,514,774,0
52388,364.76,514,777,0
52398,322.02,514,774,0
52408,288.76,514,777,0
52418,265.47,514,774,0
52428,251.83,514,777,0
52439,247.17,514,774,0
52449,250.16,514,777,0
52459,259.20,514,774,0
52469,272.34,514,777,0
52480,287.67,514,775,0
52489,303.28,514,777,0
52499,317.68,514,774,0
52509,329.65,514,777,0
52519,338.45,514,775,0
52529,343.63,514,777,0
52539,345.16,514,775,0
52549,343.22,514,777,0
52559,338.40,514,775,0
52569,331.21,514,777,0
52579,322.06,514,774,0
52589,311.33,514,777,0
52599,299.79,514,775,0
52609,288.02,514,777,0
52619,276.66,514,774,0
52629,266.05,514,777,0
52639,256.60,514,775,0
52649,248.54,514,777,0
52659,242.20,514,775,0
52669,237.47,514,777,0
52679,234.20,514,775,0
52689,232.08,514,777,0
52699,231.12,514,774,0
52709,231.21,514,777,0
52719,232.90,514,775,0
52729,236.96,514,777,0
52739,244.13,514,774,0
52749,256.01,514,777,0
52759,274.39,514,774,0
52769,300.84,514,777,0
52780,336.81,514,775,0
52790,382.25,514,777,0
52800,434.03,514,775,0
52810,488.66,514,777,0
52820,542.72,514,775,0
52839,593.12,655,774,0
52841,637.23,655,778,0
52851,672.73,655,776,0
52861,698.61,655,776,0
52871,716.73,655,777,0
52881,729.41,655,776,0
52891,736.27,655,777,0
52901,736.06,655,776,0
52911,727.69,655,777,0
52921,710.47,655,775,0
52931,684.01,655,776,0
52941,648.52,655,775,0
52951,604.61,655,777,0
52961,555.05,655,775,0
52971,502.97,655,777,0
52981,451.42,655,775,0
52992,402.61,655,776,0
53001,358.75,655,775,0
53011,320.81,655,776,0
53021,289.71,655,775,0
53031,265.58,655,776,0
53041,248.87,655,776,0
53051,238.92,655,777,0
53061,235.52,655,776,0
53071,237.38,655,776,0
53081,243.86,655,775,0
53091,253.38,655,777,0
53101,265.26,655,775,0
53111,278.08,655,776,0
53121,291.13,655,775,0
53131,303.13,655,777,0
53141,313.72,655,775,0
53151,322.21,655,777,0
53161,328.62,655,776,0
53171,332.29,655,777,0
53181,333.40,655,775,0
53191,331.78,655,777,0
53201,328.20,655,776,0
53211,322.57,655,777,0
53221,315.59,655,776,0
53231,307.40,655,777,0
53241,298.88,655,776,0
53251,290.04,655,777,0
53261,281.72,655,776,0
53271,273.57,655,777,0
53281,266.37,655,776,0
53292,259.66,655,776,0
53302,254.02,655,776,0
53312,249.09,655,776,0
53322,245.46,655,776,0
53332,242.54,655,776,0
53342,240.79,655,776,0
53352,239.57,655,776,0
53362,239.44,655,776,0
53372,239.86,655,776,0
53382,241.45,655,776,0
53392,244.23,655,776,0
53402,249.65,655,776,0
53412,258.37,655,776,0
53422,271.97,655,776,0
53432,291.31,655,776,0
53442,318.00,655,776,0
53452,352.16,655,776,0
53463,393.72,655,776,0
53473,440.61,655,776,0
53483,490.61,655,777,0
53493,540.40,655,776,0
53513,587.34,673,774,0
53516,627.78,673,775,0
53525,659.56,673,777,0
53535,680.13,673,775,0
53545,688.75,673,777,0
53555,685.48,673,775,0
53565,671.80,673,777,0
53575,648.29,673,775,0
53585,617.21,673,777,0
53595,580.16,673,775,0
53605,539.96,673,777,0
53615,498.48,673,775,0
53625,457.71,673,777,0
53635,418.67,673,775,0
53645,383.24,673,777,0
53655,351.80,673,775,0
53665,325.11,673,777,0
53676,303.14,673,775,0
53686,286.38,673,777,0
53696,274.57,673,775,0
53706,267.75,673,777,0
53716,265.13,673,775,0
53726,266.33,673,778,0
53736,270.52,673,775,0
53746,277.22,673,777,0
53756,285.38,673,774,0
53766,294.35,673,777,0
53776,303.25,673,775,0
53786,311.74,673,777,0
53796,319.15,673,775,0
53806,325.45,673,777,0
53816,329.94,673,775,0
53826,332.79,673,777,0
53836,333.67,673,774,0
53847,332.87,673,777,0
53857,330.25,673,774,0
53867,326.45,673,777,0
53877,321.25,673,774,0
53888,315.48,673,778,0
53897,309.08,673,774,0
53907,302.54,673,777,0
53917,295.95,673,774,0
53927,289.71,673,778,0
53937,283.92,673,774,0
53947,278.98,673,777,0
53957,274.61,673,774,0
53967,271.13,673,778,0
53977,268.35,673,774,0
53987,266.44,673,777,0
53997,265.41,673,774,0
54007,265.07,673,778,0
54017,265.18,673,775,0
54027,265.77,673,777,0
54037,266.57,673,774,0
54047,267.85,673,778,0
54057,269.48,673,774,0
54067,271.40,673,777,0
54077,273.55,673,774,0
54087,276.64,673,778,0
54097,281.46,673,774,0
54107,289.00,673,777,0
54117,300.10,673,774,0
54127,315.84,673,778,0
54137,337.14,673,774,0
54147,364.57,673,778,0
54157,397.70,673,774,0
54167,435.72,673,778,0
54177,477.03,673,774,0
54188,519.58,673,778,0
54207,560.68,695,776,0
54209,597.12,695,778,0
54219,627.17,695,775,0
54230,648.76,695,777,0
54239,660.70,695,775,0
54249,662.42,695,777,0
54259,654.19,695,775,0
54269,636.78,695,777,0
54279,612.63,695,775,0
54289,582.83,695,777,0
54299,549.49,695,775,0
54309,513.99,695,777,0
54319,478.21,695,775,0
54329,443.43,695,777,0
54339,411.29,695,775,0
54349,382.01,695,777,0
54359,356.47,695,775,0
54369,335.07,695,777,0
54379,318.42,695,775,0
54389,306.25,695,777,0
54400,298.68,695,775,0
54409,295.13,695,777,0
54419,295.61,695,775,0
54429,299.28,695,777,0
54439,305.71,695,775,0
54449,313.77,695,777,0
54459,323.14,695,775,0
54469,332.91,695,777,0
54479,342.71,695,775,0
54489,351.58,695,777,0
54499,359.29,695,775,0
54509,365.25,695,777,0
54519,369.59,695,775,0
54529,372.11,695,778,0
54539,372.94,695,775,0
54549,371.75,695,777,0
54559,368.96,695,775,0
54569,364.51,695,777,0
54579,358.87,695,775,0
54589,352.18,695,777,0
54599,344.93,695,775,0
54609,337.19,695,777,0
54619,329.72,695,775,0
54629,322.60,695,777,0
54639,316.21,695,775,0
54649,310.45,695,777,0
54659,305.73,695,775,0
54669,301.69,695,777,0
54679,298.53,695,775,0
54689,295.93,695,777,0
54700,294.11,695,775,0
54710,293.05,695,777,0
54720,292.82,695,776,0
54730,293.00,695,777,0
54740,293.94,695,776,0
54750,295.59,695,777,0
54760,298.41,695,776,0
54770,302.57,695,777,0
54780,309.22,695,776,0
54790,318.92,695,777,0
54800,333.13,695,775,0
54810,352.55,695,777,0
54820,378.44,695,776,0
54830,410.41,695,777,0
54840,448.47,695,776,0
54850,490.89,695,777,0
54860,535.19,695,776,0
54871,578.46,695,777,0
54890,618.61,683,775,0
54892,653.53,683,776,0
54902,682.55,683,777,0
54913,702.75,683,776,0
54923,713.24,683,777,0
54933,714.15,683,775,0
54943,706.43,683,777,0
54953,690.28,683,775,0
54963,666.58,683,777,0
54973,635.46,683,775,0
54983,600.14,683,777,0
54993,562.00,683,775,0
55003,523.64,683,777,0
55013,485.91,683,775,0
55023,450.66,683,777,0
55033,418.32,683,775,0
55043,390.41,683,777,0
55053,366.76,683,775,0
55063,348.40,683,777,0
55073,334.82,683,775,0
55084,326.69,683,777,0
55094,323.14,683,775,0
55104,324.13,683,777,0
55114,328.55,683,775,0
55124,336.14,683,777,0
55134,345.61,683,775,0
55144,356.57,683,777,0
55154,367.50,683,775,0
55164,378.19,683,777,0
55174,387.48,683,775,0
55184,395.35,683,777,0
55194,400.86,683,775,0
55204,404.24,683,777,0
55214,404.98,683,775,0
55224,403.75,683,777,0
55234,400.27,683,775,0
55244,395.26,683,777,0
55255,388.49,683,774,0
55265,381.02,683,778,0
55275,372.78,683,775,0
55285,364.53,683,778,0
55296,356.23,683,774,0
55305,348.53,683,777,0
55315,341.39,683,775,0
55325,335.31,683,778,0
55335,330.03,683,774,0
55345,325.82,683,778,0
55355,322.32,683,775,0
55365,319.91,683,777,0
55375,318.14,683,774,0
55385,317.28,683,778,0
55395,316.90,683,775,0
55405,317.23,683,777,0
55415,318.10,683,775,0
55425,320.34,683,778,0
55435,324.14,683,775,0
55445,330.91,683,778,0
55455,341.65,683,774,0
55465,358.17,683,778,0
55475,381.18,683,775,0
55485,412.11,683,778,0
55495,450.86,683,775,0
55505,494.62,683,778,0
55515,540.12,683,775,0
55525,584.70,683,778,0
55535,625.72,683,775,0
55555,661.46,664,774,0
55557,690.08,664,775,0
55567,710.58,664,778,0
55577,724.94,664,775,0
55587,734.98,664,778,0
55597,742.02,664,775,0
55607,746.94,664,778,0
55617,748.24,664,775,0
55627,744.10,664,778,0
55638,733.31,664,775,0
55647,715.35,664,778,0
55657,689.79,664,775,0
55667,656.98,664,778,0
55677,617.43,664,775,0
55687,574.10,664,778,0
55697,530.01,664,775,0
55707,487.84,664,778,0
55717,449.44,664,775,0
55727,416.48,664,778,0
55737,389.72,664,775,0
55747,369.71,664,778,0
55757,356.47,664,775,0
55767,349.68,664,778,0
55777,348.66,664,774,0
55787,352.58,664,778,0
55797,360.38,664,775,0
55808,370.81,664,777,0
55817,382.65,664,775,0
55827,394.76,664,778,0
55837,406.19,664,775,0
55847,416.16,664,777,0
55857,423.95,664,774,0
55867,429.07,664,778,0
55877,431.40,664,775,0
55887,430.90,664,778,0
55897,427.71,664,774,0
55907,422.31,664,778,0
55917,415.06,664,775,0
55927,406.30,664,778,0
55937,396.52,664,775,0
55947,386.21,664,777,0
55957,375.90,664,775,0
55967,365.99,664,778,0
55977,356.69,664,775,0
55987,348.04,664,777,0
55997,340.44,664,775,0
56007,334.18,664,778,0
56017,329.20,664,775,0
56027,325.41,664,777,0
56037,322.67,664,775,0
56047,320.93,664,778,0
56057,320.05,664,775,0
56067,319.95,664,777,0
56077,320.35,664,775,0
56087,321.36,664,778,0
56097,323.35,664,775,0
56108,327.02,664,777,0
56118,333.74,664,775,0
56128,345.09,664,778,0
56138,362.81,664,775,0
56148,388.54,664,777,0
56158,423.30,664,775,0
56168,465.26,664,778,0
56178,511.21,664,775,0
56188,557.86,664,777,0
56198,602.64,664,775,0
56208,642.82,664,778,0
56218,676.13,664,775,0
56228,700.91,664,777,0
56238,718.25,664,775,0
56257,730.39,703,774,0
56259,738.93,703,777,0
56269,744.86,703,777,0
56279,749.02,703,776,0
56289,751.93,703,777,0
56299,754.01,703,776,0
56309,755.42,703,777,0
56320,753.92,703,776,0
56329,747.13,703,777,0
56339,733.38,703,776,0
56349,711.49,703,777,0
56359,681.56,703,776,0
56369,644.06,703,777,0
56379,599.90,703,776,0
56389,552.27,703,777,0
56399,505.13,703,776,0
56409,461.29,703,777,0
56419,423.45,703,776,0
56429,392.59,703,777,0
56439,369.52,703,776,0
56449,354.02,703,777,0
56459,346.13,703,776,0
56469,344.68,703,777,0
56479,349.06,703,776,0
56489,357.36,703,777,0
56499,368.44,703,776,0
56509,380.56,703,777,0
56519,392.91,703,776,0
56529,403.91,703,777,0
56539,413.02,703,775,0
56549,419.19,703,777,0
56559,422.64,703,776,0
56569,423.01,703,777,0
56579,420.78,703,776,0
56589,415.74,703,777,0
56599,408.84,703,776,0
56609,399.97,703,777,0
56620,390.04,703,776,0
56630,379.05,703,777,0
56640,367.94,703,776,0
56650,356.73,703,777,0
56660,346.35,703,777,0
56670,336.52,703,777,0
56680,328.01,703,776,0
56690,320.55,703,777,0
56700,314.81,703,777,0
56710,310.33,703,777,0
56720,307.23,703,776,0
56730,305.02,703,777,0
56740,304.20,703,777,0
56750,304.18,703,777,0
56760,305.16,703,776,0
56770,306.35,703,777,0
56780,308.26,703,776,0
56791,310.71,703,777,0
56801,314.70,703,776,0
56811,320.62,703,776,0
56821,330.50,703,777,0
56832,345.70,703,776,0
56841,368.37,703,777,0
56851,399.67,703,777,0
56861,439.97,703,777,0
56871,485.41,703,776,0
56881,533.20,703,777,0
56891,580.07,703,777,0
56901,623.55,703,777,0
56911,661.01,703,776,0
56921,690.41,703,776,0
56931,710.99,703,777,0
56950,725.39,693,775,0
56952,735.47,693,776,0
56962,742.53,693,777,0
56972,747.47,693,776,0
56982,750.93,693,777,0
56992,753.35,693,776,0
57003,755.05,693,777,0
57012,754.60,693,776,0
57022,749.15,693,777,0
57032,736.16,693,776,0
57042,714.81,693,777,0
57052,685.00,693,776,0
57062,647.20,693,777,0
57072,601.80,693,776,0
57082,551.71,693,777,0
57092,501.01,693,776,0
57102,454.04,693,777,0
57112,412.80,693,776,0
57122,378.92,693,777,0
57132,352.71,693,776,0
57142,335.14,693,777,0
57152,325.58,693,776,0
57162,323.70,693,777,0
57172,327.73,693,776,0
57182,336.68,693,777,0
57192,348.56,693,776,0
57202,362.58,693,777,0
57212,376.68,693,776,0
57222,390.02,693,777,0
57232,401.11,693,776,0
57242,409.82,693,777,0
57252,415.27,693,776,0
57262,417.98,693,777,0
57272,417.13,693,776,0
57282,413.57,693,777,0
57292,407.27,693,776,0
57303,399.18,693,777,0
57313,389.14,693,775,0
57323,378.30,693,778,0
57333,366.64,693,776,0
57344,355.39,693,778,0
57353,344.47,693,776,0
57363,334.56,693,778,0
57373,325.31,693,775,0
57383,317.54,693,778,0
57393,310.99,693,776,0
57403,306.02,693,777,0
57413,302.12,693,775,0
57423,299.64,693,778,0
57433,298.08,693,776,0
57443,297.71,693,778,0
57453,297.80,693,775,0
57463,298.67,693,778,0
57473,299.71,693,775,0
57483,301.43,693,778,0
57493,303.44,693,775,0
57503,306.61,693,778,0
57513,311.57,693,775,0
57523,320.01,693,778,0
57533,332.87,693,775,0
57543,352.53,693,778,0
57553,380.10,693,775,0
57563,416.76,693,778,0
57573,460.29,693,775,0
57583,507.52,693,778,0
57593,555.28,693,775,0
57603,601.01,693,778,0
57613,641.76,693,775,0
57623,675.48,693,778,0
57633,700.53,693,775,0
57653,718.07,703,774,0
57655,730.35,703,775,0
57665,738.95,703,778,0
57675,744.96,703,775,0
57686,749.17,703,778,0
57695,752.12,703,775,0
57705,751.78,703,778,0
57715,745.46,703,775,0
57725,731.52,703,778,0
57735,709.34,703,775,0
57745,678.72,703,778,0
57755,639.76,703,775,0
57765,593.33,703,778,0
57775,542.79,703,775,0
57785,492.24,703,778,0
57795,444.68,703,775,0
57805,402.35,703,778,0
57815,366.84,703,775,0
57825,339.42,703,778,0
57835,320.22,703,775,0
57845,309.14,703,778,0
57856,305.58,703,774,0
57865,308.75,703,778,0
57875,317.23,703,775,0
57885,329.72,703,778,0
57895,344.54,703,775,0
57905,360.41,703,778,0
57915,375.80,703,775,0
57925,389.83,703,778,0
57935,401.45,703,775,0
57945,410.40,703,778,0
57955,415.98,703,775,0
57965,418.30,703,778,0
57975,417.40,703,775,0
57985,413.94,703,778,0
57995,408.04,703,775,0
58005,400.31,703,778,0
58015,391.01,703,775,0
58025,380.85,703,778,0
58035,370.26,703,775,0
58045,359.77,703,778,0
58055,349.38,703,775,0
58065,339.50,703,778,0
58075,330.39,703,775,0
58085,322.47,703,778,0
58095,315.73,703,775,0
58105,310.37,703,778,0
58115,306.32,703,775,0
58125,303.78,703,778,0
58135,302.52,703,775,0
58145,302.45,703,778,0
58156,303.13,703,775,0
58166,304.55,703,778,0
58176,306.31,703,775,0
58186,308.32,703,778,0
58196,310.62,703,776,0
58206,313.82,703,778,0
58216,318.59,703,775,0
58226,326.26,703,778,0
58236,338.52,703,776,0
58246,356.84,703,778,0
58256,382.86,703,775,0
58266,417.79,703,778,0
58276,460.02,703,776,0
58286,506.26,703,778,0
58296,553.41,703,775,0
58306,598.50,703,778,0
58316,639.28,703,775,0
58327,673.44,703,778,0
58346,699.11,693,777,0
58348,717.07,693,778,0
58358,729.65,693,776,0
58369,738.46,693,778,0
58379,744.62,693,777,0
58389,748.93,693,777,0
58399,750.80,693,777,0
58409,747.26,693,777,0
58419,737.02,693,777,0
58429,718.67,693,777,0
58439,691.69,693,777,0
58449,655.99,693,777,0
58459,612.50,693,776,0
58469,562.98,693,777,0
58479,512.03,693,777,0
58489,462.26,693,777,0
58499,416.80,693,776,0
58509,377.51,693,777,0
58519,346.12,693,777,0
58529,322.60,693,777,0
58540,307.50,693,777,0
58550,300.07,693,777,0
58560,300.18,693,777,0
58570,306.21,693,776,0
58580,317.25,693,777,0
58590,331.31,693,776,0
58600,347.59,693,777,0
58610,364.30,693,776,0
58620,380.62,693,777,0
58630,394.79,693,776,0
58640,406.64,693,777,0
58650,415.19,693,777,0
58660,420.58,693,777,0
58670,422.25,693,777,0
58680,420.76,693,777,0
58690,416.20,693,777,0
58700,409.41,693,777,0
58711,400.37,693,776,0
58721,390.15,693,778,0
58731,378.96,693,776,0
58741,367.87,693,778,0
58752,356.81,693,776,0
58761,346.50,693,778,0
58771,336.92,693,777,0
58781,328.89,693,778,0
58791,321.98,693,776,0
58801,316.71,693,778,0
58811,312.34,693,777,0
58821,309.41,693,778,0
58831,307.36,693,776,0
58841,306.52,693,778,0
58851,306.11,693,776,0
58861,306.46,693,778,0
58871,306.92,693,776,0
58881,308.19,693,778,0
58891,309.89,693,776,0
58901,312.92,693,778,0
58911,317.83,693,776,0
58921,326.71,693,778,0
58931,340.34,693,776,0
58941,361.02,693,778,0
58951,389.56,693,776,0
58961,427.41,693,778,0
58971,471.51,693,776,0
58981,518.76,693,777,0
58991,565.76,693,776,0
59001,610.32,693,778,0
59011,649.57,693,776,0
59021,681.71,693,778,0
59031,704.90,693,776,0
59051,721.13,704,775,0
59053,732.49,704,776,0
59063,740.44,704,778,0
59073,746.01,704,775,0
59083,749.91,704,778,0
59094,750.83,704,775,0
59103,746.64,704,778,0
59113,735.09,704,775,0
59123,715.22,704,778,0
59133,686.44,704,775,0
59143,649.45,704,778,0
59153,604.49,704,775,0
59163,554.37,704,778,0
59173,502.53,704,775,0
59183,452.91,704,778,0
59193,407.85,704,775,0
59203,369.58,704,778,0
59213,338.59,704,775,0
59223,315.92,704,778,0
59233,301.28,704,775,0
59243,294.81,704,778,0
59253,295.21,704,775,0
59264,301.79,704,778,0
59273,312.83,704,775,0
59283,327.36,704,778,0
59293,343.67,704,775,0
59303,360.87,704,778,0
59313,377.11,704,775,0
59323,391.86,704,778,0
59333,403.86,704,775,0
59343,412.94,704,778,0
59353,418.49,704,775,0
59363,420.87,704,778,0
59373,419.62,704,775,0
59383,415.49,704,778,0
59393,408.62,704,775,0
59403,399.99,704,778,0
59413,389.88,704,775,0
59423,378.94,704,778,0
59433,367.22,704,775,0
59443,355.84,704,778,0
59453,344.92,704,775,0
59463,335.13,704,778,0
59473,326.22,704,775,0
59483,318.74,704,777,0
59493,312.56,704,775,0
59503,308.11,704,778,0
59513,304.77,704,775,0
59523,302.83,704,778,0
59533,301.72,704,775,0
59543,301.72,704,778,0
59553,302.23,704,775,0
59564,303.23,704,778,0
59574,304.41,704,775,0
59584,306.34,704,778,0
59594,309.11,704,775,0
59604,313.75,704,778,0
59614,321.20,704,775,0
59624,333.35,704,778,0
59634,351.85,704,775,0
59644,378.51,704,778,0
59654,413.45,704,775,0
59664,455.96,704,778,0
59674,502.52,704,775,0
59684,550.15,704,778,0
59694,595.83,704,776,0
59704,637.02,704,778,0
59714,671.30,704,775,0
59724,697.61,704,778,0
59744,716.03,694,777,0
59746,728.96,694,778,0
59756,738.02,694,776,0
59766,744.35,694,778,0
59777,748.79,694,776,0
59787,750.65,694,778,0
59797,747.41,694,776,0
59807,737.00,694,777,0
59817,718.15,694,776,0
59827,690.55,694,778,0
59837,654.38,694,776,0
59847,610.00,694,777,0
59857,559.60,694,776,0
59867,507.26,694,778,0
59877,456.74,694,776,0
59887,410.75,694,777,0
59897,371.31,694,776,0
59907,339.42,694,778,0
59917,316.19,694,776,0
59927,301.48,694,777,0
59937,295.16,694,776,0
59948,296.14,694,777,0
59958,303.64,694,776,0
59968,315.92,694,777,0
59978,331.97,694,777,0
59988,349.81,694,777,0
59998,368.34,694,776,0
60008,385.72,694,777,0
60018,401.32,694,777,0
60028,413.91,694,777,0
60038,423.24,694,776,0
60048,428.57,694,777,0
60058,430.37,694,777,0
60068,428.54,694,777,0
60078,423.97,694,776,0
60088,416.52,694,777,0
60098,407.23,694,777,0
60108,396.54,694,777,0
60119,385.32,694,777,0
60129,373.61,694,777,0
60139,362.37,694,777,0
60149,351.50,694,777,0
60160,341.92,694,777,0
60169,333.25,694,777,0
60179,325.97,694,777,0
60189,319.72,694,777,0
60199,315.09,694,777,0
60209,311.29,694,777,0
60219,308.68,694,777,0
60229,306.72,694,777,0
60239,305.94,694,777,0
60249,306.13,694,777,0
60259,308.45,694,777,0
60269,313.41,694,777,0
60279,323.10,694,777,0
60289,338.42,694,777,0
60299,361.65,694,777,0
60309,393.60,694,777,0
60319,434.73,694,777,0
60329,481.10,694,777,0
60339,529.63,694,777,0
60349,577.05,694,777,0
60359,621.22,694,777,0
60369,659.17,694,777,0
60379,689.20,694,777,0
60389,710.23,694,777,0
60399,724.99,694,777,0
60409,735.32,694,777,0
60428,742.60,684,776,0
60430,747.69,684,777,0
60440,751.25,684,778,0
60450,752.68,684,776,0
60460,749.65,684,777,0
60470,739.51,684,776,0
60480,721.06,684,778,0
60490,693.31,684,776,0
60500,656.62,684,777,0
60510,611.52,684,776,0
60520,560.15,684,778,0
60530,505.93,684,776,0
60540,453.50,684,777,0
60550,405.48,684,776,0
60560,364.75,684,777,0
60570,332.12,684,776,0
60580,308.73,684,777,0
60590,294.15,684,776,0
60600,288.79,684,778,0
60610,291.04,684,776,0
60620,300.16,684,777,0
60631,314.00,684,776,0
60641,331.35,684,778,0
60651,350.06,684,776,0
60661,369.24,684,778,0
60672,386.78,684,775,0
60681,402.15,684,778,0
60691,414.10,684,776,0
60701,422.52,684,778,0
60711,426.86,684,776,0
60721,427.67,684,778,0
60731,424.60,684,776,0
60741,418.76,684,778,0
60751,410.22,684,776,0
60761,400.08,684,778,0
60771,388.53,684,776,0
60781,376.71,684,778,0
60791,364.63,684,776,0
60801,353.30,684,778,0
60811,342.49,684,776,0
60821,332.92,684,778,0
60831,324.07,684,776,0
60841,316.76,684,778,0
60851,310.41,684,776,0
60861,305.48,684,778,0
60871,301.52,684,776,0
60881,299.57,684,778,0
60891,299.91,684,776,0
60901,304.44,684,778,0
60911,314.25,684,776,0
60921,331.53,684,778,0
60931,357.39,684,776,0
60941,393.70,684,778,0
60951,438.19,684,776,0
60961,487.50,684,778,0
60972,538.01,684,776,0
60982,586.74,684,778,0
60992,630.61,684,776,0
61011,667.54,583,774,0
61014,695.20,583,775,0
61023,714.55,583,778,0
61033,728.06,583,775,0
61043,737.51,583,778,0
61053,744.13,583,775,0
61063,748.80,583,778,0
61073,752.03,583,775,0
61092,754.30,0,774,0
61094,754.12,0,777,0
61104,749.33,0,778,0
61114,737.10,0,775,0
61124,716.03,0,778,0
61134,685.51,0,775,0
61144,646.05,0,778,0
61154,598.12,0,775,0
61164,544.56,0,778,0
61174,488.98,0,775,0
61185,435.93,0,778,0
61195,388.63,0,775,0
61205,349.36,0,778,0
61215,319.25,0,776,0
61225,298.90,0,778,0
61235,288.05,0,776,0
61245,285.93,0,778,0
61255,291.31,0,776,0
61265,302.49,0,778,0
61275,317.81,0,775,0
61285,335.18,0,778,0
61295,353.00,0,776,0
61305,369.89,0,778,0
61315,384.83,0,775,0
61325,396.97,0,778,0
61335,405.59,0,776,0
61345,410.17,0,778,0
61356,410.93,0,776,0
61366,408.13,0,778,0
61376,402.26,0,776,0
61386,393.74,0,778,0
61396,383.23,0,776,0
61406,371.50,0,778,0
61416,359.40,0,776,0
61426,347.23,0,778,0
61436,335.68,0,776,0
61446,324.85,0,778,0
61456,315.21,0,776,0
61466,306.53,0,778,0
61476,299.17,0,776,0
61486,292.95,0,778,0
61496,288.51,0,776,0
61506,286.17,0,778,0
61516,287.49,0,776,0
61527,293.73,0,778,0
61537,307.10,0,776,0
61547,329.14,0,777,0
61557,361.84,0,777,0
61568,405.04,0,777,0
61577,454.83,0,776,0
61587,507.38,0,777,0
61597,559.51,0,776,0
61607,607.96,0,777,0
61617,649.97,0,776,0
61636,682.98,544,775,0
61638,706.09,544,778,0
61648,722.26,544,777,0
61658,733.58,544,777,0
61668,741.51,544,777,0
61678,747.06,544,777,0
61688,750.94,544,777,0
61698,753.66,544,777,0
61717,755.56,0,776,0
61719,752.65,0,778,0
61729,742.85,0,776,0
61740,724.51,0,778,0
61750,696.54,0,776,0
61760,659.35,0,778,0
61770,613.39,0,776,0
61780,560.00,0,778,0
61790,504.80,0,776,0
61800,451.89,0,778,0
61810,404.48,0,776,0
61820,365.64,0,778,0
61830,336.13,0,776,0
61840,317.15,0,778,0
61850,308.06,0,776,0
61860,308.47,0,778,0
61870,316.43,0,776,0
61880,330.57,0,777,0
61890,348.49,0,776,0
61900,368.83,0,778,0
61911,388.98,0,776,0
61921,407.54,0,778,0
61931,422.51,0,776,0
61941,433.46,0,778,0
61952,439.40,0,775,0
61961,440.57,0,778,0
61971,436.67,0,776,0
61981,428.54,0,778,0
61991,416.68,0,775,0
62001,402.37,0,778,0
62011,386.11,0,776,0
62021,369.23,0,778,0
62031,352.02,0,775,0
62041,335.47,0,778,0
62051,319.94,0,776,0
62061,306.20,0,778,0
62071,294.23,0,775,0
62081,284.99,0,778,0
62091,278.82,0,776,0
62101,277.50,0,778,0
62111,282.15,0,775,0
62121,294.96,0,778,0
62131,316.96,0,776,0
62141,350.06,0,778,0
62151,394.18,0,775,0
62161,445.26,0,778,0
62171,499.18,0,776,0
62181,552.70,0,778,0
62191,602.29,0,776,0
62201,645.57,0,778,0
62211,679.86,0,776,0
62221,703.90,0,778,0
62231,720.73,0,776,0
62241,732.51,0,778,0
62252,740.76,0,776,0
62262,746.53,0,778,0
62272,750.57,0,776,0
62282,753.40,0,778,0
62292,753.24,0,776,0
62302,747.29,0,779,0
62312,732.89,0,776,0
62322,708.71,0,778,0
62332,674.30,0,776,0
62342,630.37,0,778,0
62352,577.58,0,775,0
62362,519.29,0,778,0
62372,459.93,0,776,0
62382,404.15,0,778,0
62392,354.91,0,775,0
62402,314.65,0,778,0
62412,283.98,0,775,0
62423,263.59,0,778,0
62433,253.00,0,775,0
62443,251.54,0,778,0
62453,257.64,0,775,0
62464,269.75,0,778,0
62473,285.68,0,775,0
62483,303.82,0,778,0
62493,322.39,0,775,0
62503,340.19,0,778,0
62513,355.73,0,775,0
62523,368.37,0,778,0
62533,377.64,0,775,0
62543,383.32,0,778,0
62553,385.41,0,775,0
62563,384.04,0,778,0
62573,379.40,0,775,0
62583,372.21,0,778,0
62593,363.02,0,775,0
62603,352.38,0,778,0
62613,340.87,0,775,0
62623,328.91,0,778,0
62633,317.15,0,775,0
62643,306.13,0,778,0
62653,296.02,0,775,0
62663,287.27,0,778,0
62673,280.55,0,775,0
62683,277.00,0,778,0
62693,278.11,0,775,0
62703,285.79,0,778,0
62713,301.93,0,775,0
62723,328.48,0,778,0
62733,366.65,0,775,0
62743,414.20,0,779,0
62753,467.02,0,775,0
62764,521.53,0,778,0
62774,574.09,0,775,0
62784,621.59,0,778,0
62794,661.27,0,776,0
62804,690.89,0,778,0
62823,711.62,1106,777,0
62826,726.14,1106,778,0
62835,736.29,1106,776,0
62845,743.41,1106,778,0
62855,748.38,1106,776,0
62865,751.87,1106,778,0
62875,754.31,1106,776,0
62885,752.89,1106,778,0
62895,745.04,1106,776,0
62905,728.48,1106,778,0
62915,702.32,1106,776,0
62925,666.23,1106,778,0
62935,620.94,1106,776,0
62945,567.09,1106,778,0
62955,509.12,1106,776,0
62965,451.14,1106,778,0
62976,397.27,1106,776,0
62985,350.00,1106,778,0
62995,311.52,1106,776,0
63005,282.35,1106,778,0
63015,263.26,1106,776,0
63025,253.54,1106,778,0
63035,252.52,1106,776,0
63045,258.62,1106,778,0
63055,270.52,1106,776,0
63065,285.96,1106,778,0
63075,303.42,1106,776,0
63085,320.78,1106,778,0
63095,336.83,1106,776,0
63105,350.30,1106,779,0
63115,360.58,1106,776,0
63125,366.92,1106,778,0
63135,369.43,1106,776,0
63145,367.97,1106,778,0
63155,363.31,1106,776,0
63165,355.72,1106,778,0
63175,345.90,1106,776,0
63185,334.36,1106,778,0
63195,321.99,1106,776,0
63205,309.14,1106,778,0
63215,296.71,1106,776,0
63225,284.76,1106,778,0
63235,274.24,1106,776,0
63245,265.64,1106,778,0
63255,259.92,1106,776,0
63265,257.80,1106,778,0
63276,261.12,1106,776,0
63286,270.77,1106,778,0
63296,288.54,1106,777,0
63306,314.91,1106,778,0
63316,350.42,1106,777,0
63326,393.71,1106,778,0
63336,443.51,1106,777,0
63346,495.77,1106,778,0
63356,547.27,1106,777,0
63366,594.89,1106,778,0
63376,636.62,1106,777,0
63395,670.76,572,776,0
63397,694.62,572,778,0
63407,707.16,572,777,0
63417,708.96,572,777,0
63427,700.31,572,777,0
63437,681.96,572,777,0
63447,654.42,572,777,0
63457,618.33,572,777,0
63467,576.71,572,777,0
63477,531.41,572,777,0
63488,484.49,572,777,0
63497,438.70,572,777,0
63507,395.07,572,777,0
63517,355.32,572,777,0
63527,320.04,572,777,0
63537,290.54,572,777,0
63547,266.89,572,777,0
63557,249.83,572,777,0
63567,238.52,572,777,0
63577,233.35,572,777,0
63587,233.16,572,777,0
63597,237.78,572,777,0
63607,245.82,572,777,0
63617,256.67,572,777,0
63627,268.81,572,777,0
63637,281.77,572,777,0
63647,294.01,572,777,0
63657,305.24,572,777,0
63667,314.25,572,777,0
63677,321.20,572,777,0
63687,325.39,572,777,0
63697,327.11,572,777,0
63707,326.05,572,777,0
63717,323.08,572,777,0
63727,318.04,572,777,0
63737,311.90,572,777,0
63747,304.52,572,777,0
63757,296.86,572,777,0
63767,288.89,572,777,0
63777,281.42,572,778,0
63788,274.22,572,777,0
63798,268.03,572,778,0
63808,262.71,572,776,0
63818,259.32,572,778,0
63828,258.07,572,776,0
63838,260.02,572,778,0
63848,265.46,572,777,0
63858,275.65,572,778,0
63868,290.54,572,776,0
63878,310.61,572,778,0
63888,334.90,572,777,0
63898,363.00,572,778,0
63908,393.13,572,776,0
63918,423.95,572,778,0
63928,452.89,572,777,0
63938,478.55,572,778,0
63948,499.00,572,776,0
63959,513.57,572,778,0
63978,520.99,583,777,0
63980,521.29,583,778,0
63990,515.03,583,775,0
64001,503.41,583,778,0
64011,487.21,583,775,0
64021,467.95,583,778,0
64031,446.24,583,775,0
64041,423.58,583,779,0
64051,401.03,583,775,0
64061,379.21,583,778,0
64071,358.49,583,775,0
64081,339.74,583,779,0
64091,323.06,583,776,0
64101,309.12,583,778,0
64111,297.90,583,775,0
64121,289.70,583,779,0
64131,284.05,583,775,0
64141,281.29,583,778,0
64151,280.82,583,775,0
64161,282.50,583,779,0
64172,285.78,583,775,0
64182,290.30,583,778,0
64192,295.48,583,775,0
64202,301.25,583,779,0
64212,306.58,583,775,0
64222,311.33,583,778,0
64232,315.22,583,775,0
64242,318.20,583,779,0
64252,320.02,583,775,0
64262,320.66,583,778,0
64272,319.90,583,775,0
64282,318.43,583,779,0
64292,316.25,583,775,0
64302,313.69,583,778,0
64312,310.69,583,775,0
64322,307.61,583,779,0
64332,304.64,583,775,0
64343,302.01,583,778,0
64353,299.69,583,776,0
64363,297.86,583,779,0
64373,296.78,583,776,0
64384,296.81,583,778,0
64393,298.28,583,776,0
64403,301.32,583,778,0
64413,306.41,583,776,0
64423,313.62,583,778,0
64433,323.03,583,775,0
64443,334.29,583,778,0
64453,347.28,583,776,0
64463,361.17,583,778,0
64473,375.39,583,775,0
64483,388.94,583,778,0
64493,401.00,583,776,0
64503,410.90,583,778,0
64522,418.22,544,777,0
64524,422.09,544,777,0
64534,423.05,544,776,0
64544,421.07,544,778,0
64555,416.67,544,776,0
64564,410.26,544,778,0
64574,402.42,544,776,0
64584,393.30,544,778,0
64594,383.86,544,776,0
64604,373.96,544,778,0
64614,364.33,544,776,0
64624,355.02,544,778,0
64634,346.57,544,776,0
64644,338.94,544,778,0
64654,332.74,544,776,0
64664,327.85,544,778,0
64674,324.59,544,776,0
64684,322.66,544,778,0
64694,322.16,544,776,0
64704,322.58,544,778,0
64714,324.04,544,776,0
64724,326.13,544,778,0
64734,328.83,544,776,0
64744,331.71,544,778,0
64754,334.80,544,776,0
64764,337.64,544,778,0
64774,340.45,544,776,0
64784,342.80,544,778,0
64794,344.83,544,776,0
64804,346.21,544,778,0
64814,347.26,544,776,0
64824,347.70,544,778,0
64834,347.92,544,776,0
64844,347.60,544,778,0
64855,347.21,544,777,0
64865,346.46,544,778,0
64875,345.76,544,777,0
64885,344.63,544,777,0
64896,343.59,544,777,0
64905,342.34,544,778,0
64915,341.47,544,777,0
64925,340.73,544,777,0
64935,340.77,544,777,0
64945,341.44,544,778,0
64955,343.41,544,777,0
64965,346.46,544,777,0
64975,351.29,544,777,0
64985,357.33,544,778,0
64995,364.77,544,777,0
65005,372.77,544,778,0
65015,381.28,544,777,0
65025,389.43,544,778,0
65035,397.10,544,777,0
65045,403.07,544,778,0
65055,407.55,544,777,0
65065,409.87,544,778,0
65084,410.68,562,776,0
65087,409.40,562,777,0
65096,407.18,562,778,0
65106,403.40,562,777,0
65116,399.12,562,777,0
65126,394.03,562,777,0
65136,388.96,562,778,0
65146,383.45,562,777,0
65156,378.47,562,777,0
65166,373.27,562,777,0
65176,368.69,562,777,0
65186,364.24,562,777,0
65196,360.70,562,777,0
65206,357.57,562,777,0
65216,355.47,562,777,0
65226,353.87,562,777,0
65236,353.31,562,777,0
65246,353.26,562,777,0
65256,354.17,562,777,0
65266,355.36,562,777,0
65276,357.35,562,778,0
65286,359.39,562,777,0
65296,361.80,562,777,0
65306,363.88,562,777,0
65316,366.14,562,777,0
65326,367.81,562,777,0
65336,369.33,562,777,0
65346,370.21,562,777,0
65356,370.96,562,778,0
65367,370.97,562,777,0
65377,370.81,562,778,0
65387,370.05,562,777,0
65397,369.22,562,778,0
65408,367.96,562,776,0
65417,366.77,562,778,0
65427,365.30,562,777,0
65437,364.31,562,778,0
65447,363.14,562,776,0
65457,362.41,562,777,0
65467,361.82,562,777,0
65477,361.92,562,778,0
65487,362.03,562,776,0
65497,362.70,562,777,0
65507,363.61,562,777,0
65517,365.57,562,778,0
65527,368.14,562,776,0
65537,371.91,562,777,0
65547,376.40,562,777,0
65557,382.06,562,778,0
65567,388.13,562,776,0
65577,394.56,562,778,0
65587,400.52,562,777,0
65597,406.11,562,778,0
65607,410.36,562,776,0
65627,413.47,542,775,0
65630,414.70,542,775,0
65639,414.92,542,778,0
65649,413.70,542,776,0
65659,411.52,542,778,0
65669,408.23,542,776,0
65679,404.69,542,778,0
65689,400.50,542,776,0
65699,396.45,542,778,0
65709,392.07,542,776,0
65719,388.06,542,778,0
65729,384.23,542,776,0
65739,381.08,542,778,0
65750,378.27,542,776,0
65759,376.22,542,778,0
65769,374.52,542,776,0
65779,373.59,542,778,0
65789,373.07,542,776,0
65799,373.44,542,778,0
65809,373.99,542,776,0
65819,374.98,542,778,0
65829,376.23,542,776,0
65839,377.87,542,778,0
65849,379.33,542,776,0
65859,380.90,542,778,0
65869,382.09,542,776,0
65879,383.35,542,778,0
