Time,PPG,IBI,GSR,GSR_Event
4842374,359.87,874,762,0
4842384,357.51,874,763,0
4842394,352.77,874,763,0
4842404,347.35,874,763,0
4842414,341.29,874,763,0
4842424,335.67,874,763,0
4842434,330.16,874,763,0
4842444,329.17,874,763,0
4842455,330.45,874,762,0
4842465,333.01,874,763,0
4842475,335.28,874,763,0
4842485,337.30,874,763,0
4842496,338.19,874,762,0
4842505,338.78,874,763,0
4842515,338.16,874,762,0
4842525,337.25,874,763,0
4842535,335.33,874,762,0
4842545,333.48,874,763,0
4842555,331.11,874,763,0
4842565,329.10,874,763,0
4842575,326.89,874,762,0
4842585,325.38,874,763,0
4842595,323.89,874,763,0
4842605,323.20,874,763,0
4842615,322.58,874,762,0
4842625,322.58,874,763,0
4842635,322.53,874,762,0
4842645,322.97,874,763,0
4842655,323.02,874,762,0
4842665,323.53,874,763,0
4842675,323.41,874,763,0
4842685,323.29,874,763,0
4842695,322.35,874,762,0
4842705,321.43,874,763,0
4842715,319.59,874,763,0
4842725,317.87,874,763,0
4842735,315.55,874,762,0
4842745,314.06,874,763,0
4842755,313.35,874,763,0
4842765,315.73,874,763,0
4842775,321.98,874,762,0
4842785,334.98,874,763,0
4842796,356.15,874,762,0
4842815,387.69,843,763,0
4842818,428.71,843,764,0
4842827,475.90,843,765,0
4842838,525.47,843,764,0
4842847,574.66,843,765,0
4842857,620.15,843,763,0
4842867,659.27,843,765,0
4842877,689.54,843,764,0
4842887,710.72,843,765,0
4842897,725.50,843,763,0
4842907,735.85,843,765,0
4842917,743.10,843,764,0
4842927,748.17,843,765,0
4842937,749.92,843,763,0
4842947,746.73,843,765,0
4842957,736.95,843,764,0
4842967,720.60,843,764,0
4842977,696.97,843,763,0
4842987,666.64,843,764,0
4842997,629.72,843,764,0
4843008,588.92,843,765,0
4843017,546.60,843,763,0
4843027,505.75,843,765,0
4843037,466.82,843,763,0
4843047,431.69,843,765,0
4843057,400.37,843,763,0
4843067,373.82,843,764,0
4843077,351.59,843,764,0
4843087,334.52,843,765,0
4843097,321.90,843,763,0
4843107,314.43,843,764,0
4843117,311.08,843,764,0
4843127,311.96,843,765,0
4843137,315.70,843,763,0
4843147,322.26,843,764,0
4843157,329.85,843,764,0
4843167,338.38,843,765,0
4843177,346.15,843,763,0
4843187,353.31,843,764,0
4843197,358.53,843,764,0
4843207,362.14,843,765,0
4843217,363.13,843,763,0
4843227,362.36,843,764,0
4843237,359.17,843,764,0
4843247,354.66,843,765,0
4843257,348.38,843,763,0
4843267,341.41,843,765,0
4843277,333.44,843,764,0
4843287,325.81,843,765,0
4843297,318.07,843,763,0
4843308,311.40,843,765,0
4843318,305.20,843,763,0
4843328,300.34,843,765,0
4843338,296.38,843,763,0
4843348,294.21,843,765,0
4843358,292.77,843,763,0
4843368,292.80,843,765,0
4843378,293.25,843,763,0
4843388,294.76,843,764,0
4843398,296.37,843,763,0
4843408,298.66,843,765,0
4843418,300.69,843,763,0
4843428,303.10,843,765,0
4843438,305.21,843,763,0
4843448,307.55,843,765,0
4843458,309.36,843,763,0
4843468,311.26,843,765,0
4843479,312.60,843,764,0
4843489,313.88,843,765,0
4843499,314.68,843,763,0
4843509,315.34,843,765,0
4843520,315.54,843,763,0
4843529,315.76,843,764,0
4843539,315.53,843,763,0
4843549,315.20,843,765,0
4843559,314.54,843,763,0
4843569,314.12,843,765,0
4843579,314.08,843,763,0
4843589,315.77,843,765,0
4843599,320.38,843,763,0
4843609,329.91,843,765,0
4843619,346.10,843,763,0
4843629,371.35,843,765,0
4843649,406.65,833,764,0
4843652,450.12,833,765,0
4843661,497.96,833,764,0
4843671,547.04,833,765,0
4843681,594.39,833,764,0
4843692,637.26,833,765,0
4843702,672.71,833,764,0
4843712,698.94,833,764,0
4843722,717.26,833,764,0
4843732,730.08,833,764,0
4843742,739.06,833,764,0
4843752,745.34,833,764,0
4843762,749.74,833,764,0
4843772,749.69,833,764,0
4843782,744.21,833,764,0
4843792,732.02,833,764,0
4843802,712.94,833,764,0
4843812,686.69,833,764,0
4843822,654.17,833,764,0
4843832,615.46,833,764,0
4843842,574.52,833,764,0
4843852,533.05,833,764,0
4843863,493.52,833,764,0
4843873,456.55,833,764,0
4843883,423.64,833,764,0
4843893,394.44,833,764,0
4843904,370.13,833,764,0
4843913,349.99,833,764,0
4843923,334.74,833,764,0
4843933,323.80,833,764,0
4843943,317.65,833,764,0
4843953,315.22,833,764,0
4843963,316.53,833,764,0
4843973,319.71,833,764,0
4843983,325.11,833,764,0
4843993,331.38,833,764,0
4844003,338.21,833,764,0
4844013,344.06,833,764,0
4844023,349.06,833,764,0
4844033,352.17,833,764,0
4844043,354.26,833,764,0
4844053,354.27,833,764,0
4844063,352.94,833,764,0
4844073,349.40,833,764,0
4844083,345.17,833,764,0
4844093,339.38,833,764,0
4844103,333.26,833,764,0
4844113,326.28,833,764,0
4844123,319.73,833,764,0
4844133,313.04,833,764,0
4844143,307.71,833,764,0
4844153,302.78,833,763,0
4844163,299.63,833,764,0
4844173,297.26,833,764,0
4844183,296.50,833,764,0
4844193,296.35,833,764,0
4844204,297.53,833,764,0
4844214,298.87,833,764,0
4844224,301.22,833,764,0
4844234,303.43,833,763,0
4844244,306.30,833,764,0
4844254,308.78,833,764,0
4844264,311.68,833,764,0
4844274,313.87,833,763,0
4844284,316.53,833,764,0
4844294,318.42,833,764,0
4844304,320.57,833,764,0
4844314,321.94,833,763,0
4844324,323.59,833,764,0
4844334,324.61,833,764,0
4844344,325.93,833,764,0
4844354,326.29,833,764,0
4844364,326.85,833,764,0
4844375,326.64,833,764,0
4844385,326.75,833,765,0
4844395,326.61,833,763,0
4844405,328.01,833,764,0
4844416,331.52,833,764,0
4844425,339.68,833,764,0
4844435,353.49,833,763,0
4844445,376.19,833,765,0
4844465,408.36,816,764,0
4844468,449.35,816,766,0
4844477,495.15,816,763,0
4844487,542.97,816,765,0
4844497,589.61,816,764,0
4844507,632.63,816,765,0
4844517,668.57,816,763,0
4844527,695.91,816,765,0
4844537,715.05,816,764,0
4844547,728.49,816,765,0
4844557,737.86,816,764,0
4844567,744.42,816,765,0
4844577,749.01,816,764,0
4844588,752.26,816,765,0
4844598,752.01,816,763,0
4844608,747.04,816,765,0
4844618,735.97,816,763,0
4844628,718.66,816,765,0
4844638,694.85,816,763,0
4844648,664.90,816,765,0
4844658,629.01,816,764,0
4844668,590.48,816,765,0
4844678,551.12,816,763,0
4844688,513.11,816,765,0
4844698,477.25,816,764,0
4844708,444.86,816,765,0
4844718,416.49,816,764,0
4844728,392.81,816,765,0
4844738,373.71,816,764,0
4844748,359.61,816,765,0
4844759,350.43,816,763,0
4844769,346.10,816,765,0
4844779,345.86,816,763,0
4844789,349.03,816,765,0
4844800,354.76,816,764,0
4844809,362.16,816,765,0
4844819,369.96,816,763,0
4844829,377.64,816,765,0
4844839,384.18,816,764,0
4844849,389.14,816,764,0
4844859,391.84,816,763,0
4844869,392.32,816,765,0
4844879,390.46,816,763,0
4844889,386.81,816,765,0
4844899,381.21,816,764,0
4844909,374.33,816,765,0
4844919,366.56,816,764,0
4844929,358.64,816,764,0
4844939,350.82,816,764,0
4844949,343.63,816,765,0
4844959,337.48,816,764,0
4844969,332.50,816,764,0
4844979,328.83,816,763,0
4844989,326.44,816,765,0
4844999,325.15,816,764,0
4845009,324.81,816,764,0
4845019,325.34,816,763,0
4845029,326.69,816,765,0
4845039,328.58,816,763,0
4845049,330.94,816,764,0
4845059,333.61,816,764,0
4845069,336.69,816,765,0
4845079,339.95,816,764,0
4845089,343.27,816,764,0
4845100,346.23,816,764,0
4845110,349.03,816,765,0
4845120,351.59,816,764,0
4845130,353.60,816,764,0
4845140,355.18,816,764,0
4845150,355.98,816,765,0
4845160,356.24,816,764,0
4845170,355.70,816,764,0
4845180,354.80,816,764,0
4845190,353.75,816,765,0
4845200,353.61,816,764,0
4845210,355.10,816,764,0
4845220,360.43,816,764,0
4845230,370.97,816,765,0
4845240,389.19,816,764,0
4845250,416.61,816,764,0
4845260,453.32,816,764,0
4845280,495.78,816,763,0
4845283,541.06,816,765,0
4845292,586.00,816,764,0
4845302,628.13,816,764,0
4845313,664.65,816,764,0
4845323,693.25,816,764,0
4845333,713.28,816,764,0
4845343,727.29,816,764,0
4845353,737.11,816,764,0
4845363,743.97,816,764,0
4845373,748.78,816,764,0
4845383,752.15,816,764,0
4845393,754.50,816,764,0
4845403,754.82,816,764,0
4845413,750.76,816,764,0
4845423,741.66,816,764,0
4845433,726.38,816,764,0
4845443,705.26,816,764,0
4845453,677.54,816,764,0
4845463,643.99,816,764,0
4845473,605.85,816,764,0
4845484,566.64,816,764,0
4845494,527.19,816,763,0
4845504,490.15,816,765,0
4845514,455.35,816,764,0
4845524,425.03,816,765,0
4845534,398.58,816,764,0
4845544,377.66,816,765,0
4845554,361.26,816,764,0
4845564,350.43,816,765,0
4845574,343.61,816,764,0
4845584,341.37,816,765,0
4845594,342.03,816,764,0
4845604,345.88,816,765,0
4845614,350.76,816,764,0
4845624,357.13,816,764,0
4845634,363.22,816,764,0
4845644,369.50,816,765,0
4845655,374.28,816,763,0
4845665,377.96,816,765,0
4845675,379.56,816,764,0
4845685,379.82,816,765,0
4845696,377.82,816,763,0
4845705,374.79,816,765,0
4845715,369.79,816,764,0
4845725,364.46,816,765,0
4845735,358.28,816,763,0
4845745,352.62,816,765,0
4845755,346.74,816,764,0
4845765,341.84,816,765,0
4845775,337.09,816,764,0
4845785,333.76,816,765,0
4845795,330.83,816,764,0
4845805,329.26,816,765,0
4845815,327.85,816,764,0
4845825,327.77,816,765,0
4845835,327.92,816,764,0
4845845,329.15,816,765,0
4845855,330.43,816,764,0
4845865,332.57,816,765,0
4845875,334.50,816,764,0
4845885,337.14,816,765,0
4845895,339.41,816,764,0
4845905,342.20,816,765,0
4845915,344.46,816,764,0
4845925,346.89,816,765,0
4845935,348.55,816,764,0
4845945,350.36,816,765,0
4845955,351.24,816,764,0
4845965,352.07,816,765,0
4845975,351.79,816,764,0
4845985,351.38,816,764,0
4845996,350.45,816,764,0
4846006,350.15,816,765,0
4846016,350.83,816,764,0
4846026,354.57,816,765,0
4846036,362.67,816,764,0
4846046,377.81,816,765,0
4846056,401.52,816,764,0
4846066,435.40,816,765,0
4846086,476.38,805,764,0
4846089,521.39,805,767,0
4846098,567.35,805,764,0
4846108,611.47,805,765,0
4846118,650.89,805,764,0
4846128,683.11,805,765,0
4846138,706.17,805,764,0
4846148,722.32,805,765,0
4846158,733.63,805,764,0
4846168,741.54,805,765,0
4846178,747.08,805,764,0
4846188,750.95,805,765,0
4846198,753.67,805,764,0
4846209,755.57,805,765,0
4846219,756.13,805,764,0
4846229,753.30,805,764,0
4846239,745.45,805,764,0
4846249,731.65,805,765,0
4846259,711.44,805,764,0
4846269,684.69,805,764,0
4846279,651.48,805,764,0
4846289,613.07,805,765,0
4846299,572.16,805,764,0
4846309,531.31,805,764,0
4846319,492.35,805,764,0
4846329,456.50,805,765,0
4846339,425.02,805,764,0
4846349,398.57,805,764,0
4846359,377.57,805,764,0
4846369,362.14,805,765,0
4846380,352.24,805,764,0
4846390,347.33,805,764,0
4846400,347.06,805,764,0
4846410,350.25,805,764,0
4846420,356.35,805,764,0
4846430,364.00,805,764,0
4846440,372.49,805,764,0
4846450,380.48,805,764,0
4846460,387.62,805,764,0
4846470,392.84,805,764,0
4846480,395.97,805,764,0
4846490,396.45,805,764,0
4846500,394.90,805,764,0
4846510,391.12,805,764,0
4846520,385.85,805,764,0
4846530,379.08,805,764,0
4846540,371.82,805,764,0
4846551,364.07,805,764,0
4846561,356.85,805,764,0
4846571,349.82,805,764,0
4846581,343.88,805,764,0
4846592,338.60,805,764,0
4846601,334.65,805,764,0
4846611,331.50,805,764,0
4846621,329.85,805,764,0
4846631,328.78,805,764,0
4846641,328.97,805,764,0
4846651,329.45,805,764,0
4846661,330.86,805,764,0
4846671,332.32,805,764,0
4846681,334.45,805,764,0
4846691,336.37,805,764,0
4846701,338.79,805,764,0
4846711,340.74,805,764,0
4846721,342.96,805,764,0
4846731,344.86,805,764,0
4846741,346.74,805,764,0
4846751,347.93,805,764,0
4846761,348.85,805,764,0
4846771,348.77,805,764,0
4846781,348.71,805,764,0
4846791,347.73,805,764,0
4846801,346.78,805,764,0
4846811,345.99,805,764,0
4846821,346.98,805,764,0
4846831,350.71,805,764,0
4846841,359.97,805,764,0
4846851,375.32,805,764,0
4846861,399.78,805,764,0
4846871,433.66,805,764,0
4846881,474.95,805,764,0
4846901,519.96,816,763,0
4846904,566.18,816,765,0
4846913,610.01,816,764,0
4846923,649.52,816,765,0
4846934,681.76,816,764,0
4846943,705.28,816,765,0
4846953,721.74,816,764,0
4846963,733.26,816,765,0
4846973,741.28,816,764,0
4846983,746.90,816,765,0
4846993,750.83,816,764,0
4847003,753.58,816,765,0
4847013,755.51,816,764,0
4847023,755.87,816,765,0
4847033,752.22,816,764,0
4847043,743.93,816,765,0
4847053,729.46,816,764,0
4847063,709.27,816,765,0
4847073,682.36,816,764,0
4847083,649.47,816,764,0
4847093,611.31,816,764,0
4847104,571.75,816,765,0
4847113,531.58,816,764,0
4847123,493.78,816,764,0
4847133,458.14,816,764,0
4847143,427.07,816,765,0
4847153,400.26,816,764,0
4847163,379.19,816,764,0
4847173,362.93,816,764,0
4847183,352.37,816,765,0
4847193,345.96,816,764,0
4847203,344.25,816,764,0
4847213,345.59,816,764,0
4847223,350.00,816,765,0
4847233,355.74,816,765,0
4847243,362.51,816,764,0
4847253,368.44,816,764,0
4847263,374.22,816,765,0
4847273,378.10,816,764,0
4847283,381.03,816,764,0
4847293,381.40,816,764,0
4847303,380.34,816,765,0
4847313,376.90,816,764,0
4847323,372.81,816,765,0
4847333,366.91,816,764,0
4847343,360.77,816,765,0
4847353,353.72,816,764,0
4847363,347.29,816,764,0
4847373,340.95,816,764,0
4847383,335.99,816,765,0
4847393,331.19,816,764,0
4847404,327.96,816,765,0
4847414,325.40,816,764,0
4847424,324.13,816,765,0
4847434,323.19,816,764,0
4847444,323.26,816,765,0
4847454,323.44,816,764,0
4847464,324.59,816,765,0
4847474,325.44,816,764,0
4847484,327.07,816,765,0
4847494,328.08,816,764,0
4847504,329.81,816,765,0
4847514,330.77,816,764,0
4847524,332.21,816,765,0
4847534,332.96,816,764,0
4847544,334.13,816,765,0
4847554,334.52,816,764,0
4847564,335.48,816,765,0
4847575,335.85,816,764,0
4847585,336.84,816,765,0
4847595,337.31,816,764,0
4847605,338.38,816,765,0
4847616,338.99,816,764,0
4847625,339.94,816,765,0
4847635,340.21,816,764,0
4847645,340.49,816,765,0
4847655,340.30,816,764,0
4847665,340.90,816,765,0
4847675,342.60,816,764,0
4847685,347.86,816,765,0
4847695,358.06,816,764,0
4847705,376.04,816,765,0
4847724,403.46,823,764,0
4847727,440.78,823,765,0
4847736,484.22,823,764,0
4847746,531.04,823,765,0
4847756,577.83,823,764,0
4847766,621.89,823,765,0
4847776,660.11,823,764,0
4847787,690.12,823,765,0
4847796,711.13,823,764,0
4847806,725.83,823,765,0
4847816,736.13,823,764,0
4847826,743.33,823,765,0
4847836,748.37,823,764,0
4847846,751.90,823,765,0
4847856,754.33,823,764,0
4847866,756.08,823,765,0
4847876,757.30,823,764,0
4847886,758.15,823,765,0
4847896,758.75,823,763,0
4847906,759.21,823,765,0
4847916,759.53,823,764,0
4847926,759.80,823,765,0
4847936,759.22,823,763,0
4847946,754.52,823,765,0
4847956,742.62,823,764,0
4847966,722.38,823,765,0
4847976,692.61,823,764,0
4847986,653.64,823,765,0
4847996,605.88,823,764,0
4848006,551.61,823,765,0
4848016,495.16,823,763,0
4848026,441.28,823,765,0
4848036,392.68,823,764,0
4848046,352.19,823,765,0
4848056,320.76,823,763,0
4848066,299.49,823,765,0
4848076,287.64,823,764,0
4848087,285.05,823,765,0
4848097,290.26,823,763,0
4848107,301.84,823,765,0
4848117,317.75,823,764,0
4848128,336.21,823,765,0
4848137,355.09,823,763,0
4848147,372.98,823,765,0
4848157,388.33,823,764,0
4848167,400.40,823,765,0
4848177,408.59,823,763,0
4848187,413.04,823,765,0
4848197,414.02,823,764,0
4848207,412.13,823,765,0
4848217,408.10,823,763,0
4848227,402.93,823,765,0
4848237,397.51,823,764,0
4848247,392.21,823,765,0
4848257,387.65,823,763,0
4848267,383.90,823,765,0
4848277,381.01,823,764,0
4848287,378.65,823,765,0
4848297,376.36,823,763,0
4848307,373.46,823,765,0
4848317,369.77,823,764,0
4848327,364.65,823,765,0
4848337,358.07,823,763,0
4848347,349.99,823,765,0
4848357,340.48,823,764,0
4848367,330.14,823,765,0
4848377,319.25,823,763,0
4848387,308.81,823,765,0
4848397,299.48,823,764,0
4848407,292.13,823,765,0
4848417,287.38,823,764,0
4848428,285.89,823,765,0
4848438,287.85,823,764,0
4848448,293.00,823,765,0
4848458,300.88,823,764,0
4848468,310.56,823,764,0
4848478,321.28,823,764,0
4848488,331.74,823,764,0
4848498,341.29,823,764,0
4848508,348.57,823,764,0
4848518,354.02,823,764,0
4848528,357.05,823,765,0
4848538,358.79,823,764,0
4848548,360.18,823,764,0
4848558,363.17,823,764,0
4848568,369.51,823,765,0
4848578,381.65,823,764,0
4848588,400.79,823,764,0
4848599,428.24,823,764,0
4848609,463.31,823,764,0
4848619,504.14,823,764,0
4848629,547.43,823,764,0
4848640,590.16,823,764,0
4848658,629.67,934,763,0
4848661,663.07,934,765,0
4848670,687.60,934,764,0
4848680,701.74,934,764,0
4848690,704.99,934,764,0
4848700,698.78,934,764,0
4848710,683.54,934,764,0
4848720,660.84,934,764,0
4848730,632.09,934,764,0
4848740,600.09,934,764,0
4848750,566.59,934,764,0
4848760,534.14,934,764,0
4848770,503.37,934,764,0
4848780,476.05,934,764,0
4848790,451.39,934,764,0
4848800,430.14,934,764,0
4848811,410.90,934,764,0
4848820,394.17,934,764,0
4848830,378.56,934,764,0
4848840,364.72,934,764,0
4848850,351.73,934,764,0
4848860,340.59,934,764,0
4848870,330.68,934,764,0
4848880,323.11,934,764,0
4848890,317.16,934,764,0
4848900,313.81,934,764,0
4848910,312.24,934,764,0
4848920,313.15,934,764,0
4848930,315.29,934,764,0
4848940,319.06,934,764,0
4848950,323.16,934,763,0
4848960,327.91,934,764,0
4848970,332.01,934,764,0
4848980,335.86,934,764,0
4848990,338.18,934,764,0
4849000,339.62,934,764,0
4849010,339.22,934,764,0
4849020,337.96,934,764,0
4849030,335.14,934,764,0
4849040,332.06,934,764,0
4849050,327.84,934,764,0
4849060,323.86,934,764,0
4849070,319.62,934,764,0
4849080,316.26,934,764,0
4849090,313.01,934,764,0
4849100,311.04,934,764,0
4849111,309.22,934,764,0
4849121,308.86,934,764,0
4849131,308.77,934,764,0
4849141,309.95,934,764,0
4849152,311.13,934,764,0
4849161,313.23,934,764,0
4849171,315.05,934,764,0
4849181,317.73,934,764,0
4849191,319.87,934,763,0
4849201,322.65,934,764,0
4849211,324.77,934,764,0
4849221,327.20,934,764,0
4849231,328.94,934,763,0
4849241,330.88,934,764,0
4849251,332.12,934,764,0
4849261,333.58,934,764,0
4849271,334.27,934,764,0
4849281,335.04,934,764,0
4849291,335.20,934,764,0
4849301,335.74,934,764,0
4849311,335.60,934,764,0
4849321,335.68,934,764,0
4849331,335.18,934,764,0
4849341,334.99,934,764,0
4849351,334.78,934,764,0
4849361,336.18,934,764,0
4849371,338.99,934,764,0
4849381,345.81,934,764,0
4849391,357.31,934,764,0
4849411,376.07,752,762,0
4849414,403.22,752,764,0
4849423,440.01,752,765,0
4849433,482.65,752,763,0
4849443,528.61,752,765,0
4849453,574.46,752,764,0
4849463,617.86,752,765,0
4849473,656.09,752,763,0
4849483,686.92,752,764,0
4849494,708.84,752,763,0
4849503,724.19,752,765,0
4849513,734.51,752,764,0
4849523,738.81,752,764,0
4849533,736.12,752,763,0
4849543,726.53,752,764,0
4849553,709.49,752,763,0
4849563,685.73,752,764,0
4849573,655.34,752,763,0
4849583,620.35,752,764,0
4849593,582.87,752,763,0
4849603,546.23,752,764,0
4849613,510.89,752,763,0
4849623,479.21,752,765,0
4849633,450.34,752,763,0
4849643,425.51,752,764,0
4849653,403.12,752,763,0
4849664,384.10,752,764,0
4849673,367.48,752,763,0
4849683,354.01,752,764,0
4849693,342.48,752,763,0
4849703,334.02,752,765,0
4849713,327.54,752,763,0
4849723,323.99,752,764,0
4849733,322.62,752,763,0
4849743,323.25,752,764,0
4849753,325.02,752,763,0
4849763,328.44,752,764,0
4849773,331.95,752,763,0
4849783,335.95,752,764,0
4849793,339.01,752,763,0
4849803,341.71,752,764,0
4849813,343.21,752,763,0
4849823,343.96,752,764,0
4849833,342.82,752,763,0
4849843,341.03,752,764,0
4849853,337.76,752,763,0
4849863,334.02,752,764,0
4849873,329.13,752,763,0
4849883,324.20,752,764,0
4849893,318.79,752,763,0
4849903,313.84,752,764,0
4849913,308.78,752,763,0
4849923,304.65,752,764,0
4849933,300.81,752,763,0
4849943,298.00,752,764,0
4849953,295.43,752,763,0
4849964,293.93,752,764,0
4849974,292.79,752,763,0
4849984,292.60,752,764,0
4849994,292.68,752,763,0
4850004,293.50,752,764,0
4850014,294.38,752,763,0
4850024,296.02,752,764,0
4850034,297.60,752,763,0
4850044,299.61,752,764,0
4850054,301.44,752,763,0
4850064,303.54,752,764,0
4850074,305.39,752,763,0
4850084,307.46,752,764,0
4850094,309.12,752,763,0
4850104,310.93,752,764,0
4850114,312.36,752,763,0
4850124,313.88,752,764,0
4850135,314.95,752,763,0
4850145,315.95,752,764,0
4850155,316.65,752,763,0
4850165,317.57,752,764,0
4850176,319.28,752,763,0
4850185,322.58,752,764,0
4850195,328.49,752,763,0
4850205,339.02,752,764,0
4850215,355.90,752,763,0
4850225,380.79,752,764,0
4850244,414.71,834,763,0
4850247,456.15,834,765,0
4850256,502.09,834,763,0
4850266,549.46,834,764,0
4850276,595.23,834,763,0
4850286,636.64,834,764,0
4850296,671.46,834,763,0
4850306,697.98,834,764,0
4850316,716.59,834,763,0
4850326,729.61,834,764,0
4850336,738.73,834,763,0
4850347,745.11,834,764,0
4850356,749.58,834,763,0
4850366,752.70,834,764,0
4850376,752.84,834,763,0
4850386,748.43,834,764,0
4850396,738.91,834,763,0
4850406,723.64,834,764,0
4850416,702.36,834,763,0
4850426,675.12,834,764,0
4850436,642.39,834,763,0
4850446,606.66,834,764,0
4850456,570.03,834,763,0
4850466,533.72,834,764,0
4850476,499.18,834,763,0
4850486,467.37,834,764,0
4850496,439.01,834,763,0
4850506,414.41,834,764,0
4850516,393.89,834,763,0
4850526,377.98,834,765,0
4850536,366.67,834,763,0
4850546,359.44,834,764,0
4850556,356.39,834,763,0
4850566,356.58,834,764,0
4850576,359.57,834,763,0
4850586,364.37,834,764,0
4850596,370.18,834,763,0
4850606,376.51,834,764,0
4850616,382.61,834,762,0
4850626,387.44,834,764,0
4850636,391.12,834,763,0
4850647,393.14,834,764,0
4850657,393.40,834,763,0
4850667,391.70,834,764,0
4850677,388.23,834,763,0
4850688,383.45,834,764,0
4850697,377.78,834,763,0
4850707,371.29,834,764,0
4850717,364.60,834,763,0
4850727,357.82,834,764,0
4850737,351.70,834,763,0
4850747,345.84,834,764,0
4850757,340.87,834,763,0
4850767,336.58,834,764,0
4850777,333.45,834,763,0
4850787,330.96,834,764,0
4850797,329.77,834,763,0
4850807,329.11,834,764,0
4850817,329.68,834,763,0
4850827,330.67,834,764,0
4850837,332.36,834,763,0
4850847,334.14,834,764,0
4850857,336.28,834,763,0
4850867,338.34,834,764,0
4850877,340.55,834,763,0
4850887,342.31,834,764,0
4850897,344.02,834,763,0
4850907,345.26,834,764,0
4850917,346.42,834,763,0
4850927,346.90,834,764,0
4850937,347.14,834,763,0
4850947,346.71,834,764,0
4850957,346.16,834,763,0
4850967,345.34,834,764,0
4850977,345.45,834,763,0
4850988,346.69,834,764,0
4850998,351.28,834,764,0
4851008,359.98,834,764,0
4851018,375.89,834,763,0
4851028,400.05,834,764,0
4851038,434.41,834,764,0
4851048,475.51,834,764,0
4851067,520.70,823,762,0
4851070,566.61,823,764,0
4851079,610.95,823,764,0
4851089,650.31,823,764,0
4851099,682.70,823,764,0
4851109,705.89,823,763,0
4851119,722.12,823,764,0
4851129,733.49,823,764,0
4851139,741.44,823,764,0
4851149,747.01,823,763,0
4851159,750.91,823,764,0
4851169,753.63,823,764,0
4851179,755.54,823,764,0
4851189,756.88,823,763,0
4851200,757.82,823,764,0
4851209,758.47,823,764,0
4851219,758.93,823,764,0
4851229,758.31,823,763,0
4851239,754.70,823,764,0
4851249,746.13,823,764,0
4851259,731.87,823,764,0
4851269,710.78,823,763,0
4851279,683.20,823,764,0
4851289,649.28,823,764,0
4851299,610.84,823,764,0
4851309,570.05,823,763,0
4851319,530.30,823,764,0
4851329,492.97,823,763,0
4851339,460.66,823,764,0
4851349,433.94,823,763,0
4851359,413.64,823,764,0
4851369,399.05,823,763,0
4851379,390.93,823,764,0
4851389,387.61,823,763,0
4851399,389.36,823,764,0
4851409,394.05,823,763,0
4851419,401.36,823,764,0
4851429,409.40,823,763,0
4851439,418.11,823,764,0
4851449,425.70,823,763,0
4851459,432.52,823,764,0
4851469,436.91,823,763,0
4851479,439.38,823,764,0
4851489,438.71,823,763,0
4851500,436.05,823,764,0
4851510,430.72,823,763,0
4851520,423.86,823,764,0
4851530,415.16,823,763,0
4851540,405.77,823,764,0
4851550,395.60,823,763,0
4851560,385.86,823,764,0
4851570,376.13,823,763,0
4851580,367.65,823,764,0
4851590,359.74,823,763,0
4851600,353.52,823,764,0
4851610,348.13,823,763,0
4851620,344.58,823,764,0
4851630,342.01,823,763,0
4851640,341.45,823,764,0
4851650,341.70,823,763,0
4851660,343.50,823,764,0
4851671,345.50,823,763,0
4851681,348.82,823,764,0
4851691,352.04,823,763,0
4851701,355.85,823,764,0
4851712,358.72,823,763,0
4851721,361.63,823,764,0
4851731,363.67,823,763,0
4851741,365.74,823,764,0
4851751,367.02,823,763,0
4851761,369.16,823,764,0
4851771,372.58,823,763,0
4851781,379.56,823,764,0
4851791,391.27,823,763,0
4851801,410.17,823,764,0
4851811,437.33,823,763,0
4851821,473.06,823,764,0
4851831,513.72,823,763,0
4851841,556.70,823,764,0
4851851,599.13,823,763,0
4851861,638.61,823,764,0
4851880,672.45,813,763,0
4851884,698.85,813,765,0
4851892,717.28,813,763,0
4851902,730.22,813,764,0
4851912,739.28,813,763,0
4851922,745.67,813,764,0
4851932,750.10,813,763,0
4851942,753.24,813,764,0
4851952,755.40,813,763,0
4851962,756.95,813,764,0
4851972,757.99,813,763,0
4851982,757.74,813,764,0
4851992,753.45,813,763,0
4852002,743.84,813,764,0
4852012,727.73,813,763,0
4852022,704.84,813,764,0
4852032,674.55,813,763,0
4852042,637.65,813,764,0
4852052,595.07,813,763,0
4852062,550.99,813,764,0
4852072,506.90,813,763,0
4852082,465.57,813,764,0
4852092,427.73,813,763,0
4852102,395.67,813,764,0
4852112,368.89,813,763,0
4852122,348.65,813,764,0
4852132,334.02,813,763,0
4852142,325.74,813,764,0
4852152,322.17,813,763,0
4852162,323.49,813,764,0
4852172,327.76,813,763,0
4852183,334.82,813,764,0
4852193,343.06,813,763,0
4852203,351.91,813,764,0
4852213,360.00,813,763,0
4852224,367.15,813,764,0
4852233,372.38,813,763,0
4852243,375.91,813,764,0
4852253,377.14,813,763,0
4852263,376.37,813,764,0
4852273,373.56,813,763,0
4852283,369.28,813,764,0
4852293,363.45,813,763,0
4852303,356.93,813,764,0
4852313,349.58,813,763,0
4852323,342.33,813,764,0
4852333,335.33,813,763,0
4852343,329.02,813,764,0
4852353,323.27,813,763,0
4852363,318.65,813,764,0
4852373,314.90,813,763,0
4852383,312.36,813,764,0
4852393,310.83,813,763,0
4852403,310.33,813,764,0
4852413,310.66,813,763,0
4852423,311.87,813,764,0
4852433,313.58,813,763,0
4852443,316.11,813,764,0
4852453,318.52,813,763,0
4852463,320.81,813,764,0
4852473,322.75,813,763,0
4852483,324.50,813,764,0
4852493,325.72,813,763,0
4852503,326.66,813,765,0
4852513,326.51,813,763,0
4852524,326.35,813,764,0
4852534,325.99,813,763,0
4852544,326.21,813,764,0
4852554,327.73,813,763,0
4852564,332.31,813,764,0
4852574,341.22,813,764,0
4852584,356.84,813,764,0
4852594,380.80,813,764,0
4852604,414.50,813,765,0
4852614,456.22,813,764,0
4852624,502.44,813,765,0
4852643,549.97,763,764,0
4852646,596.09,763,767,0
4852655,637.94,763,765,0
4852665,672.88,763,765,0
4852675,699.15,763,765,0
4852685,717.53,763,766,0
4852695,730.36,763,764,0
4852705,739.29,763,765,0
4852715,745.59,763,764,0
4852725,750.00,763,765,0
4852736,753.13,763,765,0
4852745,753.00,763,766,0
4852755,747.90,763,764,0
4852765,736.40,763,764,0
4852775,718.03,763,765,0
4852785,692.47,763,765,0
4852795,660.06,763,764,0
4852805,620.83,763,764,0
4852815,577.85,763,763,0
4852825,533.75,763,764,0
4852835,491.18,763,764,0
4852845,450.93,763,764,0
4852855,414.52,763,763,0
4852865,382.48,763,764,0
4852875,355.89,763,763,0
4852885,334.75,763,764,0
4852895,319.40,763,763,0
4852905,309.25,763,764,0
4852915,304.76,763,763,0
4852925,305.13,763,764,0
4852935,309.72,763,763,0
4852945,317.39,763,764,0
4852955,327.13,763,763,0
4852965,337.85,763,764,0
4852975,348.61,763,763,0
4852985,358.50,763,764,0
4852995,366.66,763,763,0
4853005,372.38,763,764,0
4853015,375.61,763,763,0
4853025,376.07,763,764,0
4853036,374.29,763,764,0
4853046,370.17,763,764,0
4853056,364.38,763,763,0
4853066,357.07,763,764,0
4853076,349.55,763,764,0
4853086,341.41,763,764,0
4853096,334.00,763,763,0
4853106,326.54,763,764,0
4853116,320.42,763,764,0
4853126,314.98,763,764,0
4853136,310.96,763,763,0
4853146,307.67,763,764,0
4853156,305.97,763,764,0
4853166,305.04,763,764,0
4853176,305.71,763,763,0
4853186,306.70,763,764,0
4853196,308.80,763,764,0
4853207,311.18,763,764,0
4853217,314.21,763,763,0
4853227,317.06,763,764,0
4853237,320.13,763,764,0
4853248,322.49,763,764,0
4853257,325.00,763,763,0
4853267,326.46,763,764,0
4853277,327.73,763,764,0
4853287,327.90,763,764,0
4853297,327.63,763,762,0
4853307,326.97,763,763,0
4853317,327.79,763,764,0
4853327,330.86,763,764,0
4853337,339.38,763,764,0
4853347,354.31,763,764,0
4853357,378.18,763,764,0
4853367,411.51,763,764,0
4853377,453.44,763,764,0
4853387,500.02,763,764,0
4853406,548.36,763,763,0
4853409,594.62,763,764,0
4853419,636.48,763,765,0
4853428,671.35,763,764,0
4853438,698.07,763,765,0
4853448,716.78,763,764,0
4853458,729.87,763,764,0
4853468,739.00,763,764,0
4853478,745.38,763,764,0
4853488,747.15,763,764,0
4853498,743.34,763,765,0
4853508,732.78,763,764,0
4853518,715.49,763,764,0
4853528,690.78,763,764,0
4853538,659.52,763,765,0
4853548,621.78,763,764,0
4853558,581.22,763,764,0
4853568,539.41,763,763,0
4853578,498.96,763,765,0
4853588,460.27,763,763,0
4853598,425.47,763,764,0
4853608,394.22,763,764,0
4853618,367.32,763,764,0
4853628,344.21,763,763,0
4853638,326.06,763,764,0
4853648,311.90,763,764,0
4853658,302.72,763,764,0
4853668,297.19,763,763,0
4853678,295.93,763,764,0
4853688,297.49,763,764,0
4853698,302.45,763,765,0
4853708,308.61,763,763,0
4853719,316.44,763,764,0
4853729,323.90,763,763,0
4853739,331.47,763,764,0
4853749,337.20,763,763,0
4853760,341.94,763,764,0
4853769,344.19,763,763,0
4853779,345.37,763,765,0
4853789,344.19,763,763,0
4853799,342.08,763,765,0
4853809,338.02,763,763,0
4853819,333.47,763,765,0
4853829,327.80,763,763,0
4853839,322.25,763,765,0
4853849,316.26,763,764,0
4853859,311.08,763,765,0
4853869,305.79,763,763,0
4853879,301.74,763,765,0
4853889,298.13,763,764,0
4853899,295.95,763,765,0
4853909,294.03,763,763,0
4853919,293.34,763,765,0
4853929,292.72,763,763,0
4853939,293.41,763,765,0
4853949,294.06,763,763,0
4853959,295.50,763,765,0
4853969,296.80,763,763,0
4853979,299.01,763,765,0
4853989,300.63,763,763,0
4853999,302.89,763,765,0
4854009,304.63,763,763,0
4854019,306.84,763,764,0
4854029,308.56,763,763,0
4854039,310.62,763,765,0
4854049,312.15,763,763,0
4854060,314.12,763,765,0
4854070,315.28,763,763,0
4854080,316.61,763,765,0
4854090,317.46,763,763,0
4854100,319.33,763,764,0
4854110,322.11,763,763,0
4854120,327.65,763,764,0
4854130,336.79,763,763,0
4854140,352.67,763,764,0
4854150,375.70,763,763,0
4854160,408.40,763,765,0
4854179,449.17,773,763,0
4854182,494.93,773,765,0
4854191,542.31,773,764,0
4854201,588.85,773,765,0
4854211,631.15,773,764,0
4854221,667.62,773,765,0
4854231,695.46,773,764,0
4854241,714.99,773,765,0
4854251,728.62,773,764,0
4854261,738.21,773,765,0
4854272,744.87,773,763,0
4854281,749.58,773,765,0
4854291,751.29,773,764,0
4854301,748.46,773,765,0
4854311,739.54,773,763,0
4854321,724.46,773,764,0
4854331,702.51,773,764,0
4854341,674.24,773,764,0
4854351,639.54,773,763,0
4854361,601.02,773,764,0
4854371,560.56,773,763,0
4854381,520.96,773,764,0
4854391,482.74,773,763,0
4854401,447.94,773,764,0
4854411,416.41,773,763,0
4854421,389.33,773,764,0
4854431,366.26,773,763,0
4854441,348.23,773,764,0
4854451,334.61,773,763,0
4854461,325.94,773,765,0
4854471,321.16,773,763,0
4854481,320.38,773,764,0
4854491,322.45,773,763,0
4854501,327.03,773,765,0
4854511,332.81,773,763,0
4854521,339.38,773,764,0
4854531,345.48,773,764,0
4854541,351.08,773,765,0
4854551,354.96,773,763,0
4854561,357.28,773,764,0
4854572,357.37,773,763,0
4854582,355.72,773,764,0
4854592,351.94,773,764,0
4854602,346.78,773,765,0
4854612,340.16,773,764,0
4854622,333.25,773,765,0
4854632,325.93,773,764,0
4854642,319.05,773,764,0
4854652,312.69,773,764,0
4854662,307.60,773,765,0
4854672,303.56,773,763,0
4854682,300.61,773,764,0
4854692,298.75,773,763,0
4854702,298.19,773,764,0
4854712,298.69,773,764,0
4854722,300.15,773,764,0
4854732,302.38,773,764,0
4854743,305.39,773,764,0
4854753,309.26,773,764,0
4854763,313.25,773,764,0
4854773,317.42,773,764,0
4854784,321.49,773,764,0
4854793,325.76,773,764,0
4854803,329.73,773,764,0
4854813,333.58,773,764,0
4854823,337.05,773,764,0
4854833,340.34,773,764,0
4854843,343.24,773,764,0
4854853,345.82,773,764,0
4854863,347.59,773,764,0
4854873,348.91,773,764,0
4854883,349.41,773,764,0
4854893,349.46,773,764,0
4854903,349.24,773,764,0
4854913,349.55,773,764,0
4854923,351.31,773,764,0
4854933,356.23,773,764,0
4854943,365.81,773,764,0
4854953,382.45,773,764,0
4854963,407.13,773,764,0
4854982,441.25,803,763,0
4854985,482.10,803,765,0
4854994,526.60,803,764,0
4855004,571.68,803,764,0
4855014,614.72,803,764,0
4855024,652.77,803,764,0
4855034,684.08,803,764,0
4855044,706.86,803,764,0
4855054,722.80,803,764,0
4855064,733.96,803,765,0
4855074,741.82,803,764,0
4855084,747.31,803,766,0
4855094,751.16,803,765,0
4855104,751.29,803,764,0
4855114,746.27,803,764,0
4855124,734.53,803,764,0
4855134,716.16,803,764,0
4855144,690.40,803,764,0
4855154,658.18,803,765,0
4855164,619.17,803,764,0
4855174,577.33,803,765,0
4855184,534.46,803,764,0
4855194,493.35,803,764,0
4855204,454.59,803,764,0
4855214,420.25,803,764,0
4855224,390.44,803,764,0
4855234,366.26,803,764,0
4855244,346.90,803,764,0
4855255,333.21,803,764,0
4855265,324.58,803,765,0
4855275,320.98,803,765,0
4855285,320.98,803,764,0
4855296,324.29,803,764,0
4855305,329.64,803,764,0
4855315,336.95,803,764,0
4855325,344.47,803,764,0
4855335,352.04,803,764,0
4855345,358.33,803,764,0
4855355,363.80,803,764,0
4855365,366.95,803,764,0
4855375,368.59,803,764,0
4855385,367.56,803,764,0
4855395,364.82,803,764,0
4855405,359.64,803,764,0
4855415,353.45,803,764,0
4855425,345.52,803,764,0
4855435,337.39,803,764,0
4855445,328.66,803,764,0
4855455,320.49,803,764,0
4855465,312.71,803,764,0
4855475,306.41,803,764,0
4855485,300.98,803,764,0
4855495,297.43,803,764,0
4855505,294.73,803,764,0
4855515,293.74,803,764,0
4855525,293.39,803,764,0
4855535,294.39,803,764,0
4855545,295.73,803,764,0
4855555,298.08,803,764,0
4855565,300.37,803,764,0
4855575,303.52,803,764,0
4855585,306.06,803,764,0
4855596,309.26,803,764,0
4855606,311.92,803,764,0
4855616,315.16,803,764,0
4855626,317.56,803,764,0
4855636,320.22,803,764,0
4855646,322.04,803,764,0
4855656,324.08,803,764,0
4855666,325.22,803,764,0
4855676,326.48,803,765,0
4855686,326.76,803,764,0
4855696,327.39,803,764,0
4855706,327.19,803,764,0
4855716,327.35,803,764,0
4855726,327.29,803,764,0
4855736,328.79,803,764,0
4855746,331.94,803,763,0
4855756,339.45,803,764,0
4855767,352.13,803,763,0
4855777,373.26,803,764,0
4855787,403.49,803,764,0
4855806,443.11,824,762,0
4855810,488.08,824,765,0
4855819,535.80,824,764,0
4855829,582.66,824,764,0
4855839,626.39,824,765,0
4855849,663.56,824,764,0
4855859,692.49,824,764,0
4855869,712.74,824,764,0
4855879,726.96,824,765,0
4855889,736.92,824,764,0
4855899,743.88,824,764,0
4855909,748.76,824,764,0
4855919,752.22,824,765,0
4855929,754.64,824,764,0
4855939,755.00,824,765,0
4855949,750.67,824,764,0
4855959,740.36,824,765,0
4855969,722.89,824,763,0
4855980,698.41,824,764,0
4855990,666.96,824,763,0
4856000,629.17,824,765,0
4856010,586.95,824,763,0
4856020,543.85,824,764,0
4856030,502.15,824,764,0
4856040,464.09,824,765,0
4856050,430.34,824,764,0
4856060,401.82,824,764,0
4856070,378.82,824,764,0
4856080,361.56,824,765,0
4856090,349.43,824,764,0
4856100,342.45,824,765,0
4856110,339.40,824,763,0
4856120,340.14,824,765,0
4856130,343.31,824,764,0
4856140,348.40,824,765,0
4856151,354.11,824,764,0
4856161,360.29,824,764,0
4856171,365.60,824,764,0
4856181,370.01,824,764,0
4856192,372.75,824,763,0
4856201,374.02,824,765,0
4856211,373.42,824,764,0
4856221,371.11,824,764,0
4856231,367.17,824,764,0
4856241,362.36,824,765,0
4856251,356.77,824,764,0
4856261,350.67,824,764,0
4856271,344.60,824,764,0
4856281,338.72,824,764,0
4856291,333.74,824,764,0
4856301,329.62,824,764,0
4856311,326.69,824,764,0
4856321,324.98,824,764,0
4856331,324.35,824,764,0
4856341,324.76,824,764,0
4856351,326.03,824,764,0
4856361,327.91,824,764,0
4856371,330.33,824,764,0
4856381,332.85,824,764,0
4856391,335.55,824,763,0
4856401,338.47,824,764,0
4856411,341.24,824,764,0
4856421,343.74,824,764,0
4856431,346.01,824,763,0
4856441,347.72,824,764,0
4856451,349.00,824,764,0
4856461,349.77,824,764,0
4856471,349.76,824,763,0
4856481,348.84,824,764,0
4856492,347.90,824,764,0
4856502,346.73,824,764,0
4856512,346.77,824,764,0
4856522,348.77,824,764,0
4856532,354.84,824,764,0
4856542,367.01,824,764,0
4856552,387.54,824,764,0
4856562,417.85,824,764,0
4856572,456.94,824,764,0
4856591,501.14,785,763,0
4856594,547.68,785,765,0
4856603,593.25,785,764,0
4856613,635.26,785,764,0
4856623,670.97,785,764,0
4856633,697.85,785,764,0
4856643,716.67,785,764,0
4856653,729.84,785,764,0
4856663,739.06,785,764,0
4856673,745.51,785,764,0
4856683,749.99,785,765,0
4856693,753.12,785,764,0
4856704,755.31,785,765,0
4856713,756.89,785,764,0
4856723,757.95,785,764,0
4856733,755.61,785,764,0
4856743,747.37,785,764,0
4856753,732.56,785,764,0
4856763,710.11,785,764,0
4856773,680.25,785,764,0
4856783,642.89,785,764,0
4856793,599.29,785,763,0
4856803,552.92,785,764,0
4856813,507.69,785,764,0
4856823,465.05,785,764,0
4856833,427.54,785,764,0
4856843,395.62,785,764,0
4856853,370.75,785,764,0
4856863,352.09,785,764,0
4856873,340.41,785,764,0
4856883,334.37,785,764,0
4856893,333.87,785,764,0
4856903,337.04,785,764,0
4856913,343.59,785,764,0
4856923,351.38,785,764,0
4856933,360.05,785,764,0
4856943,367.84,785,764,0
4856953,374.57,785,764,0
4856963,379.16,785,764,0
4856973,381.85,785,764,0
4856983,381.77,785,764,0
4856993,379.87,785,764,0
4857004,375.75,785,764,0
4857014,370.38,785,764,0
4857024,363.71,785,764,0
4857034,356.73,785,764,0
4857044,349.35,785,764,0
4857054,342.73,785,764,0
4857064,336.21,785,764,0
4857074,331.01,785,764,0
4857084,326.33,785,764,0
4857094,323.19,785,764,0
4857104,320.48,785,764,0
4857114,319.13,785,764,0
4857124,318.02,785,763,0
4857134,318.19,785,764,0
4857144,318.39,785,764,0
4857154,319.51,785,764,0
4857164,320.26,785,764,0
4857175,321.77,785,764,0
4857185,322.69,785,764,0
4857195,324.20,785,764,0
4857205,325.08,785,763,0
4857216,326.34,785,766,0
4857225,326.93,785,764,0
4857235,327.85,785,764,0
4857245,327.98,785,763,0
4857255,328.37,785,764,0
4857265,327.83,785,764,0
4857275,327.58,785,765,0
4857285,326.81,785,763,0
4857295,327.38,785,764,0
4857305,329.37,785,764,0
4857315,335.64,785,764,0
4857325,347.28,785,763,0
4857335,367.77,785,764,0
4857345,397.45,785,764,0
4857355,437.04,785,765,0
4857374,482.29,783,763,0
4857377,530.67,783,765,0
4857387,578.43,783,764,0
4857396,623.13,783,765,0
4857406,661.10,783,763,0
4857416,690.94,783,765,0
4857426,711.79,783,764,0
4857436,726.42,783,765,0
4857446,736.63,783,763,0
4857456,743.81,783,764,0
4857466,748.80,783,764,0
4857476,752.33,783,765,0
4857486,754.76,783,763,0
4857496,756.50,783,765,0
4857506,756.22,783,764,0
4857516,752.38,783,764,0
4857526,742.67,783,763,0
4857536,726.65,783,764,0
4857546,703.14,783,763,0
4857556,672.76,783,764,0
4857566,635.42,783,763,0
4857576,593.81,783,764,0
4857586,549.68,783,763,0
4857596,506.83,783,764,0
4857606,466.34,783,763,0
4857616,430.97,783,764,0
4857626,400.68,783,764,0
4857636,376.94,783,764,0
4857646,358.88,783,763,0
4857656,347.51,783,764,0
4857666,341.40,783,764,0
4857676,340.77,783,764,0
4857687,343.67,783,763,0
4857697,349.94,783,764,0
4857707,357.50,783,763,0
4857717,365.96,783,764,0
4857728,373.60,783,763,0
4857737,380.45,783,764,0
4857747,384.99,783,763,0
4857757,387.65,783,764,0
4857767,387.41,783,763,0
4857777,385.27,783,764,0
4857787,380.69,783,763,0
4857797,374.74,783,765,0
4857807,366.93,783,763,0
4857817,358.72,783,765,0
4857827,349.68,783,763,0
4857837,341.20,783,764,0
4857847,332.83,783,763,0
4857857,325.89,783,764,0
4857867,319.88,783,764,0
4857877,315.93,783,764,0
4857887,313.08,783,763,0
4857897,312.20,783,764,0
4857907,312.44,783,763,0
4857917,314.41,783,764,0
4857927,317.46,783,764,0
4857937,321.65,783,764,0
4857947,325.74,783,763,0
4857957,330.49,783,764,0
4857967,334.84,783,764,0
4857977,339.22,783,764,0
4857987,342.71,783,764,0
4857997,345.58,783,765,0
4858007,347.38,783,763,0
4858017,348.98,783,764,0
4858028,349.41,783,763,0
4858038,349.59,783,764,0
4858048,349.16,783,763,0
4858058,349.37,783,764,0
4858068,350.88,783,763,0
4858078,355.76,783,764,0
4858088,365.31,783,763,0
4858098,382.61,783,764,0
4858108,409.13,783,764,0
4858118,445.56,783,764,0
4858128,488.12,783,764,0
4858147,533.86,773,762,0
4858150,579.80,773,764,0
4858159,623.36,773,765,0
4858169,661.18,773,764,0
4858179,691.00,773,764,0
4858189,711.87,773,764,0
4858199,726.52,773,765,0
4858209,736.74,773,764,0
4858219,743.89,773,765,0
4858229,748.89,773,764,0
4858240,752.44,773,765,0
4858249,754.96,773,764,0
4858259,756.69,773,764,0
4858269,757.85,773,764,0
4858279,755.50,773,765,0
4858289,747.63,773,764,0
4858299,732.83,773,764,0
4858309,710.25,773,763,0
4858319,679.79,773,764,0
4858329,642.05,773,764,0
4858339,597.38,773,764,0
4858349,549.69,773,763,0
4858359,502.00,773,764,0
4858369,457.13,773,764,0
4858379,417.10,773,764,0
4858389,383.00,773,764,0
4858399,355.32,773,764,0
4858409,334.69,773,764,0
4858419,321.03,773,764,0
4858429,313.86,773,763,0
4858439,312.40,773,764,0
4858449,315.45,773,764,0
4858459,322.13,773,764,0
4858469,331.05,773,763,0
4858479,340.72,773,764,0
4858489,350.36,773,764,0
4858499,358.91,773,764,0
4858509,365.41,773,764,0
4858519,369.61,773,764,0
4858529,371.32,773,764,0
4858540,370.32,773,764,0
4858550,367.18,773,764,0
4858560,361.64,773,764,0
4858570,354.72,773,764,0
4858580,346.62,773,764,0
4858590,338.29,773,764,0
4858600,329.67,773,764,0
4858610,321.76,773,764,0
4858620,314.67,773,764,0
4858630,309.11,773,764,0
4858640,304.79,773,764,0
4858650,302.16,773,764,0
4858660,300.65,773,764,0
4858670,300.58,773,764,0
4858680,301.44,773,764,0
4858690,303.24,773,764,0
4858700,305.52,773,764,0
4858711,308.41,773,764,0
4858721,311.33,773,764,0
4858731,314.53,773,764,0
4858741,317.41,773,764,0
4858752,320.55,773,764,0
4858761,323.04,773,764,0
4858771,325.26,773,764,0
4858781,326.51,773,764,0
4858791,327.68,773,764,0
4858801,327.65,773,764,0
4858811,327.58,773,764,0
4858821,326.59,773,764,0
4858831,325.94,773,764,0
4858841,326.26,773,764,0
4858851,329.23,773,764,0
4858861,336.02,773,764,0
4858871,349.90,773,764,0
4858881,371.96,773,764,0
4858891,405.01,773,764,0
4858901,446.67,773,764,0
4858920,493.44,773,763,0
4858924,542.25,773,764,0
4858932,590.05,773,765,0
4858942,633.45,773,764,0
4858952,670.13,773,764,0
4858962,697.17,773,764,0
4858972,716.15,773,764,0
4858982,729.43,773,764,0
4858992,738.73,773,764,0
4859002,745.24,773,764,0
4859012,749.84,773,764,0
4859022,753.02,773,764,0
4859032,755.28,773,764,0
4859042,756.83,773,764,0
4859052,755.25,773,764,0
4859062,747.85,773,764,0
4859072,733.66,773,764,0
4859082,711.39,773,764,0
4859092,681.45,773,764,0
4859102,643.81,773,764,0
4859112,599.38,773,764,0
4859122,551.05,773,764,0
4859132,502.99,773,764,0
4859142,456.88,773,764,0
4859152,415.60,773,764,0
4859162,379.42,773,764,0
4859172,349.90,773,764,0
4859182,326.53,773,764,0
4859192,310.34,773,764,0
4859202,300.08,773,764,0
4859212,296.24,773,764,0
4859223,296.90,773,764,0
4859233,301.99,773,764,0
4859243,309.23,773,763,0
4859253,318.85,773,764,0
4859264,328.37,773,763,0
4859273,338.07,773,764,0
4859283,345.76,773,764,0
4859293,351.88,773,764,0
4859303,355.26,773,764,0
4859313,356.81,773,764,0
4859323,355.32,773,764,0
4859333,352.40,773,764,0
4859343,347.39,773,764,0
4859353,341.66,773,764,0
4859363,334.78,773,764,0
4859373,328.16,773,765,0
4859383,321.25,773,763,0
4859393,315.61,773,764,0
4859403,310.50,773,764,0
4859413,306.92,773,765,0
4859423,304.07,773,764,0
4859433,303.11,773,764,0
4859443,302.60,773,764,0
4859453,303.62,773,764,0
4859463,304.85,773,764,0
4859473,307.25,773,764,0
4859483,309.53,773,763,0
4859493,312.80,773,764,0
4859503,315.82,773,764,0
4859513,319.73,773,764,0
4859523,323.33,773,764,0
4859533,327.47,773,765,0
4859543,330.84,773,763,0
4859553,334.49,773,764,0
4859564,337.17,773,763,0
4859574,339.78,773,764,0
4859584,341.22,773,764,0
4859594,342.65,773,764,0
4859604,343.53,773,763,0
4859614,345.77,773,764,0
4859624,349.61,773,764,0
4859634,358.13,773,764,0
4859644,372.36,773,763,0
4859654,395.22,773,765,0
4859664,427.43,773,764,0
4859674,467.63,773,765,0
4859694,512.10,773,763,0
4859697,558.44,773,765,0
4859706,603.09,773,764,0
4859716,643.69,773,765,0
4859726,677.34,773,763,0
4859736,702.31,773,765,0
4859746,719.75,773,763,0
4859756,731.95,773,765,0
4859766,740.45,773,763,0
4859777,746.36,773,765,0
4859787,750.54,773,763,0
4859797,753.46,773,765,0
4859807,754.01,773,763,0
4859817,749.98,773,765,0
4859827,739.91,773,763,0
4859837,722.80,773,765,0
4859847,698.04,773,763,0
4859857,665.67,773,764,0
4859867,626.30,773,763,0
4859877,581.98,773,765,0
4859887,535.92,773,763,0
4859897,490.34,773,764,0
4859907,447.55,773,763,0
4859917,409.16,773,765,0
4859927,376.07,773,763,0
4859937,348.92,773,765,0
4859948,327.99,773,764,0
4859958,313.55,773,764,0
4859968,305.28,773,763,0
4859978,302.54,773,764,0
4859988,304.44,773,764,0
4859998,310.09,773,765,0
4860008,318.08,773,763,0
4860018,327.44,773,764,0
4860028,336.91,773,764,0
4860038,345.94,773,765,0
4860048,353.63,773,763,0
4860058,359.27,773,764,0
4860068,362.83,773,764,0
4860078,364.17,773,765,0
4860088,363.26,773,763,0
4860098,360.14,773,764,0
4860108,355.47,773,764,0
4860119,349.16,773,764,0
4860129,342.21,773,763,0
4860139,334.48,773,764,0
4860149,327.00,773,764,0
4860160,319.46,773,764,0
4860169,312.89,773,763,0
4860179,306.75,773,766,0
4860189,301.68,773,766,0
4860199,297.32,773,767,0
4860209,294.18,773,765,0
4860219,291.73,773,764,0
4860229,290.70,773,764,0
4860239,290.36,773,764,0
4860249,291.19,773,763,0
4860259,292.89,773,764,0
4860269,295.88,773,764,0
4860279,299.52,773,764,0
4860289,303.95,773,763,0
4860299,308.63,773,764,0
4860309,313.72,773,764,0
4860319,318.30,773,764,0
4860329,322.67,773,763,0
4860339,325.90,773,764,0
4860349,328.46,773,764,0
4860359,329.65,773,764,0
4860369,330.10,773,764,0
4860379,329.68,773,764,0
4860389,330.03,773,764,0
4860399,332.12,773,764,0
4860409,338.52,773,764,0
4860419,350.58,773,764,0
4860429,371.36,773,764,0
4860439,402.02,773,764,0
4860449,442.13,773,764,0
4860460,487.82,773,764,0
4860479,536.05,786,763,0
4860482,583.43,786,765,0
4860491,627.40,786,765,0
4860502,664.70,786,764,0
4860511,693.37,786,765,0
4860521,713.45,786,764,0
4860531,727.50,786,766,0
4860541,737.38,786,765,0
4860551,744.29,786,765,0
4860561,749.13,786,765,0
4860571,752.52,786,765,0
4860581,754.85,786,764,0
4860591,754.12,786,764,0
4860601,748.04,786,764,0
4860611,735.47,786,766,0
4860621,715.15,786,765,0
4860631,687.55,786,764,0
4860641,652.45,786,764,0
4860651,610.45,786,766,0
4860661,563.94,786,766,0
4860672,516.60,786,767,0
4860681,470.22,786,769,0
4860691,427.68,786,774,0
4860701,389.51,786,772,0
4860711,357.64,786,776,0
4860721,331.69,786,774,0
4860731,313.01,786,777,0
4860741,300.97,786,769,0
4860751,296.35,786,770,0
4860761,297.14,786,771,0
4860771,302.97,786,776,0
4860781,311.08,786,777,0
4860791,321.68,786,778,0
4860801,332.36,786,778,0
4860811,342.88,786,772,0
4860821,352.13,786,766,0
4860831,360.06,786,766,0
4860841,365.06,786,767,0
4860851,368.30,786,766,0
4860861,368.72,786,764,0
4860871,367.65,786,765,0
4860881,364.50,786,764,0
4860891,359.08,786,764,0
4860901,351.60,786,763,0
4860911,344.00,786,766,0
4860921,335.65,786,765,0
4860931,328.04,786,766,0
4860941,320.40,786,766,0
4860951,313.89,786,767,0
4860961,308.01,786,765,0
4860972,304.06,786,766,0
4860982,300.57,786,766,0
4860992,298.86,786,769,0
4861002,297.40,786,771,0
4861012,297.32,786,776,0
4861022,297.14,786,775,0
4861032,297.91,786,778,0
4861042,298.58,786,777,0
4861052,300.08,786,778,0
4861062,301.38,786,777,0
4861072,304.10,786,772,0
4861082,307.11,786,764,0
4861092,311.19,786,767,0
4861102,315.12,786,765,0
4861112,319.80,786,767,0
4861122,325.09,786,768,0
4861132,332.95,786,773,0
4861143,343.42,786,775,0
4861153,359.19,786,778,0
4861163,381.68,786,778,0
4861173,413.49,786,779,0
4861184,453.24,786,778,0
4861193,498.17,786,779,0
4861203,544.62,786,779,0
4861222,590.38,743,777,0
4861225,632.26,743,780,0
4861234,668.14,743,779,0
4861244,695.53,743,779,0
4861254,714.74,743,779,0
4861264,728.15,743,779,0
4861274,737.57,743,779,0
4861284,744.13,743,779,0
4861294,746.15,743,779,0
4861304,742.25,743,779,0
4861314,732.36,743,779,0
4861324,715.54,743,779,0
4861334,691.98,743,779,0
4861344,661.64,743,779,0
4861355,625.28,743,779,0
4861364,585.81,743,779,0
4861374,545.88,743,779,0
4861384,506.40,743,779,0
4861394,469.47,743,779,0
4861404,435.60,743,779,0
4861414,405.93,743,779,0
4861424,380.32,743,779,0
4861434,359.48,743,779,0
4861444,343.18,743,779,0
4861454,331.98,743,779,0
4861464,325.22,743,779,0
4861474,323.01,743,779,0
4861484,324.29,743,779,0
4861494,328.58,743,779,0
4861504,334.75,743,779,0
4861514,342.19,743,779,0
4861524,349.72,743,779,0
4861534,356.88,743,779,0
4861544,362.48,743,779,0
4861554,366.63,743,779,0
4861564,369.09,743,779,0
4861574,369.88,743,779,0
4861584,368.42,743,779,0
4861594,365.33,743,779,0
4861604,360.61,743,779,0
4861614,355.15,743,779,0
4861624,348.85,743,779,0
4861634,342.29,743,779,0
4861644,335.43,743,779,0
4861655,329.78,743,779,0
4861665,324.66,743,779,0
4861675,320.82,743,779,0
4861685,318.00,743,779,0
4861696,316.54,743,779,0
4861705,316.04,743,779,0
4861715,316.88,743,779,0
4861725,318.33,743,779,0
4861735,320.55,743,779,0
4861745,323.00,743,779,0
4861755,325.61,743,779,0
4861765,328.00,743,779,0
4861775,330.14,743,779,0
4861785,331.77,743,779,0
4861795,332.83,743,779,0
4861805,333.48,743,779,0
4861815,334.28,743,779,0
4861825,335.61,743,779,0
4861835,338.90,743,779,0
4861845,345.66,743,779,0
4861855,357.76,743,779,0
4861865,377.25,743,779,0
4861875,405.42,743,779,0
4861885,442.79,743,779,0
4861895,486.22,743,779,0
4861915,532.40,692,778,0
4861918,578.48,692,779,0
4861927,621.62,692,779,0
4861937,659.06,692,779,0
4861947,689.04,692,779,0
4861957,710.16,692,779,0
4861967,724.98,692,779,0
4861977,735.36,692,779,0
4861987,742.62,692,779,0
4861997,747.66,692,778,0
4862007,751.24,692,779,0
4862017,751.98,692,779,0
4862027,748.34,692,779,0
4862038,738.64,692,778,0
4862047,723.02,692,779,0
4862057,700.47,692,779,0
4862067,671.19,692,779,0
4862077,635.26,692,778,0
4862087,595.58,692,779,0
4862097,554.26,692,779,0
4862107,513.73,692,779,0
4862117,474.85,692,778,0
4862127,439.54,692,779,0
4862137,408.52,692,779,0
4862147,382.82,692,779,0
4862157,362.09,692,778,0
4862167,346.89,692,779,0
4862177,336.81,692,779,0
4862187,331.94,692,779,0
4862197,331.06,692,778,0
4862208,334.04,692,779,0
4862217,339.26,692,778,0
4862227,346.38,692,779,0
4862237,354.28,692,778,0
4862247,362.64,692,779,0
4862257,370.12,692,779,0
4862267,376.77,692,779,0
4862277,381.38,692,778,0
4862287,384.52,692,779,0
4862297,385.31,692,778,0
4862307,384.23,692,779,0
4862317,381.12,692,779,0
4862327,376.58,692,779,0
4862337,370.97,692,779,0
4862347,364.80,692,779,0
4862357,357.88,692,779,0
4862367,351.40,692,779,0
4862377,344.77,692,779,0
4862387,339.18,692,779,0
4862397,334.15,692,779,0
4862407,330.25,692,779,0
4862417,327.18,692,779,0
4862427,325.58,692,779,0
4862437,324.38,692,779,0
4862447,324.52,692,779,0
4862457,325.09,692,779,0
4862467,326.48,692,779,0
4862477,328.05,692,779,0
4862487,330.22,692,779,0
4862497,332.38,692,779,0
4862508,334.93,692,779,0
4862518,337.22,692,778,0
4862528,339.55,692,779,0
4862538,341.96,692,779,0
4862548,345.40,692,779,0
4862558,350.38,692,779,0
4862568,358.54,692,779,0
4862578,371.15,692,779,0
4862588,390.95,692,779,0
4862598,418.65,692,779,0
4862608,455.27,692,779,0
4862618,497.10,692,779,0
4862628,541.60,692,779,0
4862647,585.82,733,778,0
4862650,627.53,733,780,0
4862659,663.50,733,779,0
4862669,692.32,733,779,0
4862679,712.50,733,779,0
4862689,726.66,733,779,0
4862699,736.53,733,779,0
4862709,743.49,733,779,0
4862720,748.36,733,779,0
4862729,751.76,733,779,0
4862739,754.15,733,779,0
4862749,755.86,733,779,0
4862759,755.22,733,779,0
4862769,750.82,733,779,0
4862779,740.63,733,779,0
4862789,724.24,733,779,0
4862799,700.86,733,778,0
4862809,670.94,733,779,0
4862819,634.45,733,779,0
4862829,594.20,733,779,0
4862839,551.88,733,779,0
4862849,510.90,733,779,0
4862859,472.06,733,779,0
4862869,437.50,733,779,0
4862879,407.22,733,778,0
4862889,382.64,733,779,0
4862899,363.03,733,779,0
4862909,349.44,733,779,0
4862919,340.69,733,778,0
4862929,337.23,733,779,0
4862939,337.89,733,779,0
4862949,342.34,733,779,0
4862959,348.49,733,779,0
4862969,356.44,733,779,0
4862979,364.41,733,779,0
4862989,372.39,733,779,0
4862999,378.66,733,779,0
4863009,383.26,733,779,0
4863020,385.41,733,779,0
4863030,386.10,733,779,0
4863040,384.40,733,779,0
4863050,381.37,733,779,0
4863060,376.46,733,779,0
4863070,371.39,733,779,0
4863080,365.27,733,779,0
4863090,359.53,733,779,0
4863100,353.20,733,779,0
4863110,347.57,733,779,0
4863120,342.00,733,779,0
4863130,337.46,733,779,0
4863140,332.99,733,779,0
4863150,329.87,733,779,0
4863160,326.95,733,779,0
4863170,325.72,733,779,0
4863180,325.12,733,779,0
4863191,325.68,733,779,0
4863201,326.46,733,779,0
4863211,328.08,733,779,0
4863221,329.69,733,779,0
4863232,331.79,733,779,0
4863241,333.27,733,779,0
4863251,335.03,733,779,0
4863261,336.14,733,779,0
4863271,337.47,733,779,0
4863281,338.06,733,779,0
4863291,339.02,733,779,0
4863301,339.92,733,779,0
4863311,342.38,733,779,0
4863321,346.47,733,779,0
4863331,354.81,733,779,0
4863341,368.58,733,779,0
4863351,390.48,733,779,0
4863361,420.64,733,779,0
4863371,459.45,733,779,0
4863381,502.98,733,779,0
4863400,548.80,753,778,0
4863404,593.60,753,779,0
4863412,634.82,753,779,0
4863422,669.68,753,779,0
4863432,696.77,753,779,0
4863442,715.74,753,779,0
4863452,729.02,753,779,0
4863462,738.31,753,779,0
4863472,744.82,753,779,0
4863482,749.37,753,779,0
4863492,752.56,753,779,0
4863502,754.79,753,779,0
4863512,756.36,753,779,0
4863522,754.45,753,779,0
4863532,748.31,753,779,0
4863542,735.96,753,779,0
4863552,716.77,753,779,0
4863562,690.44,753,779,0
4863572,657.14,753,779,0
4863582,617.20,753,779,0
4863592,574.45,753,779,0
4863602,530.26,753,779,0
4863612,487.67,753,779,0
4863622,448.04,753,779,0
4863632,412.88,753,779,0
4863642,382.58,753,779,0
4863652,357.93,753,779,0
4863662,338.58,753,779,0
4863672,325.12,753,779,0
4863682,316.90,753,779,0
4863692,313.84,753,779,0
4863703,314.70,753,779,0
4863713,319.25,753,779,0
4863723,326.03,753,779,0
4863733,334.47,753,779,0
4863744,343.07,753,779,0
4863753,351.58,753,779,0
4863763,358.69,753,779,0
4863773,364.31,753,779,0
4863783,367.73,753,779,0
4863793,369.27,753,779,0
4863803,368.85,753,779,0
4863813,366.53,753,779,0
4863823,362.30,753,779,0
4863833,357.07,753,779,0
4863843,351.13,753,779,0
4863853,345.01,753,779,0
4863863,338.79,753,779,0
4863873,332.77,753,779,0
4863883,327.31,753,779,0
4863893,322.72,753,779,0
4863903,318.77,753,779,0
4863913,315.58,753,779,0
4863923,313.05,753,779,0
4863933,311.58,753,779,0
4863943,310.72,753,779,0
4863953,310.76,753,779,0
4863963,311.22,753,779,0
4863973,312.10,753,779,0
4863983,313.31,753,779,0
4863993,314.85,753,779,0
4864003,316.22,753,779,0
4864013,317.91,753,779,0
4864023,319.52,753,779,0
4864033,321.21,753,779,0
4864044,322.99,753,779,0
4864054,324.58,753,779,0
4864064,326.03,753,779,0
4864074,327.09,753,779,0
4864084,327.84,753,779,0
4864094,328.27,753,779,0
4864104,328.66,753,779,0
4864114,329.36,753,779,0
4864124,331.44,753,779,0
4864134,335.89,753,779,0
4864144,344.54,753,779,0
4864154,358.91,753,779,0
4864164,381.09,753,779,0
4864174,412.01,753,779,0
4864184,451.56,753,779,0
4864203,496.09,803,778,0
4864206,542.65,803,780,0
4864215,588.31,803,779,0
4864225,630.43,803,779,0
4864235,666.35,803,779,0
4864245,694.44,803,780,0
4864256,714.11,803,779,0
4864265,727.88,803,779,0
4864275,737.51,803,779,0
4864285,744.26,803,779,0
4864295,748.98,803,779,0
4864305,752.33,803,780,0
4864315,753.73,803,779,0
4864325,751.03,803,779,0
4864335,742.66,803,779,0
4864345,728.06,803,779,0
4864355,706.70,803,779,0
4864365,678.55,803,779,0
4864375,643.75,803,779,0
4864385,603.93,803,779,0
4864395,561.78,803,779,0
4864405,519.97,803,779,0
4864415,479.57,803,779,0
4864425,442.24,803,779,0
4864435,408.53,803,778,0
4864445,379.48,803,779,0
4864455,354.78,803,779,0
4864465,335.26,803,779,0
4864475,320.27,803,778,0
4864485,310.24,803,779,0
4864495,304.34,803,779,0
4864505,302.53,803,779,0
4864515,303.57,803,778,0
4864525,307.25,803,779,0
4864535,312.19,803,778,0
4864545,318.26,803,779,0
4864556,324.23,803,778,0
4864566,329.99,803,779,0
4864576,334.96,803,772,0
4864586,339.60,803,765,0
4864596,343.11,803,764,0
4864606,345.39,803,764,0
4864616,345.70,803,764,0
4864626,344.68,803,764,0
4864636,341.82,803,764,0
4864646,337.59,803,764,0
4864656,331.32,803,764,0
4864666,324.50,803,764,0
4864676,317.23,803,764,0
4864686,310.91,803,764,0
4864696,305.19,803,764,0
4864706,301.15,803,765,0
4864716,298.32,803,765,0
4864727,297.49,803,765,0
4864737,297.77,803,765,0
4864747,299.69,803,765,0
4864757,302.31,803,765,0
4864768,306.07,803,764,0
4864777,309.82,803,765,0
4864787,314.12,803,765,0
4864797,318.11,803,765,0
4864807,322.11,803,766,0
4864817,325.55,803,766,0
4864827,329.03,803,766,0
4864837,331.85,803,766,0
4864847,334.81,803,767,0
4864857,337.09,803,764,0
4864867,339.47,803,764,0
4864877,341.25,803,764,0
4864887,343.24,803,764,0
4864897,344.45,803,764,0
4864907,345.73,803,767,0
4864917,346.11,803,767,0
4864927,346.51,803,770,0
4864937,345.84,803,774,0
4864947,345.25,803,777,0
4864957,344.31,803,778,0
4864967,345.03,803,779,0
4864977,347.98,803,778,0
4864987,355.74,803,776,0
4864997,369.92,803,765,0
4865007,393.17,803,765,0
4865027,425.48,823,763,0
4865030,466.05,823,766,0
4865039,510.91,823,764,0
4865049,557.39,823,765,0
4865059,602.32,823,764,0
4865069,642.81,823,765,0
4865079,676.17,823,764,0
4865089,701.49,823,764,0
4865099,719.17,823,764,0
4865110,731.59,823,765,0
4865119,740.24,823,764,0
4865129,746.34,823,764,0
4865139,750.61,823,764,0
4865149,753.64,823,765,0
4865159,752.85,823,764,0
4865169,747.07,823,764,0
4865179,734.75,823,763,0
4865189,715.92,823,765,0
4865199,690.23,823,765,0
4865209,658.28,823,767,0
4865219,620.09,823,764,0
4865229,579.65,823,765,0
4865239,538.83,823,764,0
4865249,500.18,823,764,0
4865259,464.13,823,764,0
4865269,432.07,823,765,0
4865280,403.98,823,763,0
4865289,380.93,823,764,0
4865299,362.14,823,763,0
4865309,348.30,823,765,0
4865319,338.78,823,763,0
4865329,334.26,823,764,0
4865339,333.37,823,763,0
4865349,336.30,823,765,0
4865359,341.40,823,763,0
4865369,348.73,823,764,0
4865379,356.57,823,763,0
4865389,364.67,823,765,0
4865399,371.46,823,763,0
4865409,377.49,823,765,0
4865419,381.16,823,763,0
4865429,383.00,823,764,0
4865439,382.18,823,763,0
4865449,379.47,823,764,0
4865459,374.53,823,763,0
4865469,368.46,823,764,0
4865479,360.91,823,764,0
4865489,353.09,823,764,0
4865499,344.58,823,763,0
4865509,336.35,823,765,0
4865519,328.06,823,763,0
4865529,320.80,823,764,0
4865539,313.79,823,763,0
4865549,308.19,823,765,0
4865559,303.08,823,763,0
4865569,299.71,823,765,0
4865580,297.01,823,763,0
4865590,295.77,823,765,0
4865600,295.06,823,763,0
4865610,295.65,823,764,0
4865620,296.35,823,763,0
4865630,298.13,823,765,0
4865640,299.81,823,763,0
4865650,302.26,823,764,0
4865660,304.84,823,763,0
4865670,307.89,823,765,0
4865680,310.67,823,763,0
4865690,313.59,823,764,0
4865700,316.12,823,763,0
4865710,318.82,823,765,0
4865720,321.06,823,763,0
4865730,323.23,823,765,0
4865740,324.83,823,763,0
4865751,326.34,823,765,0
4865761,327.27,823,763,0
4865771,328.04,823,765,0
4865781,328.42,823,763,0
4865792,329.19,823,765,0
4865801,330.55,823,763,0
4865811,333.94,823,765,0
4865821,340.39,823,763,0
4865831,351.93,823,765,0
4865841,369.48,823,763,0
4865851,395.18,823,765,0
4865870,429.71,844,764,0
4865873,471.41,844,765,0
4865882,516.72,844,764,0
4865892,562.74,844,765,0
4865902,606.49,844,763,0
4865912,646.07,844,765,0
4865922,678.88,844,764,0
4865932,703.34,844,765,0
4865942,720.47,844,763,0
4865952,732.41,844,765,0
4865963,740.78,844,764,0
4865972,746.63,844,765,0
4865982,750.73,844,763,0
4865992,752.82,844,765,0
4866002,750.99,844,764,0
4866012,744.05,844,765,0
4866022,731.01,844,763,0
4866032,711.50,844,764,0
4866042,685.51,844,763,0
4866052,653.51,844,764,0
4866062,616.67,844,763,0
4866072,577.73,844,765,0
4866082,538.81,844,764,0
4866092,501.62,844,764,0
4866102,467.32,844,763,0
4866112,436.54,844,764,0
4866122,409.72,844,763,0
4866132,387.05,844,764,0
4866142,369.03,844,763,0
4866152,355.39,844,764,0
4866162,345.98,844,763,0
4866172,340.54,844,764,0
4866182,338.71,844,763,0
4866192,339.74,844,764,0
4866202,343.12,844,763,0
4866212,347.92,844,764,0
4866222,353.43,844,763,0
4866232,359.30,844,764,0
4866242,364.70,844,764,0
4866252,369.25,844,764,0
4866263,372.47,844,763,0
4866273,374.04,844,764,0
4866283,373.90,844,764,0
4866293,371.87,844,764,0
4866304,368.31,844,763,0
4866313,363.42,844,764,0
4866323,357.76,844,764,0
4866333,351.45,844,764,0
4866343,345.19,844,764,0
4866353,338.92,844,764,0
4866363,333.54,844,764,0
4866373,328.58,844,764,0
4866383,324.68,844,764,0
4866393,321.35,844,764,0
4866403,319.14,844,764,0
4866413,317.47,844,764,0
4866423,316.86,844,764,0
4866433,316.73,844,764,0
4866443,317.45,844,764,0
4866453,318.43,844,764,0
4866463,320.06,844,764,0
4866473,321.71,844,764,0
4866483,323.86,844,764,0
4866493,325.83,844,764,0
4866503,328.11,844,764,0
4866513,330.05,844,764,0
4866523,332.09,844,764,0
4866533,333.69,844,764,0
4866543,335.46,844,764,0
4866553,336.78,844,764,0
4866563,338.26,844,764,0
4866573,339.08,844,764,0
4866583,339.83,844,764,0
4866593,340.18,844,764,0
4866604,340.43,844,764,0
4866614,340.43,844,764,0
4866624,341.50,844,764,0
4866634,344.09,844,764,0
4866644,350.58,844,764,0
4866654,361.98,844,764,0
4866664,380.67,844,764,0
4866674,408.37,844,764,0
4866694,445.72,823,763,0
4866697,488.79,823,764,0
4866706,534.84,823,765,0
4866716,580.49,823,763,0
4866726,623.63,823,765,0
4866736,661.15,823,764,0
4866746,690.89,823,765,0
4866756,711.71,823,763,0
4866766,726.33,823,765,0
4866776,736.56,823,764,0
4866786,743.76,823,765,0
4866796,748.76,823,763,0
4866806,752.30,823,765,0
4866817,754.78,823,764,0
4866827,756.56,823,765,0
4866837,755.54,823,763,0
4866847,750.10,823,765,0
4866857,738.12,823,764,0
4866867,719.74,823,765,0
4866877,693.72,823,763,0
4866887,660.80,823,765,0
4866897,620.88,823,763,0
4866907,577.63,823,765,0
4866917,532.91,823,763,0
4866927,490.29,823,765,0
4866937,450.56,823,764,0
4866947,416.15,823,765,0
4866957,387.01,823,763,0
4866967,364.50,823,765,0
4866977,347.77,823,764,0
4866988,337.47,823,765,0
4866998,332.44,823,763,0
4867008,332.27,823,765,0
4867018,335.70,823,763,0
4867028,342.13,823,765,0
4867038,349.68,823,763,0
4867048,357.92,823,765,0
4867058,365.27,823,763,0
4867068,371.66,823,765,0
4867078,376.18,823,763,0
4867088,378.70,823,765,0
4867098,378.66,823,763,0
4867108,376.88,823,765,0
4867118,372.84,823,763,0
4867128,367.83,823,765,0
4867138,361.54,823,763,0
4867148,355.12,823,765,0
4867159,348.10,823,763,0
4867169,341.90,823,765,0
4867179,335.84,823,763,0
4867189,330.62,823,765,0
4867200,325.85,823,763,0
4867209,322.16,823,764,0
4867219,318.82,823,763,0
4867229,316.77,823,765,0
4867239,315.08,823,763,0
4867249,314.50,823,765,0
4867259,314.56,823,763,0
4867269,315.47,823,765,0
4867279,316.74,823,763,0
4867289,318.66,823,765,0
4867299,320.78,823,763,0
4867309,323.29,823,764,0
4867319,325.77,823,763,0
4867329,328.63,823,765,0
4867339,331.31,823,763,0
4867349,334.00,823,765,0
4867359,336.23,823,763,0
4867369,338.22,823,765,0
4867379,339.65,823,763,0
4867389,340.66,823,765,0
4867399,340.89,823,763,0
4867409,340.71,823,764,0
4867419,339.90,823,763,0
4867429,339.03,823,764,0
4867439,338.08,823,763,0
4867449,337.92,823,764,0
4867459,339.28,823,763,0
4867469,343.91,823,764,0
4867479,353.28,823,763,0
4867489,369.82,823,764,0
4867500,395.25,823,763,0
4867519,431.13,826,762,0
4867522,473.78,826,764,0
4867531,520.22,826,764,0
4867542,567.29,826,764,0
4867551,612.38,826,765,0
4867561,652.34,826,764,0
4867571,684.68,826,764,0
4867581,707.45,826,764,0
4867591,723.38,826,765,0
4867601,734.54,826,764,0
4867611,742.31,826,764,0
4867621,747.74,826,764,0
4867631,751.59,826,764,0
4867641,754.29,826,764,0
4867651,756.13,826,764,0
4867661,757.42,826,764,0
4867671,756.61,826,765,0
4867681,751.28,826,764,0
4867691,739.67,826,764,0
4867701,720.91,826,763,0
4867712,694.45,826,764,0
4867721,660.89,826,763,0
4867731,620.34,826,764,0
4867741,575.32,826,764,0
4867751,528.98,826,764,0
4867761,484.20,826,764,0
4867771,442.83,826,764,0
4867781,406.66,826,764,0
4867791,376.04,826,764,0
4867801,351.77,826,764,0
4867811,333.80,826,764,0
4867821,322.29,826,764,0
4867831,316.33,826,764,0
4867841,315.37,826,764,0
4867851,318.26,826,764,0
4867861,324.23,826,764,0
4867871,331.70,826,764,0
4867881,340.02,826,764,0
4867891,347.77,826,764,0
4867901,354.74,826,764,0
4867911,359.87,826,764,0
4867921,363.08,826,764,0
4867931,363.70,826,764,0
4867941,362.21,826,764,0
4867951,358.46,826,764,0
4867961,353.22,826,764,0
4867971,346.64,826,764,0
4867981,339.72,826,764,0
4867991,332.65,826,764,0
4868001,326.24,826,764,0
4868012,320.72,826,764,0
4868022,316.61,826,764,0
4868032,313.64,826,764,0
4868042,312.25,826,764,0
4868052,311.83,826,763,0
4868062,312.61,826,764,0
4868072,313.93,826,764,0
4868082,315.96,826,764,0
4868092,317.86,826,763,0
4868102,320.13,826,764,0
4868112,321.81,826,764,0
4868122,323.54,826,764,0
4868132,324.45,826,763,0
4868142,325.43,826,764,0
4868152,325.77,826,764,0
4868162,326.14,826,764,0
4868172,325.88,826,764,0
4868183,325.83,826,764,0
4868193,325.41,826,764,0
4868203,325.42,826,764,0
4868213,324.91,826,763,0
4868224,324.76,826,764,0
4868233,324.62,826,764,0
4868243,324.91,826,764,0
4868253,324.76,826,764,0
4868263,325.13,826,764,0
4868273,325.82,826,764,0
4868283,328.58,826,764,0
4868293,333.80,826,763,0
4868303,343.98,826,764,0
4868313,360.27,826,764,0
4868323,385.90,826,764,0
4868342,421.37,823,763,0
4868345,464.33,823,765,0
4868354,511.03,823,764,0
4868364,558.98,823,764,0
4868374,604.67,823,764,0
4868384,646.00,823,764,0
4868395,679.60,823,763,0
4868404,703.89,823,765,0
4868414,720.85,823,764,0
4868424,732.77,823,764,0
4868434,741.07,823,763,0
4868444,746.92,823,764,0
4868454,750.97,823,764,0
4868464,753.85,823,764,0
4868474,755.82,823,763,0
4868484,757.25,823,764,0
4868494,756.32,823,764,0
4868504,751.21,823,764,0
4868514,739.79,823,763,0
4868524,721.94,823,764,0
4868534,696.54,823,763,0
4868544,664.32,823,764,0
4868554,624.97,823,763,0
4868564,581.52,823,764,0
4868574,536.32,823,764,0
4868584,492.94,823,764,0
4868594,452.11,823,763,0
4868604,416.51,823,764,0
4868614,385.93,823,763,0
4868624,362.04,823,764,0
4868634,344.02,823,763,0
4868644,332.62,823,764,0
4868654,326.30,823,764,0
4868664,325.18,823,764,0
4868674,327.23,823,763,0
4868684,332.43,823,764,0
4868695,338.73,823,763,0
4868705,345.97,823,764,0
4868715,352.28,823,763,0
4868725,357.94,823,764,0
4868736,361.51,823,763,0
4868745,363.80,823,764,0
4868755,363.60,823,763,0
4868765,362.01,823,764,0
4868775,358.28,823,763,0
4868785,353.69,823,764,0
4868795,347.57,823,763,0
4868805,341.36,823,764,0
4868815,334.44,823,763,0
4868825,328.39,823,764,0
4868835,322.53,823,763,0
4868845,317.87,823,764,0
4868855,313.75,823,763,0
4868865,311.08,823,764,0
4868875,309.17,823,763,0
4868885,308.86,823,765,0
4868895,309.12,823,764,0
4868905,310.11,823,764,0
4868915,311.11,823,763,0
4868925,312.96,823,764,0
4868935,314.60,823,763,0
4868945,316.86,823,764,0
4868955,318.49,823,763,0
4868965,320.23,823,764,0
4868975,321.79,823,763,0
4868985,323.82,823,764,0
4868995,325.46,823,763,0
4869005,327.51,823,764,0
4869015,328.77,823,763,0
4869025,330.13,823,764,0
4869036,330.73,823,763,0
4869046,331.33,823,764,0
4869056,331.49,823,763,0
4869066,331.77,823,764,0
4869076,332.44,823,763,0
4869086,334.92,823,764,0
4869096,340.34,823,763,0
4869106,350.96,823,764,0
4869116,368.33,823,763,0
4869126,394.46,823,764,0
4869136,430.41,823,763,0
4869155,473.18,813,762,0
4869158,519.59,813,764,0
4869167,566.72,813,765,0
4869177,611.51,813,763,0
4869187,651.26,813,764,0
4869197,683.54,813,763,0
4869207,706.60,813,765,0
4869217,722.75,813,763,0
4869227,734.01,813,764,0
4869237,741.85,813,763,0
4869248,747.38,813,765,0
4869257,751.25,813,763,0
4869267,753.96,813,764,0
4869277,755.82,813,763,0
4869287,754.03,813,764,0
4869297,746.95,813,763,0
4869307,733.38,813,764,0
4869317,712.61,813,763,0
4869327,684.48,813,764,0
4869337,649.41,813,763,0
4869347,607.84,813,764,0
4869357,563.19,813,763,0
4869367,518.13,813,764,0
4869377,474.72,813,763,0
4869387,434.86,813,764,0
4869397,399.46,813,763,0
4869407,369.24,813,764,0
4869417,344.48,813,763,0
4869427,325.86,813,764,0
4869437,312.92,813,763,0
4869447,305.57,813,764,0
4869457,302.91,813,763,0
4869467,304.48,813,764,0
4869477,308.92,813,763,0
4869487,315.63,813,765,0
4869497,323.24,813,763,0
4869507,331.23,813,764,0
4869517,338.44,813,763,0
4869527,344.48,813,764,0
4869537,348.71,813,763,0
4869548,351.11,813,764,0
4869558,351.33,813,763,0
4869568,349.65,813,764,0
4869578,346.24,813,763,0
4869588,341.54,813,764,0
4869598,335.81,813,763,0
4869608,329.48,813,764,0
4869618,323.12,813,763,0
4869628,317.04,813,764,0
4869638,311.54,813,763,0
4869648,306.79,813,764,0
4869658,302.96,813,763,0
4869668,300.01,813,764,0
4869678,298.08,813,763,0
4869688,297.03,813,764,0
4869698,296.85,813,763,0
4869708,297.41,813,764,0
4869719,298.70,813,763,0
4869729,300.46,813,764,0
4869739,302.89,813,764,0
4869749,305.58,813,764,0
4869760,308.62,813,763,0
4869769,311.69,813,764,0
4869779,314.87,813,764,0
4869789,317.65,813,764,0
4869799,320.41,813,763,0
4869809,322.65,813,764,0
4869819,324.64,813,764,0
4869829,325.86,813,764,0
4869839,326.76,813,763,0
4869849,327.43,813,765,0
4869859,327.77,813,764,0
4869869,327.20,813,764,0
4869879,326.50,813,763,0
4869889,325.92,813,764,0
4869899,326.97,813,764,0
4869909,330.49,813,764,0
4869919,338.32,813,763,0
4869929,352.75,813,764,0
4869939,376.31,813,764,0
4869958,409.90,803,762,0
4869961,451.93,803,764,0
4869970,498.58,803,764,0
4869980,547.05,803,764,0
4869990,593.96,803,764,0
4870000,636.53,803,764,0
4870010,671.99,803,764,0
4870020,698.48,803,764,0
4870030,717.02,803,764,0
4870040,730.00,803,764,0
4870050,739.04,803,764,0
4870060,745.42,803,764,0
4870070,749.88,803,764,0
4870080,753.00,803,764,0
4870090,753.43,803,764,0
4870100,749.19,803,764,0
4870110,739.02,803,764,0
4870120,722.17,803,764,0
4870130,697.73,803,764,0
4870140,666.36,803,764,0
4870150,628.32,803,764,0
4870160,586.44,803,764,0
4870170,542.76,803,764,0
4870180,499.85,803,764,0
4870190,459.05,803,764,0
4870200,422.44,803,764,0
4870210,389.95,803,764,0
4870220,362.62,803,764,0
4870231,339.85,803,764,0
4870241,323.01,803,764,0
4870251,311.18,803,764,0
4870261,304.78,803,764,0
4870272,302.79,803,764,0
4870281,305.04,803,764,0
4870291,310.04,803,763,0
4870301,317.36,803,764,0
4870311,325.48,803,764,0
4870321,334.16,803,764,0
4870331,341.74,803,763,0
4870341,348.46,803,764,0
4870351,353.12,803,764,0
4870361,356.34,803,764,0
4870371,357.18,803,763,0
4870381,356.36,803,764,0
4870391,353.46,803,764,0
4870401,349.77,803,764,0
4870411,344.82,803,763,0
4870421,339.73,803,764,0
4870431,333.90,803,764,0
4870441,328.79,803,764,0
4870451,323.75,803,763,0
4870461,319.93,803,764,0
4870471,316.65,803,764,0
4870481,314.48,803,764,0
4870491,313.05,803,763,0
4870501,312.86,803,764,0
4870511,313.12,803,764,0
4870521,314.58,803,764,0
4870531,316.25,803,764,0
4870541,318.62,803,764,0
4870551,320.70,803,764,0
4870561,323.28,803,764,0
4870572,325.47,803,763,0
4870582,327.98,803,764,0
4870592,329.92,803,763,0
4870602,332.08,803,764,0
4870612,333.60,803,763,0
4870622,335.56,803,764,0
4870632,336.64,803,763,0
4870642,337.90,803,764,0
4870652,338.28,803,763,0
4870662,338.79,803,764,0
4870672,338.51,803,763,0
4870682,338.62,803,764,0
4870692,338.65,803,763,0
4870702,340.55,803,764,0
4870712,344.80,803,763,0
4870722,354.12,803,764,0
4870732,369.43,803,763,0
4870743,393.55,803,764,0
4870762,426.82,804,763,0
4870765,467.80,804,765,0
4870774,512.86,804,763,0
4870785,559.32,804,765,0
4870795,603.88,804,764,0
4870805,644.24,804,765,0
4870815,677.47,804,763,0
4870825,702.23,804,765,0
4870835,719.56,804,763,0
4870845,731.69,804,765,0
4870855,740.18,804,763,0
4870865,746.13,804,764,0
4870875,750.29,804,764,0
4870885,750.67,804,765,0
4870895,745.50,804,763,0
4870905,734.12,804,764,0
4870915,716.09,804,763,0
4870925,691.63,804,764,0
4870935,660.63,804,763,0
4870945,623.80,804,764,0
4870956,583.87,804,763,0
4870966,543.75,804,764,0
4870976,504.74,804,763,0
4870986,468.26,804,764,0
4870996,434.84,804,763,0
4871006,405.53,804,765,0
4871016,380.26,804,763,0
4871026,359.61,804,764,0
4871036,343.48,804,763,0
4871046,332.11,804,764,0
4871056,325.22,804,763,0
4871066,322.24,804,764,0
4871076,322.60,804,763,0
4871086,325.72,804,765,0
4871096,330.77,804,763,0
4871106,337.10,804,764,0
4871116,343.80,804,763,0
4871127,350.12,804,764,0
4871137,355.65,804,763,0
4871147,359.91,804,764,0
4871157,362.73,804,764,0
4871168,363.79,804,764,0
4871177,363.21,804,763,0
4871187,361.18,804,764,0
4871197,357.65,804,764,0
4871207,352.96,804,764,0
4871217,347.36,804,764,0
4871227,341.21,804,764,0
4871237,335.02,804,764,0
4871247,328.88,804,764,0
4871257,323.05,804,764,0
4871267,317.80,804,764,0
4871277,313.66,804,764,0
4871287,310.55,804,764,0
4871297,308.76,804,764,0
4871307,308.06,804,764,0
4871317,308.47,804,764,0
4871327,310.00,804,764,0
4871337,312.74,804,764,0
4871347,315.91,804,764,0
4871357,319.71,804,764,0
4871367,323.52,804,764,0
4871377,327.57,804,764,0
4871387,331.55,804,764,0
4871397,335.29,804,764,0
4871407,338.50,804,764,0
4871417,341.31,804,764,0
4871427,343.32,804,764,0
4871437,344.68,804,764,0
4871447,344.86,804,764,0
4871457,344.22,804,764,0
4871468,342.31,804,764,0
4871478,339.73,804,764,0
4871488,336.34,804,764,0
4871498,333.15,804,764,0
4871508,330.02,804,764,0
4871518,328.56,804,764,0
4871528,329.63,804,764,0
4871538,335.53,804,764,0
4871548,347.20,804,764,0
4871558,367.02,804,764,0
4871568,395.56,804,764,0
4871587,434.09,825,763,0
4871590,478.72,825,764,0
4871599,526.21,825,764,0
4871609,573.24,825,764,0
4871619,617.40,825,764,0
4871629,655.89,825,764,0
4871639,686.91,825,764,0
4871649,708.88,825,764,0
4871659,724.26,825,764,0
4871669,735.02,825,764,0
4871680,742.56,825,764,0
4871689,747.88,825,764,0
4871699,749.54,825,764,0
4871709,745.52,825,764,0
4871719,735.42,825,764,0
4871729,718.71,825,764,0
4871739,695.61,825,764,0
4871749,665.94,825,764,0
4871759,630.90,825,764,0
4871769,592.40,825,764,0
4871779,553.75,825,764,0
4871789,515.73,825,764,0
4871799,480.02,825,764,0
4871809,446.85,825,764,0
4871819,417.53,825,764,0
4871829,391.10,825,764,0
4871839,368.87,825,764,0
4871849,350.27,825,764,0
4871859,336.43,825,764,0
4871869,326.57,825,764,0
4871879,321.26,825,764,0
4871889,319.38,825,764,0
4871899,321.28,825,764,0
4871909,325.53,825,764,0
4871919,332.18,825,764,0
4871929,339.41,825,764,0
4871939,347.30,825,764,0
4871949,354.24,825,764,0
4871959,360.38,825,764,0
4871969,364.38,825,764,0
4871980,366.80,825,764,0
4871990,366.64,825,764,0
4872000,364.91,825,764,0
4872010,360.91,825,763,0
4872020,355.96,825,765,0
4872030,349.63,825,764,0
4872040,343.31,825,764,0
4872050,336.58,825,763,0
4872060,330.66,825,764,0
4872070,325.06,825,764,0
4872080,320.80,825,764,0
4872090,317.09,825,763,0
4872100,314.88,825,764,0
4872110,313.50,825,764,0
4872120,313.44,825,764,0
4872130,313.65,825,763,0
4872140,315.25,825,765,0
4872151,316.93,825,764,0
4872161,319.57,825,764,0
4872171,321.93,825,764,0
4872181,324.56,825,765,0
4872192,326.79,825,763,0
4872201,329.68,825,764,0
4872211,331.66,825,763,0
4872221,333.87,825,765,0
4872231,335.28,825,763,0
4872241,337.04,825,764,0
4872251,338.01,825,763,0
4872261,339.12,825,764,0
4872271,339.51,825,764,0
4872281,340.13,825,764,0
4872291,340.26,825,764,0
4872301,340.53,825,765,0
4872311,339.98,825,763,0
4872321,339.90,825,764,0
4872331,339.37,825,764,0
4872341,339.73,825,765,0
4872351,340.84,825,763,0
4872361,344.83,825,764,0
4872371,352.25,825,763,0
4872381,365.85,825,764,0
4872391,386.85,825,764,0
4872411,417.67,823,762,0
4872414,456.55,823,764,0
4872423,500.74,823,765,0
4872433,546.59,823,764,0
4872443,592.01,823,764,0
4872453,633.80,823,764,0
4872463,669.51,823,765,0
4872473,696.70,823,764,0
4872483,715.73,823,764,0
4872493,729.06,823,764,0
4872503,738.38,823,765,0
4872513,744.91,823,764,0
4872523,749.48,823,764,0
4872534,752.64,823,764,0
4872543,753.60,823,765,0
4872553,750.29,823,764,0
4872563,741.72,823,764,0
4872573,727.28,823,764,0
4872583,706.84,823,765,0
4872593,680.10,823,763,0
4872603,647.50,823,764,0
4872613,610.58,823,763,0
4872623,572.65,823,765,0
4872633,534.87,823,764,0
4872643,498.99,823,764,0
4872653,465.61,823,763,0
4872663,436.28,823,765,0
4872673,410.91,823,764,0
4872683,389.98,823,764,0
4872693,373.27,823,763,0
4872704,361.32,823,765,0
4872713,353.60,823,764,0
4872723,349.95,823,765,0
4872733,349.36,823,763,0
4872743,351.57,823,765,0
4872753,355.64,823,763,0
4872763,360.98,823,764,0
4872773,366.68,823,763,0
4872783,372.18,823,765,0
4872793,376.75,823,764,0
4872803,380.30,823,765,0
4872813,382.35,823,763,0
4872823,383.10,823,765,0
4872833,382.09,823,764,0
4872843,379.88,823,765,0
4872853,376.40,823,763,0
4872863,372.21,823,765,0
4872873,367.22,823,764,0
4872883,362.18,823,765,0
4872893,356.98,823,763,0
4872903,352.27,823,765,0
4872913,347.95,823,764,0
4872923,344.45,823,765,0
4872933,341.57,823,763,0
4872943,339.47,823,765,0
4872953,337.87,823,763,0
4872963,336.97,823,765,0
4872973,336.38,823,763,0
4872983,336.18,823,765,0
4872993,336.04,823,763,0
4873004,336.28,823,765,0
4873014,336.67,823,763,0
4873024,337.24,823,764,0
4873034,338.03,823,764,0
4873044,339.39,823,764,0
4873054,340.86,823,763,0
4873064,342.49,823,765,0
4873074,344.14,823,764,0
4873084,345.73,823,764,0
4873094,347.14,823,763,0
4873104,348.21,823,765,0
4873114,348.79,823,764,0
4873124,349.02,823,764,0
4873134,349.10,823,763,0
4873144,348.81,823,764,0
4873154,348.53,823,764,0
4873164,348.46,823,764,0
4873175,349.30,823,763,0
4873185,351.70,823,764,0
4873195,357.40,823,764,0
4873205,367.61,823,764,0
4873216,384.78,823,764,0
4873225,409.96,823,764,0
4873244,444.56,834,763,0
4873247,485.54,834,765,0
4873256,529.99,834,764,0
4873266,574.82,834,764,0
4873276,617.65,834,764,0
4873286,655.38,834,764,0
4873296,686.30,834,764,0
4873306,708.45,834,764,0
4873316,723.96,834,764,0
4873326,734.81,834,764,0
4873336,742.41,834,764,0
4873346,747.69,834,764,0
4873356,751.38,834,764,0
4873366,753.97,834,764,0
4873376,755.78,834,764,0
4873387,755.37,834,764,0
4873396,751.49,834,764,0
4873406,742.39,834,764,0
4873416,727.48,834,764,0
4873426,706.00,834,764,0
4873436,678.35,834,764,0
4873446,644.39,834,764,0
4873456,606.47,834,764,0
4873466,566.22,834,764,0
4873476,526.64,834,764,0
4873486,488.86,834,764,0
4873496,454.87,834,764,0
4873506,424.95,834,764,0
4873516,400.28,834,764,0
4873526,380.61,834,764,0
4873536,366.76,834,764,0
4873546,357.70,834,764,0
4873556,353.93,834,764,0
4873566,353.78,834,764,0
4873576,357.15,834,764,0
4873586,362.37,834,764,0
4873596,369.33,834,764,0
4873606,376.43,834,764,0
4873616,383.55,834,764,0
4873626,389.04,834,764,0
4873636,393.36,834,764,0
4873646,395.35,834,764,0
4873656,395.67,834,764,0
4873666,393.50,834,764,0
4873676,389.75,834,764,0
4873687,384.04,834,764,0
4873697,377.51,834,764,0
4873707,370.29,834,764,0
4873717,363.17,834,764,0
4873728,355.96,834,764,0
4873737,349.93,834,764,0
4873747,344.60,834,764,0
4873757,340.95,834,764,0
4873767,338.39,834,764,0
4873777,337.20,834,764,0
4873787,336.67,834,764,0
4873797,337.54,834,764,0
4873807,338.58,834,764,0
4873817,340.42,834,764,0
4873827,341.92,834,764,0
4873837,343.66,834,764,0
4873847,344.75,834,764,0
4873857,346.41,834,765,0
4873867,347.36,834,764,0
4873877,348.32,834,764,0
4873887,348.57,834,764,0
4873897,348.91,834,764,0
4873907,348.55,834,764,0
4873917,348.52,834,764,0
4873927,347.72,834,764,0
4873937,347.46,834,765,0
4873947,347.11,834,764,0
4873957,347.20,834,764,0
4873967,346.89,834,764,0
4873977,347.13,834,765,0
4873987,346.88,834,764,0
4873997,347.09,834,764,0
4874007,346.93,834,764,0
4874017,347.42,834,764,0
4874028,348.63,834,763,0
4874038,352.81,834,765,0
4874048,360.07,834,764,0
4874058,373.42,834,765,0
4874068,393.95,834,763,0
4874087,423.79,843,763,0
4874090,461.83,843,764,0
4874099,505.08,843,765,0
4874109,550.01,843,763,0
4874119,594.67,843,765,0
4874129,635.69,843,764,0
4874139,670.76,843,765,0
4874149,697.57,843,763,0
4874159,716.34,843,765,0
4874169,729.48,843,764,0
4874179,738.72,843,765,0
4874189,745.15,843,763,0
4874199,749.69,843,765,0
4874209,752.87,843,764,0
4874219,755.14,843,765,0
4874229,756.72,843,763,0
4874240,757.88,843,765,0
4874249,758.64,843,764,0
4874259,757.25,843,765,0
4874269,751.13,843,764,0
4874279,739.31,843,765,0
4874289,720.61,843,764,0
4874299,694.93,843,765,0
4874309,661.87,843,763,0
4874319,622.35,843,765,0
4874329,578.66,843,764,0
4874339,534.58,843,765,0
4874349,491.67,843,763,0
4874359,452.51,843,765,0
4874369,418.03,843,764,0
4874379,389.87,843,765,0
4874389,367.58,843,763,0
4874399,351.93,843,764,0
4874409,341.92,843,763,0
4874419,337.88,843,765,0
4874429,337.87,843,763,0
4874439,341.68,843,764,0
4874449,347.48,843,764,0
4874459,354.96,843,765,0
4874469,362.30,843,764,0
4874479,369.28,843,765,0
4874489,374.56,843,764,0
4874499,378.63,843,765,0
4874509,380.50,843,764,0
4874519,380.61,843,765,0
4874529,378.41,843,763,0
4874540,374.94,843,765,0
4874550,369.95,843,764,0
4874560,364.35,843,765,0
4874570,358.33,843,764,0
4874580,352.32,843,765,0
4874590,346.65,843,764,0
4874600,341.78,843,765,0
4874610,337.43,843,764,0
4874620,334.18,843,765,0
4874630,331.42,843,764,0
4874640,329.67,843,765,0
4874650,328.40,843,764,0
4874660,328.06,843,765,0
4874670,327.96,843,763,0
4874680,328.57,843,764,0
4874690,329.39,843,764,0
4874700,331.03,843,765,0
4874711,332.30,843,764,0
4874721,334.14,843,765,0
4874731,335.56,843,764,0
4874741,337.32,843,765,0
4874752,338.94,843,764,0
4874761,340.67,843,764,0
4874771,342.14,843,764,0
4874781,343.64,843,765,0
4874791,344.73,843,764,0
4874801,345.71,843,764,0
4874811,346.40,843,764,0
4874821,346.79,843,765,0
4874831,346.94,843,764,0
4874841,346.87,843,764,0
4874851,346.40,843,764,0
4874861,346.02,843,765,0
4874871,345.54,843,764,0
4874881,345.64,843,764,0
4874891,346.82,843,764,0
4874901,350.47,843,765,0
4874911,357.96,843,764,0
4874921,371.64,843,764,0
4874931,392.79,843,764,0
4874950,423.67,863,763,0
4874953,462.68,863,765,0
4874962,506.66,863,764,0
4874972,552.41,863,764,0
4874982,597.20,863,765,0
4874992,638.20,863,764,0
4875002,673.07,863,764,0
4875012,699.36,863,764,0
4875022,717.77,863,765,0
4875032,730.69,863,764,0
4875042,739.70,863,765,0
4875052,746.00,863,764,0
4875062,750.42,863,765,0
4875072,753.55,863,764,0
4875082,755.70,863,764,0
4875092,757.16,863,764,0
4875102,758.18,863,765,0
4875112,757.49,863,764,0
4875122,752.80,863,764,0
4875132,742.66,863,764,0
4875142,726.17,863,765,0
4875152,702.81,863,764,0
4875162,672.18,863,764,0
4875172,634.71,863,764,0
4875182,592.41,863,765,0
4875192,548.27,863,764,0
4875202,504.48,863,764,0
4875212,463.15,863,764,0
4875223,425.65,863,764,0
4875233,393.65,863,764,0
4875243,367.31,863,764,0
4875253,347.21,863,764,0
4875264,332.92,863,764,0
4875273,324.58,863,764,0
4875283,320.98,863,764,0
4875293,321.80,863,764,0
4875303,325.37,863,764,0
4875313,331.26,863,764,0
4875323,337.87,863,764,0
4875333,344.85,863,764,0
4875343,350.85,863,764,0
4875353,355.87,863,764,0
4875363,358.87,863,764,0
4875373,360.32,863,764,0
4875383,359.54,863,764,0
4875393,357.23,863,764,0
4875403,353.26,863,764,0
4875413,348.60,863,764,0
4875423,343.06,863,764,0
4875433,337.81,863,764,0
4875443,332.47,863,764,0
4875453,328.04,863,764,0
4875463,324.04,863,764,0
4875473,321.20,863,764,0
4875483,318.87,863,764,0
4875493,317.67,863,764,0
4875503,316.74,863,764,0
4875513,316.77,863,764,0
4875523,317.10,863,764,0
4875533,318.27,863,764,0
4875543,319.43,863,764,0
4875553,321.23,863,764,0
4875564,322.88,863,764,0
4875574,324.97,863,764,0
4875584,326.69,863,764,0
4875594,328.59,863,764,0
4875604,329.95,863,764,0
4875614,331.55,863,764,0
4875624,332.46,863,764,0
4875634,333.52,863,764,0
4875644,333.92,863,764,0
4875654,334.59,863,764,0
4875664,334.75,863,764,0
4875674,335.00,863,764,0
4875684,334.40,863,764,0
4875694,334.02,863,764,0
4875704,332.94,863,764,0
4875714,332.15,863,764,0
4875724,330.86,863,764,0
4875735,330.39,863,764,0
4875745,330.83,863,764,0
4875755,334.39,863,765,0
4875765,341.60,863,764,0
4875776,355.31,863,764,0
4875785,376.34,863,764,0
4875804,407.27,854,763,0
4875807,446.87,854,764,0
4875816,492.08,854,764,0
4875826,539.20,854,764,0
4875836,585.86,854,765,0
4875846,628.67,854,764,0
4875856,665.71,854,765,0
4875866,694.17,854,764,0
4875876,714.09,854,765,0
4875886,727.99,854,764,0
4875896,737.72,854,764,0
4875906,744.49,854,764,0
4875916,749.27,854,765,0
4875926,752.58,854,764,0
4875936,754.89,854,765,0
4875947,755.22,854,764,0
4875956,752.24,854,765,0
4875966,743.73,854,764,0
4875976,729.15,854,764,0
4875986,707.42,854,764,0
4875996,679.09,854,765,0
4876006,643.88,854,764,0
4876016,603.72,854,764,0
4876026,560.22,854,764,0
4876036,516.95,854,765,0
4876046,474.71,854,764,0
4876056,435.88,854,765,0
4876066,400.39,854,764,0
4876076,370.01,854,765,0
4876086,344.42,854,764,0
4876096,325.05,854,765,0
4876106,310.81,854,764,0
4876116,302.55,854,765,0
4876126,298.74,854,764,0
4876136,299.76,854,765,0
4876146,303.69,854,764,0
4876156,310.60,854,765,0
4876166,318.39,854,764,0
4876176,327.06,854,765,0
4876186,334.71,854,764,0
4876196,341.74,854,765,0
4876206,346.66,854,764,0
4876216,350.11,854,765,0
4876226,350.89,854,764,0
4876236,349.98,854,765,0
4876247,346.86,854,764,0
4876257,342.74,854,765,0
4876267,337.21,854,763,0
4876277,331.44,854,765,0
4876288,325.05,854,764,0
4876297,319.42,854,765,0
4876307,314.02,854,763,0
4876317,309.77,854,765,0
4876327,306.03,854,764,0
4876337,303.71,854,765,0
4876347,301.99,854,763,0
4876357,301.52,854,765,0
4876367,301.41,854,764,0
4876377,302.32,854,765,0
4876387,303.34,854,763,0
4876397,305.08,854,765,0
4876407,306.60,854,764,0
4876417,308.60,854,765,0
4876427,310.39,854,763,0
4876437,312.55,854,765,0
4876447,314.23,854,764,0
4876457,316.04,854,765,0
4876467,317.40,854,763,0
4876477,319.00,854,765,0
4876487,320.15,854,764,0
4876497,321.48,854,765,0
4876507,322.32,854,763,0
4876517,323.34,854,765,0
4876527,323.97,854,764,0
4876537,324.70,854,765,0
4876547,324.79,854,763,0
4876557,324.81,854,765,0
4876567,324.10,854,764,0
4876577,323.38,854,765,0
4876588,322.41,854,763,0
4876598,322.42,854,765,0
4876608,323.92,854,764,0
4876618,329.09,854,765,0
4876628,339.35,854,763,0
4876638,356.94,854,765,0
4876657,383.36,853,764,0
4876660,420.62,853,765,0
4876669,464.75,853,764,0
4876679,512.70,853,765,0
4876689,561.09,853,764,0
4876699,607.09,853,765,0
4876709,648.03,853,764,0
4876719,681.50,853,765,0
4876729,705.05,853,764,0
4876739,721.53,853,765,0
4876749,733.07,853,764,0
4876759,741.15,853,765,0
4876769,746.81,853,764,0
4876779,750.76,853,765,0
4876789,753.15,853,764,0
4876800,751.73,853,765,0
4876809,744.96,853,764,0
4876819,731.85,853,765,0
4876829,711.88,853,764,0
4876839,684.92,853,765,0
4876849,651.64,853,764,0
4876859,612.58,853,765,0
4876869,570.92,853,764,0
4876879,528.86,853,765,0
4876889,488.31,853,764,0
4876899,450.59,853,765,0
4876909,416.64,853,764,0
4876919,386.79,853,765,0
4876929,361.48,853,764,0
4876939,341.41,853,765,0
4876949,326.37,853,764,0
4876959,316.15,853,765,0
4876969,310.66,853,764,0
4876979,309.73,853,765,0
4876989,312.13,853,764,0
4876999,317.23,853,765,0
4877009,323.89,853,764,0
4877019,331.55,853,765,0
4877029,339.49,853,764,0
4877039,346.71,853,765,0
4877049,352.58,853,764,0
4877059,356.82,853,765,0
4877069,359.49,853,764,0
4877079,360.03,853,765,0
4877089,358.69,853,764,0
4877100,355.44,853,765,0
4877110,351.02,853,764,0
4877120,345.40,853,764,0
4877130,339.58,853,764,0
4877140,333.45,853,765,0
4877150,328.00,853,764,0
4877160,323.11,853,764,0
4877170,319.27,853,764,0
4877180,316.01,853,764,0
4877190,313.87,853,764,0
4877200,312.36,853,764,0
4877210,311.96,853,764,0
4877220,311.93,853,764,0
4877230,312.85,853,764,0
4877240,314.01,853,764,0
4877250,315.98,853,764,0
4877260,317.96,853,764,0
4877271,320.33,853,764,0
4877281,322.33,853,764,0
4877291,324.67,853,764,0
4877301,326.44,853,764,0
4877312,328.50,853,764,0
4877321,329.93,853,764,0
4877331,331.62,853,764,0
4877341,332.89,853,764,0
4877351,334.38,853,765,0
4877361,335.25,853,764,0
4877371,336.21,853,764,0
4877381,336.49,853,764,0
4877391,336.86,853,764,0
4877401,336.86,853,764,0
4877411,336.64,853,764,0
4877421,335.94,853,764,0
4877431,335.70,853,764,0
4877441,335.92,853,764,0
4877451,338.56,853,764,0
4877461,344.43,853,764,0
4877471,355.87,853,764,0
4877481,374.68,853,764,0
4877500,402.81,843,763,0
4877503,440.36,843,765,0
4877512,484.31,843,765,0
4877522,530.98,843,764,0
4877532,577.83,843,764,0
4877542,621.46,843,764,0
4877552,659.60,843,765,0
4877562,689.80,843,764,0
4877572,710.99,843,765,0
4877582,725.82,843,764,0
4877592,736.20,843,765,0
4877602,743.43,843,764,0
4877612,748.49,843,765,0
4877622,751.98,843,765,0
4877632,754.35,843,765,0
4877642,752.48,843,764,0
4877652,745.40,843,765,0
4877662,731.91,843,764,0
4877672,711.96,843,765,0
4877682,684.89,843,764,0
4877692,651.49,843,765,0
4877702,611.87,843,764,0
4877712,570.34,843,765,0
4877722,528.15,843,764,0
4877732,487.78,843,765,0
4877742,449.70,843,764,0
4877752,415.93,843,765,0
4877762,386.08,843,764,0
4877772,361.50,843,764,0
4877783,341.59,843,764,0
4877793,327.62,843,765,0
4877803,318.47,843,764,0
4877813,314.73,843,765,0
4877824,314.81,843,764,0
4877833,318.90,843,765,0
4877843,325.14,843,764,0
4877853,333.41,843,765,0
4877863,341.78,843,764,0
4877873,350.33,843,765,0
4877883,357.30,843,764,0
4877893,363.30,843,765,0
4877903,366.94,843,764,0
4877913,368.97,843,765,0
4877923,368.46,843,764,0
4877933,366.61,843,765,0
4877943,362.70,843,764,0
4877953,358.33,843,765,0
4877963,352.62,843,764,0
4877973,347.20,843,765,0
4877983,341.23,843,764,0
4877993,336.06,843,765,0
4878003,330.90,843,764,0
4878013,326.99,843,765,0
4878023,323.35,843,764,0
4878033,321.10,843,765,0
4878043,319.01,843,764,0
4878053,318.45,843,765,0
4878063,318.15,843,764,0
4878073,319.04,843,765,0
4878083,319.89,843,764,0
4878093,321.46,843,764,0
4878103,322.78,843,764,0
4878113,324.82,843,765,0
4878124,326.33,843,764,0
4878134,328.42,843,764,0
4878144,329.92,843,764,0
4878154,331.96,843,765,0
4878164,333.56,843,764,0
4878174,335.70,843,764,0
4878184,337.21,843,764,0
4878194,338.99,843,765,0
4878204,340.06,843,764,0
4878214,341.33,843,764,0
4878224,341.75,843,764,0
4878234,342.04,843,765,0
4878244,341.38,843,764,0
4878254,340.88,843,764,0
4878264,340.02,843,764,0
4878274,340.27,843,765,0
4878284,342.07,843,764,0
4878295,347.58,843,764,0
4878305,358.33,843,764,0
4878315,376.83,843,765,0
4878334,404.40,834,764,0
4878338,441.82,834,765,0
4878347,485.20,834,764,0
4878357,531.69,834,765,0
4878367,578.19,834,764,0
4878377,621.89,834,764,0
4878387,659.90,834,764,0
4878397,689.93,834,765,0
4878407,710.99,834,764,0
4878417,725.74,834,765,0
4878427,736.10,834,764,0
4878437,743.40,834,765,0
4878447,748.51,834,764,0
4878457,752.08,834,765,0
4878467,754.59,834,764,0
4878477,756.30,834,765,0
4878487,756.81,834,764,0
4878497,753.78,834,765,0
4878508,745.53,834,764,0
4878518,731.10,834,765,0
4878528,709.86,834,764,0
4878538,681.61,834,764,0
4878548,646.72,834,764,0
4878558,606.26,834,765,0
4878568,563.54,834,764,0
4878578,520.73,834,764,0
4878588,480.27,834,764,0
4878598,443.38,834,765,0
4878608,411.42,834,764,0
4878618,384.77,834,764,0
4878628,364.35,834,764,0
4878638,349.50,834,765,0
4878648,340.61,834,764,0
4878658,336.48,834,764,0
4878668,337.02,834,764,0
4878679,340.92,834,764,0
4878689,347.54,834,764,0
4878699,355.01,834,764,0
4878709,363.19,834,764,0
4878720,370.63,834,764,0
4878729,377.30,834,764,0
4878739,382.01,834,764,0
4878749,385.05,834,764,0
4878759,385.68,834,764,0
4878769,384.70,834,764,0
4878779,381.62,834,764,0
4878789,377.49,834,764,0
4878799,371.86,834,764,0
4878809,366.03,834,764,0
4878819,359.59,834,764,0
4878829,353.76,834,764,0
4878839,348.00,834,764,0
4878849,343.37,834,764,0
4878859,339.36,834,764,0
4878869,336.72,834,764,0
4878879,334.49,834,764,0
4878889,333.53,834,765,0
4878899,332.99,834,764,0
4878909,333.50,834,764,0
4878919,334.17,834,764,0
4878929,335.57,834,764,0
4878939,336.99,834,764,0
4878949,339.18,834,764,0
4878959,341.18,834,764,0
4878969,343.61,834,765,0
4878979,345.74,834,764,0
4878989,348.22,834,764,0
4878999,350.00,834,764,0
4879009,351.84,834,764,0
4879020,352.83,834,764,0
4879030,353.82,834,764,0
4879040,354.01,834,764,0
4879050,354.18,834,765,0
4879060,353.39,834,764,0
4879070,352.89,834,764,0
4879080,351.68,834,764,0
4879090,351.05,834,765,0
4879100,350.43,834,764,0
4879110,351.93,834,765,0
4879120,356.02,834,764,0
4879130,365.36,834,765,0
4879140,381.11,834,764,0
4879150,406.02,834,764,0
4879169,440.81,835,764,0
4879172,482.61,835,766,0
4879181,527.64,835,764,0
4879191,573.48,835,765,0
4879201,617.09,835,764,0
4879211,655.94,835,765,0
4879221,687.24,835,764,0
4879232,709.24,835,765,0
4879241,724.60,835,764,0
4879251,735.39,835,765,0
4879261,742.94,835,764,0
4879271,748.19,835,765,0
4879281,751.82,835,764,0
4879291,754.40,835,765,0
4879301,756.17,835,764,0
4879311,757.40,835,765,0
4879321,758.22,835,764,0
4879331,756.49,835,765,0
4879341,749.70,835,764,0
4879351,736.89,835,765,0
4879361,716.95,835,764,0
4879371,690.01,835,765,0
4879381,655.76,835,764,0
4879391,615.03,835,764,0
4879401,570.41,835,764,0
4879411,525.76,835,765,0
4879421,482.50,835,764,0
4879431,443.48,835,765,0
4879441,408.96,835,764,0
4879451,380.95,835,765,0
4879461,358.72,835,764,0
4879471,343.38,835,765,0
4879481,333.53,835,764,0
4879491,329.65,835,765,0
4879501,329.67,835,764,0
4879511,333.84,835,765,0
4879521,339.84,835,764,0
4879532,347.82,835,765,0
4879542,355.59,835,764,0
4879552,363.25,835,765,0
4879562,369.35,835,764,0
4879572,374.13,835,765,0
4879582,376.45,835,764,0
4879592,377.00,835,765,0
4879602,375.20,835,764,0
4879612,372.01,835,765,0
4879622,367.17,835,764,0
4879632,361.76,835,765,0
4879642,355.57,835,764,0
4879652,349.66,835,765,0
4879662,343.85,835,764,0
4879672,339.05,835,765,0
4879682,334.58,835,764,0
4879692,331.45,835,765,0
4879703,328.78,835,764,0
4879713,327.35,835,765,0
4879723,326.39,835,764,0
4879733,326.40,835,765,0
4879744,326.58,835,764,0
4879753,327.91,835,765,0
4879763,329.18,835,764,0
4879773,331.10,835,765,0
4879783,332.87,835,764,0
4879793,335.09,835,765,0
4879803,337.04,835,764,0
4879813,339.17,835,765,0
4879823,340.75,835,764,0
4879833,342.41,835,765,0
4879843,343.57,835,764,0
4879853,344.73,835,765,0
4879863,345.28,835,764,0
4879873,345.75,835,765,0
4879883,345.53,835,764,0
4879893,345.20,835,765,0
4879903,344.15,835,764,0
4879913,343.12,835,765,0
4879923,341.76,835,763,0
4879933,341.32,835,765,0
4879943,342.46,835,764,0
4879953,347.38,835,765,0
4879963,356.95,835,764,0
4879973,374.20,835,765,0
4879983,400.45,835,764,0
4880003,437.09,833,763,0
4880006,480.13,833,765,0
4880015,526.55,833,765,0
4880025,573.06,833,764,0
4880035,617.48,833,765,0
4880045,656.42,833,764,0
4880055,687.58,833,765,0
4880065,709.39,833,764,0
4880075,724.62,833,765,0
4880086,735.32,833,764,0
4880095,742.81,833,765,0
4880105,748.01,833,764,0
4880115,751.65,833,765,0
4880125,754.24,833,764,0
4880135,756.10,833,765,0
4880145,755.17,833,764,0
4880155,749.55,833,765,0
4880165,738.15,833,764,0
4880175,720.49,833,765,0
4880185,696.09,833,764,0
4880195,664.82,833,765,0
4880205,627.12,833,764,0
4880215,586.02,833,765,0
4880225,543.85,833,764,0
4880235,502.41,833,765,0
4880245,463.37,833,764,0
4880256,427.86,833,765,0
4880265,397.26,833,764,0
4880275,371.77,833,765,0
4880285,351.57,833,764,0
4880295,336.87,833,765,0
4880305,327.82,833,764,0
4880315,323.59,833,765,0
4880325,323.88,833,764,0
4880335,327.35,833,765,0
4880345,333.33,833,764,0
4880355,340.77,833,765,0
4880365,348.77,833,764,0
4880375,356.12,833,765,0
4880385,362.43,833,764,0
4880395,367.14,833,765,0
4880405,370.10,833,764,0
4880415,371.10,833,765,0
4880425,370.17,833,764,0
4880435,367.50,833,765,0
4880445,363.71,833,764,0
4880455,358.74,833,765,0
4880465,353.29,833,765,0
4880475,347.42,833,765,0
4880485,341.81,833,764,0
4880495,336.51,833,765,0
4880505,332.03,833,764,0
4880515,328.33,833,765,0
4880525,325.75,833,764,0
4880535,323.85,833,765,0
4880545,322.95,833,764,0
4880556,322.54,833,765,0
4880566,322.93,833,764,0
4880576,323.73,833,764,0
4880586,325.01,833,764,0
4880596,326.42,833,765,0
4880606,328.14,833,764,0
4880616,329.85,833,764,0
4880626,331.95,833,764,0
4880636,333.77,833,765,0
4880646,335.89,833,765,0
4880656,337.60,833,764,0
4880666,339.56,833,765,0
4880676,340.98,833,765,0
4880686,342.87,833,765,0
4880696,344.02,833,764,0
4880706,345.35,833,765,0
4880716,345.63,833,765,0
4880727,345.78,833,765,0
4880737,344.90,833,764,0
4880747,344.42,833,765,0
4880757,342.71,833,764,0
4880768,341.42,833,765,0
4880777,340.01,833,764,0
4880787,340.52,833,765,0
4880797,343.45,833,764,0
4880807,351.50,833,765,0
4880817,365.19,833,764,0
4880827,387.81,833,765,0
4880846,420.09,844,764,0
4880849,460.74,844,766,0
4880858,505.86,844,764,0
4880868,552.87,844,765,0
4880878,598.30,844,765,0
4880888,639.91,844,765,0
4880898,674.61,844,764,0
4880908,700.48,844,765,0
4880918,718.55,844,764,0
4880928,731.24,844,765,0
4880939,740.08,844,764,0
4880948,746.27,844,765,0
4880958,750.56,844,764,0
4880968,753.57,844,765,0
4880978,755.62,844,764,0
4880988,757.11,844,765,0
4880998,755.58,844,764,0
4881008,749.70,844,765,0
4881018,737.71,844,763,0
4881028,719.67,844,765,0
4881038,694.61,844,764,0
4881048,663.05,844,765,0
4881058,624.81,844,763,0
4881068,583.47,844,765,0
4881078,540.56,844,764,0
4881088,499.20,844,765,0
4881098,459.80,844,764,0
4881108,424.80,844,765,0
4881118,394.22,844,764,0
4881128,369.55,844,765,0
4881138,350.06,844,764,0
4881148,336.93,844,765,0
4881158,328.81,844,764,0
4881168,326.16,844,765,0
4881178,327.10,844,764,0
4881188,331.66,844,765,0
4881198,337.80,844,764,0
4881208,345.58,844,765,0
4881218,352.86,844,764,0
4881228,359.93,844,765,0
4881239,365.18,844,764,0
4881249,369.20,844,765,0
4881259,370.77,844,764,0
4881269,370.84,844,765,0
4881280,368.57,844,764,0
4881289,365.31,844,765,0
4881299,360.33,844,764,0
4881309,354.92,844,765,0
4881319,348.52,844,764,0
4881329,342.45,844,765,0
4881339,336.01,844,764,0
4881349,330.57,844,765,0
4881359,325.25,844,764,0
4881369,321.36,844,765,0
4881379,317.95,844,764,0
4881389,315.87,844,765,0
4881399,314.28,844,764,0
4881409,314.24,844,765,0
4881419,314.34,844,764,0
4881429,315.39,844,765,0
4881439,316.26,844,764,0
4881449,317.85,844,765,0
4881459,319.27,844,764,0
4881469,321.20,844,765,0
4881479,322.64,844,764,0
4881489,324.55,844,765,0
4881499,326.14,844,764,0
4881509,328.11,844,765,0
4881519,329.19,844,764,0
4881529,330.46,844,765,0
4881539,330.88,844,764,0
4881549,331.56,844,765,0
4881559,331.52,844,764,0
4881569,331.75,844,765,0
4881580,331.23,844,764,0
4881590,331.24,844,765,0
4881600,330.66,844,764,0
4881610,330.50,844,765,0
4881620,329.71,844,764,0
4881630,329.50,844,765,0
4881640,329.39,844,764,0
4881650,331.33,844,765,0
4881660,336.03,844,764,0
4881670,345.58,844,765,0
4881680,361.18,844,764,0
4881699,385.60,853,763,0
4881702,420.13,853,764,0
4881711,462.35,853,765,0
4881721,508.57,853,764,0
4881731,555.89,853,765,0
4881741,601.52,853,764,0
4881751,642.98,853,765,0
4881761,677.27,853,764,0
4881771,702.13,853,765,0
4881781,719.54,853,764,0
4881792,731.72,853,765,0
4881801,740.25,853,764,0
4881811,746.26,853,766,0
4881821,750.47,853,764,0
4881831,753.45,853,765,0
4881841,753.53,853,764,0
4881851,749.09,853,765,0
4881861,738.65,853,764,0
4881871,721.65,853,765,0
4881881,698.27,853,764,0
4881891,668.28,853,765,0
4881901,632.19,853,764,0
4881911,592.06,853,765,0
4881921,550.39,853,764,0
4881931,509.64,853,765,0
4881941,470.88,853,764,0
4881951,435.04,853,765,0
4881961,403.02,853,764,0
4881971,375.24,853,765,0
4881981,352.33,853,764,0
4881991,334.66,853,765,0
4882001,321.90,853,764,0
4882011,314.39,853,765,0
4882021,311.19,853,764,0
4882031,311.99,853,765,0
4882041,315.85,853,764,0
4882051,322.11,853,765,0
4882061,329.40,853,764,0
4882071,337.13,853,765,0
4882081,344.16,853,764,0
4882092,350.11,853,765,0
4882102,354.45,853,764,0
4882112,356.80,853,765,0
4882122,357.12,853,764,0
4882132,355.54,853,765,0
4882142,352.29,853,764,0
4882152,347.70,853,765,0
4882162,342.18,853,764,0
4882172,335.91,853,765,0
4882182,329.64,853,764,0
4882192,323.83,853,765,0
4882202,318.48,853,764,0
4882212,313.62,853,765,0
4882222,309.66,853,764,0
4882232,306.51,853,765,0
4882242,304.47,853,764,0
4882252,303.13,853,765,0
4882263,302.32,853,764,0
4882273,302.27,853,765,0
4882283,303.09,853,764,0
4882293,304.22,853,765,0
4882304,305.95,853,764,0
4882313,307.90,853,765,0
4882323,310.28,853,764,0
4882333,312.56,853,765,0
4882343,315.13,853,765,0
4882353,317.49,853,765,0
4882363,320.22,853,764,0
4882373,322.64,853,765,0
4882383,325.23,853,765,0
4882393,327.43,853,765,0
4882403,329.70,853,764,0
4882413,331.38,853,765,0
4882423,332.89,853,765,0
4882433,333.61,853,765,0
4882443,334.11,853,764,0
4882453,333.74,853,765,0
4882463,333.04,853,765,0
4882473,331.75,853,765,0
4882483,330.75,853,764,0
4882493,330.14,853,765,0
4882503,331.47,853,765,0
4882513,335.44,853,765,0
4882523,344.22,853,764,0
4882533,359.20,853,765,0
4882552,382.97,853,764,0
4882555,416.45,853,766,0
4882564,458.01,853,764,0
4882574,503.82,853,765,0
4882584,551.15,853,765,0
4882594,596.96,853,765,0
4882604,638.84,853,764,0
4882614,673.73,853,765,0
4882624,699.70,853,765,0
4882634,717.83,853,765,0
4882644,730.53,853,764,0
4882654,739.41,853,765,0
4882664,745.63,853,765,0
4882674,749.47,853,765,0
4882684,749.20,853,764,0
4882694,743.40,853,765,0
4882704,731.62,853,765,0
4882714,713.05,853,765,0
4882724,688.09,853,765,0
4882734,656.78,853,764,0
4882744,620.72,853,765,0
4882754,581.80,853,765,0
4882764,543.12,853,765,0
4882775,504.94,853,764,0
4882785,469.60,853,765,0
4882795,436.72,853,764,0
4882805,407.62,853,765,0
4882816,381.42,853,764,0
4882825,359.99,853,765,0
4882835,342.47,853,764,0
4882845,330.03,853,765,0
4882855,321.40,853,764,0
4882865,317.60,853,765,0
4882875,317.33,853,765,0
4882885,320.62,853,765,0
4882895,325.70,853,764,0
4882905,332.44,853,765,0
4882915,339.76,853,765,0
4882925,347.46,853,765,0
4882935,353.84,853,764,0
4882945,359.33,853,765,0
4882955,362.70,853,764,0
4882965,364.81,853,765,0
4882975,364.48,853,764,0
4882985,362.71,853,765,0
4882995,358.89,853,764,0
4883005,354.51,853,765,0
4883015,348.57,853,764,0
4883025,342.74,853,765,0
4883035,336.18,853,764,0
4883045,330.30,853,765,0
4883055,324.25,853,764,0
4883065,319.42,853,765,0
4883075,315.05,853,765,0
4883085,312.12,853,765,0
4883095,309.68,853,764,0
4883105,308.62,853,765,0
4883116,308.09,853,764,0
4883126,308.75,853,765,0
4883136,309.47,853,764,0
4883146,311.04,853,765,0
4883156,312.70,853,764,0
4883166,315.15,853,765,0
4883176,317.29,853,764,0
4883186,320.12,853,765,0
4883196,322.52,853,764,0
4883206,325.62,853,765,0
4883216,328.18,853,764,0
4883226,330.87,853,765,0
4883236,332.79,853,764,0
4883246,335.21,853,766,0
4883256,336.48,853,764,0
4883266,337.62,853,765,0
4883276,337.61,853,764,0
4883287,337.38,853,765,0
4883297,336.20,853,764,0
4883307,335.19,853,765,0
4883317,333.55,853,764,0
4883328,333.26,853,765,0
4883337,334.34,853,764,0
4883347,338.99,853,765,0
4883357,348.04,853,764,0
4883367,364.10,853,765,0
4883377,387.68,853,764,0
4883396,420.95,844,763,0
4883399,461.81,844,765,0
4883408,507.25,844,766,0
4883418,553.76,844,764,0
4883428,598.88,844,765,0
4883438,639.54,844,764,0
4883448,674.01,844,765,0
4883458,699.85,844,764,0
4883468,717.89,844,766,0
4883478,730.53,844,764,0
4883488,739.37,844,765,0
4883499,745.56,844,764,0
4883508,749.89,844,765,0
4883518,751.85,844,764,0
4883528,749.84,844,765,0
4883538,742.43,844,764,0
4883548,729.44,844,765,0
4883558,710.20,844,764,0
4883568,684.85,844,765,0
4883578,653.31,844,763,0
4883588,617.43,844,765,0
4883598,579.25,844,764,0
4883608,541.16,844,765,0
4883618,503.74,844,764,0
4883628,468.80,844,765,0
4883638,436.59,844,764,0
4883648,408.30,844,765,0
4883658,383.52,844,764,0
4883668,363.14,844,765,0
4883678,346.85,844,764,0
4883688,335.33,844,765,0
4883698,327.86,844,764,0
4883708,324.69,844,765,0
4883718,324.69,844,764,0
4883728,327.87,844,765,0
4883738,333.18,844,764,0
4883748,340.07,844,765,0
4883758,347.46,844,764,0
4883768,355.21,844,766,0
4883778,361.92,844,764,0
4883788,367.51,844,765,0
4883799,371.43,844,764,0
4883809,373.49,844,765,0
4883819,373.68,844,764,0
4883829,372.24,844,765,0
4883840,369.04,844,764,0
4883849,364.91,844,765,0
4883859,359.84,844,764,0
4883869,354.19,844,765,0
4883879,348.43,844,764,0
4883889,343.12,844,765,0
4883899,338.15,844,764,0
4883909,333.78,844,765,0
4883919,329.94,844,764,0
4883929,327.13,844,766,0
4883939,325.12,844,764,0
4883949,323.89,844,765,0
4883959,323.23,844,764,0
4883969,323.29,844,765,0
4883979,323.85,844,764,0
4883989,325.05,844,765,0
4883999,326.79,844,764,0
4884009,328.87,844,765,0
4884019,331.31,844,764,0
4884029,333.87,844,765,0
4884039,336.40,844,764,0
4884049,338.89,844,765,0
4884059,341.11,844,764,0
4884069,342.92,844,765,0
4884079,344.62,844,764,0
4884089,346.02,844,765,0
4884099,347.13,844,764,0
4884109,347.77,844,765,0
4884119,347.97,844,764,0
4884129,347.81,844,765,0
4884140,347.57,844,764,0
4884150,347.01,844,765,0
4884160,347.09,844,765,0
4884170,348.31,844,765,0
4884180,352.80,844,765,0
4884190,361.48,844,764,0
4884200,376.68,844,764,0
4884210,400.00,844,765,0
4884230,433.69,833,764,0
4884233,474.32,833,766,0
4884242,519.18,833,765,0
4884252,564.77,833,765,0
4884262,608.98,833,765,0
4884272,648.76,833,764,0
4884282,681.66,833,765,0
4884292,705.25,833,765,0
4884302,721.80,833,765,0
4884312,733.35,833,764,0
4884322,741.43,833,765,0
4884332,747.09,833,765,0
4884342,751.09,833,765,0
4884353,753.85,833,764,0
4884363,755.78,833,765,0
4884373,757.09,833,765,0
4884383,757.62,833,765,0
4884393,754.48,833,764,0
4884403,746.75,833,765,0
4884413,732.64,833,764,0
4884423,711.96,833,765,0
4884433,683.94,833,764,0
4884443,649.50,833,765,0
4884453,608.85,833,764,0
4884463,566.13,833,765,0
4884473,522.54,833,764,0
4884483,481.84,833,765,0
4884493,444.34,833,764,0
4884503,412.40,833,765,0
4884513,385.54,833,764,0
4884524,365.36,833,765,0
4884534,350.90,833,764,0
4884544,342.91,833,765,0
4884554,339.30,833,764,0
4884564,340.62,833,765,0
4884574,344.76,833,764,0
4884584,351.65,833,765,0
4884594,359.08,833,764,0
4884604,367.12,833,765,0
4884614,373.94,833,764,0
4884624,379.87,833,765,0
4884634,383.47,833,764,0
4884644,385.56,833,765,0
4884654,385.17,833,764,0
4884664,383.36,833,765,0
4884674,379.40,833,764,0
4884684,374.61,833,765,0
4884695,368.43,833,764,0
4884705,362.25,833,765,0
4884715,355.58,833,764,0
4884725,349.49,833,765,0
4884736,343.64,833,764,0
4884745,339.12,833,765,0
4884755,335.10,833,764,0
4884765,332.63,833,765,0
4884775,330.90,833,764,0
4884785,330.63,833,765,0
4884795,331.00,833,764,0
4884805,332.58,833,765,0
4884815,334.51,833,764,0
4884825,337.40,833,765,0
4884835,340.28,833,764,0
4884845,343.67,833,765,0
4884855,346.72,833,764,0
4884865,350.02,833,765,0
4884875,352.76,833,764,0
4884885,355.40,833,765,0
4884895,357.34,833,764,0
4884905,358.91,833,766,0
4884915,359.62,833,764,0
4884925,359.91,833,765,0
4884935,358.95,833,764,0
4884945,357.59,833,765,0
4884955,355.27,833,764,0
4884965,353.05,833,765,0
4884975,350.72,833,764,0
4884985,349.60,833,765,0
4884995,350.41,833,764,0
4885005,355.77,833,765,0
4885015,366.73,833,764,0
4885025,386.27,833,765,0
4885036,415.29,833,764,0
4885055,453.51,826,763,0
4885058,497.16,826,765,0
4885067,543.53,826,765,0
4885078,589.23,826,764,0
4885087,631.76,826,765,0
4885097,667.96,826,765,0
4885107,695.66,826,765,0
4885117,715.05,826,764,0
4885127,728.57,826,765,0
4885137,738.05,826,764,0
4885147,744.67,826,765,0
4885157,749.32,826,764,0
4885167,752.52,826,765,0
4885177,754.76,826,764,0
4885187,756.38,826,765,0
4885197,757.51,826,764,0
4885207,756.03,826,765,0
4885217,749.46,826,764,0
4885227,737.07,826,765,0
4885237,717.50,826,764,0
4885248,690.74,826,765,0
4885257,656.83,826,764,0
4885267,616.21,826,765,0
4885277,571.66,826,764,0
4885287,526.51,826,765,0
4885297,482.81,826,764,0
4885307,442.67,826,765,0
4885317,407.20,826,764,0
4885327,377.31,826,765,0
4885337,353.77,826,764,0
4885347,336.61,826,765,0
4885357,325.63,826,764,0
4885367,320.08,826,764,0
4885377,319.42,826,764,0
4885387,322.85,826,765,0
4885397,329.19,826,764,0
4885407,337.02,826,765,0
4885417,345.63,826,764,0
4885427,354.14,826,765,0
4885437,361.51,826,764,0
4885447,367.27,826,765,0
4885457,370.83,826,764,0
4885467,372.17,826,765,0
4885477,371.39,826,764,0
4885487,368.49,826,765,0
4885497,363.93,826,764,0
4885507,358.33,826,765,0
4885517,352.15,826,764,0
4885527,345.76,826,765,0
4885537,339.62,826,764,0
4885548,333.95,826,765,0
4885558,329.33,826,764,0
4885568,325.55,826,765,0
4885578,322.90,826,764,0
4885588,321.13,826,765,0
4885598,320.45,826,764,0
4885608,320.53,826,765,0
4885618,321.61,826,764,0
4885628,323.14,826,765,0
4885638,325.41,826,764,0
4885648,327.99,826,765,0
4885658,331.16,826,764,0
4885668,334.29,826,765,0
4885678,337.63,826,764,0
4885688,340.70,826,765,0
4885698,343.79,826,764,0
4885708,346.42,826,765,0
4885719,348.87,826,765,0
4885729,350.49,826,764,0
4885739,351.97,826,765,0
4885749,352.62,826,765,0
4885760,353.04,826,765,0
4885769,352.64,826,765,0
4885779,352.19,826,765,0
4885789,351.28,826,765,0
4885799,351.32,826,765,0
4885809,352.55,826,765,0
4885819,357.36,826,764,0
4885829,366.89,826,765,0
4885839,384.15,826,765,0
4885849,409.87,826,765,0
4885868,445.61,813,764,0
4885871,487.47,813,765,0
4885880,532.88,813,765,0
4885890,578.48,813,765,0
4885900,621.75,813,765,0
4885910,659.37,813,765,0
4885920,689.64,813,765,0
4885931,710.84,813,765,0
4885940,725.71,813,765,0
4885950,736.08,813,765,0
4885960,743.39,813,765,0
4885970,748.46,813,765,0
4885980,752.05,813,764,0
4885990,754.56,813,765,0
4886000,756.37,813,765,0
4886010,756.51,813,765,0
4886020,753.62,813,764,0
4886030,745.59,813,765,0
4886040,731.83,813,765,0
4886050,711.18,813,764,0
4886060,684.17,813,764,0
4886070,650.39,813,765,0
4886080,611.70,813,765,0
4886090,569.75,813,764,0
4886100,527.82,813,765,0
4886110,487.16,813,765,0
4886120,450.26,813,765,0
4886130,417.09,813,764,0
4886140,389.59,813,765,0
4886150,367.30,813,764,0
4886160,351.44,813,765,0
4886170,340.89,813,764,0
4886180,336.21,813,765,0
4886190,335.50,813,765,0
4886200,338.82,813,765,0
4886210,344.23,813,764,0
4886220,351.58,813,765,0
4886231,358.95,813,764,0
4886241,366.33,813,765,0
4886251,371.85,813,764,0
4886261,376.39,813,765,0
4886272,378.55,813,764,0
4886281,378.90,813,765,0
4886291,376.66,813,764,0
4886301,372.86,813,765,0
4886311,367.24,813,764,0
4886321,361.13,813,765,0
4886331,353.80,813,764,0
4886341,346.96,813,765,0
4886351,339.99,813,764,0
4886361,334.38,813,765,0
4886371,329.29,813,764,0
4886381,325.69,813,765,0
4886391,322.65,813,764,0
4886401,321.22,813,765,0
4886411,320.25,813,764,0
4886421,320.78,813,765,0
4886431,321.53,813,764,0
4886441,323.51,813,765,0
4886451,325.50,813,764,0
4886461,328.39,813,765,0
4886471,331.06,813,764,0
4886481,334.30,813,765,0
4886491,337.04,813,764,0
4886501,340.03,813,765,0
4886511,342.20,813,764,0
4886521,344.50,813,765,0
4886531,345.89,813,764,0
4886541,347.25,813,765,0
4886551,347.56,813,764,0
4886561,347.78,813,765,0
4886572,347.03,813,764,0
4886582,346.29,813,765,0
4886592,344.75,813,764,0
4886602,343.50,813,765,0
4886612,341.85,813,764,0
4886622,341.34,813,765,0
4886632,341.88,813,764,0
4886642,345.90,813,766,0
4886652,354.24,813,764,0
4886662,369.43,813,765,0
4886672,392.53,813,764,0
4886691,425.76,823,763,0
4886694,466.46,823,765,0
4886703,511.75,823,766,0
4886713,558.07,823,764,0
4886723,602.96,823,766,0
4886733,643.47,823,764,0
4886743,677.36,823,766,0
4886753,702.28,823,764,0
4886763,719.72,823,766,0
4886773,731.98,823,765,0
4886784,740.60,823,765,0
4886793,746.59,823,764,0
4886803,750.79,823,766,0
4886813,753.72,823,764,0
4886823,755.18,823,765,0
4886833,752.85,823,764,0
4886843,745.78,823,766,0
4886853,732.65,823,764,0
4886863,713.38,823,765,0
4886873,687.51,823,764,0
4886883,655.43,823,765,0
4886893,617.84,823,764,0
4886903,577.86,823,765,0
4886913,537.02,823,764,0
4886923,497.71,823,765,0
4886933,460.51,823,764,0
4886943,426.93,823,765,0
4886953,397.29,823,764,0
4886963,372.56,823,765,0
4886973,352.64,823,764,0
4886983,338.09,823,765,0
4886993,328.25,823,764,0
4887003,323.50,823,765,0
4887013,322.54,823,764,0
4887023,325.08,823,765,0
4887033,329.77,823,764,0
4887043,336.31,823,765,0
4887053,343.29,823,764,0
4887063,350.36,823,765,0
4887073,356.21,823,764,0
4887084,361.03,823,765,0
4887094,363.98,823,764,0
4887104,365.31,823,765,0
4887114,364.62,823,764,0
4887124,362.29,823,765,0
4887134,358.39,823,764,0
4887144,353.52,823,766,0
4887154,347.79,823,764,0
4887164,341.85,823,765,0
4887174,335.85,823,764,0
4887184,330.28,823,765,0
4887194,325.36,823,764,0
4887204,321.26,823,765,0
4887214,318.06,823,764,0
4887224,315.94,823,765,0
4887234,314.67,823,764,0
4887244,314.34,823,765,0
4887255,314.71,823,764,0
4887265,315.65,823,765,0
4887275,317.09,823,764,0
4887285,318.86,823,765,0
4887296,320.83,823,765,0
4887305,322.98,823,765,0
4887315,325.13,823,764,0
4887325,327.15,823,765,0
4887335,329.16,823,765,0
4887345,330.91,823,765,0
4887355,332.57,823,764,0
4887365,333.85,823,765,0
4887375,335.01,823,765,0
4887385,335.87,823,765,0
4887395,336.59,823,764,0
4887405,336.84,823,765,0
4887415,336.93,823,764,0
4887425,336.57,823,765,0
4887435,336.05,823,764,0
4887445,335.14,823,765,0
4887455,334.24,823,765,0
4887465,333.52,823,765,0
4887475,334.01,823,765,0
4887485,336.62,823,765,0
4887495,343.16,823,765,0
4887505,355.20,823,765,0
4887515,374.64,823,764,0
4887534,402.99,843,763,0
4887537,441.05,843,766,0
4887546,485.01,843,765,0
4887556,531.72,843,765,0
4887566,578.13,843,765,0
4887576,621.59,843,765,0
4887586,659.56,843,765,0
4887596,689.82,843,765,0
4887606,710.96,843,765,0
4887616,725.80,843,765,0
4887626,736.19,843,765,0
4887636,743.46,843,765,0
4887646,748.51,843,765,0
4887656,752.08,843,765,0
4887666,752.66,843,765,0
4887676,748.82,843,765,0
4887686,739.36,843,765,0
4887696,723.87,843,765,0
4887706,701.83,843,765,0
4887716,673.60,843,765,0
4887726,639.30,843,765,0
4887736,601.46,843,765,0
4887746,561.80,843,765,0
4887756,522.61,843,765,0
4887767,484.62,843,764,0
4887777,449.55,843,765,0
4887787,417.41,843,765,0
4887797,389.26,843,765,0
4887808,364.84,843,764,0
4887817,345.47,843,765,0
4887827,330.50,843,765,0
4887837,320.84,843,765,0
4887847,315.36,843,764,0
4887857,314.48,843,765,0
4887867,316.65,843,765,0
4887877,322.03,843,765,0
4887887,328.70,843,764,0
4887897,336.68,843,765,0
4887907,344.15,843,765,0
4887917,351.22,843,765,0
4887927,356.47,843,764,0
4887937,360.44,843,765,0
4887947,362.11,843,765,0
4887957,362.29,843,765,0
4887967,360.10,843,764,0
4887977,356.73,843,765,0
4887987,351.71,843,765,0
4887997,346.31,843,765,0
4888007,340.05,843,764,0
4888017,334.08,843,765,0
4888027,327.97,843,765,0
4888037,323.05,843,765,0
4888047,318.49,843,765,0
4888057,315.30,843,765,0
4888067,312.51,843,765,0
4888077,311.03,843,765,0
4888087,309.86,843,765,0
4888097,309.86,843,765,0
4888108,309.99,843,765,0
4888118,311.15,843,765,0
4888128,312.26,843,764,0
4888138,314.28,843,765,0
4888148,316.17,843,764,0
4888158,318.82,843,765,0
4888168,321.06,843,764,0
4888178,323.74,843,765,0
4888188,325.75,843,764,0
4888198,328.18,843,765,0
4888208,329.93,843,764,0
4888218,331.96,843,765,0
4888228,333.17,843,764,0
4888238,334.71,843,765,0
4888248,335.44,843,764,0
4888258,336.55,843,765,0
4888268,336.77,843,764,0
4888279,337.18,843,765,0
4888289,336.70,843,764,0
4888299,336.79,843,765,0
4888309,336.60,843,765,0
4888320,338.13,843,765,0
4888329,341.31,843,764,0
4888339,348.97,843,765,0
4888349,362.01,843,764,0
4888359,383.43,843,765,0
4888378,413.13,844,764,0
4888381,452.01,844,767,0
4888390,495.89,844,764,0
4888400,542.38,844,766,0
4888410,587.91,844,764,0
4888420,630.19,844,765,0
4888430,666.05,844,765,0
4888440,694.32,844,766,0
4888450,714.11,844,765,0
4888460,728.01,844,765,0
4888470,737.73,844,764,0
4888480,744.58,844,766,0
4888491,749.34,844,764,0
4888500,751.81,844,765,0
4888510,749.68,844,764,0
4888520,742.32,844,766,0
4888530,728.64,844,764,0
4888540,709.25,844,765,0
4888550,683.54,844,764,0
4888560,652.01,844,765,0
4888570,615.79,844,764,0
4888580,578.44,844,765,0
4888590,541.02,844,764,0
4888600,505.44,844,766,0
4888610,471.67,844,764,0
4888620,441.17,844,765,0
4888630,413.86,844,764,0
4888640,390.80,844,765,0
4888650,371.32,844,764,0
4888660,356.35,844,765,0
4888670,345.49,844,764,0
4888680,339.17,844,766,0
4888690,336.46,844,764,0
4888700,337.61,844,765,0
4888710,340.90,844,764,0
4888720,346.54,844,765,0
4888730,352.81,844,764,0
4888740,359.64,844,765,0
4888750,365.57,844,764,0
4888760,370.63,844,766,0
4888770,373.74,844,764,0
4888780,375.23,844,765,0
4888791,374.43,844,764,0
4888801,371.95,844,765,0
4888811,367.59,844,764,0
4888821,361.97,844,765,0
4888832,355.25,844,764,0
4888841,348.28,844,766,0
4888851,341.29,844,765,0
4888861,334.82,844,765,0
4888871,329.09,844,764,0
4888881,324.48,844,765,0
4888891,320.82,844,764,0
4888901,318.47,844,765,0
4888911,317.09,844,764,0
4888921,316.80,844,765,0
4888931,317.25,844,764,0
4888941,318.46,844,765,0
4888951,319.99,844,764,0
4888961,322.14,844,766,0
4888971,324.24,844,764,0
4888981,326.57,844,765,0
4888991,328.67,844,764,0
4889001,330.83,844,765,0
4889011,332.63,844,764,0
4889021,334.37,844,765,0
4889031,335.72,844,764,0
4889041,336.96,844,766,0
4889051,337.79,844,765,0
4889061,338.41,844,765,0
4889071,338.54,844,764,0
4889081,338.47,844,766,0
4889091,337.81,844,764,0
4889101,337.05,844,765,0
4889111,335.97,844,764,0
4889121,334.99,844,765,0
4889132,334.44,844,764,0
4889142,335.42,844,765,0
4889152,339.07,844,764,0
4889162,347.23,844,765,0
4889172,361.65,844,765,0
4889182,384.08,844,765,0
4889201,415.77,823,764,0
4889204,455.91,823,766,0
4889213,500.94,823,765,0
4889223,547.71,823,765,0
4889233,593.31,823,765,0
4889243,634.88,823,765,0
4889253,670.23,823,765,0
4889263,697.29,823,765,0
4889273,716.19,823,765,0
4889283,729.37,823,765,0
4889293,738.65,823,765,0
4889303,745.14,823,765,0
4889313,749.68,823,764,0
4889323,752.82,823,766,0
4889333,753.73,823,765,0
4889344,750.47,823,765,0
4889353,742.31,823,764,0
4889363,728.42,823,765,0
4889373,708.58,823,765,0
4889383,682.65,823,765,0
4889393,650.87,823,764,0
4889403,614.74,823,765,0
4889413,576.97,823,765,0
4889423,538.67,823,765,0
4889433,501.65,823,764,0
4889443,466.74,823,765,0
4889453,435.11,823,765,0
4889463,407.09,823,765,0
4889473,383.58,823,764,0
4889483,364.67,823,765,0
4889493,350.80,823,765,0
4889503,341.47,823,765,0
4889513,336.79,823,764,0
4889523,335.95,823,765,0
4889533,338.45,823,765,0
4889543,342.99,823,765,0
4889553,349.08,823,764,0
4889563,355.74,823,765,0
4889573,362.46,823,765,0
4889583,368.28,823,765,0
4889593,372.95,823,764,0
4889603,375.88,823,765,0
4889613,377.25,823,765,0
4889623,376.44,823,765,0
4889633,374.25,823,765,0
4889644,370.23,823,765,0
4889654,365.24,823,765,0
4889664,358.99,823,765,0
4889674,352.65,823,765,0
4889684,346.03,823,765,0
4889694,340.45,823,765,0
4889704,335.21,823,765,0
4889714,331.34,823,765,0
4889724,327.93,823,765,0
4889734,326.11,823,765,0
4889744,324.84,823,765,0
4889754,324.67,823,765,0
4889764,324.55,823,765,0
4889774,325.20,823,765,0
4889784,326.17,823,765,0
4889794,327.83,823,765,0
4889804,329.25,823,765,0
4889815,331.24,823,765,0
4889825,333.05,823,765,0
4889835,335.31,823,765,0
4889845,337.10,823,765,0
4889856,338.87,823,765,0
4889865,340.28,823,765,0
4889875,342.00,823,765,0
4889885,343.03,823,765,0
4889895,344.30,823,765,0
4889905,344.81,823,765,0
4889915,345.60,823,765,0
4889925,345.55,823,764,0
4889935,345.55,823,765,0
4889945,344.66,823,765,0
4889955,344.12,823,765,0
4889965,343.18,823,765,0
4889975,343.69,823,765,0
4889985,345.71,823,765,0
4889995,351.75,823,765,0
4890005,362.84,823,765,0
4890015,381.92,823,765,0
4890035,409.89,833,764,0
4890038,447.51,833,766,0
4890047,490.68,833,764,0
4890057,536.85,833,766,0
4890067,582.71,833,765,0
4890077,625.78,833,766,0
4890087,662.96,833,764,0
4890097,692.24,833,766,0
4890107,712.74,833,765,0
4890117,727.09,833,766,0
4890127,737.09,833,764,0
4890137,744.14,833,766,0
4890147,749.07,833,765,0
4890157,752.52,833,766,0
4890167,754.89,833,764,0
4890177,756.55,833,766,0
4890187,755.79,833,765,0
4890198,751.18,833,766,0
4890207,741.14,833,764,0
4890217,725.24,833,765,0
4890227,702.50,833,764,0
4890237,673.25,833,765,0
4890247,637.43,833,764,0
4890257,597.79,833,765,0
4890267,555.85,833,764,0
4890277,514.41,833,765,0
4890287,474.52,833,764,0
4890297,438.49,833,765,0
4890307,406.54,833,764,0
4890317,380.11,833,766,0
4890327,358.69,833,764,0
4890337,343.57,833,765,0
4890347,333.67,833,764,0
4890357,329.40,833,765,0
4890368,329.11,833,764,0
4890377,332.85,833,765,0
4890387,338.68,833,764,0
4890397,346.49,833,765,0
4890407,354.31,833,764,0
4890417,362.23,833,765,0
4890427,368.46,833,764,0
4890437,373.47,833,765,0
4890447,376.11,833,764,0
4890457,377.15,833,765,0
4890467,375.82,833,764,0
4890477,373.17,833,765,0
4890487,368.62,833,764,0
4890497,363.64,833,765,0
4890507,357.57,833,764,0
4890517,351.66,833,766,0
4890527,345.33,833,764,0
4890537,339.83,833,766,0
4890547,334.53,833,764,0
4890557,330.55,833,766,0
