Time,PPG,IBI,GSR,GSR_Event
7178364,392.89,864,753,0
7178374,378.61,864,753,0
7178384,369.47,864,756,0
7178394,364.53,864,755,0
7178404,362.83,864,755,0
7178414,363.22,864,754,0
7178424,365.26,864,755,0
7178434,370.96,864,755,0
7178444,378.22,864,755,0
7178455,383.00,864,754,0
7178465,385.70,864,755,0
7178475,386.64,864,754,0
7178485,386.28,864,755,0
7178496,384.44,864,754,0
7178505,381.69,864,755,0
7178515,377.80,864,754,0
7178525,373.57,864,755,0
7178535,368.56,864,754,0
7178545,363.55,864,755,0
7178555,358.37,864,754,0
7178565,353.63,864,755,0
7178575,348.81,864,754,0
7178585,344.63,864,754,0
7178595,340.54,864,754,0
7178605,337.25,864,754,0
7178615,334.09,864,753,0
7178625,331.58,864,754,0
7178635,329.86,864,754,0
7178645,328.79,864,755,0
7178655,327.52,864,753,0
7178665,326.25,864,754,0
7178675,324.76,864,753,0
7178685,323.63,864,754,0
7178695,322.63,864,753,0
7178705,321.80,864,754,0
7178715,321.13,864,753,0
7178725,321.35,864,754,0
7178735,322.31,864,753,0
7178745,324.15,864,754,0
7178755,326.12,864,752,0
7178765,328.14,864,753,0
7178775,329.68,864,752,0
7178785,331.45,864,753,0
7178796,332.94,864,752,0
7178806,334.59,864,753,0
7178816,335.83,864,752,0
7178826,337.38,864,753,0
7178836,338.77,864,752,0
7178846,340.46,864,753,0
7178856,341.78,864,752,0
7178866,343.18,864,753,0
7178876,344.28,864,752,0
7178886,345.82,864,753,0
7178896,347.89,864,752,0
7178906,352.77,864,753,0
7178916,361.11,864,752,0
7178926,375.09,864,753,0
7178945,395.42,863,753,0
7178948,424.78,863,754,0
7178957,461.49,863,753,0
7178967,502.70,863,754,0
7178977,544.92,863,753,0
7178987,585.96,863,754,0
7178997,623.21,863,753,0
7179008,655.25,863,754,0
7179017,679.13,863,753,0
7179027,695.85,863,754,0
7179037,707.51,863,753,0
7179047,715.67,863,754,0
7179057,719.97,863,753,0
7179067,720.28,863,754,0
7179077,715.95,863,753,0
7179087,707.09,863,754,0
7179097,693.52,863,753,0
7179107,675.58,863,754,0
7179117,652.95,863,753,0
7179127,627.55,863,754,0
7179137,600.30,863,753,0
7179147,573.08,863,754,0
7179157,546.06,863,753,0
7179167,520.37,863,754,0
7179177,495.87,863,753,0
7179187,473.71,863,754,0
7179197,453.31,863,753,0
7179207,435.48,863,754,0
7179217,419.39,863,753,0
7179227,406.12,863,754,0
7179237,394.85,863,753,0
7179247,386.20,863,754,0
7179257,379.32,863,753,0
7179267,374.77,863,754,0
7179277,371.67,863,753,0
7179287,370.44,863,754,0
7179297,369.79,863,753,0
7179308,370.07,863,754,0
7179318,370.31,863,753,0
7179328,370.94,863,754,0
7179338,371.17,863,753,0
7179348,371.12,863,753,0
7179358,370.19,863,753,0
7179368,368.76,863,754,0
7179378,366.26,863,753,0
7179388,363.40,863,754,0
7179398,359.72,863,753,0
7179408,355.95,863,754,0
7179418,351.63,863,753,0
7179428,347.42,863,753,0
7179438,343.18,863,753,0
7179448,339.48,863,754,0
7179458,335.91,863,753,0
7179468,332.81,863,753,0
7179479,329.78,863,753,0
7179489,327.45,863,754,0
7179499,325.34,863,754,0
7179509,323.61,863,753,0
7179520,322.14,863,754,0
7179529,321.20,863,753,0
7179539,320.45,863,753,0
7179549,320.19,863,753,0
7179559,320.13,863,754,0
7179569,320.44,863,754,0
7179579,320.90,863,754,0
7179589,321.62,863,753,0
7179599,322.25,863,754,0
7179609,323.07,863,753,0
7179619,323.82,863,754,0
7179629,324.73,863,753,0
7179639,325.58,863,754,0
7179649,326.65,863,753,0
7179659,327.61,863,753,0
7179669,328.67,863,753,0
7179679,329.63,863,753,0
7179689,330.64,863,753,0
7179699,331.48,863,753,0
7179709,332.40,863,753,0
7179719,333.27,863,754,0
7179729,334.17,863,753,0
7179739,335.19,863,753,0
7179749,336.25,863,753,0
7179759,337.25,863,753,0
7179769,338.46,863,753,0
7179779,340.08,863,754,0
7179789,343.40,863,753,0
7179799,349.79,863,753,0
7179819,360.74,873,752,0
7179822,378.13,873,754,0
7179831,402.74,873,753,0
7179841,434.49,873,754,0
7179851,472.57,873,753,0
7179862,514.01,873,754,0
7179871,555.92,873,753,0
7179881,595.59,873,753,0
7179891,630.43,873,753,0
7179901,659.18,873,754,0
7179911,681.41,873,753,0
7179921,696.89,873,753,0
7179931,705.79,873,752,0
7179941,708.81,873,754,0
7179951,706.30,873,753,0
7179961,698.54,873,753,0
7179971,685.65,873,752,0
7179981,668.05,873,754,0
7179991,646.39,873,753,0
7180001,622.36,873,753,0
7180011,596.92,873,753,0
7180021,571.28,873,753,0
7180032,545.99,873,753,0
7180041,521.91,873,753,0
7180051,499.05,873,753,0
7180061,477.95,873,754,0
7180071,458.55,873,753,0
7180081,441.24,873,753,0
7180091,425.74,873,753,0
7180101,412.40,873,754,0
7180111,400.97,873,752,0
7180121,391.72,873,753,0
7180131,384.05,873,753,0
7180141,378.20,873,753,0
7180151,373.81,873,752,0
7180161,371.00,873,753,0
7180171,369.11,873,752,0
7180181,368.31,873,754,0
7180191,367.96,873,753,0
7180201,368.23,873,753,0
7180211,368.50,873,752,0
7180221,368.69,873,754,0
7180231,368.36,873,753,0
7180241,367.91,873,753,0
7180251,366.78,873,752,0
7180261,365.22,873,754,0
7180271,362.97,873,752,0
7180281,360.45,873,753,0
7180291,357.48,873,752,0
7180301,354.38,873,754,0
7180311,350.84,873,752,0
7180321,347.20,873,753,0
7180332,343.37,873,752,0
7180342,340.13,873,754,0
7180352,337.05,873,752,0
7180362,334.59,873,753,0
7180372,332.49,873,752,0
7180382,331.14,873,753,0
7180392,330.11,873,753,0
7180402,329.61,873,754,0
7180412,328.82,873,752,0
7180422,328.53,873,753,0
7180432,328.29,873,752,0
7180442,328.63,873,753,0
7180452,328.78,873,752,0
7180462,329.49,873,753,0
7180472,330.42,873,752,0
7180482,332.05,873,753,0
7180492,333.49,873,752,0
7180503,334.97,873,753,0
7180513,335.88,873,752,0
7180523,337.03,873,753,0
7180533,337.84,873,752,0
7180544,338.87,873,753,0
7180553,339.55,873,752,0
7180563,340.50,873,753,0
7180573,341.25,873,752,0
7180583,342.29,873,753,0
7180593,343.02,873,752,0
7180603,343.95,873,753,0
7180613,344.53,873,752,0
7180623,346.13,873,753,0
7180633,349.22,873,753,0
7180643,355.97,873,753,0
7180653,367.20,873,752,0
7180673,384.63,854,751,0
7180676,408.78,854,753,0
7180685,440.18,854,753,0
7180695,477.02,854,753,0
7180705,517.35,854,753,0
7180716,557.78,854,753,0
7180726,596.16,854,753,0
7180736,630.23,854,753,0
7180746,658.57,854,753,0
7180756,679.57,854,753,0
7180766,693.12,854,753,0
7180776,699.12,854,753,0
7180786,698.62,854,753,0
7180796,691.96,854,753,0
7180806,679.93,854,753,0
7180816,662.72,854,753,0
7180826,641.80,854,753,0
7180836,618.08,854,753,0
7180846,593.37,854,753,0
7180856,568.32,854,753,0
7180866,544.14,854,753,0
7180876,520.95,854,753,0
7180887,499.45,854,753,0
7180897,479.60,854,753,0
7180907,461.72,854,752,0
7180917,445.56,854,753,0
7180928,431.38,854,752,0
7180937,418.97,854,753,0
7180947,408.60,854,752,0
7180957,400.15,854,753,0
7180967,393.68,854,753,0
7180977,388.85,854,753,0
7180987,385.55,854,752,0
7180997,383.46,854,753,0
7181007,382.38,854,753,0
7181017,381.75,854,753,0
7181027,381.44,854,753,0
7181037,381.14,854,753,0
7181047,380.79,854,752,0
7181057,380.13,854,753,0
7181067,379.15,854,753,0
7181077,377.65,854,753,0
7181087,375.78,854,753,0
7181097,373.32,854,753,0
7181107,370.52,854,753,0
7181117,367.32,854,753,0
7181127,363.97,854,752,0
7181137,360.46,854,753,0
7181147,356.94,854,753,0
7181157,353.31,854,753,0
7181167,349.96,854,753,0
7181177,346.72,854,753,0
7181187,343.84,854,753,0
7181197,341.15,854,754,0
7181207,338.66,854,753,0
7181217,336.58,854,753,0
7181228,335.03,854,752,0
7181238,333.87,854,754,0
7181248,333.05,854,752,0
7181258,332.43,854,753,0
7181268,332.09,854,752,0
7181278,332.15,854,753,0
7181288,332.62,854,752,0
7181298,333.42,854,753,0
7181308,334.32,854,752,0
7181318,335.47,854,753,0
7181328,336.83,854,752,0
7181338,338.51,854,753,0
7181348,340.11,854,752,0
7181358,341.54,854,754,0
7181368,342.62,854,752,0
7181378,343.63,854,753,0
7181388,344.39,854,752,0
7181399,344.96,854,753,0
7181409,345.23,854,752,0
7181419,345.50,854,753,0
7181429,345.65,854,752,0
7181440,346.06,854,754,0
7181449,346.47,854,752,0
7181459,347.14,854,753,0
7181469,347.66,854,752,0
7181479,348.83,854,753,0
7181489,351.41,854,752,0
7181499,357.20,854,753,0
7181509,367.21,854,752,0
7181529,383.22,856,751,0
7181532,406.08,856,753,0
7181541,436.83,856,753,0
7181551,473.95,856,752,0
7181561,514.77,856,754,0
7181571,555.94,856,752,0
7181581,595.17,856,753,0
7181591,630.09,856,752,0
7181601,659.16,856,753,0
7181612,681.36,856,752,0
7181622,697.15,856,753,0
7181632,706.92,856,753,0
7181642,711.44,856,753,0
7181652,710.50,856,753,0
7181662,704.90,856,753,0
7181672,694.35,856,753,0
7181682,679.33,856,753,0
7181692,659.60,856,753,0
7181702,637.35,856,753,0
7181712,613.12,856,752,0
7181722,588.57,856,753,0
7181732,563.71,856,753,0
7181742,540.23,856,753,0
7181752,517.92,856,752,0
7181762,497.71,856,753,0
7181772,478.90,856,753,0
7181783,462.39,856,753,0
7181793,447.83,856,753,0
7181803,435.71,856,753,0
7181813,425.17,856,753,0
7181824,416.72,856,753,0
7181833,409.69,856,752,0
7181843,404.55,856,753,0
7181853,400.36,856,753,0
7181863,397.59,856,753,0
7181873,395.32,856,752,0
7181883,393.81,856,752,0
7181893,392.32,856,753,0
7181903,391.33,856,753,0
7181913,390.03,856,752,0
7181923,388.82,856,753,0
7181933,386.77,856,753,0
7181943,384.61,856,753,0
7181953,381.81,856,752,0
7181963,378.83,856,753,0
7181973,375.28,856,752,0
7181983,371.68,856,753,0
7181993,367.71,856,752,0
7182003,364.07,856,752,0
7182013,360.06,856,752,0
7182023,356.40,856,752,0
7182033,352.68,856,752,0
7182043,349.56,856,753,0
7182053,346.56,856,753,0
7182063,344.17,856,753,0
7182073,341.76,856,752,0
7182083,339.99,856,752,0
7182093,338.15,856,752,0
7182103,336.95,856,752,0
7182113,335.85,856,752,0
7182124,335.47,856,752,0
7182134,335.37,856,752,0
7182144,335.94,856,752,0
7182154,336.65,856,752,0
7182164,337.91,856,752,0
7182174,339.14,856,753,0
7182184,340.51,856,752,0
7182194,341.69,856,752,0
7182204,342.81,856,752,0
7182214,343.72,856,753,0
7182224,344.83,856,752,0
7182234,345.74,856,753,0
7182244,346.85,856,752,0
7182254,347.71,856,753,0
7182264,348.57,856,752,0
7182274,349.21,856,752,0
7182284,350.00,856,752,0
7182295,350.56,856,753,0
7182305,351.38,856,752,0
7182315,351.99,856,753,0
7182325,352.77,856,752,0
7182336,353.65,856,753,0
7182345,355.77,856,752,0
7182355,360.08,856,752,0
7182365,368.50,856,752,0
7182375,382.45,856,753,0
7182394,403.23,866,752,0
7182397,432.09,866,752,0
7182406,468.19,866,752,0
7182416,508.38,866,753,0
7182426,549.83,866,752,0
7182436,589.83,866,753,0
7182446,625.84,866,752,0
7182456,656.23,866,753,0
7182466,679.30,866,752,0
7182476,695.45,866,752,0
7182486,706.76,866,752,0
7182496,714.72,866,752,0
7182507,720.29,866,752,0
7182516,724.19,866,753,0
7182526,724.95,866,752,0
7182536,721.79,866,753,0
7182546,714.05,866,752,0
7182556,701.61,866,753,0
7182566,684.28,866,752,0
7182576,662.08,866,753,0
7182586,635.02,866,752,0
7182596,605.65,866,752,0
7182606,575.37,866,752,0
7182616,545.56,866,753,0
7182626,516.85,866,752,0
7182636,490.15,866,753,0
7182646,465.89,866,752,0
7182656,444.71,866,752,0
7182666,426.24,866,752,0
7182676,410.91,866,753,0
7182686,398.55,866,752,0
7182696,389.34,866,752,0
7182706,382.85,866,752,0
7182716,379.04,866,753,0
7182726,377.40,866,752,0
7182736,377.79,866,752,0
7182746,379.40,866,752,0
7182756,381.98,866,752,0
7182766,384.77,866,752,0
7182776,387.50,866,752,0
7182786,389.45,866,752,0
7182796,390.77,866,753,0
7182807,391.01,866,752,0
7182817,390.41,866,752,0
7182827,388.57,866,752,0
7182837,385.91,866,752,0
7182848,382.17,866,752,0
7182857,378.05,866,752,0
7182867,373.15,866,752,0
7182877,368.09,866,753,0
7182887,362.40,866,752,0
7182897,357.01,866,752,0
7182907,351.69,866,752,0
7182917,346.99,866,753,0
7182927,342.40,866,752,0
7182937,338.43,866,752,0
7182947,334.78,866,752,0
7182957,332.19,866,753,0
7182967,329.86,866,752,0
7182977,328.53,866,753,0
7182987,327.60,866,752,0
7182997,327.42,866,753,0
7183007,327.17,866,752,0
7183017,327.20,866,753,0
7183027,327.06,866,752,0
7183037,327.34,866,753,0
7183047,326.98,866,752,0
7183057,326.86,866,753,0
7183067,326.47,866,752,0
7183077,326.76,866,752,0
7183087,327.26,866,752,0
7183097,328.30,866,752,0
7183107,329.36,866,752,0
7183117,331.06,866,753,0
7183127,332.54,866,752,0
7183137,334.52,866,752,0
7183148,336.38,866,752,0
7183158,338.58,866,753,0
7183168,340.55,866,752,0
7183178,342.83,866,753,0
7183188,345.36,866,752,0
7183198,349.88,866,753,0
7183208,357.16,866,752,0
7183218,369.37,866,753,0
7183228,387.09,866,752,0
7183238,411.70,866,753,0
7183257,442.82,863,752,0
7183260,480.33,863,753,0
7183269,520.73,863,752,0
7183279,561.44,863,753,0
7183289,599.49,863,752,0
7183299,633.25,863,753,0
7183309,661.16,863,752,0
7183319,682.88,863,753,0
7183329,698.13,863,752,0
7183339,708.85,863,752,0
7183349,714.81,863,752,0
7183360,716.28,863,753,0
7183369,712.94,863,752,0
7183379,705.16,863,753,0
7183389,692.51,863,752,0
7183399,675.39,863,752,0
7183409,653.84,863,752,0
7183419,629.97,863,752,0
7183429,604.48,863,752,0
7183439,578.84,863,752,0
7183449,553.30,863,752,0
7183459,529.34,863,753,0
7183469,506.78,863,752,0
7183479,486.57,863,752,0
7183489,468.19,863,752,0
7183499,452.36,863,752,0
7183509,438.67,863,751,0
7183519,427.67,863,752,0
7183529,418.38,863,752,0
7183539,411.58,863,752,0
7183549,406.09,863,752,0
7183559,402.59,863,752,0
7183569,400.23,863,752,0
7183579,399.35,863,752,0
7183589,399.03,863,752,0
7183599,399.66,863,752,0
7183609,400.15,863,752,0
7183619,401.05,863,752,0
7183629,401.25,863,751,0
7183639,401.26,863,752,0
7183649,400.11,863,752,0
7183660,398.28,863,752,0
7183670,395.32,863,751,0
7183680,391.97,863,752,0
7183690,387.69,863,752,0
7183700,383.46,863,752,0
7183710,378.48,863,751,0
7183720,373.92,863,752,0
7183730,369.23,863,752,0
7183740,364.96,863,752,0
7183750,360.43,863,751,0
7183760,356.44,863,752,0
7183770,352.24,863,752,0
7183780,348.70,863,752,0
7183790,345.10,863,752,0
7183800,342.07,863,752,0
7183810,339.31,863,752,0
7183820,337.37,863,752,0
7183831,335.67,863,752,0
7183841,334.74,863,752,0
7183851,334.01,863,752,0
7183861,333.88,863,752,0
7183872,333.87,863,752,0
7183881,334.12,863,752,0
7183891,334.22,863,752,0
7183901,334.54,863,752,0
7183911,334.72,863,752,0
7183921,335.06,863,752,0
7183931,335.08,863,752,0
7183941,335.40,863,752,0
7183951,335.84,863,752,0
7183961,336.74,863,752,0
7183971,337.55,863,752,0
7183981,338.76,863,752,0
7183991,340.84,863,752,0
7184001,345.13,863,752,0
7184011,352.68,863,752,0
7184021,365.20,863,752,0
7184031,383.87,863,752,0
7184041,410.31,863,753,0
7184051,444.50,863,753,0
7184070,484.17,813,751,0
7184073,526.29,813,752,0
7184082,568.03,813,752,0
7184092,606.81,813,752,0
7184102,640.64,813,751,0
7184112,667.70,813,752,0
7184122,687.38,813,752,0
7184132,701.11,813,752,0
7184142,710.67,813,751,0
7184152,717.37,813,752,0
7184162,722.06,813,751,0
7184172,724.14,813,752,0
7184182,722.90,813,751,0
7184192,717.66,813,752,0
7184202,708.08,813,751,0
7184212,693.87,813,752,0
7184222,675.18,813,751,0
7184232,651.85,813,752,0
7184242,625.33,813,751,0
7184252,596.94,813,752,0
7184262,568.16,813,751,0
7184272,539.95,813,752,0
7184282,512.97,813,751,0
7184292,487.69,813,752,0
7184302,464.73,813,751,0
7184312,444.45,813,752,0
7184322,427.17,813,751,0
7184332,412.89,813,751,0
7184343,401.57,813,751,0
7184353,393.34,813,752,0
7184363,387.80,813,751,0
7184373,384.69,813,752,0
7184384,383.19,813,751,0
7184393,383.05,813,752,0
7184403,383.76,813,751,0
7184413,384.82,813,752,0
7184423,385.69,813,751,0
7184433,386.30,813,751,0
7184443,386.12,813,750,0
7184453,385.44,813,751,0
7184463,383.72,813,751,0
7184473,381.24,813,751,0
7184483,377.95,813,751,0
7184493,374.19,813,752,0
7184503,369.68,813,751,0
7184513,365.02,813,751,0
7184523,360.17,813,750,0
7184533,355.70,813,751,0
7184543,351.25,813,750,0
7184553,347.36,813,751,0
7184563,343.82,813,751,0
7184573,340.92,813,751,0
7184583,338.24,813,751,0
7184593,336.11,813,751,0
7184603,334.15,813,750,0
7184613,332.56,813,751,0
7184623,330.89,813,751,0
7184633,329.47,813,751,0
7184643,328.13,813,751,0
7184653,327.19,813,751,0
7184663,326.19,813,751,0
7184673,325.53,813,751,0
7184684,324.90,813,751,0
7184694,324.76,813,751,0
7184704,324.53,813,751,0
7184714,324.76,813,751,0
7184724,325.00,813,750,0
7184734,325.73,813,752,0
7184744,330.35,813,754,0
7184754,337.10,813,755,0
7184764,343.59,813,754,0
7184774,350.18,813,755,0
7184784,355.01,813,754,0
7184794,358.14,813,754,0
7184804,359.00,813,753,0
7184814,354.54,813,754,0
7184824,347.09,813,753,0
7184834,339.18,813,754,0
7184844,330.64,813,753,0
7184855,324.32,813,755,0
7184865,320.58,813,754,0
7184875,321.35,813,754,0
7184885,327.24,813,753,0
7184896,340.07,813,754,0
7184905,360.28,813,753,0
7184924,389.72,854,752,0
7184927,427.65,854,753,0
7184936,471.25,854,754,0
7184946,516.91,854,753,0
7184956,561.98,854,754,0
7184966,603.38,854,753,0
7184976,639.48,854,754,0
7184986,668.05,854,753,0
7184996,688.14,854,753,0
7185006,702.15,854,753,0
7185016,711.96,854,754,0
7185026,718.83,854,753,0
7185036,723.64,854,754,0
7185046,727.00,854,753,0
7185056,729.36,854,754,0
7185067,731.01,854,753,0
7185076,732.21,854,753,0
7185086,730.94,854,753,0
7185096,726.42,854,754,0
7185106,717.25,854,753,0
7185116,703.38,854,754,0
7185126,684.15,854,753,0
7185136,659.72,854,753,0
7185146,629.85,854,753,0
7185156,597.66,854,753,0
7185166,564.04,854,752,0
7185176,531.41,854,753,0
7185186,500.09,854,753,0
7185196,471.90,854,753,0
7185206,446.82,854,753,0
7185216,426.04,854,753,0
7185226,408.80,854,753,0
7185236,395.79,854,753,0
7185246,386.08,854,753,0
7185256,380.10,854,753,0
7185266,376.56,854,753,0
7185276,375.45,854,753,0
7185286,375.57,854,753,0
7185296,376.98,854,753,0
7185306,378.45,854,753,0
7185316,380.16,854,753,0
7185326,380.84,854,753,0
7185336,380.89,854,753,0
7185346,379.93,854,753,0
7185356,378.63,854,753,0
7185367,376.04,854,753,0
7185377,373.16,854,753,0
7185387,369.17,854,753,0
7185397,365.17,854,753,0
7185408,360.66,854,753,0
7185417,356.39,854,753,0
7185427,351.73,854,753,0
7185437,347.48,854,753,0
7185447,343.10,854,753,0
7185457,339.42,854,753,0
7185467,335.91,854,753,0
7185477,333.20,854,753,0
7185487,330.61,854,753,0
7185497,328.71,854,753,0
7185507,327.00,854,753,0
7185517,325.97,854,753,0
7185527,324.99,854,753,0
7185537,324.52,854,753,0
7185547,324.07,854,753,0
7185557,324.18,854,753,0
7185567,324.08,854,753,0
7185577,324.57,854,753,0
7185587,324.87,854,753,0
7185597,325.64,854,753,0
7185607,326.22,854,753,0
7185617,326.97,854,753,0
7185627,327.45,854,753,0
7185637,328.26,854,753,0
7185647,328.78,854,753,0
7185657,329.53,854,752,0
7185667,329.89,854,753,0
7185677,330.56,854,753,0
7185687,330.95,854,753,0
7185697,331.48,854,753,0
7185708,331.76,854,753,0
7185718,332.09,854,753,0
7185728,332.28,854,753,0
7185738,332.71,854,752,0
7185748,333.05,854,753,0
7185758,334.37,854,753,0
7185768,337.56,854,753,0
7185778,344.80,854,753,0
7185788,357.42,854,753,0
7185807,377.09,883,752,0
7185810,405.31,883,753,0
7185819,442.03,883,752,0
7185829,484.02,883,753,0
7185839,528.20,883,753,0
7185849,571.34,883,753,0
7185859,611.10,883,753,0
7185869,645.27,883,753,0
7185879,671.84,883,753,0
7185889,690.49,883,753,0
7185899,703.54,883,752,0
7185909,712.68,883,753,0
7185920,719.08,883,752,0
7185929,723.60,883,753,0
7185939,726.80,883,752,0
7185949,729.09,883,753,0
7185959,729.06,883,752,0
7185969,725.66,883,753,0
7185979,718.05,883,752,0
7185989,705.60,883,753,0
7185999,688.15,883,752,0
7186009,665.69,883,753,0
7186019,638.23,883,752,0
7186029,607.82,883,753,0
7186039,575.90,883,752,0
7186049,543.92,883,753,0
7186059,513.08,883,752,0
7186069,484.22,883,753,0
7186079,457.79,883,752,0
7186089,434.63,883,753,0
7186099,414.60,883,752,0
7186109,398.26,883,752,0
7186119,385.33,883,752,0
7186129,375.84,883,753,0
7186139,369.33,883,752,0
7186149,365.38,883,753,0
7186159,363.42,883,752,0
7186169,363.08,883,753,0
7186179,363.61,883,752,0
7186189,364.67,883,753,0
7186199,365.71,883,752,0
7186209,366.53,883,753,0
7186220,366.84,883,752,0
7186230,366.50,883,753,0
7186240,365.37,883,752,0
7186250,363.46,883,753,0
7186260,360.96,883,752,0
7186270,357.85,883,753,0
7186280,354.12,883,752,0
7186290,350.31,883,753,0
7186300,346.15,883,752,0
7186310,342.42,883,753,0
7186320,338.78,883,752,0
7186330,335.50,883,753,0
7186340,332.52,883,752,0
7186350,330.09,883,753,0
7186360,327.97,883,752,0
7186370,326.48,883,753,0
7186380,325.09,883,752,0
7186391,324.16,883,753,0
7186401,323.21,883,752,0
7186411,322.85,883,753,0
7186421,322.55,883,752,0
7186432,322.69,883,753,0
7186441,322.82,883,752,0
7186451,323.26,883,753,0
7186461,323.78,883,752,0
7186471,324.75,883,753,0
7186481,325.42,883,752,0
7186491,326.33,883,753,0
7186501,326.74,883,752,0
7186511,327.51,883,753,0
7186521,327.78,883,752,0
7186531,328.23,883,753,0
7186541,328.08,883,752,0
7186551,328.01,883,752,0
7186561,327.75,883,753,0
7186571,328.00,883,753,0
7186581,332.20,883,756,0
7186591,339.55,883,757,0
7186601,346.84,883,756,0
7186611,353.92,883,756,0
7186621,359.09,883,756,0
7186631,362.66,883,757,0
7186641,365.16,883,756,0
7186651,362.29,883,757,0
7186661,355.43,883,756,0
7186671,348.91,883,757,0
7186681,345.17,883,756,0
7186700,347.52,893,754,0
7186703,358.03,893,755,0
7186712,377.82,893,757,0
7186722,407.45,893,756,0
7186732,446.31,893,757,0
7186742,490.41,893,755,0
7186752,536.36,893,756,0
7186762,580.86,893,756,0
7186772,620.85,893,757,0
7186782,653.68,893,755,0
7186792,678.76,893,756,0
7186802,696.32,893,755,0
7186812,708.65,893,756,0
7186822,717.28,893,755,0
7186832,723.33,893,756,0
7186842,727.52,893,755,0
7186852,728.90,893,756,0
7186862,726.58,893,755,0
7186872,719.97,893,756,0
7186882,708.20,893,755,0
7186892,691.55,893,756,0
7186903,669.57,893,755,0
7186913,642.87,893,756,0
7186923,612.82,893,755,0
7186933,581.51,893,756,0
7186944,549.98,893,755,0
7186953,520.07,893,756,0
7186963,491.85,893,755,0
7186973,466.70,893,756,0
7186983,445.57,893,756,0
7186993,429.03,893,756,0
7187003,415.61,893,756,0
7187013,405.82,893,756,0
7187023,398.72,893,756,0
7187033,394.52,893,756,0
7187043,392.13,893,755,0
7187053,390.51,893,756,0
7187063,388.94,893,755,0
7187073,388.40,893,756,0
7187083,387.85,893,755,0
7187093,387.81,893,756,0
7187103,387.27,893,755,0
7187113,386.76,893,756,0
7187123,385.46,893,755,0
7187133,383.82,893,756,0
7187143,381.26,893,755,0
7187153,378.23,893,756,0
7187163,374.13,893,755,0
7187173,370.02,893,756,0
7187183,365.04,893,755,0
7187193,360.06,893,756,0
7187203,354.60,893,755,0
7187213,349.36,893,756,0
7187223,344.11,893,755,0
7187233,339.49,893,756,0
7187244,335.02,893,755,0
7187254,331.45,893,755,0
7187264,328.15,893,755,0
7187274,325.87,893,755,0
7187284,323.98,893,755,0
7187294,323.05,893,755,0
7187304,322.35,893,755,0
7187314,322.33,893,755,0
7187324,322.57,893,755,0
7187334,323.26,893,755,0
7187344,323.69,893,755,0
7187354,324.30,893,755,0
7187364,324.55,893,755,0
7187374,325.07,893,755,0
7187384,325.05,893,755,0
7187394,325.16,893,755,0
7187404,324.86,893,755,0
7187415,324.73,893,755,0
7187425,324.51,893,755,0
7187435,324.40,893,755,0
7187445,324.02,893,755,0
7187456,323.93,893,755,0
7187465,323.44,893,755,0
7187475,323.43,893,755,0
7187485,323.26,893,755,0
7187495,323.10,893,754,0
7187505,322.94,893,755,0
7187515,322.91,893,754,0
7187525,322.94,893,755,0
7187535,323.52,893,755,0
7187545,325.33,893,755,0
7187555,330.38,893,754,0
7187565,340.25,893,755,0
7187575,356.50,893,754,0
7187594,380.14,894,753,0
7187597,412.58,894,754,0
7187606,452.56,894,755,0
7187616,496.67,894,755,0
7187627,541.60,894,755,0
7187636,584.49,894,754,0
7187646,622.87,894,755,0
7187656,655.14,894,755,0
7187666,679.40,894,755,0
7187676,696.38,894,754,0
7187686,708.26,894,755,0
7187696,716.58,894,754,0
7187706,722.41,894,755,0
7187716,726.49,894,754,0
7187726,729.34,894,755,0
7187736,729.92,894,754,0
7187746,727.16,894,755,0
7187756,720.34,894,754,0
7187766,708.80,894,755,0
7187776,692.23,894,754,0
7187786,670.56,894,755,0
7187796,643.78,894,754,0
7187806,613.63,894,755,0
7187816,581.77,894,754,0
7187826,549.61,894,755,0
7187836,518.31,894,754,0
7187846,489.03,894,754,0
7187856,462.37,894,754,0
7187866,439.03,894,755,0
7187876,419.31,894,754,0
7187886,403.23,894,755,0
7187896,390.77,894,754,0
7187906,382.10,894,755,0
7187916,376.37,894,754,0
7187927,373.64,894,755,0
7187937,373.02,894,753,0
7187947,374.09,894,755,0
7187957,376.25,894,754,0
7187968,378.96,894,755,0
7187977,381.41,894,753,0
7187987,383.52,894,754,0
7187997,384.22,894,753,0
7188007,384.07,894,754,0
7188017,382.33,894,754,0
7188027,379.53,894,754,0
7188037,375.30,894,753,0
7188047,370.15,894,754,0
7188057,364.07,894,753,0
7188067,357.79,894,755,0
7188077,351.12,894,753,0
7188087,344.74,894,754,0
7188097,338.35,894,753,0
7188107,332.63,894,755,0
7188117,327.21,894,754,0
7188127,322.82,894,754,0
7188137,318.93,894,753,0
7188147,317.84,894,756,0
7188157,319.09,894,756,0
7188167,321.42,894,756,0
7188177,323.56,894,755,0
7188187,325.84,894,756,0
7188197,327.26,894,755,0
7188207,328.34,894,756,0
7188217,326.48,894,755,0
7188227,322.61,894,756,0
7188237,317.92,894,755,0
7188247,313.79,894,756,0
7188257,310.17,894,755,0
7188268,307.76,894,756,0
7188278,306.37,894,755,0
7188288,306.35,894,756,0
7188298,306.80,894,755,0
7188308,308.36,894,756,0
7188318,310.31,894,755,0
7188328,312.92,894,756,0
7188338,315.47,894,755,0
7188348,318.20,894,756,0
7188358,320.75,894,755,0
7188368,323.49,894,755,0
7188378,325.48,894,755,0
7188388,327.44,894,756,0
7188398,328.59,894,754,0
7188408,329.83,894,755,0
7188418,330.44,894,754,0
7188428,331.12,894,756,0
7188439,331.21,894,754,0
7188449,332.18,894,755,0
7188459,334.91,894,754,0
7188469,341.88,894,756,0
7188480,354.30,894,754,0
7188498,374.27,904,753,0
7188501,402.52,904,755,0
7188510,439.86,904,756,0
7188520,482.59,904,755,0
7188530,527.63,904,755,0
7188540,571.58,904,755,0
7188550,611.91,904,755,0
7188560,646.35,904,755,0
7188570,673.24,904,755,0
7188580,692.07,904,754,0
7188590,705.25,904,755,0
7188600,714.47,904,754,0
7188610,720.93,904,755,0
7188620,725.45,904,754,0
7188630,728.62,904,755,0
7188640,728.60,904,755,0
7188651,724.78,904,755,0
7188660,716.19,904,754,0
7188670,702.46,904,755,0
7188680,682.99,904,754,0
7188690,658.14,904,755,0
7188700,627.80,904,754,0
7188710,594.94,904,754,0
7188720,560.50,904,754,0
7188730,526.41,904,755,0
7188740,493.50,904,754,0
7188750,463.26,904,754,0
7188760,435.84,904,754,0
7188770,412.10,904,755,0
7188780,391.67,904,754,0
7188790,375.36,904,755,0
7188800,362.44,904,754,0
7188810,353.39,904,755,0
7188820,347.32,904,755,0
7188830,344.31,904,755,0
7188840,343.36,904,754,0
7188850,344.54,904,755,0
7188860,346.65,904,754,0
7188870,349.97,904,754,0
7188880,353.28,904,754,0
7188890,356.92,904,755,0
7188900,359.82,904,754,0
7188910,362.61,904,755,0
7188920,364.49,904,754,0
7188930,365.71,904,755,0
7188940,365.63,904,754,0
7188951,364.92,904,754,0
7188961,363.19,904,754,0
7188971,360.95,904,755,0
7188981,357.62,904,754,0
7188992,353.88,904,754,0
7189001,349.59,904,754,0
7189011,345.60,904,754,0
7189021,341.26,904,755,0
7189031,337.15,904,754,0
7189041,333.21,904,754,0
7189051,329.97,904,754,0
7189061,327.07,904,754,0
7189071,324.95,904,754,0
7189081,322.95,904,755,0
7189091,321.85,904,754,0
7189101,321.04,904,754,0
7189111,320.81,904,754,0
7189121,320.70,904,755,0
7189131,321.09,904,754,0
7189141,321.62,904,754,0
7189151,322.63,904,754,0
7189161,323.60,904,755,0
7189171,324.83,904,755,0
7189181,325.96,904,754,0
7189191,327.34,904,754,0
7189201,328.52,904,755,0
7189211,329.78,904,754,0
7189221,330.75,904,755,0
7189231,331.77,904,754,0
7189241,332.56,904,755,0
7189251,333.51,904,754,0
7189261,334.17,904,754,0
7189271,334.98,904,754,0
7189281,335.63,904,755,0
7189292,336.47,904,754,0
7189302,337.06,904,754,0
7189312,337.72,904,754,0
7189322,338.19,904,755,0
7189332,338.99,904,754,0
7189342,341.01,904,754,0
7189352,346.19,904,754,0
7189362,356.16,904,755,0
7189382,372.74,883,754,0
7189385,397.55,883,754,0
7189394,430.86,883,754,0
7189404,470.80,883,755,0
7189414,514.19,883,754,0
7189424,557.85,883,755,0
7189434,598.95,883,754,0
7189444,635.18,883,755,0
7189454,664.27,883,754,0
7189464,685.66,883,755,0
7189474,700.68,883,754,0
7189484,711.23,883,755,0
7189494,717.25,883,754,0
7189505,718.72,883,755,0
7189515,714.82,883,753,0
7189525,705.57,883,754,0
7189535,690.79,883,753,0
7189545,670.84,883,754,0
7189555,645.94,883,754,0
7189565,618.02,883,754,0
7189575,588.27,883,753,0
7189585,558.75,883,754,0
7189595,530.28,883,753,0
7189605,503.88,883,754,0
7189615,479.45,883,753,0
7189625,457.93,883,754,0
7189635,439.05,883,753,0
7189645,423.18,883,754,0
7189655,409.80,883,753,0
7189665,399.10,883,754,0
7189676,390.76,883,753,0
7189686,385.17,883,754,0
7189696,381.13,883,753,0
7189706,378.95,883,754,0
7189716,377.64,883,753,0
7189726,377.75,883,754,0
7189736,378.21,883,753,0
7189746,379.17,883,754,0
7189756,379.72,883,754,0
7189766,380.32,883,754,0
7189776,380.18,883,754,0
7189786,379.87,883,754,0
7189796,378.41,883,754,0
7189806,376.66,883,754,0
7189816,374.02,883,754,0
7189826,371.18,883,754,0
7189836,367.57,883,753,0
7189847,363.67,883,754,0
7189857,359.23,883,754,0
7189867,355.00,883,754,0
7189877,350.46,883,754,0
7189888,346.29,883,754,0
7189897,342.00,883,754,0
7189907,338.49,883,754,0
7189917,335.17,883,754,0
7189927,332.59,883,754,0
7189937,330.19,883,754,0
7189947,328.50,883,754,0
7189957,326.89,883,754,0
7189967,326.11,883,754,0
7189977,325.26,883,754,0
7189987,325.14,883,754,0
7189997,324.97,883,754,0
7190007,325.54,883,754,0
7190017,326.02,883,754,0
7190027,327.08,883,754,0
7190037,327.83,883,754,0
7190047,329.08,883,754,0
7190057,330.21,883,754,0
7190067,331.74,883,754,0
7190077,332.84,883,754,0
7190087,334.35,883,754,0
7190097,335.57,883,754,0
7190107,337.20,883,754,0
7190117,338.21,883,753,0
7190127,339.39,883,754,0
7190137,340.26,883,754,0
7190147,341.34,883,754,0
7190157,342.05,883,754,0
7190167,343.02,883,754,0
7190177,344.26,883,754,0
7190188,348.04,883,754,0
7190198,355.23,883,754,0
7190208,368.36,883,754,0
7190218,388.27,883,754,0
7190238,416.51,856,753,0
7190241,452.75,856,755,0
7190250,494.18,856,754,0
7190260,537.33,856,754,0
7190270,579.57,856,754,0
7190280,617.89,856,754,0
7190290,650.58,856,754,0
7190300,675.90,856,755,0
7190310,693.63,856,754,0
7190320,706.04,856,754,0
7190330,714.73,856,754,0
7190340,720.30,856,755,0
7190350,721.84,856,754,0
7190360,718.93,856,754,0
7190370,711.15,856,754,0
7190380,698.16,856,754,0
7190390,680.07,856,754,0
7190401,656.99,856,754,0
7190411,629.65,856,753,0
7190421,600.27,856,754,0
7190431,570.19,856,753,0
7190441,540.73,856,754,0
7190451,512.91,856,753,0
7190461,487.27,856,754,0
7190471,464.22,856,754,0
7190481,444.05,856,754,0
7190491,426.81,856,754,0
7190501,412.38,856,754,0
7190511,400.61,856,753,0
7190521,391.21,856,754,0
7190531,384.12,856,753,0
7190541,379.24,856,754,0
7190551,376.30,856,753,0
7190561,374.88,856,754,0
7190572,374.62,856,753,0
7190582,375.20,856,754,0
7190592,376.38,856,753,0
7190602,377.90,856,754,0
7190612,378.87,856,753,0
7190622,379.38,856,754,0
7190632,378.97,856,753,0
7190642,377.82,856,754,0
7190652,375.56,856,753,0
7190662,372.65,856,754,0
7190672,368.85,856,753,0
7190682,364.74,856,754,0
7190692,360.06,856,753,0
7190702,355.41,856,754,0
7190712,350.75,856,753,0
7190722,346.67,856,754,0
7190732,342.57,856,753,0
7190743,338.88,856,754,0
7190753,335.49,856,753,0
7190763,332.64,856,754,0
7190773,330.09,856,753,0
7190784,328.05,856,754,0
7190793,326.15,856,753,0
7190803,324.99,856,754,0
7190813,324.09,856,753,0
7190823,323.85,856,754,0
7190833,323.77,856,753,0
7190843,324.27,856,754,0
7190853,324.83,856,753,0
7190863,325.99,856,754,0
7190873,327.07,856,753,0
7190883,328.55,856,754,0
7190893,329.84,856,753,0
7190903,331.56,856,754,0
7190913,332.93,856,753,0
7190923,334.45,856,754,0
7190933,335.52,856,753,0
7190943,336.73,856,754,0
7190953,337.59,856,753,0
7190963,338.57,856,754,0
7190973,339.17,856,753,0
7190983,340.02,856,754,0
7190993,340.61,856,753,0
7191003,341.41,856,754,0
7191013,341.89,856,753,0
7191023,343.21,856,754,0
7191033,346.06,856,753,0
7191043,352.51,856,754,0
7191053,363.76,856,753,0
7191063,382.00,856,754,0
7191083,407.80,845,753,0
7191086,442.58,845,754,0
7191095,482.86,845,753,0
7191105,525.89,845,754,0
7191115,568.44,845,754,0
7191126,608.12,845,754,0
7191135,642.41,845,753,0
7191145,670.02,845,754,0
7191155,689.51,845,754,0
7191165,703.16,845,754,0
7191175,712.71,845,753,0
7191185,719.40,845,754,0
7191195,723.78,845,754,0
7191205,725.00,845,754,0
7191215,722.09,845,754,0
7191225,714.60,845,754,0
7191235,701.91,845,754,0
7191245,684.11,845,754,0
7191255,661.28,845,753,0
7191265,634.15,845,754,0
7191275,604.19,845,754,0
7191285,573.70,845,754,0
7191296,543.32,845,754,0
7191305,514.98,845,754,0
7191315,488.67,845,754,0
7191325,465.37,845,754,0
7191335,444.73,845,753,0
7191345,427.58,845,754,0
7191355,413.05,845,753,0
7191365,401.89,845,754,0
7191375,393.01,845,753,0
7191385,387.01,845,754,0
7191395,382.76,845,753,0
7191405,380.69,845,754,0
7191415,379.71,845,754,0
7191425,380.18,845,754,0
7191435,380.94,845,753,0
7191445,382.16,845,754,0
7191455,382.88,845,754,0
7191465,383.52,845,754,0
7191475,383.06,845,753,0
7191485,382.06,845,754,0
7191495,379.64,845,753,0
7191505,376.75,845,754,0
7191515,372.62,845,753,0
7191525,368.11,845,754,0
7191535,362.72,845,753,0
7191545,357.40,845,754,0
7191555,351.71,845,753,0
7191565,346.57,845,754,0
7191575,341.26,845,753,0
7191585,336.81,845,754,0
7191596,332.54,845,753,0
7191606,328.99,845,754,0
7191616,325.69,845,753,0
7191626,323.30,845,753,0
7191636,321.28,845,753,0
7191646,320.13,845,754,0
7191656,319.27,845,753,0
7191666,319.23,845,754,0
7191676,319.68,845,753,0
7191686,320.89,845,754,0
7191696,322.04,845,754,0
7191706,323.53,845,754,0
7191716,324.65,845,753,0
7191726,325.91,845,753,0
7191736,326.84,845,753,0
7191746,327.66,845,754,0
7191756,328.06,845,753,0
7191767,328.56,845,754,0
7191777,328.78,845,754,0
7191787,329.53,845,754,0
7191797,330.06,845,753,0
7191808,330.77,845,753,0
7191817,331.39,845,754,0
7191827,332.18,845,753,0
7191837,332.98,845,754,0
7191847,333.89,845,753,0
7191857,334.61,845,754,0
7191867,336.05,845,753,0
7191877,338.82,845,753,0
7191887,344.70,845,753,0
7191897,355.08,845,754,0
7191907,371.73,845,754,0
7191926,395.51,844,752,0
7191929,427.28,844,753,0
7191938,465.90,844,754,0
7191948,508.32,844,754,0
7191958,551.25,844,754,0
7191968,592.10,844,754,0
7191979,628.33,844,754,0
7191988,658.53,844,754,0
7191998,681.47,844,754,0
7192008,697.53,844,753,0
7192018,708.77,844,754,0
7192028,716.00,844,753,0
7192038,718.74,844,754,0
7192048,716.72,844,754,0
7192058,709.82,844,754,0
7192068,698.17,844,756,0
7192078,683.98,844,756,0
7192088,665.90,844,755,0
7192098,644.11,844,756,0
7192108,619.91,844,755,0
7192118,594.26,844,755,0
7192128,568.09,844,755,0
7192138,542.13,844,755,0
7192148,514.88,844,754,0
7192158,488.43,844,755,0
7192168,463.83,844,755,0
7192178,441.72,844,755,0
7192188,422.82,844,754,0
7192198,407.15,844,755,0
7192208,394.67,844,755,0
7192218,385.43,844,755,0
7192228,378.83,844,754,0
7192238,374.85,844,755,0
7192248,373.01,844,754,0
7192258,372.92,844,755,0
7192268,374.19,844,754,0
7192279,376.23,844,755,0
7192289,378.56,844,754,0
7192299,381.05,844,755,0
7192309,382.92,844,754,0
7192320,384.49,844,755,0
7192329,385.07,844,754,0
7192339,384.92,844,755,0
7192349,383.74,844,754,0
7192359,381.76,844,755,0
7192369,379.01,844,754,0
7192379,375.75,844,755,0
7192389,371.88,844,754,0
7192399,367.80,844,755,0
7192409,363.36,844,754,0
7192419,359.10,844,755,0
7192429,354.57,844,754,0
7192439,350.41,844,755,0
7192449,346.47,844,754,0
7192459,342.86,844,755,0
7192469,339.43,844,754,0
7192479,336.43,844,755,0
7192489,333.47,844,753,0
7192499,331.19,844,755,0
7192509,328.99,844,754,0
7192519,327.49,844,755,0
7192529,326.19,844,754,0
7192539,325.62,844,755,0
7192549,325.30,844,754,0
7192559,325.64,844,755,0
7192569,326.05,844,754,0
7192579,326.68,844,755,0
7192589,327.29,844,754,0
7192599,328.32,844,755,0
7192609,329.16,844,754,0
7192620,330.27,844,755,0
7192630,331.09,844,754,0
7192640,332.22,844,755,0
7192650,333.31,844,754,0
7192660,334.42,844,755,0
7192670,335.32,844,754,0
7192680,336.72,844,755,0
7192690,338.86,844,754,0
7192700,343.88,844,755,0
7192710,352.44,844,754,0
7192720,366.71,844,755,0
7192730,387.45,844,753,0
7192740,416.16,844,755,0
7192759,452.03,833,754,0
7192762,493.03,833,755,0
7192771,535.49,833,754,0
7192781,577.13,833,755,0
7192791,615.15,833,754,0
7192801,647.93,833,755,0
7192811,673.62,833,754,0
7192821,692.29,833,755,0
7192832,705.28,833,754,0
7192841,714.41,833,755,0
7192851,720.80,833,754,0
7192861,725.27,833,755,0
7192871,726.56,833,754,0
7192881,724.17,833,755,0
7192891,717.00,833,754,0
7192901,705.09,833,755,0
7192911,687.70,833,754,0
7192921,665.38,833,754,0
7192931,637.88,833,753,0
7192941,607.83,833,755,0
7192951,576.34,833,754,0
7192961,545.68,833,754,0
7192971,516.16,833,754,0
7192981,489.20,833,755,0
7192991,464.62,833,754,0
7193001,443.78,833,754,0
7193011,426.06,833,754,0
7193021,412.03,833,755,0
7193031,400.79,833,754,0
7193041,392.80,833,754,0
7193051,387.33,833,754,0
7193061,384.62,833,754,0
7193071,383.45,833,754,0
7193081,383.95,833,754,0
7193091,385.04,833,754,0
7193101,386.83,833,754,0
7193111,388.08,833,754,0
7193121,389.30,833,755,0
7193132,389.42,833,754,0
7193142,388.95,833,754,0
7193152,387.08,833,754,0
7193162,384.61,833,755,0
7193172,380.96,833,754,0
7193182,377.16,833,754,0
7193192,372.48,833,754,0
7193202,367.97,833,754,0
7193212,363.13,833,754,0
7193222,358.89,833,754,0
7193232,354.73,833,754,0
7193242,351.38,833,755,0
7193252,348.35,833,754,0
7193262,346.15,833,754,0
7193272,344.00,833,754,0
7193282,342.50,833,755,0
7193292,340.89,833,754,0
7193303,339.73,833,754,0
7193313,338.31,833,754,0
7193323,337.10,833,754,0
7193333,335.70,833,754,0
7193344,334.59,833,754,0
7193353,333.26,833,754,0
7193363,332.45,833,754,0
7193373,331.29,833,754,0
7193383,330.43,833,754,0
7193393,329.40,833,754,0
7193403,328.98,833,754,0
7193413,328.60,833,754,0
7193423,328.72,833,754,0
7193433,328.63,833,754,0
7193443,329.04,833,754,0
7193453,329.46,833,754,0
7193463,330.31,833,754,0
7193473,330.94,833,754,0
7193483,331.77,833,754,0
7193493,332.23,833,754,0
7193503,333.02,833,754,0
7193513,333.44,833,754,0
7193523,334.51,833,754,0
7193533,337.10,833,754,0
7193543,342.94,833,754,0
7193553,353.42,833,754,0
7193563,370.05,833,754,0
7193573,393.65,833,754,0
7193592,425.81,833,753,0
7193595,464.87,833,754,0
7193604,507.51,833,754,0
7193614,550.51,833,754,0
7193624,591.33,833,754,0
7193634,627.92,833,755,0
7193644,658.54,833,754,0
7193654,681.65,833,754,0
7193664,697.83,833,754,0
7193674,709.11,833,755,0
7193684,716.96,833,754,0
7193694,722.50,833,754,0
7193704,725.18,833,754,0
7193714,723.84,833,755,0
7193724,718.23,833,754,0
7193734,707.92,833,754,0
7193744,692.77,833,754,0
7193754,672.78,833,755,0
7193764,647.99,833,754,0
7193774,619.88,833,754,0
7193784,590.86,833,754,0
7193794,561.59,833,755,0
7193804,533.21,833,753,0
7193815,506.40,833,754,0
7193825,481.77,833,753,0
7193835,459.68,833,755,0
7193845,440.41,833,753,0
7193856,423.61,833,754,0
7193865,409.89,833,754,0
7193875,399.08,833,754,0
7193885,391.00,833,754,0
7193895,385.43,833,754,0
7193905,382.21,833,753,0
7193915,380.95,833,754,0
7193925,381.05,833,754,0
7193935,381.89,833,754,0
7193945,382.74,833,753,0
7193955,383.46,833,754,0
7193965,383.79,833,753,0
7193975,383.38,833,754,0
7193985,382.11,833,753,0
7193995,379.98,833,754,0
7194005,377.11,833,753,0
7194015,373.86,833,754,0
7194025,370.18,833,753,0
7194035,366.14,833,754,0
7194045,361.73,833,753,0
7194055,357.26,833,754,0
7194065,352.99,833,753,0
7194075,348.88,833,754,0
7194085,345.01,833,754,0
7194095,341.49,833,754,0
7194105,338.35,833,753,0
7194115,335.97,833,754,0
7194125,333.88,833,753,0
7194135,332.12,833,754,0
7194145,330.62,833,753,0
7194156,329.62,833,754,0
7194166,328.92,833,753,0
7194176,328.64,833,754,0
7194186,328.41,833,753,0
7194196,328.54,833,754,0
7194206,328.77,833,753,0
7194216,329.18,833,754,0
7194226,329.38,833,753,0
7194236,329.74,833,754,0
7194246,329.99,833,753,0
7194256,330.25,833,754,0
7194266,330.26,833,753,0
7194276,330.40,833,754,0
7194286,330.49,833,753,0
7194296,330.82,833,754,0
7194306,331.00,833,753,0
7194316,331.26,833,754,0
7194327,331.27,833,753,0
7194337,331.57,833,754,0
7194347,331.49,833,753,0
7194357,331.43,833,754,0
7194368,331.17,833,753,0
7194377,331.59,833,754,0
7194387,333.38,833,753,0
7194397,338.50,833,754,0
7194407,347.78,833,753,0
7194417,363.32,833,754,0
7194436,385.85,844,753,0
7194439,417.05,844,754,0
7194448,455.61,844,754,0
7194458,498.28,844,754,0
7194468,541.74,844,754,0
7194478,583.56,844,754,0
7194488,621.36,844,753,0
7194498,653.48,844,754,0
7194508,677.98,844,753,0
7194518,695.13,844,754,0
7194528,707.09,844,754,0
7194539,715.51,844,754,0
7194548,721.40,844,753,0
7194558,724.71,844,754,0
7194568,724.15,844,754,0
7194578,719.48,844,754,0
7194588,710.25,844,753,0
7194598,696.46,844,754,0
7194608,677.68,844,753,0
7194618,654.33,844,754,0
7194628,627.19,844,753,0
7194638,598.72,844,754,0
7194648,569.62,844,754,0
7194658,541.36,844,754,0
7194668,514.30,844,753,0
7194678,489.52,844,754,0
7194688,466.95,844,754,0
7194698,447.21,844,754,0
7194708,429.75,844,753,0
7194718,415.25,844,754,0
7194728,403.00,844,753,0
7194738,393.70,844,754,0
7194748,386.72,844,753,0
7194758,382.48,844,754,0
7194768,380.15,844,753,0
7194778,380.10,844,754,0
7194788,381.27,844,753,0
7194798,383.63,844,754,0
7194808,385.89,844,753,0
7194818,388.32,844,754,0
7194828,389.72,844,753,0
7194839,390.62,844,754,0
7194849,390.01,844,753,0
7194859,388.38,844,754,0
7194869,385.52,844,753,0
7194880,382.19,844,754,0
7194889,377.93,844,753,0
7194899,373.58,844,754,0
7194909,368.61,844,754,0
7194919,364.01,844,754,0
7194929,359.29,844,753,0
7194939,355.18,844,756,0
7194949,352.90,844,755,0
7194959,351.64,844,755,0
7194969,350.38,844,754,0
7194979,349.36,844,755,0
7194989,347.75,844,755,0
7194999,346.37,844,755,0
7195009,344.33,844,754,0
7195019,340.85,844,755,0
7195029,336.56,844,754,0
7195039,332.79,844,755,0
7195049,329.43,844,754,0
7195059,327.24,844,755,0
7195069,325.58,844,754,0
7195079,325.07,844,755,0
7195089,324.70,844,754,0
7195099,325.35,844,755,0
7195109,326.14,844,754,0
7195119,327.47,844,755,0
7195129,328.62,844,754,0
7195139,330.15,844,755,0
7195149,331.39,844,754,0
7195159,332.86,844,755,0
7195169,333.76,844,754,0
7195180,334.64,844,755,0
7195190,335.01,844,754,0
7195200,335.48,844,755,0
7195210,335.29,844,754,0
7195220,335.42,844,754,0
7195230,335.76,844,754,0
7195240,338.06,844,754,0
7195250,343.36,844,754,0
7195260,353.67,844,754,0
7195270,369.75,844,754,0
7195280,393.57,844,754,0
7195299,425.37,863,753,0
7195302,464.34,863,754,0
7195311,506.80,863,755,0
7195321,549.89,863,754,0
7195331,590.76,863,754,0
7195341,627.61,863,754,0
7195351,658.28,863,755,0
7195361,681.60,863,754,0
7195371,697.92,863,754,0
7195381,709.34,863,754,0
7195392,717.34,863,754,0
7195401,722.94,863,754,0
7195411,726.86,863,754,0
7195421,729.56,863,754,0
7195431,729.26,863,754,0
7195441,725.33,863,754,0
7195451,718.41,863,757,0
7195461,708.35,863,756,0
7195471,693.46,863,756,0
7195481,673.48,863,756,0
7195491,647.71,863,756,0
7195501,618.48,863,756,0
7195511,586.92,863,756,0
7195521,553.22,863,756,0
7195531,518.09,863,756,0
7195541,484.17,863,755,0
7195551,452.44,863,756,0
7195561,424.50,863,755,0
7195571,400.95,863,756,0
7195581,382.19,863,755,0
7195591,367.95,863,756,0
7195601,358.41,863,755,0
7195611,352.80,863,755,0
7195621,350.89,863,755,0
7195631,351.61,863,755,0
7195641,354.17,863,755,0
7195651,357.89,863,755,0
7195661,362.59,863,755,0
7195671,367.52,863,755,0
7195681,372.20,863,755,0
7195692,375.83,863,755,0
7195702,378.45,863,754,0
7195712,379.86,863,755,0
7195722,379.90,863,754,0
7195732,378.47,863,755,0
7195742,375.59,863,754,0
7195752,371.64,863,755,0
7195762,366.91,863,754,0
7195772,361.71,863,755,0
7195782,356.22,863,754,0
7195792,350.84,863,755,0
7195802,345.57,863,754,0
7195812,340.65,863,755,0
7195822,336.17,863,754,0
7195832,332.22,863,755,0
7195842,328.85,863,754,0
7195852,326.15,863,755,0
7195863,323.96,863,754,0
7195873,322.30,863,755,0
7195883,321.18,863,754,0
7195893,320.49,863,755,0
7195904,320.21,863,753,0
7195913,320.36,863,755,0
7195923,320.81,863,754,0
7195933,321.64,863,755,0
7195943,322.43,863,754,0
7195953,323.33,863,755,0
7195963,323.96,863,754,0
7195973,324.66,863,755,0
7195983,324.93,863,754,0
7195993,325.08,863,755,0
7196003,324.84,863,754,0
7196013,324.63,863,755,0
7196023,324.10,863,754,0
7196033,324.03,863,755,0
7196043,323.72,863,754,0
7196053,323.59,863,755,0
7196063,323.33,863,754,0
7196073,323.31,863,755,0
7196083,323.18,863,754,0
7196093,323.08,863,755,0
7196103,322.80,863,753,0
7196113,323.72,863,755,0
7196123,326.84,863,754,0
7196133,333.92,863,755,0
7196143,346.20,863,753,0
7196153,365.86,863,755,0
7196172,393.37,873,754,0
7196175,429.90,873,754,0
7196184,472.10,873,754,0
7196194,516.86,873,755,0
7196204,561.09,873,754,0
7196214,602.33,873,755,0
7196224,637.98,873,754,0
7196234,667.00,873,755,0
7196244,687.70,873,754,0
7196254,702.19,873,755,0
7196264,712.33,873,754,0
7196274,719.43,873,755,0
7196284,724.40,873,754,0
7196294,727.15,873,755,0
7196304,726.29,873,754,0
7196314,721.32,873,755,0
7196324,711.32,873,754,0
7196334,696.44,873,755,0
7196344,676.21,873,754,0
7196354,651.03,873,755,0
7196364,621.45,873,754,0
7196375,589.99,873,755,0
7196385,557.38,873,754,0
7196395,525.64,873,755,0
7196405,494.97,873,754,0
7196416,466.82,873,755,0
7196425,440.91,873,754,0
7196435,418.31,873,754,0
7196445,398.50,873,754,0
7196455,382.71,873,754,0
7196465,370.07,873,754,0
7196475,361.26,873,754,0
7196485,355.48,873,754,0
7196495,353.15,873,754,0
7196505,353.15,873,754,0
7196515,355.85,873,754,0
7196525,359.66,873,754,0
7196535,364.78,873,754,0
7196545,369.82,873,754,0
7196555,374.84,873,754,0
7196565,378.70,873,754,0
7196575,381.79,873,755,0
7196585,382.97,873,754,0
7196595,382.98,873,754,0
7196605,380.97,873,754,0
7196615,377.72,873,755,0
7196625,372.62,873,754,0
7196635,366.82,873,754,0
7196645,359.72,873,754,0
7196655,352.60,873,754,0
7196665,344.96,873,754,0
7196675,337.99,873,754,0
7196685,331.14,873,754,0
7196695,325.35,873,754,0
7196705,320.15,873,754,0
7196716,316.42,873,754,0
7196726,313.29,873,754,0
7196736,311.53,873,754,0
7196746,310.22,873,754,0
7196756,310.11,873,754,0
7196766,310.33,873,754,0
7196776,311.26,873,754,0
7196786,312.34,873,754,0
7196796,314.08,873,754,0
7196806,315.64,873,754,0
7196816,317.76,873,754,0
7196826,320.32,873,754,0
7196836,323.61,873,755,0
7196846,326.34,873,754,0
7196856,328.94,873,755,0
7196866,330.63,873,754,0
7196876,331.98,873,754,0
7196887,332.50,873,754,0
7196897,332.09,873,754,0
7196907,330.57,873,754,0
7196917,329.24,873,754,0
7196928,327.54,873,754,0
7196937,326.52,873,754,0
7196947,325.55,873,754,0
7196957,325.04,873,754,0
7196967,324.60,873,754,0
7196977,324.76,873,755,0
7196987,325.48,873,754,0
7196997,328.38,873,754,0
7197007,334.31,873,754,0
7197017,345.31,873,754,0
7197027,362.49,873,754,0
7197046,387.67,874,753,0
7197049,421.63,874,754,0
7197058,462.41,874,754,0
7197068,506.47,874,754,0
7197078,550.82,874,754,0
7197088,592.70,874,755,0
7197099,630.08,874,754,0
7197108,660.70,874,754,0
7197118,683.20,874,754,0
7197128,698.91,874,755,0
7197138,709.91,874,754,0
7197148,717.65,874,754,0
7197158,723.11,874,754,0
7197168,726.94,874,755,0
7197178,727.98,874,754,0
7197188,725.42,874,754,0
7197198,718.61,874,754,0
7197208,706.81,874,755,0
7197218,690.02,874,754,0
7197228,668.20,874,754,0
7197238,641.74,874,754,0
7197248,612.16,874,754,0
7197258,581.17,874,754,0
7197268,550.05,874,754,0
7197278,520.25,874,754,0
7197288,492.02,874,754,0
7197298,466.17,874,754,0
7197308,442.80,874,754,0
7197318,422.89,874,754,0
7197328,406.25,874,754,0
7197338,393.19,874,754,0
7197348,383.23,874,754,0
7197358,376.74,874,754,0
7197368,372.96,874,754,0
7197378,371.73,874,754,0
7197388,372.24,874,754,0
7197399,374.18,874,754,0
7197409,376.66,874,754,0
7197419,379.63,874,754,0
7197429,382.27,874,754,0
7197440,384.50,874,753,0
7197449,386.02,874,754,0
7197459,386.49,874,753,0
7197469,385.87,874,754,0
7197479,384.24,874,753,0
7197489,381.42,874,754,0
7197499,377.87,874,754,0
7197509,373.49,874,754,0
7197519,368.50,874,753,0
7197529,363.17,874,753,0
7197539,357.67,874,754,0
7197549,352.33,874,754,0
7197559,347.22,874,753,0
7197569,342.39,874,754,0
7197579,338.16,874,754,0
7197589,334.47,874,754,0
7197599,331.50,874,754,0
7197609,329.08,874,754,0
7197619,327.26,874,754,0
7197629,325.98,874,754,0
7197639,325.13,874,753,0
7197649,324.62,874,754,0
7197659,324.26,874,753,0
7197669,324.01,874,754,0
7197679,323.92,874,753,0
7197689,323.90,874,754,0
7197699,324.10,874,754,0
7197709,324.33,874,754,0
7197719,324.62,874,753,0
7197729,325.12,874,754,0
7197740,325.64,874,753,0
7197750,326.22,874,754,0
7197760,326.41,874,753,0
7197770,326.37,874,754,0
7197780,326.13,874,753,0
7197790,325.66,874,754,0
7197800,324.91,874,753,0
7197810,324.16,874,754,0
7197820,323.64,874,753,0
7197830,324.69,874,754,0
7197840,328.43,874,753,0
7197850,337.00,874,754,0
7197860,351.87,874,753,0
7197870,374.37,874,754,0
7197880,405.24,874,753,0
7197899,444.26,853,752,0
7197902,487.89,853,754,0
7197911,533.01,853,754,0
7197921,576.38,853,753,0
7197931,615.65,853,754,0
7197941,648.88,853,753,0
7197952,674.72,853,754,0
7197961,692.80,853,753,0
7197971,705.46,853,754,0
7197981,714.32,853,754,0
7197991,720.53,853,754,0
7198001,724.87,853,753,0
7198011,727.91,853,754,0
7198021,728.92,853,753,0
7198031,726.89,853,754,0
7198041,720.58,853,753,0
7198051,709.69,853,754,0
7198061,693.41,853,753,0
7198071,671.86,853,754,0
7198081,644.99,853,753,0
7198091,614.35,853,754,0
7198101,581.46,853,753,0
7198111,548.36,853,754,0
7198121,515.77,853,753,0
7198131,485.50,853,754,0
7198141,457.79,853,753,0
7198151,433.72,853,754,0
7198161,413.06,853,753,0
7198171,396.42,853,754,0
7198181,383.35,853,753,0
7198191,374.33,853,754,0
7198201,368.45,853,753,0
7198211,365.91,853,754,0
7198221,365.42,853,752,0
7198231,367.05,853,754,0
7198241,369.44,853,753,0
7198252,372.69,853,754,0
7198262,375.53,853,753,0
7198272,378.24,853,754,0
7198282,379.71,853,753,0
7198292,380.48,853,754,0
7198302,379.82,853,752,0
7198312,378.51,853,754,0
7198322,375.65,853,753,0
7198332,372.20,853,754,0
7198342,367.51,853,752,0
7198352,362.64,853,753,0
7198362,357.01,853,753,0
7198372,351.65,853,754,0
7198382,346.10,853,752,0
7198392,341.31,853,754,0
7198402,336.63,853,753,0
7198412,332.89,853,754,0
7198423,329.11,853,752,0
7198433,326.20,853,754,0
7198443,323.48,853,753,0
7198453,321.62,853,754,0
7198464,319.89,853,753,0
7198473,319.07,853,754,0
7198483,318.15,853,753,0
7198493,318.19,853,754,0
7198503,318.22,853,753,0
7198513,318.80,853,754,0
7198523,318.99,853,753,0
7198533,319.68,853,753,0
7198543,319.94,853,753,0
7198553,320.86,853,754,0
7198563,321.55,853,753,0
7198573,322.71,853,754,0
7198583,323.44,853,753,0
7198593,324.64,853,754,0
7198603,325.30,853,753,0
7198613,326.24,853,754,0
7198623,326.64,853,753,0
7198633,327.13,853,754,0
7198643,327.01,853,753,0
7198653,327.05,853,754,0
7198663,326.48,853,753,0
7198673,326.21,853,754,0
7198683,325.46,853,753,0
7198693,324.81,853,754,0
7198703,323.71,853,753,0
7198713,323.20,853,754,0
7198723,322.97,853,753,0
7198733,324.73,853,754,0
7198743,329.27,853,753,0
7198753,339.39,853,754,0
7198773,356.20,874,753,0
7198776,382.41,874,753,0
7198785,417.77,874,754,0
7198795,459.88,874,754,0
7198806,505.31,874,753,0
7198815,551.33,874,754,0
7198825,594.52,874,753,0
7198835,632.72,874,754,0
7198845,662.97,874,753,0
7198855,684.58,874,754,0
7198865,699.71,874,754,0
7198875,710.30,874,754,0
7198885,717.71,874,753,0
7198895,722.89,874,754,0
7198905,726.53,874,753,0
7198915,729.07,874,754,0
7198925,730.85,874,753,0
7198935,731.24,874,754,0
7198945,728.21,874,753,0
7198955,720.99,874,754,0
7198965,708.61,874,753,0
7198976,690.90,874,753,0
7198985,667.70,874,753,0
7198995,639.25,874,753,0
7199005,606.47,874,753,0
7199015,572.26,874,753,0
7199025,537.98,874,753,0
7199035,505.46,874,753,0
7199045,475.28,874,753,0
7199055,448.54,874,753,0
7199065,425.40,874,753,0
7199075,406.47,874,753,0
7199085,391.29,874,753,0
7199095,379.97,874,753,0
7199105,371.92,874,753,0
7199115,367.06,874,753,0
7199125,364.30,874,753,0
7199135,363.57,874,753,0
7199145,363.91,874,753,0
7199155,365.27,874,753,0
7199165,366.69,874,753,0
7199175,367.85,874,753,0
7199185,368.24,874,753,0
7199195,368.12,874,753,0
7199205,366.97,874,753,0
7199215,365.18,874,753,0
7199225,362.34,874,753,0
7199235,359.11,874,753,0
7199245,355.35,874,753,0
7199255,351.60,874,753,0
7199265,347.69,874,753,0
7199276,343.76,874,753,0
7199286,339.80,874,753,0
7199296,336.17,874,753,0
7199306,332.65,874,753,0
7199316,329.76,874,752,0
7199326,327.13,874,753,0
7199336,324.99,874,753,0
7199346,323.41,874,753,0
7199356,322.30,874,752,0
7199366,321.74,874,753,0
7199376,321.47,874,753,0
7199386,321.20,874,753,0
7199396,321.14,874,752,0
7199406,321.10,874,754,0
7199416,321.28,874,753,0
7199426,321.46,874,753,0
7199436,321.53,874,753,0
7199447,321.63,874,754,0
7199457,321.78,874,753,0
7199467,321.89,874,753,0
7199477,321.84,874,752,0
7199488,321.59,874,754,0
7199497,321.33,874,753,0
7199507,320.97,874,753,0
7199517,320.59,874,752,0
7199527,320.42,874,753,0
7199537,320.29,874,753,0
7199547,320.55,874,753,0
7199557,320.90,874,752,0
7199567,321.57,874,754,0
7199577,322.47,874,753,0
7199587,323.49,874,753,0
7199597,324.58,874,752,0
7199607,325.78,874,753,0
7199617,326.92,874,753,0
7199627,328.06,874,753,0
7199637,329.20,874,753,0
7199647,331.58,874,754,0
7199657,336.63,874,752,0
7199676,346.13,903,751,0
7199679,362.38,903,752,0
7199688,386.99,903,754,0
7199698,420.55,903,752,0
7199708,461.10,903,753,0
7199718,505.26,903,753,0
7199728,550.22,903,754,0
7199738,592.97,903,752,0
7199748,630.56,903,753,0
7199758,660.82,903,753,0
7199768,682.95,903,754,0
7199778,698.44,903,753,0
7199788,709.32,903,753,0
7199798,716.94,903,753,0
7199808,722.31,903,753,0
7199818,726.03,903,753,0
7199828,728.68,903,753,0
7199838,728.69,903,753,0
7199848,724.80,903,753,0
7199858,715.90,903,752,0
7199868,701.83,903,753,0
7199878,682.34,903,752,0
7199888,657.68,903,753,0
7199898,627.60,903,752,0
7199908,594.51,903,753,0
7199918,560.24,903,753,0
7199928,526.74,903,753,0
7199938,494.46,903,752,0
7199948,464.88,903,753,0
7199959,437.87,903,752,0
7199969,414.77,903,753,0
7199979,395.25,903,753,0
7199989,379.92,903,753,0
7200000,368.24,903,752,0
7200009,360.84,903,753,0
7200019,356.43,903,753,0
7200029,355.49,903,753,0
7200039,356.80,903,752,0
7200049,360.37,903,753,0
7200059,364.80,903,752,0
7200069,370.22,903,753,0
7200079,375.30,903,752,0
7200089,380.35,903,753,0
7200099,384.27,903,753,0
7200109,387.28,903,753,0
7200119,388.61,903,752,0
7200129,388.98,903,753,0
7200139,387.57,903,753,0
7200149,385.34,903,753,0
7200159,381.51,903,753,0
7200169,377.07,903,753,0
7200179,371.69,903,753,0
7200189,366.26,903,753,0
7200199,360.31,903,752,0
7200209,354.69,903,753,0
7200219,348.82,903,752,0
7200229,343.78,903,753,0
7200239,338.92,903,752,0
7200249,334.87,903,753,0
7200259,331.05,903,752,0
7200269,328.21,903,753,0
7200279,325.57,903,753,0
7200289,323.86,903,753,0
7200300,322.23,903,753,0
7200310,321.35,903,753,0
7200320,320.47,903,753,0
7200330,320.29,903,753,0
7200340,319.90,903,753,0
7200350,320.14,903,753,0
7200360,320.14,903,753,0
7200370,320.87,903,753,0
7200380,321.42,903,753,0
7200390,322.37,903,753,0
7200400,323.07,903,753,0
7200410,324.25,903,753,0
7200420,325.38,903,753,0
7200430,327.02,903,753,0
7200440,328.09,903,753,0
7200450,329.43,903,753,0
7200460,330.42,903,753,0
7200471,331.58,903,753,0
7200481,332.13,903,753,0
7200491,332.56,903,753,0
7200501,332.87,903,753,0
7200512,335.09,903,753,0
7200521,340.08,903,753,0
7200531,350.30,903,753,0
7200541,367.01,903,753,0
7200551,392.68,903,753,0
7200570,427.06,894,752,0
7200573,468.10,894,753,0
7200582,512.13,894,753,0
7200592,556.53,894,753,0
7200602,598.20,894,753,0
7200612,634.83,894,753,0
7200622,663.89,894,753,0
7200632,685.05,894,753,0
7200642,699.82,894,753,0
7200652,710.20,894,753,0
7200662,717.47,894,753,0
7200672,722.60,894,753,0
7200683,726.24,894,753,0
7200692,728.82,894,753,0
7200702,729.99,894,753,0
7200712,728.41,894,753,0
7200722,722.76,894,753,0
7200732,712.37,894,753,0
7200742,696.40,894,753,0
7200752,675.07,894,753,0
7200762,648.35,894,753,0
7200772,617.39,894,753,0
7200782,583.67,894,753,0
7200792,549.31,894,753,0
7200802,515.49,894,753,0
7200812,484.19,894,753,0
7200822,455.46,894,753,0
7200832,430.34,894,753,0
7200842,408.42,894,753,0
7200852,390.72,894,753,0
7200862,376.83,894,752,0
7200872,367.16,894,753,0
7200882,360.72,894,753,0
7200892,357.76,894,753,0
7200902,357.32,894,753,0
7200912,359.45,894,753,0
7200922,362.87,894,753,0
7200932,367.28,894,753,0
7200942,371.40,894,752,0
7200952,375.35,894,753,0
7200962,378.07,894,753,0
7200972,379.68,894,753,0
7200983,379.60,894,753,0
7200993,378.31,894,753,0
7201003,375.60,894,753,0
7201013,372.16,894,753,0
7201024,367.57,894,752,0
7201033,362.73,894,753,0
7201043,357.28,894,753,0
7201053,351.88,894,752,0
7201063,346.43,894,753,0
7201073,341.46,894,753,0
7201083,336.61,894,753,0
7201093,332.27,894,753,0
7201103,328.33,894,753,0
7201113,325.19,894,753,0
7201123,322.56,894,753,0
7201133,320.55,894,753,0
7201143,318.88,894,753,0
7201153,317.93,894,753,0
7201163,317.35,894,753,0
7201173,317.25,894,753,0
7201183,317.39,894,753,0
7201193,317.87,894,753,0
7201203,318.51,894,753,0
7201213,319.43,894,752,0
7201223,320.37,894,753,0
7201233,321.59,894,753,0
7201243,322.61,894,753,0
7201253,323.63,894,752,0
7201263,324.51,894,753,0
7201273,325.47,894,753,0
7201283,326.40,894,753,0
7201293,327.48,894,753,0
7201303,328.49,894,753,0
7201313,329.55,894,753,0
7201324,330.50,894,753,0
7201334,331.33,894,752,0
7201344,332.13,894,753,0
7201354,332.61,894,752,0
7201364,332.90,894,753,0
7201374,333.44,894,752,0
7201384,335.67,894,753,0
7201394,341.42,894,752,0
7201404,352.91,894,753,0
7201414,371.45,894,752,0
7201433,398.62,863,751,0
7201436,434.69,863,753,0
7201445,476.74,863,753,0
7201455,521.47,863,752,0
7201465,565.73,863,753,0
7201475,606.48,863,752,0
7201485,641.65,863,753,0
7201495,669.44,863,752,0
7201505,688.98,863,753,0
7201515,702.62,863,752,0
7201525,712.20,863,753,0
7201536,718.91,863,752,0
7201545,723.65,863,753,0
7201555,726.97,863,752,0
7201565,729.29,863,753,0
7201575,730.88,863,752,0
7201585,730.10,863,753,0
7201595,725.40,863,752,0
7201605,716.15,863,753,0
7201615,701.49,863,752,0
7201625,681.54,863,753,0
7201635,656.05,863,752,0
7201645,625.39,863,753,0
7201655,591.68,863,752,0
7201665,557.19,863,753,0
7201675,522.93,863,752,0
7201685,490.59,863,753,0
7201695,460.50,863,752,0
7201705,433.74,863,753,0
7201715,410.37,863,752,0
7201725,390.93,863,753,0
7201735,375.05,863,752,0
7201745,363.12,863,753,0
7201755,354.43,863,752,0
7201765,349.11,863,753,0
7201775,346.21,863,752,0
7201785,345.72,863,753,0
7201795,346.57,863,752,0
7201805,348.72,863,753,0
7201815,351.20,863,752,0
7201825,354.06,863,753,0
7201836,356.44,863,752,0
7201846,358.54,863,753,0
7201856,359.62,863,752,0
7201866,360.12,863,753,0
7201876,359.48,863,752,0
7201886,358.40,863,753,0
7201896,356.43,863,752,0
7201906,354.12,863,753,0
7201916,351.04,863,752,0
7201926,348.03,863,753,0
7201936,344.68,863,752,0
7201946,341.69,863,753,0
7201956,338.40,863,752,0
7201966,335.58,863,753,0
7201976,332.75,863,752,0
7201986,330.68,863,753,0
7201996,328.46,863,752,0
7202007,326.95,863,753,0
7202017,325.34,863,752,0
7202027,324.42,863,753,0
7202037,323.35,863,752,0
7202048,322.86,863,753,0
7202057,322.13,863,752,0
7202067,321.96,863,753,0
7202077,320.90,863,752,0
7202087,319.95,863,753,0
7202097,318.59,863,751,0
7202107,317.56,863,752,0
7202117,316.32,863,751,0
7202127,315.71,863,752,0
7202137,315.24,863,751,0
7202147,316.02,863,752,0
7202157,317.17,863,751,0
7202167,319.14,863,752,0
7202177,321.07,863,751,0
7202187,323.53,863,752,0
7202197,325.64,863,751,0
7202207,327.89,863,752,0
7202217,329.60,863,751,0
7202227,332.12,863,752,0
7202237,335.73,863,751,0
7202247,343.01,863,752,0
7202257,354.92,863,751,0
7202267,373.76,863,752,0
7202286,400.27,853,751,0
7202289,435.98,853,752,0
7202298,477.13,853,752,0
7202308,521.15,853,752,0
7202318,564.56,853,752,0
7202328,605.02,853,752,0
7202338,640.07,853,751,0
7202348,668.12,853,752,0
7202358,687.76,853,751,0
7202368,701.50,853,752,0
7202378,711.08,853,751,0
7202388,717.83,853,752,0
7202398,722.51,853,751,0
7202408,725.74,853,752,0
7202418,727.96,853,751,0
7202428,728.44,853,752,0
7202438,725.70,853,751,0
7202448,719.19,853,752,0
7202458,707.65,853,751,0
7202468,691.17,853,752,0
7202478,669.43,853,751,0
7202488,642.90,853,752,0
7202498,612.46,853,751,0
7202508,580.61,853,752,0
7202519,548.11,853,751,0
7202529,517.39,853,751,0
7202539,488.90,853,751,0
7202549,463.69,853,752,0
7202560,441.67,853,751,0
7202569,423.77,853,751,0
7202579,409.31,853,752,0
7202589,398.67,853,752,0
7202599,390.67,853,752,0
7202609,385.24,853,752,0
7202619,381.44,853,752,0
7202629,379.21,853,752,0
7202639,377.39,853,751,0
7202649,376.16,853,752,0
7202659,374.52,853,752,0
7202669,372.91,853,752,0
7202679,370.41,853,751,0
7202689,367.63,853,751,0
7202699,363.67,853,752,0
7202709,359.40,853,752,0
7202719,354.39,853,752,0
7202729,349.39,853,751,0
7202739,343.96,853,752,0
7202749,338.78,853,752,0
7202759,333.36,853,752,0
7202769,328.71,853,751,0
7202779,324.21,853,751,0
7202789,320.46,853,752,0
7202799,317.15,853,751,0
7202809,314.84,853,751,0
7202819,313.26,853,751,0
7202829,313.01,853,752,0
7202839,313.39,853,751,0
7202849,314.86,853,751,0
7202860,316.62,853,751,0
7202870,318.92,853,751,0
7202880,321.04,853,751,0
7202890,323.22,853,751,0
7202900,324.82,853,751,0
7202910,326.50,853,751,0
7202920,327.81,853,751,0
7202930,329.07,853,751,0
7202940,329.90,853,751,0
7202950,330.79,853,751,0
7202960,331.50,853,751,0
7202970,332.38,853,751,0
7202980,332.91,853,752,0
7202990,333.36,853,751,0
7203000,333.38,853,751,0
7203010,333.40,853,751,0
7203020,333.19,853,752,0
7203031,332.79,853,751,0
7203041,331.87,853,751,0
7203051,330.84,853,751,0
7203061,329.69,853,752,0
7203072,329.14,853,751,0
7203081,329.70,853,751,0
7203091,333.00,853,751,0
7203101,340.93,853,752,0
7203111,355.57,853,751,0
7203130,377.64,844,750,0
7203133,408.39,844,750,0
7203142,447.02,844,752,0
7203152,490.34,844,751,0
7203162,535.02,844,751,0
7203172,578.09,844,751,0
7203182,616.76,844,752,0
7203192,649.49,844,751,0
7203202,674.54,844,752,0
7203212,692.08,844,751,0
7203222,704.36,844,752,0
7203232,712.95,844,751,0
7203243,718.96,844,752,0
7203252,722.19,844,751,0
7203262,721.58,844,751,0
7203272,716.17,844,751,0
7203282,705.62,844,751,0
7203292,689.71,844,751,0
7203302,668.49,844,751,0
7203312,641.99,844,751,0
7203322,611.61,844,751,0
7203332,579.32,844,751,0
7203342,546.87,844,751,0
7203352,515.28,844,751,0
7203362,485.45,844,751,0
7203372,457.89,844,751,0
7203382,433.19,844,751,0
7203392,411.45,844,751,0
7203402,393.10,844,751,0
7203412,378.07,844,751,0
7203422,366.52,844,751,0
7203432,358.22,844,751,0
7203442,353.27,844,751,0
7203452,351.13,844,751,0
7203462,351.43,844,751,0
7203472,353.49,844,751,0
7203482,356.73,844,751,0
7203492,360.32,844,751,0
7203502,364.17,844,751,0
7203512,367.55,844,751,0
7203522,370.51,844,751,0
7203532,372.59,844,751,0
7203543,373.44,844,751,0
7203553,373.05,844,751,0
7203563,371.71,844,751,0
7203573,368.88,844,751,0
7203584,364.93,844,751,0
7203593,359.81,844,751,0
7203603,354.08,844,751,0
7203613,347.76,844,751,0
7203623,341.49,844,751,0
7203633,335.17,844,751,0
7203643,329.50,844,751,0
7203653,324.21,844,751,0
7203663,319.69,844,751,0
7203673,315.58,844,751,0
7203683,312.45,844,751,0
7203693,309.74,844,750,0
7203703,307.89,844,751,0
7203713,306.30,844,751,0
7203723,305.48,844,751,0
7203733,304.86,844,751,0
7203743,304.99,844,751,0
7203753,305.21,844,751,0
7203763,306.00,844,751,0
7203773,306.69,844,750,0
7203783,307.94,844,751,0
7203793,309.11,844,751,0
7203803,310.75,844,751,0
7203813,312.07,844,750,0
7203823,313.76,844,751,0
7203833,315.21,844,751,0
7203843,316.99,844,751,0
7203853,318.49,844,751,0
7203863,319.97,844,751,0
7203873,320.88,844,751,0
7203884,321.94,844,751,0
7203894,322.48,844,750,0
7203904,323.10,844,751,0
7203914,323.20,844,751,0
7203924,323.40,844,751,0
7203934,323.62,844,751,0
7203944,325.41,844,752,0
7203954,329.78,844,751,0
7203964,338.98,844,752,0
7203974,353.64,844,750,0
7203993,375.91,863,750,0
7203996,406.19,863,750,0
7204005,444.75,863,752,0
7204015,487.77,863,751,0
7204025,532.15,863,752,0
7204035,574.75,863,751,0
7204045,613.74,863,752,0
7204055,646.77,863,751,0
7204065,672.60,863,752,0
7204075,690.72,863,751,0
7204085,703.40,863,751,0
7204096,712.28,863,751,0
7204105,718.50,863,751,0
7204115,721.65,863,751,0
7204125,721.24,863,752,0
7204135,716.41,863,751,0
7204145,707.24,863,751,0
7204155,693.07,863,751,0
7204165,674.06,863,751,0
7204175,649.92,863,751,0
7204185,622.43,863,751,0
7204195,592.51,863,750,0
7204205,562.19,863,752,0
7204215,531.57,863,751,0
7204225,502.30,863,752,0
7204235,474.35,863,750,0
7204245,449.13,863,752,0
7204255,426.08,863,751,0
7204265,406.38,863,751,0
7204275,389.34,863,750,0
7204285,375.87,863,751,0
7204295,365.11,863,750,0
7204305,357.92,863,751,0
7204315,353.01,863,750,0
7204325,351.08,863,751,0
7204335,350.84,863,751,0
7204345,352.52,863,751,0
7204355,354.89,863,750,0
7204365,358.35,863,752,0
7204375,361.38,863,751,0
7204385,364.56,863,751,0
7204396,366.62,863,750,0
7204406,368.15,863,751,0
7204416,368.49,863,751,0
7204426,368.30,863,751,0
7204436,367.05,863,750,0
7204446,365.32,863,751,0
7204456,362.35,863,751,0
7204466,359.46,863,751,0
7204476,355.81,863,750,0
7204486,352.35,863,752,0
7204496,348.43,863,751,0
7204506,344.83,863,751,0
7204516,341.28,863,751,0
7204526,338.67,863,751,0
7204536,336.03,863,751,0
7204546,334.17,863,751,0
7204556,332.45,863,751,0
7204567,331.59,863,751,0
7204577,330.94,863,751,0
7204587,331.43,863,751,0
7204597,332.33,863,751,0
7204608,334.07,863,751,0
7204617,336.07,863,751,0
7204627,338.45,863,751,0
7204637,340.50,863,751,0
7204647,342.45,863,751,0
7204657,343.43,863,751,0
7204667,343.94,863,751,0
7204677,343.36,863,751,0
7204687,342.35,863,751,0
7204697,340.62,863,751,0
7204707,338.89,863,751,0
7204717,336.74,863,751,0
7204727,334.84,863,751,0
7204737,332.71,863,751,0
7204747,331.08,863,751,0
7204757,329.47,863,751,0
7204767,328.99,863,751,0
7204777,330.23,863,751,0
7204787,335.05,863,751,0
7204797,344.25,863,751,0
7204807,360.07,863,751,0
7204817,383.19,863,751,0
7204836,414.29,843,750,0
7204839,452.69,843,750,0
7204848,495.21,843,751,0
7204858,538.61,843,751,0
7204868,580.47,843,751,0
7204878,618.00,843,751,0
7204888,649.67,843,751,0
7204898,674.50,843,751,0
7204908,692.05,843,751,0
7204918,704.33,843,751,0
7204928,712.93,843,751,0
7204938,718.91,843,751,0
7204948,721.59,843,751,0
7204958,720.39,843,751,0
7204968,715.21,843,751,0
7204978,705.46,843,751,0
7204988,691.22,843,751,0
7204998,672.60,843,751,0
7205008,649.62,843,751,0
7205018,623.68,843,751,0
7205028,596.17,843,751,0
7205038,567.84,843,751,0
7205048,540.07,843,751,0
7205058,513.05,843,751,0
7205068,487.36,843,751,0
7205079,463.51,843,751,0
7205089,442.10,843,750,0
7205099,423.38,843,751,0
7205109,407.50,843,751,0
7205120,394.45,843,751,0
7205129,384.50,843,750,0
7205139,377.19,843,751,0
7205149,372.29,843,750,0
7205159,369.59,843,751,0
7205169,368.68,843,750,0
7205179,369.21,843,751,0
7205189,370.60,843,750,0
7205199,372.56,843,751,0
7205209,374.88,843,750,0
7205219,377.23,843,751,0
7205229,378.92,843,750,0
7205239,379.80,843,751,0
7205249,379.60,843,750,0
7205259,378.39,843,751,0
7205269,376.18,843,750,0
7205279,373.08,843,751,0
7205289,369.07,843,750,0
7205299,364.76,843,751,0
7205309,360.08,843,751,0
7205319,355.43,843,751,0
7205329,350.63,843,750,0
7205339,345.77,843,751,0
7205349,341.08,843,751,0
7205359,336.90,843,751,0
7205369,333.16,843,750,0
7205379,330.02,843,751,0
7205389,327.36,843,751,0
7205399,325.58,843,751,0
7205409,324.42,843,751,0
7205420,323.78,843,751,0
7205430,323.42,843,751,0
7205440,323.34,843,751,0
7205450,323.32,843,750,0
7205460,323.65,843,751,0
7205470,324.01,843,751,0
7205480,324.65,843,752,0
7205490,325.10,843,750,0
7205500,325.76,843,752,0
7205510,326.26,843,751,0
7205520,326.95,843,751,0
7205530,327.35,843,750,0
7205540,327.76,843,752,0
7205550,327.96,843,751,0
7205560,328.32,843,751,0
7205570,328.52,843,750,0
7205580,328.96,843,752,0
7205591,329.32,843,751,0
7205601,330.12,843,752,0
7205611,331.29,843,750,0
7205621,334.16,843,752,0
7205632,339.98,843,751,0
7205641,350.23,843,751,0
7205651,366.15,843,751,0
7205661,389.63,843,752,0
7205681,420.47,844,750,0
7205684,458.69,844,752,0
7205693,500.69,844,751,0
7205703,543.56,844,752,0
7205713,584.66,844,751,0
7205723,621.79,844,752,0
7205733,652.67,844,751,0
7205743,676.77,844,752,0
7205753,693.64,844,751,0
7205763,705.45,844,752,0
7205773,713.24,844,751,0
7205783,716.94,844,752,0
7205793,715.42,844,751,0
7205804,708.90,844,751,0
7205814,697.06,844,751,0
7205824,680.41,844,752,0
7205834,658.69,844,751,0
7205844,633.11,844,751,0
7205854,604.79,844,751,0
7205864,576.65,844,752,0
7205874,548.86,844,751,0
7205884,522.89,844,751,0
7205894,498.41,844,751,0
7205904,476.64,844,752,0
7205914,456.91,844,751,0
7205924,440.01,844,751,0
7205934,425.00,844,751,0
7205944,412.62,844,752,0
7205954,402.02,844,751,0
7205964,393.87,844,751,0
7205975,387.27,844,751,0
7205985,382.77,844,752,0
7205995,379.45,844,751,0
7206005,377.56,844,751,0
7206016,376.36,844,751,0
7206025,376.04,844,752,0
7206035,375.60,844,751,0
7206045,375.55,844,751,0
7206055,374.91,844,751,0
7206065,374.12,844,751,0
7206075,372.42,844,751,0
7206085,370.45,844,751,0
7206095,367.70,844,751,0
7206105,364.96,844,751,0
7206115,361.46,844,751,0
7206125,357.89,844,751,0
7206135,354.07,844,751,0
7206145,350.66,844,751,0
7206155,346.99,844,751,0
7206165,343.78,844,751,0
7206175,340.33,844,751,0
7206185,337.40,844,751,0
7206195,334.58,844,751,0
7206205,332.22,844,751,0
7206215,329.84,844,751,0
7206225,327.96,844,751,0
7206235,326.13,844,751,0
7206245,324.98,844,751,0
7206255,323.78,844,751,0
7206265,323.21,844,751,0
7206275,322.50,844,751,0
7206285,322.44,844,751,0
7206295,322.35,844,751,0
7206305,322.59,844,751,0
7206316,322.62,844,751,0
7206326,322.91,844,751,0
7206336,322.89,844,751,0
7206346,323.18,844,751,0
7206356,323.26,844,752,0
7206366,323.52,844,751,0
7206376,323.67,844,751,0
7206386,323.94,844,751,0
7206396,324.30,844,752,0
7206406,324.98,844,751,0
7206416,325.54,844,751,0
7206426,326.15,844,751,0
7206436,326.58,844,751,0
7206446,327.13,844,751,0
7206456,327.35,844,751,0
7206466,327.76,844,751,0
7206476,328.65,844,752,0
7206487,332.10,844,751,0
7206497,339.44,844,752,0
7206507,352.46,844,751,0
7206517,372.38,844,752,0
7206537,400.55,856,751,0
7206540,437.07,856,752,0
7206549,479.22,856,751,0
7206559,523.30,856,752,0
7206569,566.49,856,751,0
7206579,606.25,856,752,0
7206589,640.46,856,750,0
7206599,667.79,856,752,0
7206609,687.27,856,751,0
7206619,700.95,856,752,0
7206629,710.52,856,751,0
7206639,716.75,856,752,0
7206649,718.75,856,751,0
7206659,716.26,856,752,0
7206669,708.64,856,751,0
7206679,695.80,856,752,0
7206689,677.48,856,751,0
7206700,654.15,856,751,0
7206710,626.07,856,751,0
7206720,595.92,856,752,0
7206730,564.49,856,751,0
7206740,533.66,856,751,0
7206750,504.10,856,751,0
7206760,476.94,856,752,0
7206770,452.10,856,751,0
7206780,430.73,856,752,0
7206790,412.08,856,751,0
7206800,396.89,856,752,0
7206810,384.45,856,751,0
7206820,375.36,856,751,0
7206830,368.99,856,751,0
7206840,365.52,856,752,0
7206850,364.00,856,751,0
7206860,364.60,856,752,0
7206871,366.56,856,751,0
7206881,369.99,856,752,0
7206891,373.47,856,751,0
7206901,377.31,856,752,0
7206912,380.52,856,751,0
7206921,383.49,856,752,0
7206931,385.36,856,751,0
7206941,386.58,856,752,0
7206951,386.41,856,751,0
7206961,385.64,856,752,0
7206971,383.43,856,751,0
7206981,380.78,856,752,0
7206991,376.73,856,751,0
7207001,372.44,856,752,0
7207011,367.38,856,751,0
7207021,362.51,856,751,0
7207031,357.21,856,751,0
7207041,352.48,856,752,0
7207051,347.66,856,751,0
7207061,343.86,856,752,0
7207071,340.22,856,751,0
7207081,337.50,856,752,0
7207091,334.82,856,751,0
7207101,332.99,856,752,0
7207111,331.15,856,751,0
7207121,330.03,856,752,0
7207131,328.87,856,751,0
7207141,328.26,856,752,0
7207151,327.50,856,751,0
7207161,327.39,856,752,0
7207171,327.02,856,751,0
7207181,327.27,856,752,0
7207191,327.40,856,751,0
7207201,328.14,856,752,0
7207212,328.70,856,751,0
7207222,329.65,856,752,0
7207232,330.27,856,751,0
7207242,331.34,856,752,0
7207252,332.10,856,751,0
7207262,332.93,856,752,0
7207272,332.99,856,751,0
7207282,333.34,856,752,0
7207292,333.32,856,751,0
7207302,334.08,856,751,0
7207312,336.03,856,751,0
7207322,341.42,856,751,0
7207332,351.62,856,751,0
7207342,368.66,856,751,0
7207352,392.64,856,751,0
7207362,424.93,856,751,0
7207382,463.91,845,751,0
7207385,506.71,845,752,0
7207394,549.78,845,751,0
7207404,590.52,845,751,0
7207414,626.58,845,751,0
7207425,656.75,845,751,0
7207435,679.58,845,751,0
7207445,695.61,845,751,0
7207455,706.82,845,751,0
7207465,714.68,845,751,0
7207475,719.27,845,751,0
7207485,720.18,845,751,0
7207495,716.48,845,752,0
7207505,708.02,845,751,0
7207515,694.47,845,751,0
7207525,676.03,845,751,0
7207535,652.71,845,751,0
7207545,625.92,845,751,0
7207555,596.85,845,751,0
7207565,567.36,845,751,0
7207575,538.03,845,751,0
7207585,509.99,845,751,0
7207596,483.38,845,752,0
7207606,458.71,845,751,0
7207616,436.04,845,752,0
7207626,415.93,845,751,0
7207636,398.33,845,751,0
7207646,383.49,845,751,0
7207656,371.22,845,752,0
7207666,361.68,845,751,0
7207676,354.88,845,751,0
7207686,350.80,845,751,0
7207696,348.89,845,752,0
7207706,348.75,845,751,0
7207716,350.28,845,752,0
7207726,352.94,845,751,0
7207736,356.43,845,752,0
7207746,360.20,845,751,0
7207756,363.48,845,751,0
7207767,366.21,845,751,0
7207777,368.20,845,752,0
7207787,369.21,845,751,0
7207797,369.41,845,752,0
7207808,368.43,845,751,0
7207817,366.54,845,752,0
7207827,363.85,845,751,0
7207837,360.90,845,751,0
7207847,357.63,845,751,0
7207857,354.18,845,752,0
7207867,350.53,845,751,0
7207877,347.11,845,752,0
7207887,343.69,845,751,0
7207897,340.70,845,752,0
7207907,337.62,845,751,0
7207917,334.90,845,751,0
7207927,332.36,845,751,0
7207937,330.15,845,752,0
7207947,328.26,845,751,0
7207957,326.81,845,751,0
7207967,325.63,845,751,0
7207977,324.92,845,752,0
7207987,324.48,845,751,0
7207997,324.63,845,751,0
7208007,325.04,845,751,0
7208017,325.84,845,752,0
7208027,326.88,845,751,0
7208037,328.20,845,752,0
7208047,329.51,845,751,0
7208057,330.94,845,752,0
7208067,332.03,845,751,0
7208077,333.14,845,752,0
7208087,333.87,845,751,0
7208097,334.55,845,752,0
7208108,334.77,845,751,0
7208118,335.01,845,752,0
7208128,334.79,845,751,0
7208138,334.68,845,752,0
7208148,334.35,845,751,0
7208158,334.20,845,752,0
7208168,334.61,845,751,0
7208178,337.51,845,752,0
7208188,344.00,845,751,0
7208198,356.09,845,752,0
7208208,374.88,845,751,0
7208227,401.78,846,750,0
7208230,436.95,846,751,0
7208239,478.02,846,752,0
7208249,521.39,846,751,0
7208259,564.26,846,752,0
7208269,603.99,846,751,0
7208279,638.54,846,752,0
7208289,666.19,846,751,0
7208299,686.23,846,752,0
7208309,700.26,846,751,0
7208320,710.13,846,752,0
7208329,717.03,846,751,0
7208339,720.41,846,751,0
7208349,719.26,846,751,0
7208359,713.48,846,752,0
7208369,702.71,846,751,0
7208379,687.07,846,751,0
7208389,666.26,846,751,0
7208399,641.07,846,752,0
7208409,612.93,846,751,0
7208419,584.24,846,751,0
7208429,555.58,846,751,0
7208439,528.11,846,752,0
7208449,502.02,846,751,0
7208459,478.36,846,751,0
7208469,456.48,846,751,0
7208479,437.31,846,752,0
7208489,420.07,846,751,0
7208499,405.65,846,752,0
7208509,393.45,846,751,0
7208519,384.19,846,752,0
7208529,376.93,846,751,0
7208539,372.28,846,752,0
7208549,369.07,846,751,0
7208559,367.68,846,752,0
7208569,367.00,846,751,0
7208579,367.47,846,751,0
7208589,367.89,846,751,0
7208599,368.86,846,752,0
7208609,369.29,846,751,0
7208620,369.68,846,752,0
7208630,369.39,846,751,0
7208640,368.84,846,752,0
7208650,367.35,846,751,0
7208660,365.61,846,751,0
7208670,362.94,846,751,0
7208680,360.18,846,752,0
7208690,356.74,846,751,0
7208700,353.43,846,752,0
7208710,349.57,846,751,0
7208720,346.19,846,752,0
7208730,342.62,846,751,0
7208740,339.73,846,752,0
7208750,336.85,846,751,0
7208760,334.80,846,752,0
7208770,332.76,846,751,0
7208780,331.67,846,752,0
7208791,330.49,846,751,0
7208801,330.00,846,751,0
7208811,329.40,846,751,0
7208821,329.36,846,752,0
7208832,329.21,846,751,0
7208841,329.49,846,752,0
7208851,329.43,846,751,0
7208861,329.90,846,752,0
7208871,330.10,846,751,0
7208881,330.71,846,752,0
7208891,331.01,846,751,0
7208901,331.70,846,752,0
7208911,332.13,846,751,0
7208921,332.95,846,752,0
7208931,333.31,846,751,0
7208941,333.94,846,752,0
7208951,334.13,846,751,0
7208961,334.78,846,752,0
7208971,335.06,846,751,0
7208981,335.68,846,752,0
7208991,335.86,846,752,0
7209001,336.51,846,752,0
7209011,337.43,846,751,0
7209021,340.38,846,751,0
7209031,346.40,846,751,0
7209041,357.76,846,751,0
7209051,375.19,846,751,0
7209070,400.72,843,750,0
7209073,434.28,843,751,0
7209082,474.18,843,752,0
7209092,516.98,843,751,0
7209102,559.76,843,751,0
7209112,599.60,843,751,0
7209122,634.78,843,752,0
7209132,663.22,843,751,0
7209142,684.15,843,752,0
7209152,698.81,843,751,0
7209162,709.06,843,752,0
7209172,716.25,843,751,0
7209182,720.76,843,752,0
7209192,721.26,843,751,0
7209202,717.58,843,751,0
7209212,708.96,843,751,0
7209222,695.77,843,752,0
7209232,677.50,843,751,0
7209242,654.42,843,751,0
7209252,627.08,843,751,0
7209262,598.13,843,751,0
7209272,568.22,843,751,0
7209282,539.14,843,751,0
7209292,510.85,843,751,0
7209303,484.71,843,751,0
7209313,460.67,843,751,0
7209323,439.43,843,751,0
7209333,420.87,843,752,0
7209344,405.61,843,751,0
7209353,393.21,843,751,0
7209363,384.02,843,751,0
7209373,377.33,843,752,0
7209383,373.42,843,751,0
7209393,371.49,843,751,0
7209403,371.51,843,751,0
7209413,372.60,843,751,0
7209423,374.61,843,751,0
7209433,376.61,843,751,0
7209443,378.61,843,751,0
7209453,379.93,843,751,0
7209463,380.85,843,751,0
7209473,380.64,843,751,0
7209483,379.63,843,751,0
7209493,377.56,843,751,0
7209503,374.78,843,751,0
7209513,371.20,843,751,0
7209523,367.20,843,751,0
7209533,362.51,843,752,0
7209543,357.64,843,751,0
7209553,352.48,843,751,0
7209563,347.45,843,751,0
7209573,342.47,843,751,0
7209583,338.09,843,751,0
7209593,334.16,843,751,0
7209603,331.03,843,751,0
7209613,328.32,843,751,0
7209623,326.38,843,751,0
7209633,324.89,843,751,0
7209644,324.07,843,751,0
7209654,323.45,843,751,0
7209664,323.31,843,751,0
7209674,323.43,843,751,0
7209684,323.82,843,751,0
7209694,324.39,843,752,0
7209704,325.00,843,751,0
7209714,325.90,843,752,0
7209724,326.92,843,751,0
7209734,327.93,843,752,0
7209744,328.76,843,751,0
7209754,329.39,843,752,0
7209764,329.75,843,751,0
7209774,330.12,843,752,0
7209784,330.47,843,751,0
7209794,330.93,843,752,0
7209804,331.34,843,751,0
7209815,331.88,843,752,0
7209825,332.47,843,751,0
7209835,333.14,843,751,0
7209845,334.26,843,751,0
7209856,336.84,843,752,0
7209865,342.29,843,751,0
7209875,352.36,843,752,0
7209885,368.66,843,751,0
7209895,392.72,843,752,0
7209914,424.61,844,751,0
7209917,463.51,844,752,0
7209926,505.96,844,751,0
7209936,549.04,844,752,0
7209946,589.96,844,751,0
7209956,626.31,844,752,0
7209966,656.30,844,751,0
7209976,679.31,844,752,0
7209986,695.42,844,751,0
7209996,706.69,844,752,0
7210006,714.59,844,751,0
7210016,720.11,844,752,0
7210027,722.86,844,751,0
7210036,722.48,844,752,0
7210046,717.75,844,751,0
7210056,708.48,844,752,0
7210066,694.41,844,751,0
7210076,675.69,844,752,0
7210086,652.17,844,750,0
7210096,625.29,844,752,0
7210106,595.84,844,751,0
7210116,566.32,844,752,0
7210126,537.12,844,750,0
7210136,509.49,844,752,0
7210146,483.45,844,751,0
7210156,460.05,844,752,0
7210166,439.16,844,751,0
7210176,421.67,844,752,0
7210186,406.77,844,751,0
7210196,395.27,844,752,0
7210206,386.19,844,751,0
7210216,380.05,844,752,0
7210226,376.05,844,751,0
7210236,374.36,844,752,0
7210246,374.00,844,751,0
7210256,374.98,844,752,0
7210266,376.40,844,751,0
7210276,378.38,844,752,0
7210286,380.02,844,750,0
7210296,381.56,844,752,0
7210306,382.08,844,751,0
7210316,382.18,844,752,0
7210327,380.97,844,751,0
7210337,379.01,844,752,0
7210347,375.92,844,751,0
7210357,372.39,844,752,0
7210368,367.81,844,751,0
7210377,363.20,844,752,0
7210387,357.87,844,751,0
7210397,353.24,844,752,0
7210407,348.49,844,751,0
7210417,344.62,844,752,0
7210427,340.92,844,751,0
7210437,338.11,844,752,0
7210447,335.55,844,751,0
7210457,333.93,844,752,0
7210467,332.32,844,751,0
7210477,331.54,844,752,0
7210487,330.73,844,751,0
7210497,330.56,844,752,0
7210507,330.39,844,751,0
7210517,330.87,844,752,0
7210527,331.17,844,751,0
7210537,331.89,844,752,0
7210547,332.27,844,751,0
7210557,332.83,844,752,0
7210567,332.88,844,751,0
7210577,333.17,844,752,0
7210587,332.82,844,751,0
7210597,332.79,844,752,0
7210607,332.25,844,751,0
7210617,331.88,844,752,0
7210627,331.14,844,751,0
7210637,330.63,844,752,0
7210647,329.67,844,751,0
7210657,329.08,844,752,0
7210668,327.99,844,751,0
7210678,327.30,844,752,0
7210688,326.36,844,751,0
7210698,325.91,844,752,0
7210708,325.38,844,751,0
7210718,325.56,844,752,0
7210728,326.59,844,751,0
7210738,330.66,844,752,0
7210748,338.73,844,751,0
7210758,352.91,844,752,0
7210777,374.15,863,751,0
7210780,404.62,863,752,0
7210789,443.01,863,751,0
7210799,486.33,863,752,0
7210809,531.02,863,751,0
7210819,574.43,863,752,0
7210829,613.98,863,751,0
7210839,647.72,863,752,0
7210849,673.35,863,751,0
7210859,691.28,863,751,0
7210869,703.84,863,751,0
7210880,712.68,863,751,0
7210889,718.86,863,751,0
7210899,723.19,863,752,0
7210909,725.40,863,751,0
7210919,724.47,863,752,0
7210929,719.44,863,751,0
7210939,710.14,863,751,0
7210949,695.82,863,751,0
7210959,676.68,863,752,0
7210969,652.60,863,751,0
7210979,624.74,863,751,0
7210989,594.39,863,751,0
7210999,563.59,863,752,0
7211009,532.68,863,751,0
7211019,503.51,863,751,0
7211029,476.05,863,751,0
7211039,451.22,863,752,0
7211049,428.91,863,751,0
7211059,410.08,863,751,0
7211069,394.03,863,751,0
7211079,381.38,863,752,0
7211089,371.24,863,751,0
7211099,364.44,863,751,0
7211109,360.02,863,751,0
7211119,358.09,863,751,0
7211129,357.72,863,751,0
7211139,359.09,863,752,0
7211149,361.08,863,751,0
7211159,364.05,863,752,0
7211169,366.52,863,751,0
7211180,369.02,863,752,0
7211190,370.64,863,751,0
7211200,371.74,863,751,0
7211210,371.47,863,751,0
7211220,370.65,863,751,0
7211230,368.39,863,751,0
7211240,365.66,863,752,0
7211250,361.86,863,751,0
7211260,357.88,863,751,0
7211270,353.16,863,751,0
7211280,348.69,863,752,0
7211290,343.90,863,751,0
7211300,339.69,863,751,0
7211310,335.58,863,751,0
7211320,332.11,863,751,0
7211330,328.86,863,751,0
7211340,326.59,863,751,0
7211351,324.70,863,751,0
7211361,323.76,863,751,0
7211371,323.06,863,751,0
7211381,323.00,863,751,0
7211392,323.26,863,752,0
7211401,324.04,863,751,0
7211411,324.71,863,751,0
7211421,325.57,863,751,0
7211431,326.17,863,752,0
7211441,326.98,863,751,0
7211451,327.45,863,751,0
7211461,327.92,863,751,0
7211471,328.16,863,752,0
7211481,328.62,863,751,0
7211491,328.95,863,751,0
7211501,329.61,863,751,0
7211511,330.11,863,752,0
7211521,330.81,863,751,0
7211531,331.29,863,752,0
7211541,331.81,863,751,0
7211551,332.04,863,752,0
7211561,332.28,863,751,0
7211571,332.11,863,751,0
7211581,331.91,863,751,0
7211591,331.76,863,752,0
7211601,332.61,863,751,0
7211611,335.55,863,751,0
7211621,342.46,863,751,0
7211631,354.88,863,752,0
7211651,374.67,873,750,0
7211654,402.93,873,752,0
7211663,439.72,873,751,0
7211673,481.76,873,752,0
7211683,525.98,873,751,0
7211693,569.31,873,752,0
7211703,609.25,873,751,0
7211713,643.46,873,752,0
7211723,670.24,873,751,0
7211734,689.06,873,752,0
7211743,702.25,873,751,0
7211753,711.47,873,751,0
7211763,717.93,873,751,0
7211773,720.87,873,752,0
7211783,719.66,873,751,0
7211793,713.85,873,751,0
7211803,702.75,873,751,0
7211813,686.54,873,751,0
7211823,665.38,873,751,0
7211833,639.59,873,751,0
7211843,610.92,873,751,0
7211853,581.03,873,752,0
7211863,551.23,873,751,0
7211873,522.96,873,751,0
7211883,496.53,873,751,0
7211893,472.46,873,752,0
7211904,450.68,873,751,0
7211913,431.70,873,751,0
7211923,415.46,873,751,0
7211933,402.08,873,751,0
7211943,391.30,873,751,0
7211953,383.15,873,751,0
7211963,377.19,873,751,0
7211973,373.53,873,751,0
7211983,371.53,873,751,0
7211993,370.81,873,751,0
7212003,370.66,873,751,0
7212013,371.10,873,751,0
7212023,371.50,873,751,0
7212033,371.91,873,751,0
7212043,371.72,873,751,0
7212053,371.03,873,752,0
7212063,369.82,873,751,0
7212073,368.25,873,751,0
7212083,365.99,873,751,0
7212093,363.25,873,752,0
7212103,359.83,873,751,0
7212113,356.20,873,751,0
7212123,352.28,873,751,0
7212133,348.42,873,752,0
7212143,344.61,873,751,0
7212153,341.13,873,752,0
7212163,338.05,873,751,0
7212173,335.68,873,752,0
7212183,333.67,873,751,0
7212193,332.44,873,752,0
7212204,331.28,873,751,0
7212214,330.60,873,752,0
7212224,329.95,873,751,0
7212234,329.79,873,752,0
7212244,329.47,873,751,0
7212254,329.54,873,752,0
7212264,329.42,873,751,0
7212274,329.68,873,752,0
7212284,329.73,873,751,0
7212294,330.16,873,752,0
7212304,330.28,873,751,0
7212314,330.93,873,752,0
7212324,331.46,873,751,0
7212334,332.31,873,752,0
7212344,333.07,873,751,0
7212354,334.04,873,751,0
7212364,334.71,873,751,0
7212375,335.61,873,752,0
7212385,336.16,873,751,0
7212395,336.92,873,752,0
7212405,337.29,873,751,0
7212416,337.85,873,752,0
7212425,338.19,873,751,0
7212435,339.03,873,752,0
7212445,340.61,873,751,0
7212455,344.88,873,752,0
7212465,352.63,873,751,0
7212475,366.29,873,752,0
7212494,386.60,844,751,0
7212497,415.56,844,751,0
7212506,452.04,844,751,0
7212516,493.43,844,752,0
7212526,536.20,844,751,0
7212536,578.05,844,752,0
7212546,616.14,844,751,0
7212556,648.71,844,752,0
7212566,673.74,844,751,0
7212576,691.52,844,752,0
7212587,703.96,844,751,0
7212596,712.72,844,752,0
7212606,718.80,844,751,0
7212616,721.60,844,752,0
7212626,719.92,844,751,0
7212636,713.90,844,752,0
7212646,702.75,844,751,0
7212656,686.84,844,752,0
7212666,665.76,844,751,0
7212676,640.29,844,752,0
7212686,611.66,844,750,0
7212696,582.49,844,752,0
7212706,552.77,844,751,0
7212716,524.60,844,752,0
7212726,497.63,844,751,0
7212736,473.19,844,752,0
7212746,450.76,844,751,0
7212756,431.29,844,751,0
7212766,414.06,844,751,0
7212776,400.16,844,752,0
7212786,388.45,844,751,0
7212796,379.87,844,751,0
7212806,373.35,844,751,0
7212816,369.48,844,752,0
7212826,367.10,844,751,0
7212836,366.60,844,751,0
7212846,366.76,844,751,0
7212856,367.99,844,752,0
7212866,369.15,844,751,0
7212876,370.73,844,752,0
7212887,371.41,844,751,0
7212897,372.10,844,752,0
7212907,371.64,844,751,0
7212917,370.72,844,752,0
7212928,368.75,844,751,0
7212937,366.42,844,752,0
7212947,363.13,844,751,0
7212957,359.83,844,752,0
7212967,355.72,844,751,0
7212977,352.04,844,752,0
7212987,348.04,844,751,0
7212997,344.56,844,752,0
7213007,341.00,844,751,0
7213017,338.17,844,752,0
7213027,335.34,844,751,0
7213037,333.35,844,752,0
7213047,331.40,844,751,0
7213057,330.34,844,752,0
7213067,329.34,844,751,0
7213077,329.19,844,752,0
7213087,328.88,844,751,0
7213097,329.39,844,752,0
7213107,329.70,844,751,0
7213117,330.52,844,752,0
7213127,331.13,844,751,0
7213137,332.17,844,752,0
7213147,332.67,844,751,0
7213157,333.67,844,752,0
7213167,334.16,844,751,0
7213177,334.92,844,752,0
7213187,335.25,844,751,0
7213197,335.86,844,752,0
7213207,336.03,844,751,0
7213217,336.49,844,752,0
7213228,336.64,844,751,0
7213238,337.05,844,752,0
7213248,337.16,844,751,0
7213258,337.50,844,752,0
7213268,337.48,844,751,0
7213278,337.81,844,752,0
7213288,337.82,844,751,0
7213298,338.86,844,752,0
7213308,341.73,844,751,0
7213318,348.33,844,751,0
7213328,359.84,844,751,0
7213347,378.28,853,750,0
7213350,404.55,853,751,0
7213359,439.49,853,751,0
7213369,479.88,853,751,0
7213379,522.86,853,751,0
7213389,565.42,853,752,0
7213399,605.19,853,751,0
7213409,639.68,853,751,0
7213419,667.20,853,751,0
7213429,686.94,853,752,0
7213440,700.76,853,751,0
7213449,710.43,853,751,0
7213459,717.20,853,751,0
7213469,721.56,853,752,0
7213479,722.59,853,751,0
7213489,719.58,853,751,0
7213499,712.25,853,751,0
7213509,700.00,853,751,0
7213519,682.90,853,751,0
7213529,660.95,853,751,0
7213539,634.86,853,751,0
7213549,606.15,853,752,0
7213559,576.53,853,751,0
7213569,546.67,853,751,0
7213579,518.10,853,751,0
7213589,490.98,853,751,0
7213599,466.05,853,751,0
7213609,443.40,853,751,0
7213619,423.65,853,751,0
7213629,406.57,853,752,0
7213639,392.60,853,751,0
7213649,381.28,853,751,0
7213659,372.97,853,751,0
7213669,367.06,853,752,0
7213679,363.57,853,751,0
7213689,361.86,853,751,0
7213699,361.77,853,751,0
7213709,362.61,853,751,0
7213719,364.19,853,751,0
7213729,365.76,853,751,0
7213740,367.33,853,751,0
7213750,368.30,853,751,0
7213760,368.73,853,751,0
7213770,368.17,853,751,0
7213780,366.87,853,751,0
7213790,364.64,853,752,0
7213800,361.79,853,751,0
7213810,358.38,853,752,0
7213820,354.50,853,751,0
7213830,350.36,853,752,0
7213840,346.22,853,751,0
7213850,342.09,853,752,0
7213860,338.25,853,751,0
7213870,334.79,853,752,0
7213880,331.81,853,751,0
7213890,329.42,853,751,0
7213900,327.62,853,751,0
7213911,326.45,853,752,0
7213921,325.93,853,751,0
7213931,325.87,853,751,0
7213941,326.16,853,751,0
7213952,326.80,853,752,0
7213961,327.80,853,751,0
7213971,328.98,853,751,0
7213981,330.27,853,751,0
7213991,331.60,853,752,0
7214001,332.84,853,751,0
7214011,334.13,853,752,0
7214021,335.08,853,751,0
7214031,335.82,853,752,0
7214041,336.26,853,751,0
7214051,336.44,853,751,0
7214061,336.14,853,751,0
7214071,335.97,853,752,0
7214081,335.63,853,751,0
7214091,335.53,853,752,0
7214101,335.29,853,751,0
7214111,335.33,853,752,0
7214121,335.19,853,751,0
7214131,335.47,853,752,0
7214141,335.85,853,751,0
7214151,337.52,853,752,0
7214161,341.86,853,751,0
7214171,350.52,853,751,0
7214181,365.02,853,751,0
7214200,387.30,853,750,0
7214203,417.85,853,751,0
7214212,456.04,853,751,0
7214222,498.41,853,751,0
7214232,541.83,853,752,0
7214242,583.71,853,751,0
7214252,621.43,853,752,0
7214262,652.93,853,751,0
7214272,676.95,853,751,0
7214282,693.76,853,751,0
7214292,705.53,853,752,0
7214302,713.77,853,751,0
7214312,719.54,853,751,0
7214322,721.78,853,751,0
7214332,719.96,853,752,0
7214342,713.46,853,751,0
7214352,701.96,853,751,0
7214362,685.22,853,751,0
7214372,663.17,853,751,0
7214382,635.95,853,751,0
7214392,605.92,853,751,0
7214402,574.36,853,751,0
7214412,542.92,853,752,0
7214423,512.30,853,751,0
7214433,483.71,853,751,0
7214443,457.57,853,751,0
7214453,434.60,853,751,0
7214464,414.66,853,751,0
7214473,398.31,853,751,0
7214483,385.01,853,751,0
7214493,375.54,853,752,0
7214503,368.86,853,751,0
7214513,365.43,853,751,0
7214523,364.23,853,751,0
7214533,365.36,853,752,0
7214543,367.61,853,751,0
7214553,371.03,853,751,0
7214563,374.32,853,751,0
7214573,377.95,853,752,0
7214583,380.62,853,751,0
7214593,382.88,853,751,0
7214603,383.73,853,751,0
7214613,383.85,853,751,0
7214623,382.65,853,751,0
7214633,380.70,853,751,0
7214643,377.53,853,751,0
7214653,373.90,853,752,0
7214663,369.13,853,751,0
7214673,364.21,853,752,0
7214683,358.74,853,751,0
7214693,353.68,853,752,0
7214703,348.42,853,751,0
7214713,343.79,853,752,0
7214723,339.40,853,751,0
7214733,336.06,853,752,0
7214743,333.09,853,751,0
7214753,331.00,853,752,0
7214764,328.99,853,751,0
7214774,327.96,853,752,0
7214784,327.20,853,751,0
7214794,327.40,853,752,0
7214804,327.58,853,751,0
7214814,328.48,853,752,0
7214824,329.32,853,751,0
7214834,330.77,853,752,0
7214844,331.99,853,751,0
7214854,333.45,853,752,0
7214864,334.39,853,751,0
7214874,335.77,853,752,0
7214884,336.91,853,751,0
7214894,338.31,853,752,0
7214904,339.03,853,751,0
7214914,340.05,853,751,0
7214924,340.64,853,751,0
7214935,341.64,853,751,0
7214945,342.48,853,751,0
7214955,344.74,853,751,0
7214965,349.27,853,751,0
7214976,358.70,853,751,0
7214985,373.36,853,751,0
7214995,395.54,853,752,0
7215005,425.29,853,751,0
7215025,462.58,824,750,0
7215028,503.67,824,751,0
7215037,546.03,824,751,0
7215047,586.48,824,751,0
7215057,623.28,824,751,0
7215067,654.01,824,751,0
7215077,677.71,824,751,0
7215087,694.29,824,752,0
7215097,705.91,824,751,0
7215107,714.03,824,751,0
7215117,719.04,824,751,0
7215127,719.67,824,751,0
7215137,715.35,824,751,0
7215148,705.56,824,751,0
7215158,690.22,824,751,0
7215168,669.33,824,751,0
7215178,643.30,824,751,0
7215188,613.08,824,751,0
7215198,581.34,824,751,0
7215208,549.44,824,752,0
7215218,518.84,824,751,0
7215228,490.34,824,751,0
7215238,464.65,824,751,0
7215248,441.83,824,751,0
7215258,422.42,824,751,0
7215268,406.05,824,751,0
7215278,393.18,824,751,0
7215288,383.23,824,751,0
7215298,376.34,824,751,0
7215308,372.08,824,751,0
7215319,370.34,824,751,0
7215329,370.28,824,751,0
7215339,371.78,824,751,0
7215349,374.08,824,752,0
7215360,377.10,824,751,0
7215369,380.03,824,751,0
7215379,382.67,824,751,0
7215389,384.53,824,752,0
7215399,385.53,824,751,0
7215409,385.20,824,751,0
7215419,383.47,824,751,0
7215429,380.71,824,751,0
7215439,376.98,824,751,0
7215449,372.40,824,751,0
7215459,367.14,824,751,0
7215469,361.35,824,751,0
7215479,355.76,824,751,0
7215489,350.43,824,751,0
7215499,345.29,824,751,0
7215509,340.36,824,751,0
7215519,335.79,824,750,0
7215529,331.83,824,751,0
7215539,328.79,824,751,0
7215549,326.24,824,751,0
7215559,324.24,824,751,0
7215569,322.71,824,751,0
7215579,321.81,824,751,0
7215589,321.61,824,751,0
7215599,321.94,824,751,0
7215609,322.56,824,751,0
7215619,323.42,824,751,0
7215629,324.71,824,751,0
7215639,326.12,824,751,0
7215649,327.67,824,751,0
7215660,328.97,824,751,0
7215670,330.14,824,751,0
7215680,330.82,824,751,0
7215690,331.48,824,751,0
7215700,331.81,824,751,0
7215710,332.21,824,751,0
7215720,332.40,824,751,0
7215730,332.67,824,751,0
7215740,332.81,824,751,0
7215750,333.25,824,751,0
7215760,333.56,824,751,0
7215770,334.21,824,751,0
7215780,335.99,824,751,0
7215790,340.62,824,751,0
7215800,349.61,824,750,0
7215810,365.07,824,751,0
7215820,388.10,824,751,0
7215840,419.96,816,750,0
7215843,459.01,816,750,0
7215852,501.95,816,751,0
7215862,545.77,816,751,0
7215873,587.75,816,751,0
7215883,625.11,816,751,0
7215893,656.06,816,751,0
7215903,679.10,816,751,0
7215913,695.23,816,752,0
7215923,706.56,816,751,0
7215933,714.49,816,751,0
7215943,720.04,816,751,0
7215953,723.67,816,751,0
7215963,723.64,816,750,0
7215973,719.38,816,751,0
7215983,709.75,816,751,0
7215993,694.74,816,751,0
7216003,673.95,816,751,0
7216013,647.73,816,751,0
7216023,616.23,816,751,0
7216033,582.65,816,751,0
7216044,547.95,816,751,0
7216054,514.49,816,751,0
7216064,482.59,816,751,0
7216074,453.83,816,751,0
7216084,428.08,816,751,0
7216094,406.50,816,751,0
7216104,388.26,816,751,0
7216114,374.21,816,751,0
7216124,363.48,816,751,0
7216134,356.61,816,751,0
7216144,352.44,816,751,0
7216154,351.36,816,751,0
7216164,352.07,816,751,0
7216174,354.83,816,751,0
7216184,358.18,816,751,0
7216194,362.54,816,751,0
7216204,366.49,816,751,0
7216215,370.42,816,751,0
7216225,373.21,816,751,0
7216235,375.42,816,751,0
7216245,376.02,816,751,0
7216256,376.01,816,751,0
7216265,374.30,816,751,0
7216275,372.02,816,751,0
7216285,368.50,816,751,0
7216295,364.62,816,751,0
7216305,359.89,816,751,0
7216315,355.30,816,751,0
7216325,350.24,816,751,0
7216335,345.79,816,751,0
7216345,341.27,816,751,0
7216355,337.50,816,751,0
7216365,333.88,816,751,0
7216375,331.17,816,751,0
7216385,328.59,816,751,0
7216395,326.87,816,751,0
7216405,325.11,816,751,0
7216415,324.09,816,751,0
7216425,323.12,816,751,0
7216435,322.83,816,751,0
7216445,322.32,816,751,0
7216455,322.48,816,751,0
7216465,322.55,816,751,0
7216475,323.29,816,751,0
7216485,323.76,816,751,0
7216495,324.56,816,751,0
7216505,325.08,816,751,0
7216515,326.00,816,751,0
7216525,326.64,816,751,0
7216535,327.52,816,751,0
7216545,328.01,816,751,0
7216556,328.95,816,751,0
7216566,330.25,816,751,0
7216576,333.56,816,751,0
7216586,339.86,816,751,0
7216596,351.39,816,751,0
7216606,369.10,816,751,0
7216616,394.74,816,751,0
7216626,428.25,816,750,0
7216646,468.29,805,750,0
7216649,511.36,805,751,0
7216658,554.71,805,751,0
7216668,595.30,805,751,0
7216678,631.16,805,751,0
7216688,660.34,805,752,0
7216698,682.14,805,751,0
7216708,697.36,805,751,0
7216718,708.01,805,751,0
7216728,715.46,805,751,0
7216738,720.64,805,751,0
7216748,721.86,805,751,0
7216758,718.22,805,751,0
7216769,709.11,805,752,0
7216779,694.29,805,750,0
7216789,673.67,805,751,0
7216799,647.12,805,751,0
7216809,615.49,805,751,0
7216819,581.49,805,751,0
7216829,547.10,805,751,0
7216839,513.60,805,751,0
7216849,482.30,805,751,0
7216859,453.84,805,751,0
7216869,429.07,805,751,0
7216879,407.75,805,751,0
7216889,390.38,805,752,0
7216899,376.55,805,751,0
7216909,366.53,805,751,0
7216919,359.73,805,751,0
7216929,356.21,805,752,0
7216940,355.33,805,751,0
7216950,356.82,805,751,0
7216960,359.62,805,751,0
7216970,363.63,805,751,0
7216980,367.94,805,750,0
7216990,372.54,805,751,0
7217000,376.50,805,751,0
7217010,379.90,805,751,0
7217020,382.03,805,750,0
7217030,383.31,805,751,0
7217040,383.26,805,751,0
7217050,382.37,805,751,0
7217060,380.07,805,750,0
7217070,377.09,805,751,0
7217080,372.99,805,751,0
7217090,368.75,805,751,0
7217100,363.81,805,750,0
7217111,359.03,805,751,0
7217121,353.88,805,751,0
7217131,349.20,805,751,0
7217141,344.38,805,750,0
7217152,340.28,805,751,0
7217161,336.21,805,751,0
7217171,333.02,805,751,0
7217181,330.01,805,751,0
7217191,328.04,805,751,0
7217201,326.31,805,751,0
7217211,325.62,805,751,0
7217221,325.22,805,751,0
7217231,325.71,805,751,0
7217241,326.23,805,751,0
7217251,327.40,805,751,0
7217261,328.35,805,750,0
7217271,329.75,805,751,0
7217281,330.77,805,751,0
7217291,332.04,805,751,0
7217301,332.67,805,750,0
7217311,333.54,805,751,0
7217321,333.81,805,751,0
7217331,334.21,805,751,0
7217341,334.06,805,751,0
7217351,334.43,805,751,0
7217361,335.54,805,751,0
7217371,339.62,805,751,0
7217381,347.66,805,751,0
7217391,362.29,805,751,0
7217401,384.32,805,751,0
7217411,415.08,805,752,0
7217421,453.33,805,751,0
7217440,496.09,795,750,0
7217443,540.03,795,751,0
7217452,582.49,795,752,0
7217462,620.49,795,751,0
7217472,652.31,795,752,0
7217482,676.56,795,751,0
7217492,693.54,795,751,0
7217502,705.42,795,751,0
7217512,713.69,795,751,0
7217522,719.48,795,751,0
7217532,723.54,795,751,0
7217542,726.33,795,751,0
7217552,726.23,795,751,0
7217562,721.58,795,750,0
7217572,711.93,795,751,0
7217582,696.48,795,750,0
7217592,675.25,795,751,0
7217602,647.88,795,750,0
7217612,615.21,795,751,0
7217623,579.28,795,751,0
7217633,542.85,795,751,0
7217643,506.81,795,751,0
7217653,473.10,795,751,0
7217664,442.08,795,751,0
7217673,415.27,795,751,0
7217683,392.18,795,750,0
7217693,373.74,795,751,0
7217703,359.24,795,751,0
7217713,349.23,795,751,0
7217723,342.52,795,751,0
7217733,339.45,795,751,0
7217743,338.67,795,751,0
7217753,340.23,795,751,0
7217763,342.64,795,751,0
7217773,346.14,795,751,0
7217783,349.40,795,751,0
7217793,352.83,795,751,0
7217803,355.03,795,750,0
7217813,356.52,795,752,0
7217823,356.49,795,751,0
7217833,355.74,795,751,0
7217843,353.51,795,750,0
7217853,350.61,795,751,0
7217863,346.57,795,751,0
7217873,342.50,795,751,0
7217883,337.89,795,750,0
7217893,333.77,795,751,0
7217903,329.51,795,751,0
7217913,326.10,795,751,0
7217923,322.98,795,751,0
7217933,321.02,795,751,0
7217943,319.60,795,751,0
7217953,319.33,795,751,0
7217964,319.40,795,751,0
7217974,320.61,795,751,0
7217984,321.80,795,751,0
7217994,323.75,795,751,0
7218004,325.58,795,751,0
7218014,327.98,795,751,0
7218024,330.00,795,751,0
7218034,332.23,795,751,0
7218044,334.04,795,751,0
7218054,336.17,795,752,0
7218064,337.66,795,751,0
7218074,339.22,795,751,0
7218084,340.10,795,751,0
7218094,341.14,795,751,0
7218104,341.61,795,751,0
7218114,341.99,795,751,0
7218124,341.95,795,751,0
7218135,342.13,795,751,0
7218145,341.92,795,751,0
7218155,342.03,795,751,0
7218165,342.97,795,751,0
7218176,346.75,795,751,0
7218185,354.19,795,751,0
7218195,367.51,795,751,0
7218205,387.67,795,751,0
7218225,416.05,784,750,0
7218228,452.42,784,751,0
7218237,493.57,784,751,0
7218247,536.17,784,751,0
7218257,577.90,784,751,0
7218267,615.90,784,751,0
7218277,648.38,784,751,0
7218287,673.72,784,751,0
7218297,691.50,784,751,0
7218307,703.95,784,751,0
7218317,712.67,784,751,0
7218327,717.05,784,751,0
7218337,716.39,784,751,0
7218348,710.06,784,751,0
7218358,697.66,784,750,0
7218368,679.29,784,751,0
7218378,655.12,784,751,0
7218388,625.60,784,751,0
7218398,593.10,784,751,0
7218408,559.64,784,751,0
7218418,526.58,784,751,0
7218428,495.55,784,751,0
7218438,467.10,784,751,0
7218448,441.95,784,751,0
7218458,420.11,784,751,0
7218468,401.65,784,751,0
7218478,386.41,784,751,0
7218488,374.72,784,751,0
7218498,366.02,784,750,0
7218508,360.40,784,751,0
7218519,357.06,784,750,0
7218529,356.02,784,751,0
7218539,356.57,784,750,0
7218549,358.67,784,751,0
7218560,361.55,784,750,0
7218569,364.99,784,751,0
7218579,368.21,784,750,0
7218589,371.49,784,751,0
7218599,374.08,784,750,0
7218609,376.07,784,751,0
7218619,376.69,784,750,0
7218629,376.49,784,751,0
7218639,375.01,784,750,0
7218649,372.82,784,751,0
7218659,369.32,784,750,0
7218669,365.41,784,751,0
7218679,360.74,784,750,0
7218689,356.11,784,751,0
7218699,351.02,784,750,0
7218709,346.43,784,751,0
7218719,341.80,784,750,0
7218729,338.00,784,751,0
7218739,334.44,784,750,0
7218749,331.78,784,751,0
7218759,329.58,784,751,0
7218769,328.25,784,751,0
7218779,327.06,784,750,0
7218789,326.57,784,751,0
7218799,326.18,784,750,0
7218809,326.43,784,751,0
7218819,326.64,784,750,0
7218829,327.26,784,751,0
7218839,327.61,784,750,0
7218849,328.37,784,751,0
7218860,328.99,784,750,0
7218870,330.02,784,751,0
7218880,330.53,784,750,0
7218890,331.40,784,751,0
7218900,331.92,784,750,0
7218910,333.10,784,751,0
7218920,334.10,784,750,0
7218930,336.38,784,751,0
7218940,340.34,784,750,0
7218950,348.30,784,751,0
7218960,360.94,784,750,0
7218970,380.54,784,751,0
7218980,407.34,784,750,0
7218990,442.25,784,752,0
7219009,482.37,785,750,0
7219012,524.99,785,751,0
7219021,566.91,785,750,0
7219031,605.98,785,751,0
7219041,639.71,785,751,0
7219051,666.93,785,751,0
7219061,686.66,785,751,0
7219072,700.48,785,752,0
7219081,710.15,785,751,0
7219091,716.96,785,751,0
7219101,721.39,785,751,0
7219111,722.60,785,751,0
7219121,719.46,785,751,0
7219131,711.78,785,751,0
7219141,698.65,785,751,0
7219151,680.15,785,751,0
7219161,656.06,785,750,0
7219171,627.24,785,751,0
7219181,595.24,785,751,0
7219191,562.38,785,752,0
7219201,529.40,785,750,0
7219211,498.16,785,751,0
7219221,468.93,785,751,0
7219231,442.98,785,752,0
7219241,420.06,785,751,0
7219251,401.14,785,751,0
7219261,385.63,785,750,0
7219271,374.21,785,751,0
7219281,366.09,785,751,0
7219291,361.69,785,751,0
7219301,359.81,785,750,0
7219311,360.77,785,751,0
7219321,363.11,785,750,0
7219331,367.23,785,751,0
7219341,371.71,785,750,0
7219351,376.51,785,751,0
7219361,380.56,785,751,0
7219372,384.38,785,751,0
7219382,386.79,785,751,0
7219392,388.27,785,751,0
7219402,387.67,785,751,0
7219412,385.80,785,751,0
7219422,382.35,785,750,0
7219432,378.04,785,751,0
7219442,372.33,785,751,0
7219452,366.19,785,751,0
7219462,359.32,785,750,0
7219472,352.88,785,751,0
7219482,346.23,785,751,0
7219492,340.42,785,751,0
7219502,334.85,785,750,0
7219512,330.35,785,751,0
7219522,326.30,785,751,0
7219532,323.51,785,751,0
7219543,321.26,785,751,0
7219553,320.28,785,751,0
7219563,319.68,785,751,0
7219573,320.21,785,751,0
7219584,321.00,785,751,0
7219593,322.72,785,751,0
7219603,324.30,785,751,0
7219613,326.22,785,751,0
7219623,327.96,785,751,0
7219633,329.77,785,751,0
7219643,331.17,785,751,0
7219653,332.53,785,751,0
7219663,333.27,785,751,0
7219673,334.13,785,751,0
7219683,334.48,785,751,0
7219693,335.28,785,751,0
7219703,337.12,785,751,0
7219713,341.63,785,751,0
7219723,350.10,785,751,0
7219733,364.81,785,751,0
7219743,386.47,785,751,0
7219753,416.50,785,751,0
7219763,453.72,785,751,0
7219782,495.46,773,750,0
7219785,538.48,773,751,0
7219794,580.16,773,751,0
7219804,617.70,773,751,0
7219814,649.55,773,751,0
7219824,674.20,773,751,0
7219834,691.80,773,751,0
7219844,704.11,773,751,0
7219854,712.74,773,751,0
7219864,718.52,773,751,0
7219874,720.59,773,751,0
7219884,718.27,773,751,0
7219894,711.20,773,751,0
7219904,698.76,773,751,0
7219914,681.09,773,751,0
7219924,658.13,773,751,0
7219934,630.62,773,751,0
7219944,600.22,773,751,0
7219954,568.83,773,751,0
7219964,537.34,773,751,0
7219974,507.49,773,751,0
7219984,479.49,773,751,0
7219994,454.14,773,751,0
7220004,431.43,773,751,0
7220014,412.06,773,751,0
7220024,395.63,773,751,0
7220034,382.54,773,751,0
7220044,372.22,773,751,0
7220055,364.91,773,751,0
7220065,360.22,773,751,0
7220075,357.88,773,751,0
7220085,357.15,773,751,0
7220096,357.79,773,751,0
7220105,359.22,773,751,0
7220115,361.34,773,751,0
7220125,363.60,773,751,0
7220135,365.43,773,751,0
7220145,366.76,773,751,0
7220155,367.39,773,751,0
7220165,367.27,773,751,0
7220175,366.46,773,751,0
7220185,364.74,773,751,0
7220195,362.24,773,750,0
7220205,359.17,773,751,0
7220215,355.69,773,751,0
7220225,352.01,773,751,0
7220235,348.49,773,751,0
7220245,345.13,773,751,0
7220255,341.92,773,751,0
7220265,339.03,773,751,0
7220275,336.66,773,751,0
7220285,334.66,773,754,0
7220295,336.44,773,754,0
7220305,339.91,773,754,0
7220315,343.53,773,753,0
7220325,346.67,773,753,0
7220335,348.87,773,753,0
7220345,349.94,773,754,0
7220355,350.04,773,753,0
7220365,345.79,773,753,0
7220375,339.25,773,753,0
7220385,332.19,773,753,0
7220396,325.62,773,753,0
7220406,319.99,773,753,0
7220416,315.62,773,753,0
7220426,312.61,773,753,0
7220436,310.97,773,753,0
7220446,310.42,773,753,0
7220456,310.72,773,753,0
7220466,311.79,773,753,0
7220476,313.18,773,752,0
7220486,314.80,773,753,0
7220496,316.27,773,752,0
7220506,318.12,773,753,0
7220516,321.47,773,752,0
7220526,328.14,773,753,0
7220536,339.50,773,752,0
7220546,357.52,773,753,0
7220556,383.25,773,752,0
7220576,417.46,794,751,0
7220579,458.55,794,752,0
7220588,503.13,794,753,0
7220598,547.83,794,752,0
7220609,590.01,794,752,0
7220619,627.21,794,752,0
7220629,657.75,794,753,0
7220639,680.62,794,752,0
7220649,696.64,794,752,0
7220659,707.84,794,752,0
7220669,715.73,794,753,0
7220679,719.37,794,752,0
7220689,718.49,794,753,0
7220699,712.51,794,752,0
7220709,701.60,794,753,0
7220719,685.31,794,752,0
7220729,663.92,794,752,0
7220739,637.58,794,752,0
7220749,608.69,794,753,0
7220759,578.14,794,752,0
7220769,547.46,794,752,0
7220780,517.23,794,752,0
7220790,488.92,794,753,0
7220800,462.46,794,752,0
7220810,438.62,794,752,0
7220820,416.96,794,752,0
7220830,398.55,794,752,0
7220840,383.08,794,752,0
7220850,370.89,794,752,0
7220860,361.23,794,752,0
7220870,354.91,794,753,0
7220880,350.82,794,752,0
7220890,349.55,794,752,0
7220900,349.64,794,752,0
7220910,351.38,794,752,0
7220920,353.53,794,752,0
7220930,356.37,794,752,0
7220940,358.49,794,752,0
7220951,360.36,794,753,0
7220961,361.24,794,752,0
7220971,361.72,794,752,0
7220981,360.95,794,752,0
7220992,359.85,794,752,0
7221001,357.75,794,752,0
7221011,355.51,794,752,0
7221021,352.57,794,752,0
7221031,349.53,794,752,0
7221041,346.16,794,752,0
7221051,343.24,794,752,0
7221061,340.08,794,752,0
7221071,337.57,794,752,0
7221081,334.91,794,752,0
7221091,332.88,794,752,0
7221101,330.77,794,752,0
7221111,329.04,794,752,0
7221121,327.06,794,752,0
7221131,325.46,794,752,0
7221141,323.39,794,752,0
7221151,321.94,794,752,0
7221161,320.33,794,752,0
7221171,319.38,794,753,0
7221181,318.45,794,752,0
7221191,318.14,794,752,0
7221201,317.84,794,752,0
7221211,318.28,794,752,0
7221221,318.45,794,752,0
7221231,319.26,794,752,0
7221241,319.74,794,752,0
7221251,320.59,794,752,0
7221261,321.14,794,752,0
7221271,322.17,794,752,0
7221281,322.80,794,752,0
7221292,323.89,794,752,0
7221302,324.48,794,752,0
7221312,325.88,794,752,0
7221322,328.32,794,752,0
7221332,333.84,794,752,0
7221342,342.97,794,752,0
7221352,358.11,794,752,0
7221362,379.85,794,752,0
7221382,409.68,805,751,0
7221385,447.06,805,754,0
7221394,489.17,805,752,0
7221404,532.53,805,753,0
7221414,574.85,805,752,0
7221424,613.33,805,752,0
7221434,646.36,805,752,0
7221444,672.40,805,752,0
7221454,690.88,805,752,0
7221464,703.81,805,752,0
7221474,712.18,805,752,0
7221484,715.56,805,752,0
7221494,713.55,805,752,0
7221505,706.05,805,752,0
7221515,692.92,805,752,0
7221525,674.30,805,752,0
7221535,650.34,805,752,0
7221545,622.08,805,752,0
7221555,591.71,805,752,0
7221565,560.86,805,752,0
7221575,530.47,805,752,0
7221585,501.92,805,752,0
7221595,475.76,805,752,0
7221605,452.39,805,752,0
7221615,432.04,805,752,0
7221625,414.63,805,752,0
7221635,400.21,805,752,0
7221645,388.92,805,753,0
7221655,380.20,805,752,0
7221665,373.93,805,752,0
7221676,369.79,805,752,0
7221686,367.63,805,752,0
7221696,366.84,805,752,0
7221706,367.31,805,752,0
7221716,368.29,805,751,0
7221726,369.58,805,752,0
7221736,370.60,805,751,0
7221746,371.49,805,752,0
7221756,371.65,805,751,0
7221766,371.54,805,752,0
7221776,370.35,805,751,0
7221786,368.70,805,752,0
7221796,366.26,805,751,0
7221806,363.65,805,752,0
7221816,360.42,805,751,0
7221826,356.86,805,752,0
7221836,352.66,805,751,0
7221847,348.65,805,752,0
7221857,344.34,805,751,0
7221867,340.42,805,752,0
7221877,336.35,805,751,0
7221888,332.82,805,752,0
7221897,329.57,805,751,0
7221907,326.92,805,752,0
7221917,324.50,805,751,0
7221927,322.89,805,752,0
7221937,321.68,805,751,0
7221947,321.31,805,752,0
7221957,321.13,805,751,0
7221967,321.78,805,752,0
7221977,322.66,805,751,0
7221987,324.17,805,752,0
7221997,325.58,805,751,0
7222007,327.29,805,752,0
7222017,328.70,805,751,0
7222027,330.38,805,752,0
7222037,331.55,805,751,0
7222047,332.80,805,752,0
7222057,333.50,805,751,0
7222067,334.42,805,752,0
7222077,334.90,805,751,0
7222087,335.91,805,752,0
7222097,337.65,805,751,0
7222107,341.70,805,752,0
7222117,348.95,805,751,0
7222127,361.43,805,752,0
7222137,379.86,805,751,0
7222147,405.45,805,752,0
7222166,437.67,785,751,0
7222169,476.04,785,753,0
7222178,517.21,785,751,0
7222188,558.59,785,752,0
7222198,597.29,785,751,0
7222208,631.57,785,752,0
7222218,659.94,785,751,0
7222228,681.95,785,752,0
7222238,697.35,785,751,0
7222248,708.13,785,752,0
7222258,713.92,785,751,0
7222268,715.01,785,752,0
7222278,711.02,785,751,0
7222288,702.06,785,752,0
7222298,687.81,785,751,0
7222308,668.67,785,752,0
7222318,644.73,785,751,0
7222328,618.24,785,752,0
7222338,589.88,785,751,0
7222348,561.42,785,752,0
7222359,533.13,785,751,0
7222369,506.39,785,752,0
7222379,481.25,785,751,0
7222389,458.37,785,751,0
7222400,437.35,785,751,0
7222409,419.20,785,752,0
7222419,403.33,785,751,0
7222429,390.71,785,752,0
7222439,380.43,785,751,0
7222449,373.10,785,752,0
7222459,367.71,785,751,0
7222469,364.71,785,751,0
7222479,362.83,785,751,0
7222489,362.67,785,752,0
7222499,363.02,785,751,0
7222509,364.39,785,752,0
7222519,365.39,785,751,0
7222529,366.73,785,752,0
7222539,367.54,785,751,0
7222549,368.40,785,752,0
7222559,368.03,785,751,0
7222569,367.03,785,752,0
7222579,364.88,785,751,0
7222589,362.52,785,752,0
7222599,359.15,785,751,0
7222609,355.63,785,752,0
7222619,351.41,785,751,0
7222629,347.60,785,752,0
7222639,343.57,785,750,0
7222649,340.18,785,752,0
7222659,336.61,785,751,0
7222669,333.81,785,752,0
7222679,331.13,785,751,0
7222689,329.16,785,752,0
7222700,327.23,785,751,0
7222710,326.17,785,752,0
7222720,325.14,785,751,0
7222730,325.01,785,752,0
7222740,325.05,785,751,0
7222750,325.68,785,752,0
7222760,326.37,785,751,0
7222770,327.63,785,752,0
7222780,328.77,785,751,0
7222790,330.25,785,752,0
7222800,331.25,785,751,0
7222810,332.33,785,752,0
7222820,332.88,785,751,0
7222830,333.47,785,752,0
7222840,333.33,785,751,0
7222850,333.19,785,752,0
7222860,332.49,785,751,0
7222871,332.04,785,751,0
7222881,331.21,785,751,0
7222891,330.98,785,752,0
7222901,331.29,785,751,0
7222912,334.07,785,751,0
7222921,339.54,785,751,0
7222931,349.87,785,751,0
7222941,365.90,785,751,0
7222951,389.59,785,751,0
7222970,420.52,804,750,0
7222973,458.72,804,751,0
7222982,500.42,804,752,0
7222992,543.24,804,751,0
7223002,584.18,804,752,0
7223012,621.20,804,751,0
7223022,652.08,804,752,0
7223032,676.31,804,751,0
7223042,693.32,804,751,0
7223052,705.22,804,752,0
7223062,713.56,804,752,0
7223072,718.36,804,751,0
7223083,718.94,804,751,0
7223092,715.19,804,752,0
7223102,706.56,804,751,0
7223112,693.11,804,751,0
7223122,674.52,804,751,0
7223132,651.30,804,751,0
7223142,624.13,804,751,0
7223152,595.12,804,751,0
7223162,565.17,804,751,0
7223172,535.93,804,751,0
7223182,507.75,804,751,0
7223192,481.56,804,751,0
7223202,457.30,804,751,0
7223212,436.13,804,751,0
7223222,417.66,804,751,0
7223232,402.20,804,751,0
7223242,389.20,804,751,0
7223252,379.03,804,751,0
7223262,371.35,804,751,0
7223272,366.06,804,751,0
7223282,362.35,804,751,0
7223292,360.11,804,751,0
7223302,358.79,804,751,0
7223312,358.59,804,751,0
7223322,358.63,804,751,0
7223332,358.70,804,751,0
7223342,358.32,804,751,0
7223352,357.75,804,751,0
7223362,356.71,804,751,0
7223372,355.38,804,751,0
7223383,353.25,804,751,0
7223393,350.56,804,751,0
7223403,347.61,804,751,0
7223413,344.73,804,751,0
7223424,341.85,804,751,0
7223433,339.20,804,751,0
7223443,336.74,804,751,0
7223453,334.50,804,750,0
7223463,332.89,804,751,0
7223473,331.64,804,751,0
7223483,330.68,804,751,0
7223493,329.92,804,750,0
7223503,329.51,804,751,0
7223513,329.49,804,751,0
7223523,329.73,804,751,0
7223533,330.11,804,750,0
7223543,330.72,804,751,0
7223553,331.62,804,751,0
7223563,332.93,804,751,0
7223573,334.24,804,750,0
7223583,335.37,804,751,0
7223593,336.46,804,751,0
7223603,337.52,804,751,0
7223613,338.52,804,750,0
7223623,339.39,804,751,0
7223633,339.79,804,751,0
7223643,340.15,804,751,0
7223653,340.32,804,750,0
7223663,340.35,804,751,0
7223673,340.03,804,751,0
7223683,339.59,804,751,0
7223693,339.54,804,751,0
7223703,341.01,804,751,0
7223713,345.12,804,751,0
7223724,353.57,804,751,0
7223734,367.76,804,750,0
7223753,389.26,783,749,0
7223756,418.92,783,751,0
7223766,456.15,783,751,0
7223775,497.59,783,750,0
7223785,540.27,783,751,0
7223795,581.46,783,750,0
7223805,618.99,783,751,0
7223815,650.80,783,750,0
7223825,675.41,783,751,0
7223835,692.65,783,751,0
7223845,704.75,783,751,0
7223855,713.18,783,751,0
7223865,719.09,783,752,0
7223875,721.50,783,750,0
7223885,719.81,783,751,0
7223895,713.40,783,750,0
7223905,702.09,783,752,0
7223915,685.44,783,750,0
7223925,663.79,783,751,0
7223936,636.90,783,750,0
7223945,607.27,783,752,0
7223955,576.16,783,751,0
7223965,545.17,783,751,0
7223975,514.90,783,750,0
7223985,486.73,783,752,0
7223995,460.80,783,751,0
7224005,438.06,783,751,0
7224015,417.94,783,750,0
7224025,401.03,783,751,0
7224035,387.01,783,750,0
7224045,376.29,783,751,0
7224055,368.27,783,750,0
7224065,363.22,783,751,0
7224075,360.33,783,750,0
7224085,359.84,783,751,0
7224095,360.88,783,750,0
7224105,363.40,783,751,0
7224115,366.36,783,750,0
7224125,369.73,783,751,0
7224135,372.42,783,750,0
7224145,374.78,783,751,0
7224155,376.05,783,750,0
7224165,376.42,783,751,0
7224175,375.39,783,751,0
7224185,373.56,783,751,0
7224195,370.61,783,751,0
7224205,367.21,783,751,0
7224215,362.99,783,750,0
7224225,358.58,783,751,0
7224236,353.82,783,751,0
7224246,349.33,783,751,0
7224256,344.65,783,750,0
7224266,340.59,783,751,0
7224276,336.69,783,751,0
7224286,333.48,783,751,0
7224296,330.51,783,750,0
7224306,328.47,783,751,0
7224316,326.83,783,750,0
7224326,326.28,783,751,0
7224336,325.94,783,750,0
7224346,326.39,783,751,0
7224356,326.87,783,751,0
7224366,327.94,783,751,0
7224376,328.77,783,750,0
7224386,329.91,783,751,0
7224396,330.75,783,750,0
7224407,331.77,783,751,0
7224417,332.44,783,750,0
7224427,333.51,783,751,0
7224437,334.25,783,750,0
7224448,335.68,783,751,0
7224457,337.40,783,750,0
7224467,341.05,783,751,0
7224477,347.38,783,751,0
7224487,358.41,783,751,0
7224497,374.57,783,750,0
7224507,397.93,783,751,0
7224517,428.21,783,751,0
7224527,465.60,783,751,0
7224546,506.44,793,750,0
7224549,548.18,793,752,0
7224558,587.90,793,751,0
7224568,624.01,793,751,0
7224578,654.27,793,751,0
7224588,677.89,793,751,0
7224598,694.42,793,751,0
7224608,705.99,793,751,0
7224619,714.10,793,751,0
7224628,719.77,793,751,0
7224638,722.24,793,751,0
7224648,720.97,793,751,0
7224658,714.93,793,751,0
7224668,704.24,793,751,0
7224678,688.18,793,751,0
7224688,667.17,793,751,0
7224698,640.89,793,750,0
7224708,611.65,793,751,0
7224718,580.47,793,751,0
7224728,549.39,793,751,0
7224738,518.50,793,750,0
7224748,489.81,793,751,0
7224758,462.99,793,751,0
7224768,439.51,793,751,0
7224778,418.74,793,751,0
7224788,401.76,793,751,0
7224798,387.99,793,751,0
7224808,378.14,793,751,0
7224818,371.02,793,751,0
7224828,367.42,793,751,0
7224838,366.01,793,751,0
7224848,367.12,793,751,0
7224858,369.18,793,750,0
7224868,372.47,793,751,0
7224878,375.89,793,751,0
7224888,379.56,793,751,0
7224898,382.22,793,751,0
7224908,384.34,793,751,0
7224919,384.71,793,751,0
7224929,384.07,793,751,0
7224939,381.78,793,751,0
7224949,378.50,793,751,0
7224960,373.81,793,751,0
7224969,368.59,793,751,0
7224979,362.33,793,751,0
7224989,356.10,793,751,0
7224999,349.60,793,751,0
7225009,343.55,793,751,0
7225019,337.51,793,751,0
7225029,332.34,793,751,0
7225039,327.53,793,751,0
7225049,323.81,793,751,0
7225059,320.61,793,751,0
7225069,318.46,793,751,0
7225079,316.82,793,751,0
7225089,316.32,793,751,0
7225099,316.18,793,751,0
7225109,316.85,793,751,0
7225119,317.63,793,751,0
7225129,319.15,793,751,0
7225139,320.65,793,751,0
7225149,322.64,793,751,0
7225159,324.33,793,750,0
7225169,326.42,793,751,0
7225179,328.27,793,751,0
7225189,330.59,793,751,0
7225199,333.11,793,750,0
7225209,337.62,793,751,0
7225219,344.46,793,751,0
7225229,355.85,793,751,0
7225239,372.40,793,751,0
7225249,396.11,793,751,0
7225260,426.93,793,751,0
7225270,464.75,793,751,0
7225280,505.84,793,751,0
7225299,547.89,753,750,0
7225303,587.95,753,751,0
7225311,624.22,753,751,0
7225321,654.50,753,751,0
7225331,678.01,753,751,0
7225341,694.46,753,751,0
7225351,706.02,753,751,0
7225361,714.12,753,751,0
7225371,719.74,753,751,0
7225381,721.23,753,751,0
7225391,718.12,753,751,0
7225401,709.60,753,751,0
7225411,695.66,753,751,0
7225421,675.96,753,751,0
7225431,650.99,753,751,0
7225441,620.73,753,751,0
7225451,588.20,753,751,0
7225461,554.71,753,751,0
7225472,521.71,753,751,0
7225481,490.04,753,751,0
7225491,460.76,753,751,0
7225501,434.13,753,751,0
7225511,410.78,753,751,0
7225521,390.62,753,751,0
7225531,373.89,753,751,0
7225541,360.72,753,751,0
7225551,351.21,753,751,0
7225561,345.10,753,751,0
7225571,342.03,753,751,0
7225581,341.59,753,751,0
7225591,343.43,753,751,0
7225601,346.90,753,751,0
7225611,351.60,753,751,0
7225621,356.52,753,751,0
7225631,361.46,753,751,0
7225641,365.95,753,751,0
7225651,369.65,753,751,0
7225661,372.20,753,751,0
7225671,373.55,753,751,0
7225681,373.65,753,751,0
7225691,372.81,753,751,0
7225701,370.94,753,751,0
7225711,368.21,753,751,0
7225721,364.81,753,751,0
7225731,361.14,753,751,0
7225741,357.15,753,751,0
7225751,353.04,753,751,0
7225761,348.87,753,751,0
7225772,344.79,753,751,0
7225782,341.04,753,751,0
7225792,337.69,753,751,0
7225802,334.65,753,751,0
7225812,332.23,753,751,0
7225822,330.32,753,751,0
7225832,328.85,753,750,0
7225842,327.82,753,751,0
7225852,327.06,753,750,0
7225862,326.83,753,751,0
7225872,326.92,753,750,0
7225882,327.37,753,751,0
7225892,328.03,753,750,0
7225902,329.10,753,751,0
7225912,330.40,753,751,0
7225922,332.12,753,751,0
7225932,334.18,753,750,0
7225943,337.69,753,751,0
7225953,343.57,753,750,0
7225963,353.68,753,751,0
7225973,369.16,753,750,0
7225984,391.79,753,751,0
7225993,421.76,753,750,0
7226003,459.08,753,751,0
7226022,500.37,723,750,0
7226025,542.90,723,751,0
7226034,583.82,723,750,0
7226044,620.99,723,751,0
7226054,652.10,723,750,0
7226064,676.37,723,751,0
7226074,693.36,723,751,0
7226084,705.25,723,751,0
7226094,713.58,723,750,0
7226104,719.40,723,751,0
7226114,723.48,723,751,0
7226124,724.24,723,751,0
7226134,720.27,723,750,0
7226144,711.02,723,751,0
7226155,695.84,723,750,0
7226164,675.36,723,751,0
7226174,649.19,723,750,0
7226184,617.98,723,751,0
7226194,583.83,723,750,0
7226204,549.42,723,751,0
7226214,515.70,723,750,0
7226224,484.24,723,751,0
7226234,454.77,723,750,0
7226244,428.70,723,751,0
7226254,405.64,723,750,0
7226264,386.64,723,751,0
7226274,370.89,723,750,0
7226284,358.97,723,751,0
7226294,350.32,723,750,0
7226304,345.42,723,751,0
7226314,343.20,723,750,0
7226324,343.82,723,751,0
7226334,345.89,723,750,0
7226344,349.69,723,751,0
7226354,353.94,723,750,0
7226364,358.76,723,751,0
7226374,362.99,723,750,0
7226384,366.98,723,751,0
7226394,369.68,723,750,0
7226404,371.62,723,751,0
7226414,371.99,723,750,0
7226424,371.44,723,752,0
7226434,369.29,723,750,0
7226444,366.29,723,751,0
7226455,361.75,723,750,0
7226465,356.81,723,751,0
7226475,351.08,723,750,0
7226485,345.36,723,751,0
7226496,339.33,723,750,0
7226505,334.09,723,752,0
7226515,328.96,723,750,0
7226525,324.86,723,751,0
7226535,321.09,723,751,0
7226545,318.45,723,752,0
7226555,316.17,723,750,0
