Time,PPG,IBI,GSR,GSR_Event
5734403,280.44,733,748,0
5734413,295.52,733,748,0
5734423,312.34,733,748,0
5734433,330.24,733,748,0
5734444,348.85,733,748,0
5734454,367.11,733,748,0
5734464,384.52,733,748,0
5734474,400.95,733,748,0
5734484,417.72,733,748,0
5734494,431.56,733,748,0
5734504,442.19,733,748,0
5734514,449.29,733,748,0
5734524,454.00,733,748,0
5734534,456.79,733,748,0
5734544,459.60,733,748,0
5734554,463.32,733,748,0
5734564,470.12,733,748,0
5734574,480.54,733,748,0
5734584,495.94,733,748,0
5734594,515.76,733,748,0
5734604,540.26,733,748,0
5734615,567.65,733,748,0
5734625,596.56,733,748,0
5734635,624.63,733,748,0
5734645,650.59,733,748,0
5734656,671.88,733,748,0
5734665,687.95,733,748,0
5734675,696.92,733,748,0
5734685,698.96,733,748,0
5734695,693.83,733,748,0
5734705,682.65,733,748,0
5734715,665.78,733,748,0
5734725,644.89,733,748,0
5734735,620.37,733,748,0
5734745,594.37,733,748,0
5734755,567.65,733,748,0
5734765,541.61,733,748,0
5734775,516.14,733,748,0
5734785,492.44,733,748,0
5734795,470.37,733,748,0
5734805,450.71,733,748,0
5734815,432.84,733,748,0
5734825,417.25,733,749,0
5734835,403.42,733,748,0
5734845,392.02,733,749,0
5734855,382.11,733,748,0
5734865,374.37,733,749,0
5734875,367.66,733,748,0
5734885,362.44,733,749,0
5734895,357.98,733,748,0
5734905,354.82,733,749,0
5734915,352.17,733,748,0
5734925,350.79,733,749,0
5734935,349.87,733,748,0
5734945,350.12,733,749,0
5734956,350.81,733,748,0
5734966,352.41,733,749,0
5734976,354.26,733,748,0
5734986,356.67,733,749,0
5734996,358.95,733,748,0
5735006,361.41,733,749,0
5735016,363.47,733,748,0
5735026,365.77,733,749,0
5735036,367.64,733,748,0
5735046,369.51,733,749,0
5735056,370.77,733,748,0
5735066,372.00,733,749,0
5735076,372.60,733,747,0
5735086,373.32,733,749,0
5735096,373.39,733,748,0
5735106,373.45,733,749,0
5735116,372.84,733,747,0
5735127,372.29,733,749,0
5735137,371.05,733,748,0
5735147,369.83,733,749,0
5735157,367.91,733,747,0
5735168,365.97,733,749,0
5735177,363.45,733,748,0
5735187,361.04,733,748,0
5735197,358.16,733,747,0
5735207,355.54,733,749,0
5735217,352.81,733,748,0
5735227,351.11,733,749,0
5735237,350.52,733,747,0
5735247,352.42,733,749,0
5735257,356.92,733,748,0
5735267,365.52,733,749,0
5735277,378.22,733,747,0
5735287,396.11,733,749,0
5735297,418.19,733,748,0
5735316,444.49,0,748,0
5735319,474.34,0,749,0
5735328,506.30,0,750,0
5735339,537.37,0,749,0
5735348,566.10,0,750,0
5735358,589.81,0,748,0
5735368,607.74,0,750,0
5735378,618.32,0,749,0
5735388,620.71,0,750,0
5735398,615.14,0,748,0
5735408,603.31,0,750,0
5735418,586.03,0,749,0
5735428,565.45,0,750,0
5735438,542.47,0,748,0
5735448,518.72,0,750,0
5735458,494.67,0,749,0
5735468,471.76,0,750,0
5735478,450.14,0,748,0
5735488,430.77,0,749,0
5735498,413.27,0,749,0
5735508,398.27,0,749,0
5735518,385.59,0,748,0
5735528,375.73,0,749,0
5735538,368.31,0,749,0
5735548,363.93,0,750,0
5735558,362.07,0,748,0
5735568,363.12,0,750,0
5735578,366.64,0,749,0
5735588,372.53,0,749,0
5735598,380.00,0,748,0
5735608,389.00,0,749,0
5735618,398.47,0,749,0
5735628,408.23,0,750,0
5735639,417.42,0,748,0
5735649,425.56,0,750,0
5735659,432.12,0,749,0
5735669,437.02,0,750,0
5735680,439.80,0,749,0
5735689,440.67,0,750,0
5735699,439.44,0,749,0
5735709,436.35,0,750,0
5735719,431.57,0,749,0
5735729,425.62,0,750,0
5735739,418.57,0,749,0
5735749,410.95,0,749,0
5735759,402.82,0,749,0
5735769,394.64,0,750,0
5735779,386.52,0,749,0
5735789,378.78,0,749,0
5735799,371.47,0,749,0
5735809,364.90,0,749,0
5735819,359.02,0,749,0
5735829,354.08,0,749,0
5735839,350.12,0,749,0
5735849,347.17,0,749,0
5735859,345.36,0,749,0
5735869,344.48,0,750,0
5735879,344.42,0,749,0
5735889,345.07,0,749,0
5735899,346.29,0,749,0
5735909,348.00,0,750,0
5735919,350.23,0,749,0
5735929,352.82,0,750,0
5735939,356.04,0,749,0
5735949,360.27,0,750,0
5735959,365.98,0,749,0
5735969,373.61,0,749,0
5735980,383.80,0,749,0
5735990,397.10,0,750,0
5736000,413.96,0,749,0
5736010,434.46,0,749,0
5736020,458.32,0,749,0
5736030,484.58,0,750,0
5736040,512.22,0,749,0
5736050,539.63,0,749,0
5736060,565.41,0,749,0
5736070,587.79,0,749,0
5736080,605.64,0,749,0
5736099,617.75,783,747,0
5736102,623.56,783,749,0
5736111,623.31,783,749,0
5736121,617.43,783,749,0
5736131,606.24,783,749,0
5736141,591.09,783,749,0
5736151,572.63,783,749,0
5736161,552.47,783,749,0
5736171,531.50,783,749,0
5736181,510.44,783,749,0
5736192,489.73,783,749,0
5736201,470.27,783,749,0
5736211,452.02,783,749,0
5736221,435.47,783,749,0
5736231,420.20,783,749,0
5736241,406.73,783,749,0
5736251,394.64,783,749,0
5736261,384.63,783,749,0
5736271,376.17,783,749,0
5736281,369.78,783,749,0
5736291,365.17,783,749,0
5736301,362.81,783,749,0
5736311,362.22,783,749,0
5736321,364.13,783,749,0
5736331,367.35,783,749,0
5736341,372.21,783,749,0
5736351,377.76,783,749,0
5736361,384.09,783,749,0
5736371,390.24,783,749,0
5736381,396.25,783,749,0
5736391,401.02,783,749,0
5736401,404.96,783,749,0
5736411,407.54,783,749,0
5736421,409.09,783,749,0
5736431,409.02,783,749,0
5736441,408.12,783,749,0
5736451,405.94,783,749,0
5736461,403.17,783,749,0
5736471,399.48,783,749,0
5736481,395.52,783,749,0
5736492,390.95,783,749,0
5736502,386.64,783,749,0
5736512,381.90,783,749,0
5736522,377.69,783,749,0
5736532,373.41,783,749,0
5736542,369.90,783,749,0
5736552,366.59,783,749,0
5736562,364.18,783,749,0
5736572,362.03,783,749,0
5736582,360.82,783,749,0
5736592,359.67,783,749,0
5736602,359.30,783,750,0
5736612,359.00,783,749,0
5736622,359.30,783,749,0
5736632,359.59,783,749,0
5736642,360.49,783,749,0
5736652,361.46,783,749,0
5736663,363.46,783,749,0
5736673,366.19,783,749,0
5736683,370.68,783,750,0
5736693,376.86,783,748,0
5736704,385.99,783,750,0
5736713,397.78,783,749,0
5736723,413.19,783,750,0
5736733,431.60,783,749,0
5736743,453.36,783,749,0
5736753,476.91,783,749,0
5736763,501.84,783,750,0
5736773,525.89,783,749,0
5736793,548.25,693,748,0
5736796,566.39,693,749,0
5736805,579.77,693,750,0
5736815,586.57,693,749,0
5736825,587.21,693,749,0
5736835,581.36,693,749,0
5736845,570.54,693,750,0
5736855,555.34,693,749,0
5736865,538.05,693,750,0
5736876,519.22,693,749,0
5736886,500.77,693,750,0
5736896,482.97,693,749,0
5736906,466.78,693,751,0
5736916,451.84,693,749,0
5736926,438.73,693,750,0
5736936,426.77,693,749,0
5736946,416.00,693,750,0
5736956,406.01,693,749,0
5736966,397.05,693,750,0
5736976,388.76,693,749,0
5736986,381.55,693,749,0
5736996,375.30,693,749,0
5737006,370.32,693,750,0
5737016,366.67,693,749,0
5737026,364.58,693,749,0
5737036,363.89,693,749,0
5737047,364.74,693,750,0
5737057,366.75,693,749,0
5737067,369.57,693,749,0
5737077,372.91,693,749,0
5737088,376.58,693,750,0
5737097,380.01,693,749,0
5737107,383.18,693,751,0
5737117,385.65,693,749,0
5737127,387.38,693,750,0
5737137,388.25,693,749,0
5737147,388.22,693,749,0
5737157,387.38,693,749,0
5737167,385.81,693,750,0
5737177,383.55,693,749,0
5737187,380.73,693,749,0
5737197,377.60,693,749,0
5737207,374.03,693,750,0
5737217,370.29,693,749,0
5737227,366.43,693,749,0
5737237,362.62,693,749,0
5737247,358.79,693,749,0
5737257,355.17,693,749,0
5737267,351.60,693,749,0
5737277,348.38,693,749,0
5737287,345.44,693,749,0
5737297,342.73,693,749,0
5737307,340.33,693,749,0
5737317,338.04,693,749,0
5737327,335.72,693,750,0
5737337,333.40,693,749,0
5737347,331.05,693,749,0
5737357,328.68,693,749,0
5737367,326.25,693,750,0
5737377,323.86,693,749,0
5737388,321.76,693,749,0
5737398,320.50,693,749,0
5737408,320.44,693,749,0
5737418,322.45,693,749,0
5737428,326.90,693,749,0
5737438,334.60,693,749,0
5737448,345.78,693,749,0
5737458,361.14,693,749,0
5737468,380.22,693,749,0
5737478,402.91,693,749,0
5737488,427.88,693,750,0
5737498,454.36,693,749,0
5737508,480.74,693,749,0
5737518,505.97,693,749,0
5737537,528.44,745,748,0
5737540,547.21,745,750,0
5737549,561.12,745,749,0
5737559,570.17,745,749,0
5737569,573.93,745,749,0
5737579,572.92,745,749,0
5737589,567.29,745,749,0
5737600,557.90,745,749,0
5737609,545.55,745,749,0
5737619,531.41,745,750,0
5737629,515.73,745,749,0
5737639,499.87,745,749,0
5737649,483.92,745,749,0
5737659,468.82,745,750,0
5737669,454.34,745,749,0
5737679,441.21,745,750,0
5737689,428.81,745,750,0
5737699,417.85,745,749,0
5737709,407.65,745,749,0
5737719,398.97,745,750,0
5737729,391.27,745,752,0
5737739,385.31,745,750,0
5737749,380.42,745,749,0
5737759,377.34,745,749,0
5737769,375.44,745,749,0
5737779,375.22,745,749,0
5737789,375.88,745,749,0
5737799,377.85,745,749,0
5737809,380.16,745,749,0
5737819,383.11,745,749,0
5737829,385.78,745,749,0
5737839,388.50,745,750,0
5737849,390.37,745,750,0
5737859,391.93,745,750,0
5737869,392.34,745,750,0
5737879,392.19,745,749,0
5737889,390.85,745,749,0
5737900,389.09,745,750,0
5737910,386.37,745,749,0
5737920,383.56,745,750,0
5737930,380.05,745,749,0
5737940,376.86,745,750,0
5737950,373.47,745,750,0
5737960,370.72,745,750,0
5737970,367.97,745,750,0
5737980,366.05,745,751,0
5737990,364.28,745,750,0
5738000,363.34,745,750,0
5738010,362.38,745,749,0
5738020,362.05,745,750,0
5738030,361.61,745,750,0
5738040,361.77,745,750,0
5738050,361.67,745,750,0
5738060,362.02,745,750,0
5738071,362.02,745,749,0
5738081,362.53,745,750,0
5738091,362.63,745,749,0
5738101,362.95,745,750,0
5738112,362.84,745,749,0
5738121,363.19,745,750,0
5738131,363.22,745,749,0
5738141,363.75,745,750,0
5738151,364.13,745,749,0
5738161,365.29,745,750,0
5738171,367.09,745,749,0
5738181,370.66,745,750,0
5738191,375.82,745,749,0
5738201,383.85,745,750,0
5738211,394.78,745,749,0
5738221,409.89,745,750,0
5738231,429.04,745,749,0
5738241,452.47,745,750,0
5738260,479.03,723,749,0
5738263,508.72,723,752,0
5738272,539.62,723,749,0
5738283,570.55,723,750,0
5738292,599.10,723,749,0
5738302,624.31,723,750,0
5738312,644.57,723,749,0
5738322,659.53,723,749,0
5738332,667.94,723,749,0
5738342,670.45,723,750,0
5738352,667.10,723,749,0
5738362,659.10,723,749,0
5738372,646.81,723,749,0
5738382,631.65,723,750,0
5738392,614.06,723,749,0
5738402,595.10,723,749,0
5738412,575.10,723,749,0
5738422,555.22,723,750,0
5738432,535.57,723,749,0
5738442,517.10,723,749,0
5738452,499.41,723,749,0
5738462,483.17,723,750,0
5738472,468.25,723,749,0
5738482,455.19,723,749,0
5738492,443.60,723,749,0
5738502,434.17,723,750,0
5738512,426.23,723,749,0
5738522,420.25,723,750,0
5738532,415.76,723,749,0
5738542,413.30,723,750,0
5738552,411.88,723,749,0
5738562,411.66,723,750,0
5738572,411.89,723,749,0
5738583,412.65,723,750,0
5738593,413.53,723,749,0
5738603,414.40,723,750,0
5738613,414.49,723,749,0
5738624,414.26,723,750,0
5738633,413.45,723,749,0
5738643,411.99,723,749,0
5738653,409.68,723,749,0
5738663,406.73,723,750,0
5738673,403.34,723,749,0
5738683,399.60,723,750,0
5738693,395.35,723,749,0
5738703,390.83,723,750,0
5738713,386.12,723,749,0
5738723,381.80,723,750,0
5738733,377.57,723,749,0
5738743,373.67,723,750,0
5738753,370.13,723,749,0
5738763,367.43,723,750,0
5738773,365.42,723,749,0
5738783,364.31,723,750,0
5738793,363.79,723,749,0
5738803,364.19,723,750,0
5738813,365.34,723,749,0
5738823,367.16,723,750,0
5738833,369.34,723,749,0
5738843,371.81,723,750,0
5738853,374.23,723,749,0
5738863,376.43,723,750,0
5738873,378.10,723,749,0
5738883,379.06,723,750,0
5738893,379.17,723,749,0
5738903,378.39,723,750,0
5738913,376.47,723,749,0
5738924,373.59,723,750,0
5738934,369.64,723,749,0
5738944,364.99,723,750,0
5738954,359.89,723,749,0
5738964,354.87,723,749,0
5738974,350.58,723,748,0
5738984,348.05,723,750,0
5738994,348.33,723,749,0
5739004,352.52,723,749,0
5739014,361.36,723,748,0
5739024,375.44,723,750,0
5739034,395.24,723,749,0
5739044,420.28,723,749,0
5739063,449.55,803,748,0
5739066,481.66,803,750,0
5739075,515.06,803,749,0
5739085,547.57,803,749,0
5739095,577.31,803,749,0
5739105,601.99,803,750,0
5739115,620.29,803,749,0
5739125,631.01,803,749,0
5739136,633.58,803,749,0
5739145,627.70,803,750,0
5739155,614.33,803,749,0
5739165,594.26,803,749,0
5739175,569.50,803,749,0
5739185,541.58,803,749,0
5739195,512.78,803,749,0
5739205,484.51,803,749,0
5739215,458.56,803,749,0
5739225,435.93,803,750,0
5739235,417.70,803,749,0
5739245,403.82,803,749,0
5739255,394.79,803,749,0
5739265,389.88,803,749,0
5739275,389.19,803,749,0
5739285,391.62,803,749,0
5739295,396.79,803,749,0
5739305,403.62,803,749,0
5739315,411.75,803,749,0
5739325,420.10,803,749,0
5739335,428.42,803,749,0
5739345,435.88,803,749,0
5739355,442.60,803,749,0
5739365,447.87,803,749,0
5739375,451.93,803,749,0
5739385,454.44,803,749,0
5739395,455.77,803,749,0
5739405,455.54,803,749,0
5739415,454.05,803,749,0
5739425,451.08,803,749,0
5739436,447.41,803,749,0
5739446,442.70,803,749,0
5739456,437.78,803,749,0
5739466,432.19,803,749,0
5739476,426.99,803,749,0
5739486,421.85,803,749,0
5739496,417.52,803,749,0
5739506,413.34,803,749,0
5739516,410.15,803,749,0
5739526,407.11,803,749,0
5739536,404.80,803,749,0
5739546,402.46,803,749,0
5739556,400.61,803,749,0
5739566,398.41,803,749,0
5739576,396.40,803,749,0
5739586,393.92,803,749,0
5739596,391.46,803,750,0
5739607,388.49,803,749,0
5739617,385.43,803,749,0
5739627,381.87,803,749,0
5739637,378.44,803,750,0
5739648,374.75,803,749,0
5739657,371.44,803,750,0
5739667,368.18,803,749,0
5739677,365.73,803,750,0
5739687,363.58,803,749,0
5739697,362.33,803,750,0
5739707,361.46,803,749,0
5739717,361.71,803,750,0
5739727,362.57,803,749,0
5739737,365.18,803,750,0
5739747,369.03,803,749,0
5739757,375.36,803,750,0
5739767,384.21,803,749,0
5739777,396.75,803,750,0
5739787,412.85,803,749,0
5739797,433.42,803,750,0
5739807,457.47,803,749,0
5739817,485.19,803,750,0
5739827,514.96,803,749,0
5739846,545.91,783,748,0
5739849,575.94,783,750,0
5739858,604.11,783,750,0
5739868,628.04,783,749,0
5739878,646.88,783,750,0
5739888,659.22,783,749,0
5739898,665.07,783,750,0
5739908,663.98,783,748,0
5739918,657.04,783,750,0
5739928,643.83,783,749,0
5739938,626.09,783,750,0
5739948,604.25,783,748,0
5739958,580.00,783,750,0
5739968,553.60,783,749,0
5739978,526.38,783,750,0
5739988,498.07,783,748,0
5739998,470.23,783,750,0
5740008,442.56,783,749,0
5740018,416.16,783,750,0
5740028,390.70,783,748,0
5740038,367.26,783,750,0
5740048,345.58,783,749,0
5740058,327.02,783,750,0
5740068,311.24,783,748,0
5740078,299.26,783,750,0
5740088,290.61,783,749,0
5740098,285.93,783,750,0
5740108,284.49,783,749,0
5740119,286.66,783,750,0
5740129,291.35,783,749,0
5740139,298.70,783,750,0
5740149,307.70,783,748,0
5740160,318.64,783,750,0
5740169,330.66,783,749,0
5740179,344.22,783,750,0
5740189,358.47,783,748,0
5740199,373.58,783,750,0
5740209,388.54,783,749,0
5740219,403.50,783,750,0
5740229,417.37,783,748,0
5740239,429.77,783,750,0
5740249,439.57,783,749,0
5740259,446.73,783,750,0
5740269,450.58,783,749,0
5740279,451.61,783,750,0
5740289,449.37,783,749,0
5740299,444.54,783,750,0
5740309,437.18,783,749,0
5740319,428.21,783,750,0
5740329,417.95,783,749,0
5740339,407.59,783,750,0
5740349,397.17,783,748,0
5740359,387.61,783,750,0
5740369,378.90,783,749,0
5740379,371.86,783,750,0
5740389,366.20,783,749,0
5740399,362.32,783,750,0
5740409,359.61,783,749,0
5740419,358.40,783,750,0
5740429,357.89,783,749,0
5740439,358.27,783,750,0
5740449,358.87,783,749,0
5740460,359.94,783,750,0
5740470,360.82,783,749,0
5740480,361.69,783,750,0
5740490,362.25,783,749,0
5740500,362.86,783,750,0
5740510,363.46,783,749,0
5740520,364.56,783,750,0
5740530,366.37,783,749,0
5740540,369.81,783,750,0
5740550,375.27,783,749,0
5740560,383.67,783,750,0
5740570,395.77,783,749,0
5740580,412.34,783,750,0
5740590,433.32,783,749,0
5740600,458.81,783,750,0
5740610,487.93,783,749,0
5740620,519.71,783,750,0
5740631,552.45,783,749,0
5740641,584.29,783,750,0
5740651,613.17,783,749,0
5740670,637.51,824,748,0
5740674,655.65,824,750,0
5740683,666.82,824,749,0
5740693,670.64,824,749,0
5740703,667.15,824,749,0
5740713,657.08,824,749,0
5740723,641.45,824,749,0
5740733,621.69,824,749,0
5740743,598.98,824,749,0
5740753,574.69,824,749,0
5740763,549.80,824,749,0
5740773,525.47,824,749,0
5740783,501.97,824,749,0
5740793,480.08,824,749,0
5740803,459.74,824,749,0
5740813,441.69,824,750,0
5740823,425.50,824,749,0
5740833,411.63,824,749,0
5740844,399.57,824,749,0
5740854,390.06,824,750,0
5740864,382.28,824,749,0
5740874,377.01,824,749,0
5740884,373.28,824,749,0
5740894,371.70,824,749,0
5740904,371.32,824,749,0
5740914,372.64,824,750,0
5740924,374.76,824,749,0
5740934,377.96,824,749,0
5740944,381.06,824,749,0
5740954,384.47,824,749,0
5740964,387.11,824,749,0
5740974,389.48,824,749,0
5740984,390.71,824,749,0
5740994,391.22,824,749,0
5741004,390.39,824,749,0
5741015,388.94,824,750,0
5741025,386.30,824,749,0
5741035,383.30,824,750,0
5741045,379.44,824,749,0
5741056,375.62,824,750,0
5741065,371.28,824,749,0
5741075,367.47,824,750,0
5741085,363.30,824,748,0
5741095,359.74,824,750,0
5741105,356.17,824,749,0
5741115,353.34,824,750,0
5741125,350.66,824,748,0
5741135,348.84,824,750,0
5741145,347.04,824,749,0
5741155,346.22,824,750,0
5741165,345.55,824,748,0
5741175,345.73,824,750,0
5741185,345.98,824,749,0
5741195,346.84,824,750,0
5741205,347.62,824,748,0
5741215,348.89,824,750,0
5741225,349.91,824,749,0
5741235,351.35,824,750,0
5741245,352.45,824,748,0
5741255,353.94,824,750,0
5741265,354.94,824,749,0
5741275,356.20,824,750,0
5741285,356.91,824,748,0
5741295,357.84,824,750,0
5741305,358.23,824,749,0
5741315,358.85,824,750,0
5741325,359.02,824,749,0
5741335,360.04,824,750,0
5741345,361.66,824,749,0
5741356,365.23,824,750,0
5741366,370.78,824,748,0
5741376,379.80,824,750,0
5741386,392.55,824,749,0
5741396,410.47,824,750,0
5741406,432.78,824,749,0
5741425,459.94,755,748,0
5741428,490.98,755,749,0
5741437,524.97,755,750,0
5741447,559.35,755,749,0
5741457,592.68,755,750,0
5741467,622.13,755,749,0
5741477,646.56,755,750,0
5741487,664.05,755,749,0
5741497,673.76,755,750,0
5741507,675.21,755,749,0
5741517,669.44,755,750,0
5741527,656.80,755,749,0
5741537,639.07,755,750,0
5741547,617.06,755,749,0
5741557,592.57,755,750,0
5741568,566.43,755,749,0
5741577,540.24,755,750,0
5741587,514.46,755,749,0
5741597,490.06,755,750,0
5741607,467.03,755,749,0
5741617,446.28,755,750,0
5741627,427.59,755,749,0
5741637,411.64,755,750,0
5741647,397.95,755,749,0
5741657,387.04,755,750,0
5741667,378.41,755,749,0
5741677,372.50,755,750,0
5741687,368.75,755,749,0
5741697,367.41,755,750,0
5741707,367.72,755,749,0
5741717,369.82,755,750,0
5741727,373.04,755,749,0
5741737,377.53,755,750,0
5741747,382.17,755,749,0
5741757,387.01,755,750,0
5741767,391.16,755,749,0
5741777,394.76,755,750,0
5741787,397.36,755,749,0
5741797,398.92,755,750,0
5741807,399.16,755,749,0
5741817,398.51,755,750,0
5741827,396.64,755,749,0
5741837,394.18,755,750,0
5741847,390.91,755,749,0
5741857,387.29,755,750,0
5741868,383.05,755,749,0
5741878,378.62,755,750,0
5741888,374.02,755,749,0
5741898,369.69,755,750,0
5741908,365.45,755,749,0
5741918,361.67,755,750,0
5741928,358.13,755,749,0
5741938,355.43,755,749,0
5741948,353.33,755,749,0
5741958,352.12,755,750,0
5741968,351.53,755,749,0
5741978,351.62,755,749,0
5741988,352.38,755,749,0
5741998,353.77,755,750,0
5742008,355.55,755,749,0
5742018,357.79,755,749,0
5742028,360.38,755,749,0
5742039,363.44,755,750,0
5742049,366.91,755,749,0
5742059,370.53,755,749,0
5742069,374.45,755,749,0
5742080,378.43,755,750,0
5742089,382.67,755,749,0
5742099,386.84,755,749,0
5742109,391.26,755,749,0
5742119,396.02,755,750,0
5742129,401.80,755,749,0
5742139,409.06,755,749,0
5742149,418.69,755,749,0
5742159,431.38,755,750,0
5742169,447.98,755,749,0
5742179,469.03,755,749,0
5742189,495.03,755,750,0
5742209,525.58,783,748,0
5742212,558.54,783,751,0
5742221,591.85,783,749,0
5742231,623.61,783,750,0
5742241,652.48,783,749,0
5742252,677.15,783,750,0
5742262,696.61,783,749,0
5742272,710.18,783,750,0
5742282,717.33,783,749,0
5742292,718.47,783,750,0
5742302,713.57,783,749,0
5742312,702.94,783,750,0
5742322,686.50,783,749,0
5742332,664.62,783,751,0
5742342,637.82,783,748,0
5742352,608.56,783,750,0
5742362,577.66,783,749,0
5742372,546.78,783,750,0
5742382,516.16,783,749,0
5742392,487.10,783,750,0
5742402,459.38,783,749,0
5742412,433.77,783,750,0
5742423,409.71,783,749,0
5742433,388.07,783,750,0
5742443,367.95,783,749,0
5742453,350.31,783,750,0
5742464,334.19,783,749,0
5742473,320.80,783,750,0
5742483,309.25,783,749,0
5742493,300.52,783,750,0
5742503,293.63,783,749,0
5742513,289.54,783,750,0
5742523,287.02,783,749,0
5742533,286.72,783,750,0
5742543,287.10,783,749,0
5742553,288.87,783,750,0
5742563,290.75,783,749,0
5742573,293.61,783,750,0
5742583,296.60,783,749,0
5742593,300.88,783,750,0
5742603,306.01,783,749,0
5742613,313.21,783,750,0
5742623,321.63,783,749,0
5742633,332.41,783,750,0
5742643,344.33,783,749,0
5742653,357.99,783,750,0
5742663,371.88,783,749,0
5742673,386.14,783,750,0
5742683,399.09,783,749,0
5742693,410.97,783,750,0
5742703,420.03,783,749,0
5742713,426.66,783,749,0
5742723,429.55,783,749,0
5742733,429.43,783,750,0
5742743,425.44,783,749,0
5742753,418.92,783,749,0
5742764,409.35,783,749,0
5742774,398.31,783,749,0
5742784,385.49,783,749,0
5742794,372.44,783,750,0
5742804,358.90,783,750,0
5742814,346.37,783,750,0
5742824,334.30,783,749,0
5742834,324.18,783,750,0
5742844,315.34,783,749,0
5742854,309.15,783,750,0
5742864,304.78,783,749,0
5742874,303.39,783,749,0
5742884,304.30,783,749,0
5742894,308.67,783,750,0
5742904,315.71,783,749,0
5742914,326.68,783,750,0
5742924,340.88,783,750,0
5742935,359.21,783,750,0
5742945,380.71,783,749,0
5742955,405.61,783,749,0
5742965,432.51,783,749,0
5742976,461.46,783,750,0
5742985,490.64,783,749,0
5742995,519.97,783,749,0
5743005,547.92,783,749,0
5743015,574.39,783,750,0
5743025,597.89,783,749,0
5743035,618.49,783,750,0
5743045,634.89,783,750,0
5743055,647.35,783,750,0
5743065,654.87,783,749,0
5743075,658.08,783,749,0
5743085,656.56,783,750,0
5743095,651.55,783,750,0
5743105,643.07,783,749,0
5743115,632.51,783,749,0
5743134,619.80,926,749,0
5743137,605.67,926,752,0
5743147,590.08,926,749,0
5743156,573.56,926,749,0
5743166,555.43,926,749,0
5743176,536.23,926,750,0
5743186,515.68,926,750,0
5743196,494.77,926,749,0
5743206,473.80,926,749,0
5743216,453.84,926,750,0
5743226,435.59,926,749,0
5743236,420.46,926,749,0
5743246,408.79,926,749,0
5743256,401.44,926,749,0
5743266,398.01,926,749,0
5743276,398.73,926,749,0
5743286,402.46,926,749,0
5743296,408.66,926,750,0
5743306,415.96,926,749,0
5743316,423.73,926,749,0
5743326,430.63,926,750,0
5743336,436.44,926,750,0
5743346,440.55,926,750,0
5743356,443.00,926,749,0
5743366,443.47,926,749,0
5743376,442.64,926,750,0
5743386,440.52,926,750,0
5743396,437.79,926,749,0
5743406,434.64,926,750,0
5743416,431.66,926,750,0
5743426,428.85,926,750,0
5743436,426.92,926,749,0
5743447,425.53,926,749,0
5743457,425.07,926,749,0
5743467,425.27,926,749,0
5743477,426.04,926,749,0
5743488,427.02,926,750,0
5743497,428.38,926,750,0
5743507,429.38,926,750,0
5743517,430.00,926,749,0
5743527,429.74,926,750,0
5743537,428.75,926,749,0
5743547,426.81,926,750,0
5743557,423.78,926,749,0
5743567,419.95,926,750,0
5743577,415.76,926,749,0
5743587,411.72,926,750,0
5743597,408.33,926,749,0
5743607,406.13,926,750,0
5743617,405.58,926,750,0
5743627,407.25,926,750,0
5743637,411.24,926,749,0
5743647,417.69,926,750,0
5743657,426.69,926,749,0
5743667,438.44,926,750,0
5743677,453.18,926,749,0
5743687,471.38,926,750,0
5743707,493.38,572,749,0
5743710,519.88,572,752,0
5743719,549.75,572,749,0
5743729,580.94,572,750,0
5743739,611.86,572,749,0
5743749,641.00,572,750,0
5743759,667.01,572,749,0
5743769,688.87,572,750,0
5743779,705.19,572,749,0
5743789,716.66,572,750,0
5743799,724.69,572,749,0
5743809,730.36,572,750,0
5743819,732.56,572,749,0
5743830,730.89,572,750,0
5743839,724.63,572,749,0
5743849,713.85,572,749,0
5743859,698.13,572,749,0
5743869,678.03,572,750,0
5743879,653.38,572,749,0
5743889,626.61,572,749,0
5743899,598.74,572,749,0
5743909,571.65,572,750,0
5743919,545.78,572,749,0
5743929,522.19,572,749,0
5743939,500.53,572,750,0
5743949,481.73,572,750,0
5743959,465.23,572,749,0
5743969,451.87,572,749,0
5743979,441.07,572,749,0
5743989,433.12,572,750,0
5744000,427.81,572,749,0
5744009,425.85,572,749,0
5744019,426.67,572,749,0
5744029,430.80,572,750,0
5744039,437.11,572,749,0
5744049,445.87,572,749,0
5744059,455.72,572,749,0
5744069,466.52,572,750,0
5744079,476.52,572,749,0
5744089,485.62,572,749,0
5744099,492.29,572,749,0
5744109,496.49,572,750,0
5744119,497.11,572,749,0
5744129,495.07,572,749,0
5744139,490.07,572,749,0
5744149,483.28,572,750,0
5744159,474.58,572,749,0
5744169,465.36,572,749,0
5744179,455.83,572,749,0
5744189,447.39,572,750,0
5744199,439.73,572,749,0
5744209,433.81,572,749,0
5744219,429.33,572,749,0
5744229,427.04,572,750,0
5744239,426.09,572,749,0
5744249,427.00,572,749,0
5744259,428.42,572,749,0
5744269,430.73,572,750,0
5744279,432.53,572,749,0
5744289,434.00,572,750,0
5744300,433.78,572,749,0
5744310,432.52,572,750,0
5744320,429.15,572,749,0
5744330,424.48,572,749,0
5744340,417.91,572,749,0
5744350,410.48,572,750,0
5744360,402.02,572,749,0
5744370,393.96,572,749,0
5744380,386.34,572,749,0
5744390,381.18,572,750,0
5744400,378.81,572,749,0
5744410,381.27,572,750,0
5744420,388.82,572,749,0
5744430,403.06,572,750,0
5744440,423.48,572,749,0
5744450,450.64,572,750,0
5744460,482.55,572,749,0
5744471,518.60,572,750,0
5744481,555.53,572,749,0
5744491,591.80,572,750,0
5744510,624.00,804,749,0
5744514,650.53,804,751,0
5744523,669.23,804,749,0
5744533,679.53,804,749,0
5744543,680.19,804,749,0
5744553,672.67,804,750,0
5744563,657.13,804,749,0
5744573,635.83,804,749,0
5744583,609.87,804,749,0
5744593,581.45,804,749,0
5744603,551.83,804,749,0
5744613,523.08,804,749,0
5744623,495.41,804,749,0
5744633,470.39,804,750,0
5744643,447.77,804,749,0
5744653,428.56,804,749,0
5744663,412.02,804,749,0
5744673,398.60,804,749,0
5744684,387.83,804,749,0
5744694,379.95,804,749,0
5744704,374.35,804,749,0
5744714,370.99,804,750,0
5744724,369.24,804,750,0
5744734,369.08,804,749,0
5744744,369.91,804,749,0
5744754,371.70,804,749,0
5744764,374.10,804,749,0
5744774,376.99,804,749,0
5744784,380.08,804,749,0
5744794,383.57,804,750,0
5744804,387.04,804,750,0
5744814,390.67,804,750,0
5744824,393.94,804,749,0
5744834,396.66,804,750,0
5744844,398.48,804,749,0
5744855,399.49,804,749,0
5744865,399.13,804,749,0
5744875,397.55,804,749,0
5744885,394.64,804,750,0
5744896,390.51,804,749,0
5744905,385.38,804,749,0
5744915,379.35,804,749,0
5744925,372.43,804,750,0
5744935,364.85,804,749,0
5744945,356.88,804,749,0
5744955,348.60,804,749,0
5744965,340.41,804,750,0
5744975,332.27,804,749,0
5744985,324.56,804,750,0
5744995,317.32,804,749,0
5745005,310.67,804,750,0
5745015,304.30,804,749,0
5745025,298.38,804,749,0
5745035,292.86,804,749,0
5745045,287.98,804,749,0
5745055,283.83,804,749,0
5745065,280.96,804,749,0
5745075,279.73,804,749,0
5745085,280.97,804,750,0
5745095,285.05,804,749,0
5745105,292.92,804,749,0
5745115,305.03,804,749,0
5745125,322.21,804,750,0
5745135,344.77,804,749,0
5745145,373.08,804,749,0
5745155,406.32,804,749,0
5745165,443.81,804,750,0
5745175,483.81,804,749,0
5745185,524.71,804,749,0
5745196,564.01,804,749,0
5745206,599.45,804,750,0
5745216,628.50,804,749,0
5745226,650.12,804,749,0
5745236,662.90,804,749,0
5745255,666.83,745,748,0
5745258,661.40,745,749,0
5745267,648.59,745,749,0
5745277,629.17,745,749,0
5745287,605.63,745,749,0
5745297,579.13,745,749,0
5745307,551.83,745,749,0
5745317,524.54,745,749,0
5745327,499.56,745,750,0
5745337,476.38,745,749,0
5745347,456.47,745,749,0
5745357,439.06,745,749,0
5745367,424.98,745,750,0
5745377,413.33,745,749,0
5745387,404.57,745,749,0
5745397,397.76,745,749,0
5745408,393.55,745,750,0
5745417,390.94,745,749,0
5745427,390.61,745,749,0
5745437,391.59,745,749,0
5745447,394.50,745,750,0
5745457,398.42,745,749,0
5745467,403.78,745,749,0
5745477,409.46,745,749,0
5745487,415.92,745,750,0
5745497,422.07,745,749,0
5745507,428.09,745,749,0
5745517,432.91,745,749,0
5745527,436.96,745,750,0
5745537,439.33,745,749,0
5745547,440.65,745,749,0
5745557,440.07,745,749,0
5745567,438.38,745,750,0
5745577,435.13,745,749,0
5745587,431.41,745,749,0
5745597,426.70,745,749,0
5745607,422.03,745,750,0
5745617,416.92,745,749,0
5745627,412.36,745,749,0
5745637,407.75,745,749,0
5745647,404.06,745,750,0
5745657,400.52,745,749,0
5745667,398.01,745,750,0
5745677,395.91,745,749,0
5745687,394.65,745,750,0
5745697,393.51,745,749,0
5745708,393.10,745,750,0
5745718,392.51,745,749,0
5745728,392.53,745,750,0
5745738,392.16,745,749,0
5745748,392.02,745,750,0
5745758,391.67,745,749,0
5745768,391.86,745,750,0
5745778,391.81,745,749,0
5745788,392.73,745,749,0
5745798,394.09,745,749,0
5745808,397.54,745,750,0
5745818,402.78,745,749,0
5745828,411.20,745,750,0
5745838,422.28,745,749,0
5745848,437.50,745,750,0
5745858,456.08,745,749,0
5745868,478.30,745,750,0
5745879,502.42,745,749,0
5745889,528.05,745,750,0
5745899,552.94,745,749,0
5745918,576.48,663,748,0
5745922,596.27,663,749,0
5745931,611.70,663,750,0
5745941,621.35,663,749,0
5745951,625.23,663,750,0
5745961,623.02,663,749,0
5745971,615.77,663,750,0
5745981,603.71,663,749,0
5745991,588.33,663,750,0
5746001,570.23,663,749,0
5746011,550.96,663,750,0
5746021,531.30,663,749,0
5746031,512.18,663,750,0
5746041,493.87,663,749,0
5746051,477.24,663,750,0
5746061,462.29,663,749,0
5746071,449.31,663,750,0
5746081,438.11,663,749,0
5746092,428.65,663,750,0
5746102,420.78,663,749,0
5746112,414.42,663,749,0
5746122,409.32,663,749,0
5746132,405.54,663,750,0
5746142,402.81,663,749,0
5746152,400.98,663,750,0
5746162,400.04,663,749,0
5746172,399.82,663,749,0
5746182,400.17,663,749,0
5746192,400.85,663,749,0
5746202,401.71,663,749,0
5746212,402.48,663,750,0
5746222,403.02,663,749,0
5746232,403.10,663,750,0
5746242,402.73,663,749,0
5746252,401.65,663,749,0
5746263,400.04,663,749,0
5746273,397.50,663,749,0
5746283,394.57,663,749,0
5746293,390.97,663,749,0
5746304,387.16,663,749,0
5746313,382.87,663,749,0
5746323,378.67,663,749,0
5746333,374.27,663,749,0
5746343,370.46,663,750,0
5746353,366.72,663,749,0
5746363,363.59,663,749,0
5746373,360.63,663,749,0
5746383,358.38,663,749,0
5746393,356.38,663,749,0
5746403,355.02,663,749,0
5746413,353.60,663,749,0
5746423,352.44,663,749,0
5746433,351.23,663,749,0
5746443,350.18,663,749,0
5746453,348.62,663,749,0
5746463,347.11,663,749,0
5746473,345.23,663,749,0
5746483,343.79,663,749,0
5746493,342.65,663,749,0
5746503,342.63,663,750,0
5746513,343.55,663,749,0
5746523,346.35,663,749,0
5746533,350.91,663,749,0
5746543,357.97,663,749,0
5746553,367.06,663,749,0
5746563,378.57,663,749,0
5746573,391.64,663,749,0
5746583,406.49,663,750,0
5746593,421.90,663,749,0
5746604,437.32,663,749,0
5746614,451.32,663,749,0
5746624,463.57,663,750,0
5746634,472.83,663,749,0
5746644,479.09,663,749,0
5746663,481.55,745,748,0
5746666,480.74,745,751,0
5746675,476.66,745,749,0
5746685,470.08,745,750,0
5746695,460.93,745,749,0
5746705,450.41,745,750,0
5746715,438.33,745,749,0
5746725,425.89,745,749,0
5746735,412.93,745,749,0
5746745,400.31,745,750,0
5746755,387.83,745,749,0
5746765,376.44,745,749,0
5746775,365.59,745,749,0
5746785,356.12,745,750,0
5746795,347.38,745,749,0
5746805,340.07,745,749,0
5746816,333.49,745,749,0
5746825,328.41,745,750,0
5746835,324.13,745,749,0
5746845,321.09,745,750,0
5746855,318.54,745,749,0
5746865,317.00,745,750,0
5746875,315.67,745,749,0
5746885,315.30,745,750,0
5746895,314.82,745,749,0
5746905,314.88,745,750,0
5746915,314.79,745,749,0
5746925,315.32,745,750,0
5746935,315.65,745,749,0
5746945,316.70,745,750,0
5746955,317.43,745,749,0
5746965,318.80,745,750,0
5746975,319.98,745,749,0
5746985,321.70,745,750,0
5746995,323.25,745,749,0
5747005,325.19,745,750,0
5747015,326.59,745,749,0
5747025,328.08,745,750,0
5747035,329.00,745,749,0
5747045,329.86,745,750,0
5747055,329.77,745,749,0
5747065,329.37,745,750,0
5747075,328.06,745,749,0
5747085,326.63,745,750,0
5747095,324.42,745,749,0
5747105,322.20,745,750,0
5747116,319.52,745,749,0
5747126,317.40,745,750,0
5747136,315.09,745,749,0
5747146,313.61,745,750,0
5747156,312.31,745,749,0
5747166,312.05,745,750,0
5747176,312.16,745,749,0
5747186,313.31,745,750,0
5747196,315.02,745,749,0
5747206,318.14,745,750,0
5747216,321.96,745,749,0
5747226,327.28,745,750,0
5747236,333.67,745,749,0
5747246,341.70,745,750,0
5747256,350.79,745,749,0
5747266,361.44,745,750,0
5747286,372.79,622,749,0
5747289,385.28,622,751,0
5747298,397.93,622,749,0
5747308,410.38,622,750,0
5747318,421.79,622,749,0
5747329,432.01,622,750,0
5747339,440.07,622,749,0
5747349,445.96,622,750,0
5747359,449.10,622,749,0
5747369,449.54,622,750,0
5747379,447.58,622,749,0
5747389,443.63,622,750,0
5747399,438.00,622,749,0
5747409,431.19,622,750,0
5747419,423.59,622,749,0
5747429,415.61,622,750,0
5747439,407.63,622,749,0
5747449,399.81,622,750,0
5747459,392.28,622,749,0
5747469,385.25,622,750,0
5747479,378.75,622,749,0
5747489,372.82,622,750,0
5747500,367.52,622,749,0
5747510,362.78,622,750,0
5747520,358.77,622,749,0
5747530,355.41,622,750,0
5747540,352.89,622,749,0
5747550,351.17,622,750,0
5747560,350.22,622,749,0
5747570,349.85,622,749,0
5747580,350.32,622,749,0
5747590,351.21,622,749,0
5747600,352.73,622,749,0
5747610,354.23,622,749,0
5747620,355.96,622,749,0
5747630,357.60,622,750,0
5747640,359.35,622,749,0
5747650,360.74,622,750,0
5747660,361.94,622,749,0
5747671,362.47,622,749,0
5747681,362.84,622,749,0
5747691,362.50,622,749,0
5747701,361.88,622,749,0
5747712,360.59,622,749,0
5747721,359.13,622,749,0
5747731,357.33,622,749,0
5747741,355.69,622,749,0
5747751,353.77,622,749,0
5747761,352.29,622,749,0
5747771,350.92,622,749,0
5747781,350.17,622,749,0
5747791,349.61,622,749,0
5747801,349.60,622,750,0
5747811,349.59,622,749,0
5747821,349.93,622,749,0
5747831,349.86,622,749,0
5747841,349.73,622,749,0
5747851,348.96,622,749,0
5747861,347.98,622,749,0
5747871,346.45,622,749,0
5747881,345.11,622,749,0
5747891,343.71,622,749,0
5747901,343.11,622,749,0
5747911,342.99,622,749,0
5747921,344.28,622,749,0
5747931,346.60,622,749,0
5747941,350.57,622,749,0
5747951,355.54,622,749,0
5747961,362.20,622,750,0
5747971,369.47,622,749,0
5747981,377.73,622,749,0
5747991,385.95,622,749,0
5748001,394.41,622,749,0
5748012,402.00,622,749,0
5748031,409.07,746,748,0
5748034,414.54,746,750,0
5748043,419.26,746,750,0
5748054,422.23,746,749,0
5748063,424.00,746,749,0
5748073,423.83,746,749,0
5748083,422.72,746,750,0
5748093,420.02,746,749,0
5748103,416.71,746,750,0
5748113,412.00,746,749,0
5748123,407.24,746,750,0
5748133,401.68,746,749,0
5748143,396.64,746,750,0
5748153,391.13,746,749,0
5748163,386.25,746,750,0
5748173,381.20,746,749,0
5748183,376.94,746,750,0
5748193,372.55,746,749,0
5748203,369.04,746,750,0
5748213,365.21,746,749,0
5748224,362.28,746,750,0
5748233,359.28,746,749,0
5748243,357.10,746,750,0
5748253,354.80,746,749,0
5748263,353.27,746,749,0
5748273,351.65,746,748,0
5748283,350.98,746,750,0
5748293,350.17,746,749,0
5748303,350.21,746,749,0
5748313,350.14,746,748,0
5748323,350.87,746,750,0
5748333,351.55,746,749,0
5748343,353.06,746,750,0
5748353,354.46,746,748,0
5748363,356.68,746,750,0
5748373,358.62,746,749,0
5748383,361.13,746,749,0
5748393,363.28,746,748,0
5748403,365.77,746,750,0
5748413,367.64,746,749,0
5748423,369.67,746,749,0
5748433,370.93,746,748,0
5748443,372.36,746,750,0
5748453,372.86,746,749,0
5748463,373.37,746,749,0
5748473,373.00,746,748,0
5748483,372.79,746,750,0
5748493,371.78,746,749,0
5748503,370.86,746,750,0
5748513,369.14,746,748,0
5748524,367.82,746,749,0
5748534,366.16,746,749,0
5748544,365.17,746,749,0
5748554,364.17,746,748,0
5748564,364.29,746,749,0
5748574,365.02,746,749,0
5748584,367.41,746,750,0
5748594,370.80,746,748,0
5748604,375.83,746,749,0
5748614,381.84,746,749,0
5748624,389.26,746,750,0
5748634,397.07,746,748,0
5748644,405.83,746,750,0
5748654,414.33,746,749,0
5748664,423.10,746,749,0
5748674,431.04,746,748,0
5748694,438.66,662,748,0
5748697,445.15,662,750,0
5748706,451.02,662,750,0
5748716,455.13,662,748,0
5748726,457.92,662,749,0
5748737,458.80,662,749,0
5748747,458.43,662,749,0
5748757,456.24,662,748,0
5748767,452.83,662,749,0
5748777,448.12,662,749,0
5748787,442.86,662,749,0
5748797,437.37,662,748,0
5748807,431.99,662,749,0
5748817,426.81,662,749,0
5748827,422.32,662,749,0
5748837,418.28,662,749,0
5748847,414.90,662,750,0
5748857,412.10,662,749,0
5748867,409.88,662,749,0
5748877,408.12,662,749,0
5748887,406.71,662,749,0
5748897,405.68,662,749,0
5748908,405.14,662,749,0
5748918,405.05,662,749,0
5748928,405.29,662,749,0
5748938,405.89,662,749,0
5748948,406.57,662,749,0
5748958,407.60,662,749,0
5748968,408.36,662,749,0
5748978,409.02,662,749,0
5748988,409.19,662,749,0
5748998,409.17,662,749,0
5749008,408.69,662,749,0
5749018,408.10,662,749,0
5749028,407.08,662,749,0
5749038,406.29,662,749,0
5749048,405.73,662,749,0
5749058,405.73,662,749,0
5749068,405.98,662,749,0
5749079,406.89,662,749,0
5749089,408.12,662,749,0
5749099,410.01,662,749,0
5749109,411.94,662,749,0
5749120,413.84,662,749,0
5749129,415.26,662,749,0
5749139,416.47,662,749,0
5749149,416.63,662,749,0
5749159,416.44,662,749,0
5749169,415.15,662,749,0
5749179,413.43,662,749,0
5749189,411.03,662,749,0
5749199,408.67,662,749,0
5749209,405.72,662,749,0
5749219,403.19,662,749,0
5749229,400.48,662,749,0
5749239,398.66,662,749,0
5749249,397.35,662,749,0
5749259,397.16,662,749,0
5749269,397.75,662,749,0
5749279,400.23,662,749,0
5749289,404.15,662,749,0
5749299,410.02,662,749,0
5749309,417.00,662,749,0
5749319,425.53,662,749,0
5749329,434.63,662,749,0
5749339,444.51,662,749,0
5749358,453.83,665,748,0
5749361,462.71,665,750,0
5749370,470.34,665,749,0
5749380,476.92,665,750,0
5749390,481.27,665,749,0
5749400,484.15,665,750,0
5749410,484.75,665,748,0
5749420,484.22,665,749,0
5749430,481.93,665,749,0
5749440,478.69,665,749,0
5749450,474.20,665,748,0
5749460,469.68,665,750,0
5749470,464.59,665,749,0
5749480,459.87,665,749,0
5749490,454.68,665,748,0
5749500,450.02,665,750,0
5749510,445.17,665,749,0
5749520,440.92,665,750,0
5749530,436.49,665,748,0
5749540,432.70,665,750,0
5749550,428.89,665,749,0
5749560,425.96,665,750,0
5749570,423.06,665,748,0
5749580,421.03,665,750,0
5749591,419.09,665,749,0
5749601,417.99,665,750,0
5749611,416.92,665,748,0
5749621,416.60,665,750,0
5749632,416.21,665,749,0
5749641,416.62,665,750,0
5749651,416.73,665,748,0
5749661,417.37,665,750,0
5749671,417.64,665,749,0
5749681,418.31,665,750,0
5749691,418.39,665,748,0
5749701,418.61,665,750,0
5749711,418.00,665,749,0
5749721,417.53,665,750,0
5749731,416.47,665,748,0
5749741,415.60,665,750,0
5749751,414.09,665,749,0
5749761,412.95,665,750,0
5749771,411.29,665,748,0
5749781,410.09,665,750,0
5749791,408.52,665,749,0
5749801,407.29,665,750,0
5749811,405.71,665,749,0
5749821,404.89,665,750,0
5749831,403.64,665,749,0
5749841,403.11,665,750,0
5749851,402.00,665,749,0
5749861,401.32,665,750,0
5749871,400.36,665,749,0
5749881,400.00,665,750,0
5749891,399.31,665,748,0
5749901,399.48,665,750,0
5749911,399.50,665,749,0
5749921,400.72,665,750,0
5749932,402.44,665,749,0
5749942,405.52,665,750,0
5749952,409.35,665,749,0
5749962,414.64,665,750,0
5749972,420.88,665,748,0
5749982,428.80,665,750,0
5749992,437.60,665,749,0
5750002,447.79,665,750,0
5750012,458.27,665,749,0
5750031,469.37,673,748,0
5750034,480.28,673,749,0
5750043,491.04,673,750,0
5750053,500.45,673,748,0
5750063,508.76,673,750,0
5750073,515.05,673,749,0
5750083,519.83,673,750,0
5750093,522.50,673,748,0
5750103,523.51,673,750,0
5750113,522.50,673,749,0
5750123,520.38,673,750,0
5750133,517.01,673,748,0
5750144,513.06,673,750,0
5750153,508.50,673,749,0
5750163,503.81,673,750,0
5750173,498.77,673,748,0
5750183,493.82,673,750,0
5750193,488.86,673,750,0
5750203,484.27,673,750,0
5750213,479.69,673,748,0
5750223,475.46,673,750,0
5750233,471.42,673,749,0
5750243,468.04,673,750,0
5750253,464.94,673,748,0
5750263,462.47,673,750,0
5750273,460.27,673,750,0
5750283,458.86,673,751,0
5750293,457.75,673,748,0
5750303,457.22,673,750,0
5750313,456.68,673,748,0
5750323,456.69,673,750,0
5750333,456.70,673,748,0
5750343,456.83,673,750,0
5750353,456.84,673,748,0
5750363,456.76,673,750,0
5750373,456.19,673,748,0
5750383,455.49,673,750,0
5750393,454.31,673,748,0
5750403,452.98,673,750,0
5750413,451.27,673,748,0
5750423,449.35,673,750,0
5750433,447.14,673,748,0
5750444,445.09,673,750,0
5750454,442.79,673,748,0
5750464,440.49,673,750,0
5750474,438.03,673,749,0
5750484,435.67,673,750,0
5750494,433.32,673,748,0
5750504,431.25,673,750,0
5750514,429.25,673,749,0
5750524,427.76,673,750,0
5750534,426.42,673,748,0
5750544,425.26,673,749,0
5750554,424.41,673,748,0
5750564,423.73,673,750,0
5750574,423.38,673,748,0
5750584,423.48,673,749,0
5750594,424.11,673,748,0
5750604,425.75,673,750,0
5750615,428.87,673,749,0
5750625,433.62,673,749,0
5750635,440.63,673,749,0
5750645,450.00,673,749,0
5750656,462.09,673,749,0
5750665,476.25,673,749,0
5750675,492.33,673,749,0
5750685,509.63,673,749,0
5750695,527.74,673,749,0
5750714,545.52,683,747,0
5750717,562.51,683,750,0
5750726,577.48,683,749,0
5750736,590.37,683,749,0
5750746,600.29,683,749,0
5750756,607.31,683,749,0
5750766,610.91,683,749,0
5750776,611.66,683,749,0
5750786,609.24,683,749,0
5750796,604.54,683,749,0
5750806,597.60,683,749,0
5750816,589.54,683,749,0
5750827,580.16,683,749,0
5750836,570.60,683,749,0
5750846,560.43,683,749,0
5750856,550.53,683,749,0
5750866,540.43,683,749,0
5750876,531.09,683,749,0
5750886,521.89,683,749,0
5750896,513.57,683,749,0
5750906,505.51,683,749,0
5750916,498.54,683,749,0
5750926,492.21,683,749,0
5750936,487.22,683,749,0
5750946,482.74,683,749,0
5750956,479.47,683,749,0
5750966,476.85,683,749,0
5750976,475.52,683,749,0
5750986,474.64,683,749,0
5750996,474.66,683,749,0
5751006,474.80,683,749,0
5751016,475.51,683,749,0
5751026,475.87,683,749,0
5751036,476.42,683,749,0
5751046,476.17,683,749,0
5751056,475.77,683,749,0
5751066,474.43,683,749,0
5751076,472.67,683,749,0
5751086,470.07,683,749,0
5751096,467.39,683,749,0
5751106,463.85,683,749,0
5751116,460.25,683,749,0
5751127,456.06,683,749,0
5751137,451.88,683,750,0
5751147,447.12,683,749,0
5751157,442.50,683,750,0
5751168,437.38,683,749,0
5751177,432.72,683,750,0
5751187,427.75,683,749,0
5751197,423.15,683,750,0
5751207,418.43,683,749,0
5751217,414.45,683,750,0
5751227,410.41,683,749,0
5751237,407.33,683,750,0
5751247,404.23,683,749,0
5751257,402.32,683,750,0
5751267,400.72,683,749,0
5751277,400.46,683,749,0
5751287,401.18,683,749,0
5751297,403.78,683,750,0
5751307,407.79,683,749,0
5751317,414.45,683,749,0
5751327,423.06,683,749,0
5751337,434.87,683,750,0
5751347,448.88,683,749,0
5751357,465.55,683,749,0
5751367,483.77,683,749,0
5751377,503.64,683,750,0
5751387,523.42,683,749,0
5751397,542.84,683,749,0
5751407,560.07,683,749,0
5751417,575.26,683,750,0
5751427,587.01,683,749,0
5751437,595.75,683,749,0
5751447,600.15,683,749,0
5751457,601.39,683,750,0
5751468,598.92,683,749,0
5751487,594.06,773,747,0
5751490,586.33,773,749,0
5751499,577.27,773,750,0
5751510,566.30,773,749,0
5751519,554.94,773,749,0
5751529,542.44,773,749,0
5751539,530.05,773,750,0
5751549,517.22,773,749,0
5751559,505.20,773,749,0
5751569,492.97,773,749,0
5751579,481.58,773,750,0
5751589,470.52,773,749,0
5751599,460.72,773,749,0
5751609,451.72,773,749,0
5751619,444.13,773,750,0
5751629,437.28,773,749,0
5751639,432.05,773,750,0
5751649,427.84,773,749,0
5751659,425.27,773,750,0
5751669,423.56,773,749,0
5751680,423.05,773,749,0
5751689,423.03,773,749,0
5751699,423.92,773,750,0
5751709,424.68,773,748,0
5751719,425.76,773,749,0
5751729,426.17,773,748,0
5751739,426.51,773,750,0
5751749,426.06,773,749,0
5751759,425.14,773,749,0
5751769,423.25,773,749,0
5751779,420.99,773,750,0
5751789,417.82,773,749,0
5751799,414.45,773,750,0
5751809,410.46,773,749,0
5751819,406.55,773,750,0
5751829,402.44,773,749,0
5751839,398.67,773,750,0
5751849,394.91,773,748,0
5751859,391.89,773,750,0
5751869,389.01,773,749,0
5751879,386.91,773,750,0
5751889,384.96,773,749,0
5751899,383.82,773,750,0
5751909,382.80,773,749,0
5751919,382.47,773,750,0
5751929,382.20,773,749,0
5751939,382.57,773,750,0
5751949,382.87,773,749,0
5751959,383.77,773,750,0
5751969,384.78,773,748,0
5751980,386.65,773,749,0
5751990,389.24,773,749,0
5752000,393.28,773,750,0
5752010,398.94,773,748,0
5752020,407.14,773,750,0
5752030,417.69,773,749,0
5752040,431.41,773,750,0
5752050,447.96,773,748,0
5752060,467.34,773,750,0
5752070,488.62,773,749,0
5752080,511.32,773,750,0
5752090,533.90,773,748,0
5752110,555.70,622,747,0
5752113,575.08,622,751,0
5752122,591.34,622,750,0
5752132,603.41,622,749,0
5752142,610.83,622,750,0
5752152,613.28,622,749,0
5752162,611.14,622,750,0
5752172,604.63,622,748,0
5752182,594.41,622,750,0
5752193,581.17,622,749,0
5752203,565.56,622,749,0
5752213,548.77,622,749,0
5752223,531.22,622,749,0
5752233,513.88,622,749,0
5752243,496.95,622,749,0
5752253,481.15,622,749,0
5752263,466.28,622,749,0
5752273,453.12,622,749,0
5752283,441.34,622,749,0
5752293,431.34,622,749,0
5752303,422.58,622,749,0
5752313,415.68,622,749,0
5752323,410.07,622,749,0
5752333,406.41,622,749,0
5752343,403.89,622,749,0
5752353,402.89,622,749,0
5752364,402.67,622,749,0
5752374,403.62,622,749,0
5752384,404.81,622,749,0
5752394,406.62,622,750,0
5752404,408.06,622,749,0
5752414,409.59,622,749,0
5752424,410.31,622,749,0
5752434,410.78,622,749,0
5752444,410.16,622,749,0
5752454,409.08,622,749,0
5752464,406.83,622,749,0
5752474,404.27,622,750,0
5752484,400.80,622,749,0
5752494,397.39,622,749,0
5752504,393.33,622,749,0
5752514,389.50,622,749,0
5752524,385.37,622,749,0
5752535,381.87,622,749,0
5752545,378.14,622,749,0
5752555,375.14,622,750,0
5752565,371.93,622,748,0
5752576,369.51,622,749,0
5752585,367.04,622,749,0
5752595,365.53,622,750,0
5752605,363.87,622,748,0
5752615,363.22,622,749,0
5752625,362.47,622,749,0
5752635,362.50,622,750,0
5752645,362.48,622,749,0
5752655,363.24,622,749,0
5752665,363.68,622,749,0
5752675,364.72,622,750,0
5752685,365.40,622,749,0
5752695,366.74,622,749,0
5752705,368.40,622,749,0
5752715,371.41,622,750,0
5752725,375.32,622,749,0
5752735,381.65,622,749,0
5752745,390.24,622,749,0
5752755,402.38,622,750,0
5752765,417.44,622,749,0
5752775,436.16,622,750,0
5752785,457.20,622,749,0
5752795,480.88,622,750,0
5752805,505.00,622,749,0
5752824,529.00,715,747,0
5752827,550.73,715,750,0
5752836,570.05,715,750,0
5752846,584.70,715,749,0
5752856,594.94,715,750,0
5752866,599.50,715,749,0
5752876,599.44,715,750,0
5752886,594.42,715,749,0
5752896,585.85,715,750,0
5752906,573.55,715,749,0
5752916,559.50,715,750,0
5752926,543.75,715,749,0
5752936,527.97,715,750,0
5752946,511.95,715,749,0
5752956,496.96,715,750,0
5752966,482.70,715,749,0
5752976,470.11,715,750,0
5752986,458.42,715,749,0
5752996,448.52,715,750,0
5753006,439.58,715,749,0
5753016,432.46,715,750,0
5753026,426.32,715,749,0
5753036,421.81,715,750,0
5753047,418.14,715,749,0
5753057,416.00,715,750,0
5753067,414.54,715,749,0
5753077,414.25,715,750,0
5753088,414.18,715,749,0
5753097,414.89,715,750,0
5753107,415.53,715,748,0
5753117,416.57,715,750,0
5753127,417.25,715,749,0
5753137,417.99,715,750,0
5753147,418.04,715,748,0
5753157,417.90,715,750,0
5753167,416.90,715,749,0
5753177,415.56,715,750,0
5753187,413.29,715,748,0
5753197,410.85,715,750,0
5753207,407.51,715,749,0
5753217,404.18,715,750,0
5753227,400.31,715,748,0
5753237,396.66,715,750,0
5753247,392.65,715,749,0
5753257,388.90,715,750,0
5753267,384.90,715,748,0
5753277,381.50,715,750,0
5753287,378.18,715,749,0
5753297,375.47,715,750,0
5753307,372.76,715,748,0
5753317,370.73,715,750,0
5753327,368.97,715,749,0
5753337,367.82,715,750,0
5753347,366.89,715,748,0
5753357,366.45,715,750,0
5753367,366.02,715,749,0
5753377,366.14,715,750,0
5753388,366.10,715,748,0
5753398,366.33,715,750,0
5753408,366.23,715,748,0
5753418,366.20,715,750,0
5753428,365.88,715,748,0
5753438,365.96,715,750,0
5753448,366.14,715,748,0
5753458,367.47,715,750,0
5753468,370.12,715,748,0
5753478,375.14,715,750,0
5753488,382.73,715,748,0
5753498,393.69,715,750,0
5753508,408.27,715,748,0
5753518,426.58,715,750,0
5753528,447.83,715,748,0
5753538,471.50,715,750,0
5753548,496.29,715,748,0
5753568,521.15,744,748,0
5753571,544.63,744,750,0
5753580,565.14,744,749,0
5753590,581.56,744,749,0
5753601,592.88,744,749,0
5753611,598.83,744,749,0
5753621,599.05,744,749,0
5753631,594.06,744,749,0
5753641,584.10,744,749,0
5753651,570.66,744,749,0
5753661,554.30,744,749,0
5753671,536.68,744,749,0
5753681,517.96,744,749,0
5753691,499.67,744,749,0
5753701,481.73,744,749,0
5753711,465.10,744,749,0
5753721,449.25,744,749,0
5753731,435.29,744,749,0
5753741,422.73,744,749,0
5753751,412.01,744,749,0
5753761,402.54,744,749,0
5753772,395.05,744,749,0
5753782,389.08,744,749,0
5753792,385.15,744,749,0
5753802,382.41,744,749,0
5753812,381.39,744,750,0
5753822,381.53,744,749,0
5753832,383.21,744,749,0
5753842,385.46,744,749,0
5753852,388.58,744,750,0
5753862,391.58,744,749,0
5753872,394.92,744,749,0
5753882,397.43,744,749,0
5753892,399.79,744,750,0
5753902,401.01,744,749,0
5753912,401.78,744,749,0
5753922,401.33,744,749,0
5753932,400.42,744,750,0
5753943,398.15,744,749,0
5753953,395.62,744,749,0
5753963,392.05,744,749,0
5753973,388.48,744,750,0
5753984,384.18,744,749,0
5753993,380.22,744,749,0
5754003,375.96,744,748,0
5754013,372.41,744,750,0
5754023,368.77,744,749,0
5754033,365.97,744,750,0
5754043,363.07,744,749,0
5754053,361.03,744,750,0
5754063,358.92,744,749,0
5754073,357.62,744,750,0
5754083,356.27,744,749,0
5754093,355.76,744,750,0
5754103,355.11,744,749,0
5754113,355.29,744,750,0
5754123,355.42,744,749,0
5754133,356.32,744,750,0
5754143,357.04,744,749,0
5754153,358.40,744,750,0
5754163,359.44,744,749,0
5754173,361.15,744,750,0
5754183,362.73,744,749,0
5754193,365.26,744,750,0
5754203,368.14,744,749,0
5754213,372.68,744,750,0
5754223,378.65,744,749,0
5754233,387.50,744,750,0
5754243,398.75,744,748,0
5754253,413.65,744,750,0
5754263,431.33,744,749,0
5754273,452.40,744,750,0
5754284,475.34,744,749,0
5754294,499.84,744,750,0
5754313,523.89,745,749,0
5754316,546.98,745,751,0
5754326,567.13,745,749,0
5754335,583.89,745,750,0
5754345,595.49,745,749,0
5754355,602.29,745,750,0
5754365,603.49,745,749,0
5754375,600.04,745,750,0
5754385,591.76,745,749,0
5754395,579.79,745,750,0
5754405,564.42,745,749,0
5754415,547.45,745,750,0
5754425,529.06,745,749,0
5754435,510.57,745,750,0
5754445,492.01,745,749,0
5754455,474.52,745,750,0
5754465,457.95,745,749,0
5754475,443.10,745,750,0
5754485,429.52,745,748,0
5754496,417.97,745,750,0
5754505,408.12,745,749,0
5754515,400.54,745,750,0
5754525,394.76,745,748,0
5754535,391.32,745,750,0
5754545,389.64,745,749,0
5754555,390.09,745,750,0
5754565,391.91,745,748,0
5754575,395.28,745,750,0
5754585,399.35,745,749,0
5754595,404.26,745,750,0
5754605,409.15,745,748,0
5754615,414.21,745,750,0
5754625,418.52,745,749,0
5754635,422.35,745,750,0
5754645,424.99,745,748,0
5754655,426.79,745,750,0
5754665,427.28,745,748,0
5754675,426.85,745,750,0
5754685,425.10,745,748,0
5754695,422.58,745,750,0
5754705,419.02,745,749,0
5754715,415.03,745,750,0
5754725,410.26,745,748,0
5754735,405.43,745,750,0
5754745,400.24,745,749,0
5754755,395.54,745,750,0
5754765,391.01,745,748,0
5754775,387.32,745,750,0
5754785,384.14,745,748,0
5754796,382.04,745,750,0
5754806,380.61,745,748,0
5754816,380.34,745,750,0
5754826,380.71,745,749,0
5754836,381.91,745,750,0
5754846,383.48,745,748,0
5754856,385.57,745,750,0
5754866,387.80,745,748,0
5754876,390.21,745,750,0
5754886,392.55,745,748,0
5754896,394.91,745,750,0
5754906,397.51,745,748,0
5754916,400.70,745,750,0
5754926,404.82,745,748,0
5754936,410.49,745,750,0
5754946,418.27,745,748,0
5754956,428.82,745,750,0
5754967,442.33,745,748,0
5754977,458.69,745,750,0
5754987,477.42,745,749,0
5754997,497.70,745,750,0
5755008,518.45,745,749,0
5755017,538.50,745,750,0
5755036,556.39,723,749,0
5755039,570.72,723,750,0
5755048,581.34,723,749,0
5755058,587.71,723,749,0
5755068,589.77,723,749,0
5755078,587.52,723,749,0
5755088,581.67,723,749,0
5755098,572.98,723,749,0
5755108,562.62,723,750,0
5755118,550.26,723,749,0
5755128,537.02,723,749,0
5755138,523.35,723,749,0
5755148,510.08,723,749,0
5755158,496.90,723,749,0
5755168,484.16,723,749,0
5755179,471.51,723,749,0
5755188,459.92,723,750,0
5755198,448.58,723,749,0
5755208,438.04,723,749,0
5755218,427.87,723,749,0
5755228,418.82,723,749,0
5755238,410.65,723,749,0
5755248,404.02,723,749,0
5755258,398.40,723,749,0
5755268,394.60,723,749,0
5755278,392.10,723,749,0
5755288,391.52,723,749,0
5755298,392.17,723,749,0
5755308,394.39,723,749,0
5755318,397.58,723,749,0
5755328,401.95,723,749,0
5755338,406.76,723,749,0
5755348,412.45,723,749,0
5755358,417.97,723,749,0
5755368,423.64,723,749,0
5755378,428.55,723,749,0
5755388,432.97,723,750,0
5755398,435.98,723,749,0
5755408,437.91,723,749,0
5755418,437.90,723,749,0
5755428,436.47,723,749,0
5755438,433.11,723,749,0
5755448,428.49,723,749,0
5755458,422.13,723,749,0
5755468,414.98,723,749,0
5755479,406.67,723,749,0
5755489,398.15,723,750,0
5755499,389.02,723,749,0
5755509,380.19,723,750,0
5755520,371.26,723,749,0
5755529,363.38,723,750,0
5755539,355.94,723,749,0
5755549,350.04,723,750,0
5755559,344.84,723,749,0
5755569,341.59,723,750,0
5755579,339.31,723,749,0
5755589,339.05,723,750,0
5755599,339.72,723,749,0
5755609,342.25,723,749,0
5755619,345.86,723,749,0
5755629,351.86,723,750,0
5755639,359.57,723,749,0
5755649,370.29,723,749,0
5755659,383.53,723,749,0
5755669,400.73,723,750,0
5755679,421.25,723,749,0
5755689,445.65,723,750,0
5755699,472.37,723,749,0
5755709,501.06,723,750,0
5755719,529.63,723,749,0
5755729,557.21,723,750,0
5755739,581.23,723,749,0
5755749,601.05,723,750,0
5755759,614.58,723,749,0
5755769,622.20,723,750,0
5755779,622.70,723,749,0
5755789,617.18,723,750,0
5755799,605.47,723,749,0
5755809,589.43,723,750,0
5755820,569.50,723,748,0
5755839,547.83,803,748,0
5755842,524.61,803,750,0
5755851,502.06,803,750,0
5755862,480.10,803,748,0
5755871,460.44,803,750,0
5755881,442.39,803,749,0
5755891,426.93,803,750,0
5755901,413.50,803,748,0
5755911,402.85,803,750,0
5755921,394.15,803,749,0
5755931,388.10,803,750,0
5755941,383.70,803,748,0
5755951,381.73,803,750,0
5755961,381.17,803,749,0
5755971,382.49,803,750,0
5755981,384.83,803,749,0
5755991,388.57,803,750,0
5756001,392.73,803,749,0
5756011,397.61,803,750,0
5756021,402.31,803,749,0
5756032,407.32,803,750,0
5756041,411.51,803,749,0
5756051,415.30,803,750,0
5756061,417.78,803,749,0
5756071,419.56,803,750,0
5756081,419.91,803,749,0
5756091,419.46,803,750,0
5756101,417.61,803,749,0
5756111,415.16,803,750,0
5756121,411.72,803,749,0
5756131,408.03,803,750,0
5756141,403.61,803,749,0
5756151,399.40,803,750,0
5756161,394.86,803,749,0
5756171,391.01,803,750,0
5756181,387.15,803,749,0
5756191,383.93,803,750,0
5756201,380.82,803,749,0
5756211,378.69,803,750,0
5756221,376.73,803,749,0
5756231,375.69,803,750,0
5756241,374.71,803,749,0
5756251,374.67,803,750,0
5756261,374.47,803,749,0
5756271,374.89,803,749,0
5756281,375.13,803,749,0
5756291,375.87,803,750,0
5756301,376.55,803,749,0
5756311,377.80,803,750,0
5756321,379.23,803,749,0
5756332,382.12,803,750,0
5756342,386.24,803,749,0
5756352,392.90,803,750,0
5756362,402.18,803,749,0
5756372,415.24,803,750,0
5756382,432.06,803,749,0
5756392,453.04,803,749,0
5756402,477.33,803,749,0
5756412,504.70,803,750,0
5756422,533.25,803,749,0
5756441,562.06,602,747,0
5756444,588.87,602,750,0
5756453,612.57,602,750,0
5756463,631.34,602,749,0
5756473,644.61,602,750,0
5756483,651.15,602,748,0
5756493,651.32,602,750,0
5756503,645.14,602,749,0
5756513,633.57,602,750,0
5756523,617.16,602,748,0
5756533,597.35,602,750,0
5756544,575.09,602,748,0
5756553,552.09,602,750,0
5756563,529.18,602,748,0
5756573,507.01,602,750,0
5756583,486.09,602,749,0
5756593,466.95,602,750,0
5756603,449.74,602,748,0
5756613,434.82,602,750,0
5756623,421.97,602,749,0
5756633,411.35,602,750,0
5756643,402.97,602,748,0
5756653,396.98,602,750,0
5756663,393.30,602,748,0
5756673,391.84,602,750,0
5756683,392.27,602,748,0
5756693,394.46,602,750,0
5756703,397.92,602,748,0
5756713,402.40,602,750,0
5756723,407.38,602,748,0
5756733,412.58,602,750,0
5756743,417.42,602,749,0
5756753,421.58,602,750,0
5756763,424.71,602,748,0
5756773,426.64,602,750,0
5756783,427.05,602,748,0
5756793,426.09,602,750,0
5756803,423.71,602,748,0
5756813,420.32,602,750,0
5756823,415.94,602,748,0
5756833,410.86,602,750,0
5756844,405.33,602,748,0
5756854,399.83,602,750,0
5756864,394.44,602,749,0
5756874,389.25,602,749,0
5756884,384.59,602,749,0
5756894,380.60,602,750,0
5756904,377.38,602,749,0
5756914,374.91,602,750,0
5756924,373.26,602,749,0
5756934,372.28,602,750,0
5756944,372.16,602,749,0
5756954,372.37,602,750,0
5756964,373.11,602,749,0
5756974,374.02,602,750,0
5756984,375.30,602,749,0
5756994,376.71,602,749,0
5757004,378.90,602,749,0
5757015,382.01,602,749,0
5757025,386.98,602,749,0
5757035,394.23,602,749,0
5757045,405.00,602,749,0
5757056,419.62,602,749,0
5757065,438.89,602,749,0
5757075,462.45,602,749,0
5757085,490.26,602,750,0
5757095,521.00,602,749,0
5757105,553.61,602,749,0
5757124,585.91,683,748,0
5757127,616.41,683,751,0
5757136,642.94,683,749,0
5757146,664.35,683,749,0
5757156,678.86,683,749,0
5757166,686.31,683,750,0
5757176,686.01,683,749,0
5757186,679.02,683,750,0
5757196,665.51,683,749,0
5757206,647.19,683,749,0
5757216,624.63,683,749,0
5757227,599.93,683,750,0
5757236,573.94,683,749,0
5757246,548.54,683,749,0
5757256,523.61,683,749,0
5757266,500.62,683,750,0
5757276,479.27,683,749,0
5757286,460.54,683,749,0
5757296,443.88,683,749,0
5757306,429.86,683,750,0
5757316,417.82,683,749,0
5757326,408.53,683,749,0
5757336,401.21,683,749,0
5757346,396.39,683,750,0
5757356,393.36,683,749,0
5757366,392.57,683,749,0
5757376,392.95,683,749,0
5757386,394.98,683,750,0
5757396,397.52,683,749,0
5757406,401.00,683,749,0
5757416,404.43,683,749,0
5757426,408.16,683,750,0
5757436,411.11,683,749,0
5757446,413.99,683,749,0
5757456,415.58,683,749,0
5757466,416.43,683,750,0
5757476,415.75,683,749,0
5757486,414.32,683,749,0
5757496,411.53,683,749,0
5757506,408.24,683,750,0
5757516,403.88,683,749,0
5757527,399.42,683,749,0
5757537,394.66,683,749,0
5757547,390.39,683,750,0
5757557,385.95,683,749,0
5757568,382.15,683,749,0
5757577,378.59,683,749,0
5757587,375.88,683,750,0
5757597,373.26,683,749,0
5757607,371.38,683,750,0
5757617,369.64,683,749,0
5757627,368.80,683,750,0
5757637,368.05,683,749,0
5757647,367.95,683,750,0
5757657,367.66,683,749,0
5757667,368.11,683,750,0
5757677,368.33,683,749,0
5757687,369.13,683,750,0
5757697,369.78,683,749,0
5757707,371.39,683,750,0
5757717,373.59,683,749,0
5757727,377.95,683,750,0
5757737,384.57,683,749,0
5757747,395.07,683,750,0
5757757,409.53,683,749,0
5757767,429.52,683,750,0
5757777,454.22,683,749,0
5757787,483.94,683,750,0
5757797,516.91,683,749,0
5757816,552.21,692,748,0
5757819,587.16,692,750,0
5757828,620.20,692,750,0
5757838,648.94,692,749,0
5757848,672.36,692,750,0
5757858,688.32,692,749,0
5757868,696.88,692,750,0
5757878,697.00,692,749,0
5757888,689.89,692,750,0
5757898,675.69,692,749,0
5757908,655.77,692,750,0
5757918,631.11,692,749,0
5757928,603.99,692,750,0
5757938,575.07,692,748,0
5757948,546.42,692,750,0
5757958,518.39,692,749,0
5757968,492.60,692,750,0
5757978,468.68,692,749,0
5757988,447.39,692,750,0
5757998,428.29,692,749,0
5758008,411.96,692,750,0
5758018,397.66,692,748,0
5758028,386.10,692,750,0
5758039,376.51,692,749,0
5758049,369.76,692,750,0
5758059,365.25,692,748,0
5758069,363.63,692,750,0
5758080,363.91,692,749,0
5758089,366.85,692,750,0
5758099,371.10,692,748,0
5758109,376.85,692,750,0
5758119,383.03,692,749,0
5758129,389.70,692,750,0
5758139,395.41,692,748,0
5758149,400.47,692,750,0
5758159,403.80,692,749,0
5758169,406.05,692,750,0
5758179,406.55,692,748,0
5758189,405.74,692,750,0
5758199,403.20,692,749,0
5758209,399.84,692,750,0
5758219,395.35,692,748,0
5758229,390.53,692,750,0
5758239,385.06,692,749,0
5758249,379.72,692,750,0
5758259,374.32,692,748,0
5758269,369.64,692,750,0
5758279,365.25,692,749,0
5758289,361.87,692,750,0
5758299,359.00,692,748,0
5758309,357.28,692,750,0
5758319,356.26,692,749,0
5758329,356.22,692,750,0
5758339,356.50,692,748,0
5758349,357.59,692,750,0
5758359,358.83,692,749,0
5758369,360.59,692,750,0
5758380,362.30,692,748,0
5758390,364.14,692,750,0
5758400,365.98,692,748,0
5758410,368.13,692,750,0
5758420,370.83,692,748,0
5758430,374.87,692,750,0
5758440,380.74,692,748,0
5758450,389.69,692,750,0
5758460,402.60,692,748,0
5758470,420.42,692,750,0
5758480,443.48,692,748,0
5758490,471.88,692,750,0
5758500,504.66,692,748,0
5758510,540.46,692,750,0
5758529,576.66,713,749,0
5758532,611.22,713,749,0
5758541,642.31,713,749,0
5758551,668.53,713,750,0
5758561,687.49,713,749,0
5758571,698.23,713,750,0
5758581,700.39,713,749,0
5758592,694.57,713,750,0
5758601,681.71,713,749,0
5758611,662.17,713,750,0
5758621,636.96,713,748,0
5758631,608.13,713,750,0
5758641,577.66,713,749,0
5758651,546.99,713,750,0
5758661,517.51,713,748,0
5758671,489.67,713,750,0
5758681,464.57,713,749,0
5758691,442.24,713,750,0
5758701,422.88,713,749,0
5758711,406.20,713,750,0
5758721,392.17,713,749,0
5758731,380.76,713,750,0
5758741,372.05,713,749,0
5758751,365.73,713,750,0
5758761,361.96,713,749,0
5758771,360.51,713,750,0
5758781,361.26,713,749,0
5758791,363.80,713,750,0
5758801,367.89,713,749,0
5758811,372.98,713,750,0
5758821,378.60,713,749,0
5758831,384.33,713,749,0
5758841,389.76,713,749,0
5758851,394.46,713,750,0
5758861,398.14,713,749,0
5758871,400.41,713,750,0
5758881,401.32,713,749,0
5758892,400.75,713,749,0
5758902,398.85,713,749,0
5758912,395.64,713,749,0
5758922,391.46,713,749,0
5758932,386.52,713,749,0
5758942,381.27,713,749,0
5758952,375.79,713,749,0
5758962,370.54,713,749,0
5758972,365.32,713,749,0
5758982,360.81,713,749,0
5758992,356.71,713,749,0
5759002,353.58,713,750,0
5759012,350.96,713,749,0
5759022,349.35,713,749,0
5759032,348.30,713,749,0
5759042,348.34,713,749,0
5759052,348.79,713,749,0
5759063,350.23,713,749,0
5759073,351.83,713,749,0
5759083,354.20,713,749,0
5759093,356.49,713,749,0
5759104,359.26,713,749,0
5759113,361.67,713,749,0
5759123,364.30,713,750,0
5759133,366.31,713,749,0
5759143,368.32,713,750,0
5759153,369.55,713,749,0
5759163,370.76,713,750,0
5759173,371.34,713,749,0
5759183,372.44,713,750,0
5759193,373.85,713,749,0
5759203,377.20,713,749,0
5759213,382.79,713,749,0
5759223,392.63,713,750,0
5759233,406.71,713,749,0
5759243,426.73,713,750,0
5759253,452.35,713,749,0
5759263,483.92,713,750,0
5759283,519.43,753,748,0
5759286,556.80,753,750,0
5759295,593.07,753,749,0
5759305,627.04,753,750,0
5759315,656.60,753,749,0
5759325,680.20,753,750,0
5759335,695.27,753,749,0
5759345,701.75,753,750,0
5759355,699.64,753,748,0
5759365,690.27,753,750,0
5759375,673.65,753,749,0
5759385,650.78,753,750,0
5759395,622.65,753,748,0
5759405,592.28,753,750,0
5759415,560.61,753,749,0
5759425,529.91,753,750,0
5759435,500.28,753,749,0
5759446,473.41,753,750,0
5759455,448.95,753,749,0
5759465,427.96,753,750,0
5759475,409.33,753,748,0
5759485,393.85,753,750,0
5759495,380.73,753,749,0
5759505,370.66,753,750,0
5759515,362.75,753,749,0
5759525,357.72,753,750,0
5759535,354.59,753,749,0
5759545,354.20,753,750,0
5759555,355.51,753,749,0
5759565,359.04,753,750,0
5759575,363.36,753,749,0
5759585,368.91,753,750,0
5759595,374.55,753,749,0
5759605,380.64,753,750,0
5759616,385.98,753,749,0
5759625,390.87,753,750,0
5759635,394.38,753,749,0
5759645,397.27,753,750,0
5759655,398.47,753,749,0
5759665,398.76,753,750,0
5759675,397.37,753,749,0
5759685,395.20,753,750,0
5759695,391.71,753,749,0
5759705,387.94,753,750,0
5759715,383.16,753,749,0
5759725,378.57,753,750,0
5759735,373.60,753,749,0
5759745,369.48,753,750,0
5759755,365.39,753,749,0
5759765,362.19,753,750,0
5759775,358.96,753,749,0
5759785,356.96,753,750,0
5759795,355.43,753,749,0
5759805,354.96,753,750,0
5759815,354.58,753,749,0
5759825,355.09,753,750,0
5759835,355.88,753,749,0
5759845,357.63,753,749,0
5759855,359.16,753,749,0
5759865,361.17,753,750,0
5759875,362.79,753,749,0
5759885,364.91,753,750,0
5759895,366.52,753,749,0
5759905,368.34,753,750,0
5759916,369.48,753,749,0
5759926,370.88,753,749,0
5759936,371.69,753,748,0
5759946,372.81,753,750,0
5759956,373.29,753,749,0
5759966,374.15,753,749,0
5759976,374.40,753,749,0
5759986,374.80,753,750,0
5759996,374.73,753,749,0
5760006,374.77,753,749,0
5760016,374.41,753,749,0
5760026,374.50,753,750,0
5760036,374.91,753,749,0
5760046,376.78,753,749,0
5760056,380.32,753,749,0
5760066,387.12,753,750,0
5760076,397.71,753,749,0
5760096,413.61,814,748,0
5760099,435.54,814,749,0
5760108,463.45,814,750,0
5760118,496.40,814,749,0
5760129,532.97,814,750,0
5760139,570.22,814,749,0
5760149,606.28,814,750,0
5760159,639.03,814,749,0
5760169,665.80,814,749,0
5760179,685.15,814,749,0
5760189,695.86,814,750,0
5760199,697.75,814,749,0
5760209,691.52,814,749,0
5760219,678.08,814,749,0
5760229,657.87,814,750,0
5760239,632.45,814,749,0
5760249,603.43,814,749,0
5760259,572.83,814,748,0
5760269,542.20,814,750,0
5760279,512.91,814,749,0
5760289,485.46,814,749,0
5760300,460.77,814,749,0
5760310,438.85,814,749,0
5760320,420.04,814,749,0
5760330,403.83,814,749,0
5760340,390.46,814,749,0
5760350,379.61,814,749,0
5760360,371.37,814,749,0
5760370,365.22,814,749,0
5760380,361.68,814,749,0
5760390,360.02,814,749,0
5760400,360.70,814,749,0
5760410,362.72,814,749,0
5760420,366.23,814,749,0
5760430,370.58,814,750,0
5760440,375.76,814,749,0
5760450,380.85,814,749,0
5760460,386.08,814,749,0
5760471,390.47,814,749,0
5760481,394.31,814,749,0
5760491,396.83,814,749,0
5760501,398.51,814,750,0
5760512,398.74,814,749,0
5760521,398.05,814,749,0
5760531,395.98,814,749,0
5760541,393.20,814,750,0
5760551,389.45,814,749,0
5760561,385.46,814,750,0
5760571,380.74,814,749,0
5760581,376.36,814,750,0
5760591,371.67,814,749,0
5760601,367.61,814,750,0
5760611,363.70,814,749,0
5760621,360.66,814,750,0
5760631,357.98,814,749,0
5760641,356.35,814,750,0
5760651,355.01,814,749,0
5760661,354.62,814,750,0
5760671,354.43,814,749,0
5760681,354.95,814,750,0
5760691,355.48,814,749,0
5760701,356.66,814,749,0
5760711,357.71,814,749,0
5760721,359.21,814,750,0
5760731,360.60,814,749,0
5760741,362.31,814,749,0
5760751,363.72,814,749,0
5760761,365.47,814,750,0
5760771,366.74,814,749,0
5760781,368.41,814,750,0
5760791,369.49,814,749,0
5760801,370.63,814,750,0
5760812,370.99,814,749,0
5760822,371.42,814,750,0
5760832,371.00,814,749,0
5760842,370.70,814,750,0
5760852,369.67,814,749,0
5760862,369.39,814,750,0
5760872,369.31,814,749,0
5760882,371.15,814,750,0
5760892,374.96,814,749,0
5760902,382.60,814,750,0
5760912,394.16,814,749,0
5760922,411.34,814,750,0
5760942,433.65,845,749,0
5760945,462.13,845,751,0
5760954,495.00,845,749,0
5760964,531.17,845,750,0
5760974,567.72,845,749,0
5760984,603.03,845,750,0
5760994,633.97,845,749,0
5761004,658.88,845,750,0
5761014,675.29,845,749,0
5761025,682.91,845,750,0
5761035,681.27,845,749,0
5761045,671.54,845,750,0
5761055,654.20,845,749,0
5761065,631.34,845,750,0
5761075,604.41,845,749,0
5761085,575.61,845,750,0
5761095,545.99,845,749,0
5761105,517.19,845,750,0
5761115,489.88,845,749,0
5761125,465.14,845,750,0
5761135,442.77,845,749,0
5761145,423.34,845,750,0
5761155,406.31,845,749,0
5761165,392.24,845,750,0
5761175,380.56,845,749,0
5761185,371.60,845,749,0
5761196,364.91,845,749,0
5761206,360.86,845,750,0
5761216,358.85,845,748,0
5761226,359.11,845,750,0
5761236,361.05,845,749,0
5761246,364.93,845,750,0
5761256,369.80,845,749,0
5761266,375.60,845,750,0
5761276,381.72,845,749,0
5761286,387.93,845,750,0
5761296,393.65,845,749,0
5761306,398.64,845,750,0
5761316,402.31,845,749,0
5761326,404.91,845,750,0
5761336,406.01,845,748,0
5761346,405.71,845,750,0
5761356,403.82,845,748,0
5761367,400.66,845,750,0
5761377,396.44,845,748,0
5761387,391.50,845,750,0
5761397,386.08,845,749,0
5761408,380.61,845,750,0
5761417,375.24,845,749,0
5761427,370.37,845,750,0
5761437,366.10,845,749,0
5761447,362.39,845,750,0
5761457,359.31,845,748,0
5761467,356.82,845,750,0
5761477,354.99,845,749,0
5761487,353.75,845,750,0
5761497,353.14,845,749,0
5761507,352.97,845,750,0
5761517,353.41,845,749,0
5761527,354.23,845,750,0
5761537,355.49,845,749,0
5761547,356.97,845,750,0
5761557,358.69,845,749,0
5761567,360.46,845,750,0
5761577,362.42,845,749,0
5761587,364.27,845,750,0
5761597,366.07,845,749,0
5761607,367.64,845,750,0
5761617,369.03,845,749,0
5761627,370.09,845,750,0
5761637,370.97,845,749,0
5761647,371.49,845,750,0
5761657,371.99,845,749,0
5761667,372.33,845,750,0
5761677,372.58,845,749,0
5761687,372.62,845,750,0
5761697,372.73,845,749,0
5761708,372.56,845,749,0
5761718,372.35,845,749,0
5761728,371.81,845,749,0
5761738,371.53,845,749,0
5761748,371.63,845,749,0
5761758,373.37,845,749,0
5761768,376.73,845,749,0
5761778,383.24,845,749,0
5761788,393.54,845,749,0
5761807,408.85,866,748,0
5761810,429.98,866,750,0
5761819,457.46,866,750,0
5761829,489.55,866,749,0
5761839,525.68,866,750,0
5761849,562.94,866,750,0
5761859,599.30,866,750,0
5761869,632.77,866,749,0
5761879,661.51,866,750,0
5761889,683.08,866,750,0
5761899,696.90,866,750,0
5761909,701.99,866,749,0
5761920,699.42,866,750,0
5761929,689.52,866,750,0
5761939,673.08,866,750,0
5761949,650.34,866,749,0
5761959,623.84,866,750,0
5761969,594.74,866,750,0
5761979,565.51,866,750,0
5761989,536.60,866,749,0
5761999,509.72,866,750,0
5762009,484.99,866,750,0
5762019,463.43,866,750,0
5762029,444.32,866,749,0
5762039,428.37,866,750,0
5762049,414.54,866,749,0
5762059,403.49,866,750,0
5762069,394.35,866,749,0
5762079,387.73,866,750,0
5762089,382.71,866,749,0
5762099,379.97,866,750,0
5762109,378.48,866,749,0
5762119,378.89,866,749,0
5762129,380.21,866,749,0
5762139,382.93,866,750,0
5762149,386.17,866,749,0
5762159,390.40,866,749,0
5762169,394.44,866,749,0
5762179,398.81,866,750,0
5762189,402.29,866,749,0
5762199,405.51,866,749,0
5762209,407.45,866,749,0
5762220,408.56,866,750,0
5762230,408.09,866,749,0
5762240,406.78,866,750,0
5762250,404.02,866,749,0
5762260,400.71,866,750,0
5762270,396.34,866,749,0
5762280,391.91,866,750,0
5762290,386.92,866,749,0
5762300,382.32,866,750,0
5762310,377.81,866,749,0
5762320,374.18,866,749,0
5762330,370.65,866,749,0
5762340,368.19,866,750,0
5762350,365.90,866,749,0
5762360,364.65,866,749,0
5762370,363.64,866,749,0
5762380,363.49,866,750,0
5762391,363.39,866,749,0
5762401,364.21,866,750,0
5762411,364.96,866,749,0
5762421,366.39,866,750,0
5762432,367.51,866,749,0
5762441,369.12,866,750,0
5762451,370.24,866,749,0
5762461,371.71,866,750,0
5762471,372.61,866,749,0
5762481,373.76,866,750,0
5762491,374.30,866,749,0
5762501,375.20,866,750,0
5762511,375.61,866,749,0
5762521,376.33,866,750,0
5762531,376.53,866,749,0
5762541,377.10,866,750,0
5762551,377.11,866,749,0
5762561,377.46,866,750,0
5762571,377.24,866,749,0
5762581,377.21,866,750,0
5762591,376.63,866,749,0
5762601,376.44,866,750,0
5762611,375.54,866,749,0
5762621,374.99,866,750,0
5762631,374.22,866,749,0
5762641,374.41,866,750,0
5762651,375.45,866,749,0
5762661,378.87,866,750,0
5762671,384.87,866,749,0
5762681,395.49,866,750,0
5762700,410.69,893,749,0
5762703,432.38,893,751,0
5762712,459.82,893,749,0
5762722,492.83,893,750,0
5762732,529.23,893,749,0
5762742,566.74,893,750,0
5762752,602.78,893,749,0
5762762,636.06,893,750,0
5762772,664.24,893,749,0
5762782,686.15,893,750,0
5762792,699.61,893,749,0
5762802,704.78,893,750,0
5762812,701.89,893,749,0
5762822,692.24,893,750,0
5762832,675.88,893,749,0
5762842,653.42,893,750,0
5762852,626.08,893,749,0
5762862,596.74,893,750,0
5762872,566.39,893,749,0
5762882,537.09,893,750,0
5762892,508.90,893,749,0
5762903,483.43,893,750,0
5762913,460.89,893,749,0
5762923,441.64,893,750,0
5762933,425.25,893,749,0
5762944,411.84,893,750,0
5762953,400.92,893,749,0
5762963,392.76,893,750,0
5762973,386.62,893,749,0
5762983,382.79,893,750,0
5762993,380.71,893,749,0
5763003,380.50,893,750,0
5763013,381.76,893,749,0
5763023,384.66,893,750,0
5763033,388.41,893,749,0
5763043,393.17,893,750,0
5763053,398.00,893,748,0
5763063,403.10,893,750,0
5763073,407.49,893,749,0
5763083,411.41,893,750,0
5763093,414.07,893,749,0
5763103,415.81,893,750,0
5763113,416.04,893,749,0
5763123,415.26,893,750,0
5763133,413.16,893,748,0
5763143,410.29,893,750,0
5763153,406.39,893,749,0
5763163,402.11,893,750,0
5763173,397.28,893,748,0
5763183,392.52,893,750,0
5763193,387.61,893,748,0
5763203,383.10,893,750,0
5763213,378.83,893,748,0
5763223,375.32,893,750,0
5763233,372.22,893,748,0
5763244,370.01,893,750,0
5763254,368.25,893,748,0
5763264,367.36,893,750,0
5763274,366.87,893,749,0
5763284,367.08,893,750,0
5763294,367.44,893,748,0
5763304,368.25,893,750,0
5763314,369.16,893,749,0
5763324,370.27,893,750,0
5763334,371.43,893,748,0
5763344,372.63,893,750,0
5763354,373.68,893,749,0
5763364,374.76,893,750,0
5763374,375.61,893,748,0
5763384,376.37,893,750,0
5763394,376.90,893,749,0
5763404,377.06,893,750,0
5763415,376.96,893,748,0
5763425,376.58,893,750,0
5763435,375.98,893,749,0
5763445,375.17,893,750,0
5763456,374.05,893,749,0
5763465,372.71,893,750,0
5763475,371.17,893,749,0
5763485,369.53,893,750,0
5763495,368.09,893,749,0
5763505,366.95,893,750,0
5763515,366.79,893,749,0
5763525,368.14,893,750,0
5763535,372.13,893,749,0
5763545,379.55,893,750,0
5763555,391.47,893,749,0
5763574,408.56,874,748,0
5763577,432.09,874,750,0
5763586,461.12,874,750,0
5763596,494.94,874,750,0
5763606,531.56,874,749,0
5763616,568.93,874,750,0
5763627,604.78,874,750,0
5763636,637.12,874,750,0
5763646,662.67,874,750,0
5763656,680.47,874,750,0
5763666,689.28,874,750,0
5763676,689.54,874,750,0
5763686,681.49,874,750,0
5763696,666.00,874,749,0
5763706,643.80,874,749,0
5763716,617.29,874,750,0
5763726,588.02,874,749,0
5763736,557.97,874,750,0
5763746,527.81,874,749,0
5763756,499.32,874,750,0
5763766,472.95,874,749,0
5763776,449.70,874,750,0
5763786,429.13,874,749,0
5763796,411.73,874,750,0
5763806,397.11,874,750,0
5763816,385.77,874,750,0
5763826,376.96,874,749,0
5763836,371.28,874,750,0
5763846,368.19,874,750,0
5763856,367.88,874,750,0
5763866,369.67,874,749,0
5763876,373.88,874,750,0
5763886,379.62,874,749,0
5763896,387.02,874,750,0
5763906,395.03,874,749,0
5763916,403.51,874,750,0
5763927,411.62,874,749,0
5763937,419.24,874,750,0
5763947,425.17,874,749,0
5763957,429.57,874,750,0
5763968,431.50,874,749,0
5763977,431.44,874,750,0
5763987,428.82,874,749,0
5763997,424.50,874,750,0
5764007,418.14,874,749,0
5764017,410.85,874,750,0
5764027,402.33,874,749,0
5764037,393.83,874,750,0
5764047,384.92,874,749,0
5764057,376.80,874,750,0
5764067,368.89,874,749,0
5764077,362.11,874,750,0
5764087,355.78,874,749,0
5764097,350.87,874,750,0
5764107,346.62,874,749,0
5764117,343.82,874,750,0
5764127,341.60,874,749,0
5764137,340.61,874,750,0
5764147,340.04,874,749,0
5764157,340.59,874,750,0
5764167,341.35,874,749,0
5764177,342.96,874,750,0
5764187,344.56,874,749,0
5764197,346.79,874,750,0
5764207,348.70,874,749,0
5764217,351.06,874,750,0
5764227,352.93,874,749,0
5764237,355.01,874,750,0
5764247,356.55,874,749,0
5764257,358.14,874,750,0
5764268,359.00,874,749,0
5764278,360.03,874,750,0
5764288,360.36,874,749,0
5764298,360.90,874,750,0
5764308,360.76,874,748,0
5764318,360.70,874,750,0
5764328,360.10,874,749,0
5764338,359.82,874,750,0
5764348,359.31,874,748,0
5764358,359.73,874,750,0
5764368,361.01,874,749,0
5764378,364.91,874,750,0
5764388,371.58,874,748,0
5764398,382.81,874,750,0
5764408,398.72,874,749,0
5764427,420.96,853,748,0
5764430,449.52,853,750,0
5764439,484.25,853,750,0
5764449,522.23,853,749,0
5764459,561.29,853,750,0
5764469,598.83,853,749,0
5764480,633.47,853,750,0
5764489,663.11,853,749,0
5764499,686.69,853,750,0
5764509,701.70,853,749,0
5764519,708.60,853,750,0
5764529,707.69,853,749,0
5764539,699.60,853,750,0
5764549,684.29,853,749,0
5764559,662.60,853,750,0
5764569,634.91,853,749,0
5764579,604.25,853,750,0
5764589,571.86,853,749,0
5764599,540.06,853,750,0
5764609,509.57,853,749,0
5764619,482.06,853,750,0
5764629,457.31,853,749,0
5764639,436.22,853,750,0
5764649,417.94,853,749,0
5764659,403.30,853,750,0
5764669,391.04,853,749,0
5764679,381.86,853,750,0
5764689,374.66,853,749,0
5764699,370.09,853,750,0
5764709,367.06,853,749,0
5764719,366.36,853,750,0
5764729,366.85,853,749,0
5764739,369.34,853,750,0
5764749,372.58,853,749,0
5764759,377.16,853,750,0
5764769,382.00,853,749,0
5764780,387.49,853,750,0
5764790,392.35,853,749,0
5764800,396.96,853,750,0
5764810,400.27,853,749,0
5764820,402.76,853,750,0
5764830,403.69,853,749,0
5764840,403.57,853,750,0
5764850,401.77,853,749,0
5764860,399.22,853,750,0
5764870,395.43,853,749,0
5764880,391.19,853,750,0
5764890,386.24,853,749,0
5764900,381.41,853,750,0
5764910,376.36,853,749,0
5764920,371.84,853,750,0
5764930,367.34,853,749,0
5764940,363.64,853,750,0
5764951,360.28,853,749,0
5764961,357.71,853,750,0
5764971,355.57,853,749,0
5764981,354.11,853,750,0
5764992,352.96,853,748,0
5765001,352.50,853,750,0
5765011,352.22,853,749,0
5765021,352.50,853,750,0
5765031,353.04,853,748,0
5765041,353.84,853,750,0
5765051,354.74,853,749,0
5765061,356.02,853,750,0
5765071,357.30,853,749,0
5765081,358.88,853,750,0
5765091,360.29,853,749,0
5765101,361.79,853,750,0
5765111,363.05,853,749,0
5765121,364.49,853,750,0
5765131,365.55,853,749,0
5765141,366.80,853,750,0
5765151,367.54,853,749,0
5765161,368.32,853,750,0
5765171,368.53,853,749,0
5765181,368.54,853,750,0
5765191,368.03,853,749,0
5765201,367.51,853,750,0
5765211,366.63,853,749,0
5765221,366.23,853,750,0
5765231,365.94,853,749,0
5765241,366.95,853,750,0
5765251,369.83,853,749,0
5765261,375.88,853,750,0
5765271,385.90,853,749,0
5765291,401.28,863,747,0
5765294,423.39,863,750,0
5765303,452.68,863,750,0
5765313,488.26,863,749,0
5765323,527.22,863,750,0
5765334,566.89,863,749,0
5765343,605.15,863,750,0
5765353,639.82,863,749,0
5765363,668.67,863,750,0
5765373,691.01,863,749,0
5765383,706.65,863,750,0
5765393,716.06,863,749,0
5765403,718.87,863,750,0
5765413,715.09,863,749,0
5765423,704.74,863,750,0
5765433,687.80,863,749,0
5765443,664.46,863,750,0
5765453,635.35,863,749,0
5765463,602.67,863,750,0
5765473,568.83,863,749,0
5765483,535.28,863,750,0
5765493,503.52,863,749,0
5765504,474.52,863,750,0
5765513,449.04,863,749,0
5765523,427.13,863,750,0
5765533,408.79,863,749,0
5765543,393.85,863,750,0
5765553,382.50,863,749,0
5765563,374.33,863,750,0
5765573,369.35,863,749,0
5765583,367.01,863,750,0
5765593,367.14,863,749,0
5765603,369.33,863,750,0
5765613,373.39,863,749,0
5765623,378.58,863,750,0
5765633,384.67,863,749,0
5765643,390.94,863,750,0
5765653,397.34,863,749,0
5765663,403.15,863,750,0
5765673,408.25,863,749,0
5765683,412.03,863,750,0
5765693,414.55,863,749,0
5765703,415.41,863,750,0
5765713,414.82,863,750,0
5765723,412.60,863,750,0
5765733,409.25,863,749,0
5765743,404.67,863,750,0
5765753,399.42,863,750,0
5765763,393.63,863,750,0
5765773,387.83,863,749,0
5765783,381.97,863,750,0
5765793,376.58,863,749,0
5765804,371.56,863,749,0
5765814,367.45,863,749,0
5765824,364.06,863,750,0
5765834,361.81,863,750,0
5765844,360.20,863,749,0
5765854,359.71,863,749,0
5765864,359.67,863,750,0
5765874,360.58,863,750,0
5765884,361.78,863,749,0
5765894,363.77,863,749,0
5765904,365.77,863,749,0
5765914,368.41,863,750,0
5765924,371.07,863,749,0
5765934,374.31,863,749,0
5765944,377.52,863,750,0
5765954,381.18,863,750,0
5765964,384.59,863,749,0
5765975,388.27,863,749,0
5765985,391.53,863,749,0
5765995,394.76,863,750,0
5766005,397.19,863,749,0
5766016,399.28,863,750,0
5766025,400.39,863,749,0
5766035,401.00,863,750,0
5766045,400.40,863,749,0
5766055,399.12,863,750,0
5766065,396.64,863,749,0
5766075,393.92,863,750,0
5766085,390.56,863,749,0
5766095,387.69,863,750,0
5766105,385.34,863,749,0
5766115,385.20,863,750,0
5766125,387.79,863,749,0
5766135,395.18,863,750,0
5766145,407.60,863,749,0
5766155,426.66,863,750,0
5766165,452.18,863,749,0
5766184,484.48,894,748,0
5766188,521.02,894,750,0
5766196,559.29,894,750,0
5766206,596.40,894,749,0
5766216,630.87,894,750,0
5766226,660.61,894,749,0
5766236,684.72,894,751,0
5766246,701.74,894,749,0
5766256,711.37,894,750,0
5766266,713.49,894,749,0
5766276,708.67,894,750,0
5766286,696.51,894,749,0
5766296,677.67,894,750,0
5766306,652.10,894,749,0
5766316,621.68,894,750,0
5766326,588.09,894,749,0
5766336,554.21,894,750,0
5766346,520.80,894,749,0
5766356,490.13,894,750,0
5766366,462.28,894,749,0
5766376,438.62,894,750,0
5766386,418.25,894,749,0
5766396,402.06,894,751,0
5766406,389.06,894,749,0
5766416,379.83,894,750,0
5766426,373.32,894,749,0
5766436,370.10,894,750,0
5766446,368.95,894,749,0
5766456,370.42,894,750,0
5766466,373.30,894,749,0
5766476,378.09,894,751,0
5766487,383.59,894,749,0
5766497,390.19,894,750,0
5766507,396.60,894,749,0
5766517,403.28,894,750,0
5766528,408.98,894,749,0
5766537,414.26,894,750,0
5766547,417.95,894,749,0
5766557,420.67,894,750,0
5766567,421.32,894,749,0
5766577,420.80,894,750,0
5766587,418.29,894,749,0
5766597,414.69,894,750,0
5766607,409.42,894,749,0
5766617,403.60,894,750,0
5766627,396.73,894,749,0
5766637,390.00,894,750,0
5766647,383.06,894,749,0
5766657,376.95,894,754,0
5766667,371.27,894,750,0
5766677,366.52,894,757,0
5766687,362.20,894,750,0
5766697,359.14,894,754,0
5766707,356.61,894,749,0
5766717,355.23,894,752,0
5766727,354.13,894,750,0
5766737,354.05,894,751,0
5766747,354.33,894,749,0
5766757,355.56,894,751,0
5766767,357.02,894,749,0
5766777,359.29,894,751,0
5766787,361.47,894,749,0
5766797,364.20,894,751,0
5766807,366.63,894,749,0
5766817,369.40,894,751,0
5766828,371.76,894,749,0
5766838,374.15,894,751,0
5766848,376.03,894,749,0
5766858,377.91,894,751,0
5766868,379.39,894,749,0
5766878,380.82,894,751,0
5766888,381.73,894,749,0
5766898,382.54,894,750,0
5766908,382.89,894,749,0
5766918,383.14,894,751,0
5766928,382.75,894,749,0
5766938,382.44,894,750,0
5766948,381.97,894,749,0
5766958,382.49,894,750,0
5766968,384.23,894,749,0
5766978,388.79,894,750,0
5766988,396.70,894,748,0
5766999,409.99,894,750,0
5767018,428.98,834,749,0
5767021,455.17,834,750,0
5767030,487.65,834,748,0
5767041,524.40,834,750,0
5767051,562.38,834,749,0
5767061,599.72,834,750,0
5767071,633.92,834,749,0
5767081,663.56,834,750,0
5767091,686.92,834,749,0
5767101,702.03,834,750,0
5767111,708.79,834,749,0
5767121,707.35,834,750,0
5767131,698.33,834,749,0
5767141,681.99,834,750,0
5767151,658.81,834,749,0
5767161,629.42,834,750,0
5767171,596.60,834,749,0
5767181,562.56,834,750,0
5767191,529.43,834,749,0
5767201,498.28,834,750,0
5767212,470.38,834,749,0
5767222,446.14,834,750,0
5767232,425.95,834,749,0
5767242,409.30,834,750,0
5767252,396.31,834,750,0
5767262,386.19,834,750,0
5767272,378.93,834,749,0
5767282,373.85,834,750,0
5767292,371.11,834,750,0
5767302,370.01,834,750,0
5767312,370.65,834,749,0
5767322,372.38,834,750,0
5767332,375.57,834,750,0
5767342,379.64,834,750,0
5767352,384.55,834,749,0
5767362,389.44,834,750,0
5767372,394.49,834,750,0
5767383,398.85,834,750,0
5767393,402.53,834,749,0
5767403,404.99,834,750,0
5767413,406.41,834,750,0
5767424,406.24,834,749,0
5767433,405.14,834,750,0
5767443,402.70,834,750,0
5767453,399.70,834,750,0
5767463,395.68,834,749,0
5767473,391.27,834,750,0
5767483,386.14,834,750,0
5767493,381.21,834,750,0
5767503,376.05,834,750,0
5767513,371.36,834,750,0
5767523,366.75,834,749,0
5767533,363.06,834,750,0
5767543,359.78,834,750,0
5767553,357.53,834,750,0
5767563,355.70,834,749,0
5767573,354.85,834,750,0
5767583,354.34,834,749,0
5767593,354.75,834,750,0
5767603,355.42,834,749,0
5767613,356.80,834,750,0
5767623,358.23,834,749,0
5767633,360.26,834,750,0
5767643,362.20,834,750,0
5767653,364.45,834,750,0
5767663,366.25,834,750,0
5767673,368.14,834,750,0
5767683,369.51,834,750,0
5767693,370.95,834,750,0
5767703,371.69,834,749,0
5767713,372.38,834,750,0
5767724,372.48,834,749,0
5767734,372.77,834,750,0
5767744,372.54,834,749,0
5767754,372.50,834,750,0
5767764,372.18,834,749,0
5767774,372.60,834,750,0
5767784,373.58,834,749,0
5767794,376.57,834,750,0
5767804,381.72,834,749,0
5767814,390.72,834,750,0
5767824,404.17,834,749,0
5767834,423.75,834,750,0
5767854,449.24,835,749,0
5767857,481.48,835,751,0
5767866,517.81,835,749,0
5767876,555.97,835,750,0
5767886,593.35,835,749,0
5767896,628.21,835,751,0
5767906,658.45,835,749,0
5767916,683.26,835,751,0
5767926,699.81,835,749,0
5767937,708.27,835,751,0
5767947,708.49,835,749,0
5767957,701.05,835,750,0
5767967,685.91,835,749,0
5767977,663.87,835,750,0
5767987,635.19,835,749,0
5767997,602.43,835,750,0
5768007,567.25,835,749,0
5768017,532.37,835,750,0
5768027,498.83,835,749,0
5768037,468.41,835,750,0
5768047,441.29,835,749,0
5768057,418.32,835,750,0
5768067,399.15,835,749,0
5768077,384.06,835,750,0
5768087,372.39,835,749,0
5768097,364.43,835,750,0
5768108,359.46,835,749,0
5768118,357.52,835,750,0
5768128,357.92,835,748,0
5768138,360.69,835,750,0
5768148,365.20,835,749,0
5768158,371.39,835,750,0
5768168,378.39,835,748,0
5768178,386.07,835,750,0
5768188,393.72,835,749,0
5768198,401.31,835,750,0
5768208,407.81,835,749,0
5768218,413.27,835,751,0
5768228,416.96,835,749,0
5768238,419.16,835,750,0
5768248,419.24,835,749,0
5768258,417.71,835,750,0
5768268,414.24,835,749,0
5768279,409.58,835,751,0
5768289,403.62,835,748,0
5768299,397.14,835,751,0
5768309,390.19,835,749,0
5768320,383.49,835,750,0
5768329,377.09,835,748,0
5768339,371.45,835,751,0
5768349,366.56,835,749,0
5768359,362.70,835,750,0
5768369,359.71,835,748,0
5768379,357.69,835,751,0
5768389,356.54,835,749,0
5768399,356.17,835,750,0
5768409,356.33,835,748,0
5768419,357.13,835,751,0
5768429,358.38,835,749,0
5768439,360.11,835,750,0
5768449,362.00,835,748,0
5768459,364.27,835,751,0
5768469,366.55,835,749,0
5768479,368.91,835,750,0
5768489,371.04,835,749,0
5768499,373.00,835,751,0
5768509,374.63,835,749,0
5768519,376.03,835,750,0
5768529,376.92,835,748,0
5768539,377.54,835,750,0
5768549,377.77,835,749,0
5768559,377.71,835,750,0
5768569,377.54,835,749,0
5768579,377.72,835,750,0
5768589,378.70,835,749,0
5768599,381.41,835,750,0
5768609,386.77,835,749,0
5768620,396.14,835,750,0
5768630,410.67,835,749,0
5768640,431.17,835,750,0
5768650,457.95,835,749,0
5768670,490.49,816,748,0
5768673,526.94,816,751,0
5768682,564.63,816,750,0
5768692,601.17,816,750,0
5768702,634.59,816,750,0
5768712,663.39,816,750,0
5768722,685.08,816,750,0
5768732,698.22,816,750,0
5768742,702.01,816,749,0
5768752,697.72,816,750,0
5768762,685.50,816,749,0
5768772,666.15,816,750,0
5768782,639.84,816,749,0
5768792,609.11,816,750,0
5768802,575.61,816,749,0
5768812,542.00,816,750,0
5768822,508.91,816,750,0
5768833,478.38,816,750,0
5768843,450.50,816,750,0
5768853,426.65,816,750,0
5768863,406.01,816,749,0
5768873,389.34,816,751,0
5768883,375.82,816,749,0
5768893,366.15,816,750,0
5768903,359.29,816,749,0
5768913,355.94,816,750,0
5768923,354.89,816,749,0
5768933,356.77,816,750,0
5768943,360.61,816,749,0
5768953,366.64,816,750,0
5768963,373.65,816,749,0
5768973,381.94,816,750,0
5768983,390.14,816,749,0
5768993,398.54,816,751,0
5769004,406.14,816,749,0
5769014,412.70,816,751,0
5769024,417.29,816,749,0
5769034,420.33,816,751,0
5769044,420.96,816,749,0
5769054,419.99,816,751,0
5769064,416.78,816,749,0
5769074,412.13,816,751,0
5769084,406.00,816,749,0
5769094,399.45,816,750,0
5769104,392.16,816,749,0
5769114,385.21,816,751,0
5769124,378.16,816,749,0
5769134,372.24,816,751,0
5769144,366.77,816,749,0
5769154,362.64,816,751,0
5769164,359.19,816,749,0
5769175,357.12,816,751,0
5769185,355.67,816,749,0
5769195,355.47,816,750,0
5769205,355.63,816,749,0
5769216,356.77,816,750,0
5769225,358.12,816,749,0
5769235,360.27,816,750,0
5769245,362.42,816,749,0
5769255,365.08,816,750,0
5769265,367.46,816,749,0
5769275,370.06,816,751,0
5769285,372.27,816,749,0
5769295,374.46,816,751,0
5769305,375.82,816,749,0
5769315,377.12,816,751,0
5769325,377.60,816,749,0
5769335,378.23,816,751,0
5769345,378.55,816,749,0
5769355,379.84,816,751,0
5769365,382.29,816,749,0
5769375,387.77,816,751,0
5769385,396.58,816,749,0
5769395,410.55,816,751,0
5769405,429.67,816,749,0
5769415,455.14,816,751,0
5769425,485.66,816,749,0
5769444,520.77,775,748,0
5769447,557.44,775,750,0
5769456,593.65,775,751,0
5769466,627.10,775,749,0
5769476,656.21,775,751,0
5769486,677.96,775,749,0
5769496,691.39,775,750,0
5769506,695.17,775,749,0
5769516,690.45,775,751,0
5769526,677.46,775,749,0
5769536,657.35,775,750,0
5769546,630.84,775,749,0
5769556,600.63,775,750,0
5769566,568.22,775,749,0
5769576,535.88,775,750,0
5769586,504.33,775,749,0
5769596,475.39,775,751,0
5769606,449.04,775,749,0
5769616,426.36,775,750,0
5769626,406.88,775,749,0
5769636,390.89,775,750,0
5769646,377.68,775,749,0
5769656,367.75,775,750,0
5769666,360.49,775,749,0
5769676,356.23,775,751,0
5769687,354.32,775,749,0
5769697,354.74,775,750,0
5769707,357.13,775,749,0
5769717,361.59,775,751,0
5769728,367.33,775,749,0
5769737,374.26,775,750,0
5769747,381.64,775,749,0
5769757,389.29,775,751,0
5769767,396.62,775,749,0
5769777,403.42,775,750,0
5769787,408.95,775,749,0
5769797,413.25,775,751,0
5769807,415.79,775,749,0
5769817,417.10,775,750,0
5769827,416.81,775,749,0
5769837,415.28,775,750,0
5769847,412.63,775,749,0
5769857,409.61,775,751,0
5769867,406.38,775,749,0
5769877,403.48,775,750,0
5769887,400.72,775,749,0
5769897,398.66,775,751,0
5769907,397.31,775,749,0
5769917,396.87,775,750,0
5769927,396.95,775,749,0
5769937,397.70,775,751,0
5769947,398.73,775,749,0
5769957,400.23,775,750,0
5769967,401.79,775,749,0
5769977,403.61,775,751,0
5769987,405.27,775,749,0
5769997,407.16,775,750,0
5770007,408.87,775,749,0
5770017,410.88,775,751,0
5770028,412.93,775,749,0
5770038,415.22,775,750,0
5770048,417.64,775,749,0
5770058,420.49,775,751,0
5770068,423.30,775,749,0
5770078,426.13,775,750,0
5770088,428.62,775,749,0
5770098,430.70,775,750,0
5770108,432.46,775,749,0
5770118,433.65,775,750,0
5770128,434.23,775,749,0
5770138,434.80,775,750,0
5770148,436.10,775,749,0
5770158,438.82,775,750,0
5770168,444.01,775,749,0
5770178,452.92,775,750,0
5770198,466.75,753,749,0
5770201,486.37,753,751,0
5770210,511.88,753,750,0
5770220,541.92,753,750,0
5770230,574.34,753,750,0
5770241,606.98,753,750,0
5770251,637.76,753,750,0
5770261,665.09,753,750,0
5770271,687.56,753,750,0
5770281,702.61,753,749,0
5770291,710.05,753,750,0
5770301,710.04,753,750,0
5770311,703.00,753,750,0
5770321,688.98,753,749,0
5770331,668.89,753,750,0
5770341,642.74,753,750,0
5770351,613.29,753,750,0
5770361,581.62,753,749,0
5770371,549.93,753,750,0
5770381,518.92,753,750,0
5770391,490.15,753,750,0
5770401,463.23,753,749,0
5770412,439.46,753,751,0
5770422,418.19,753,749,0
5770432,400.09,753,751,0
5770442,384.51,753,749,0
5770452,372.44,753,751,0
5770462,363.01,753,749,0
5770472,357.18,753,751,0
5770482,353.95,753,749,0
5770492,354.10,753,751,0
5770502,356.51,753,750,0
5770512,361.59,753,751,0
5770522,367.92,753,749,0
5770532,375.83,753,751,0
5770542,383.90,753,750,0
5770552,392.03,753,751,0
5770562,398.83,753,749,0
5770572,404.58,753,751,0
5770583,408.09,753,749,0
5770593,409.87,753,751,0
5770603,409.05,753,749,0
5770613,406.42,753,751,0
5770624,401.67,753,749,0
5770633,395.85,753,751,0
5770643,388.61,753,748,0
5770653,381.27,753,751,0
5770663,373.39,753,749,0
5770673,366.29,753,751,0
5770683,359.34,753,749,0
5770693,353.71,753,751,0
5770703,348.66,753,749,0
5770713,345.16,753,751,0
5770723,342.28,753,749,0
5770733,340.87,753,751,0
5770743,339.92,753,749,0
5770753,340.29,753,751,0
5770763,341.06,753,749,0
5770773,343.01,753,751,0
5770783,345.19,753,749,0
5770793,348.26,753,751,0
5770803,351.36,753,749,0
5770813,355.11,753,751,0
5770823,358.46,753,749,0
5770833,361.97,753,751,0
5770843,364.72,753,749,0
5770853,367.37,753,751,0
5770863,368.98,753,749,0
5770873,370.31,753,751,0
5770883,370.60,753,749,0
5770893,370.85,753,751,0
5770903,370.42,753,749,0
5770913,370.21,753,751,0
5770924,369.85,753,749,0
5770934,370.92,753,751,0
5770944,373.39,753,749,0
5770954,379.14,753,751,0
5770964,388.49,753,749,0
5770974,403.08,753,751,0
5770984,423.12,753,749,0
5770994,449.65,753,751,0
5771014,481.47,816,750,0
5771017,517.89,816,752,0
5771026,555.68,816,749,0
5771036,592.80,816,751,0
5771046,626.98,816,749,0
5771056,656.98,816,751,0
5771066,679.92,816,749,0
5771076,694.60,816,750,0
5771086,699.86,816,749,0
5771096,696.86,816,750,0
5771106,685.93,816,749,0
5771116,667.95,816,750,0
5771126,643.32,816,749,0
5771137,614.43,816,751,0
5771147,583.14,816,749,0
5771157,551.47,816,750,0
5771167,520.60,816,749,0
5771177,491.79,816,750,0
5771187,465.71,816,749,0
5771197,442.91,816,751,0
5771207,423.27,816,749,0
5771217,406.90,816,750,0
5771227,393.47,816,749,0
5771237,382.79,816,751,0
5771247,374.88,816,749,0
5771257,369.56,816,751,0
5771267,366.48,816,749,0
5771277,365.56,816,751,0
5771287,366.47,816,749,0
5771297,369.07,816,750,0
5771308,373.16,816,749,0
5771318,378.21,816,750,0
5771328,383.76,816,749,0
5771338,389.49,816,750,0
5771348,395.09,816,750,0
5771358,399.82,816,750,0
5771368,403.64,816,749,0
5771378,405.85,816,750,0
5771388,406.75,816,750,0
5771398,406.01,816,750,0
5771408,403.91,816,749,0
5771418,400.38,816,750,0
5771428,396.02,816,750,0
5771438,390.87,816,750,0
5771448,385.64,816,749,0
5771458,380.26,816,750,0
5771468,375.25,816,750,0
5771479,370.68,816,750,0
5771489,366.83,816,750,0
5771499,363.71,816,750,0
5771509,361.44,816,750,0
5771520,359.89,816,750,0
5771529,359.15,816,750,0
5771539,358.98,816,749,0
5771549,359.67,816,750,0
5771559,360.67,816,750,0
5771569,362.23,816,750,0
5771579,363.79,816,749,0
5771589,365.69,816,750,0
5771599,367.29,816,750,0
5771609,369.00,816,750,0
5771619,370.37,816,749,0
5771629,371.89,816,750,0
5771639,372.86,816,750,0
5771649,374.02,816,750,0
5771659,374.79,816,749,0
5771669,375.79,816,750,0
5771679,376.50,816,750,0
5771689,377.12,816,750,0
5771699,377.43,816,749,0
5771709,377.86,816,750,0
5771719,378.11,816,750,0
5771729,379.07,816,750,0
5771739,380.97,816,749,0
5771749,385.22,816,750,0
5771759,392.57,816,750,0
5771769,404.53,816,750,0
5771779,421.56,816,749,0
5771789,444.75,816,750,0
5771808,473.54,795,749,0
5771811,507.88,795,752,0
5771820,544.68,795,750,0
5771830,581.72,795,750,0
5771840,616.56,795,750,0
5771850,647.94,795,751,0
5771860,673.41,795,749,0
5771870,691.67,795,750,0
5771880,700.47,795,750,0
5771890,700.80,795,751,0
5771900,692.80,795,749,0
5771910,677.56,795,750,0
5771920,655.19,795,750,0
5771930,627.45,795,751,0
5771940,595.69,795,749,0
5771950,562.82,795,750,0
5771960,529.92,795,750,0
5771970,499.17,795,750,0
5771980,470.53,795,749,0
5771991,445.47,795,751,0
5772001,423.60,795,749,0
5772011,405.59,795,751,0
5772021,390.33,795,749,0
5772032,378.53,795,751,0
5772041,369.07,795,749,0
5772051,362.79,795,751,0
5772061,358.61,795,749,0
5772071,357.27,795,751,0
5772081,357.79,795,749,0
5772091,360.85,795,751,0
5772101,365.31,795,749,0
5772111,371.60,795,751,0
5772121,378.37,795,749,0
5772131,385.93,795,751,0
5772141,392.81,795,749,0
5772151,399.34,795,751,0
5772161,404.38,795,750,0
5772171,408.12,795,751,0
5772181,409.67,795,749,0
5772191,409.77,795,751,0
5772201,407.65,795,749,0
5772211,404.46,795,751,0
5772221,399.48,795,749,0
5772231,393.76,795,751,0
5772241,386.98,795,749,0
5772251,380.38,795,751,0
5772261,373.33,795,749,0
5772271,366.97,795,751,0
5772281,360.68,795,749,0
5772291,355.46,795,751,0
5772301,350.78,795,749,0
5772311,347.42,795,751,0
5772321,344.46,795,749,0
5772332,342.87,795,751,0
5772342,341.79,795,749,0
5772352,341.98,795,751,0
5772362,342.67,795,749,0
5772372,344.40,795,751,0
5772382,346.51,795,749,0
5772392,349.53,795,751,0
5772402,352.54,795,749,0
5772412,356.28,795,751,0
5772422,359.71,795,749,0
5772432,363.53,795,751,0
5772442,366.71,795,749,0
5772452,370.05,795,751,0
5772462,372.70,795,749,0
5772472,375.32,795,750,0
5772482,377.11,795,749,0
5772492,378.92,795,751,0
5772503,380.06,795,749,0
5772513,381.84,795,750,0
5772523,383.77,795,749,0
5772533,387.57,795,751,0
5772544,393.61,795,749,0
5772553,403.59,795,750,0
5772563,417.98,795,749,0
5772573,438.26,795,751,0
5772583,463.85,795,749,0
5772602,494.84,794,748,0
5772605,529.52,794,749,0
5772614,565.75,794,751,0
5772624,601.01,794,749,0
5772634,633.58,794,750,0
5772644,660.62,794,749,0
5772654,680.58,794,751,0
5772664,691.72,794,749,0
5772674,693.90,794,750,0
5772684,687.20,794,749,0
5772694,672.70,794,751,0
5772704,650.68,794,749,0
5772715,623.30,794,750,0
5772724,592.10,794,749,0
5772734,559.62,794,751,0
5772744,526.69,794,749,0
5772754,495.59,794,750,0
5772764,466.61,794,749,0
5772774,441.06,794,751,0
5772784,418.62,794,749,0
5772794,399.88,794,750,0
5772804,384.06,794,749,0
5772814,371.83,794,751,0
5772824,362.19,794,749,0
5772834,355.75,794,750,0
5772844,351.62,794,749,0
5772854,350.24,794,751,0
5772864,350.81,794,749,0
5772874,353.69,794,750,0
5772884,358.03,794,749,0
5772894,364.19,794,751,0
5772904,370.95,794,749,0
5772914,378.64,794,750,0
5772924,386.12,794,749,0
5772934,393.62,794,751,0
5772944,399.74,794,749,0
5772954,404.57,794,751,0
5772964,407.36,794,749,0
5772974,408.62,794,751,0
5772984,407.71,794,749,0
5772994,405.35,794,751,0
5773004,400.96,794,749,0
5773015,395.70,794,751,0
5773025,389.49,794,749,0
5773035,383.09,794,750,0
5773045,376.50,794,749,0
5773056,370.44,794,751,0
5773065,364.69,794,749,0
5773075,360.03,794,751,0
5773085,356.12,794,749,0
5773095,353.34,794,751,0
5773105,351.27,794,749,0
5773115,350.20,794,751,0
5773125,349.80,794,749,0
5773135,350.29,794,751,0
5773145,351.14,794,749,0
5773155,352.60,794,750,0
5773165,354.26,794,749,0
5773175,356.33,794,751,0
5773185,358.29,794,749,0
5773195,360.47,794,750,0
5773205,362.39,794,749,0
5773215,364.33,794,751,0
5773225,365.94,794,749,0
5773235,367.33,794,751,0
5773245,368.30,794,749,0
5773255,369.11,794,751,0
5773265,369.42,794,749,0
5773275,369.68,794,751,0
5773285,369.78,794,749,0
5773295,370.57,794,751,0
5773305,372.76,794,749,0
5773315,377.42,794,751,0
5773325,385.35,794,749,0
5773335,397.89,794,751,0
5773345,415.62,794,749,0
5773356,439.18,794,751,0
5773366,467.88,794,749,0
5773385,500.79,783,748,0
5773388,536.21,783,751,0
5773398,572.02,783,750,0
5773407,605.53,783,749,0
5773417,634.51,783,750,0
5773427,656.52,783,750,0
5773437,670.16,783,750,0
5773447,674.74,783,749,0
5773457,670.02,783,750,0
5773467,656.94,783,750,0
5773477,636.60,783,750,0
5773487,610.88,783,749,0
5773497,581.86,783,750,0
5773507,551.51,783,750,0
5773517,521.23,783,750,0
5773527,492.71,783,749,0
5773537,466.57,783,750,0
5773547,443.72,783,750,0
5773557,423.96,783,750,0
5773568,407.52,783,750,0
5773577,393.99,783,750,0
5773587,383.37,783,750,0
5773597,375.11,783,750,0
5773607,369.12,783,750,0
5773617,365.19,783,750,0
5773627,363.29,783,750,0
5773637,362.94,783,750,0
5773647,364.33,783,750,0
5773657,367.02,783,750,0
5773667,371.13,783,750,0
5773677,376.15,783,750,0
5773687,381.72,783,750,0
5773697,387.37,783,750,0
5773707,392.96,783,750,0
5773717,397.77,783,750,0
5773727,401.74,783,750,0
5773737,404.13,783,750,0
5773747,405.12,783,750,0
5773757,404.49,783,750,0
5773767,402.45,783,750,0
5773777,398.93,783,750,0
5773787,394.41,783,750,0
5773797,388.84,783,750,0
5773807,382.93,783,750,0
5773817,376.65,783,750,0
5773827,370.76,783,750,0
5773837,365.09,783,750,0
5773847,360.26,783,750,0
5773857,356.03,783,750,0
5773868,353.02,783,750,0
5773878,350.70,783,750,0
5773888,349.72,783,750,0
5773898,349.16,783,750,0
5773908,349.58,783,751,0
5773918,350.35,783,750,0
5773928,351.87,783,750,0
5773938,353.41,783,750,0
5773948,355.52,783,751,0
5773958,357.38,783,750,0
5773968,359.58,783,750,0
5773978,361.55,783,750,0
5773988,363.57,783,751,0
5773998,365.11,783,750,0
5774008,366.58,783,750,0
5774018,367.35,783,750,0
5774028,368.19,783,750,0
5774039,368.26,783,750,0
5774049,368.18,783,750,0
5774059,367.44,783,749,0
5774069,366.79,783,751,0
5774080,365.96,783,749,0
5774089,366.01,783,751,0
5774099,366.78,783,749,0
5774109,370.15,783,751,0
5774119,376.27,783,749,0
5774129,386.95,783,750,0
5774139,402.44,783,749,0
5774149,424.12,783,751,0
5774169,451.21,783,750,0
5774172,484.02,783,751,0
5774181,520.14,783,749,0
5774191,557.77,783,751,0
5774201,594.23,783,749,0
5774211,627.54,783,751,0
5774221,654.47,783,749,0
5774231,674.00,783,751,0
5774241,683.81,783,749,0
5774252,684.60,783,751,0
5774262,676.53,783,749,0
5774272,661.12,783,751,0
5774282,639.10,783,749,0
5774292,613.14,783,751,0
5774302,584.43,783,749,0
5774312,555.45,783,751,0
5774322,526.73,783,749,0
5774332,500.07,783,751,0
5774342,475.45,783,749,0
5774352,453.93,783,751,0
5774362,434.79,783,749,0
5774372,418.57,783,751,0
5774382,404.56,783,749,0
5774392,393.25,783,751,0
5774402,383.57,783,749,0
5774412,376.29,783,751,0
5774423,370.50,783,749,0
5774433,366.96,783,751,0
5774443,364.79,783,749,0
5774453,364.38,783,751,0
5774464,365.12,783,749,0
5774473,367.62,783,751,0
5774483,370.73,783,749,0
5774493,374.84,783,751,0
5774503,378.83,783,749,0
5774513,383.25,783,751,0
5774523,386.86,783,749,0
5774533,389.86,783,751,0
5774543,391.57,783,749,0
5774553,392.34,783,751,0
5774563,391.68,783,749,0
5774573,390.19,783,751,0
5774583,387.35,783,749,0
5774593,384.03,783,751,0
5774603,379.86,783,749,0
5774613,375.58,783,751,0
5774623,370.77,783,749,0
5774633,366.34,783,751,0
5774643,361.74,783,749,0
5774653,357.66,783,751,0
5774663,353.73,783,749,0
5774673,350.69,783,751,0
5774683,347.95,783,749,0
5774693,346.21,783,751,0
5774703,344.82,783,749,0
5774713,344.49,783,751,0
5774723,344.55,783,749,0
5774733,345.55,783,751,0
5774743,346.84,783,749,0
5774753,348.77,783,751,0
5774764,350.73,783,749,0
5774774,352.95,783,750,0
5774784,355.07,783,749,0
5774794,357.19,783,751,0
5774804,358.93,783,749,0
5774814,360.54,783,751,0
5774824,361.75,783,749,0
5774834,363.07,783,751,0
5774844,364.08,783,749,0
5774854,365.04,783,751,0
5774864,365.80,783,749,0
5774874,366.54,783,751,0
5774884,367.11,783,749,0
5774894,367.85,783,751,0
5774904,368.11,783,749,0
5774914,368.33,783,751,0
5774924,368.19,783,749,0
5774935,367.92,783,751,0
5774945,367.60,783,749,0
5774955,367.55,783,751,0
5774965,368.07,783,749,0
5774976,370.19,783,750,0
5774985,374.59,783,749,0
5774995,382.43,783,751,0
5775005,394.81,783,749,0
5775025,412.53,856,748,0
5775028,436.80,856,751,0
5775037,466.90,856,750,0
5775047,502.03,856,751,0
5775057,539.82,856,750,0
5775067,577.76,856,750,0
5775077,613.66,856,750,0
5775087,645.91,856,751,0
5775097,671.86,856,750,0
5775107,690.42,856,750,0
5775117,700.24,856,750,0
5775127,701.92,856,750,0
5775137,695.95,856,750,0
5775148,683.10,856,750,0
5775158,663.49,856,750,0
5775168,638.87,856,751,0
5775178,610.54,856,750,0
5775188,580.89,856,751,0
5775198,551.09,856,750,0
5775208,522.82,856,751,0
5775218,496.52,856,750,0
5775228,473.26,856,751,0
5775238,452.53,856,750,0
5775248,435.05,856,751,0
5775258,419.87,856,750,0
5775268,407.26,856,751,0
5775278,396.56,856,750,0
5775288,388.03,856,751,0
5775298,381.17,856,750,0
5775308,376.57,856,751,0
5775319,373.32,856,749,0
5775329,372.19,856,751,0
5775339,372.22,856,749,0
5775349,373.95,856,751,0
5775360,376.41,856,749,0
5775369,380.06,856,751,0
5775379,383.68,856,749,0
5775389,387.85,856,751,0
5775399,391.24,856,749,0
5775409,394.60,856,751,0
5775419,396.77,856,749,0
5775429,398.38,856,751,0
5775439,398.44,856,749,0
5775449,397.79,856,751,0
5775459,395.58,856,750,0
5775469,392.75,856,751,0
5775479,388.63,856,749,0
5775489,384.28,856,751,0
5775499,379.23,856,749,0
5775509,374.44,856,751,0
5775519,369.25,856,749,0
5775529,364.68,856,751,0
5775539,360.15,856,749,0
5775549,356.63,856,751,0
5775559,353.36,856,749,0
5775569,351.32,856,751,0
5775579,349.68,856,750,0
5775589,349.43,856,751,0
5775599,349.73,856,749,0
5775609,351.40,856,751,0
5775619,353.59,856,749,0
5775629,357.10,856,751,0
5775639,360.97,856,749,0
5775649,366.04,856,751,0
5775660,371.30,856,749,0
5775670,377.34,856,751,0
5775680,383.06,856,749,0
5775690,388.87,856,751,0
5775700,393.75,856,749,0
5775710,398.20,856,751,0
5775720,401.18,856,749,0
5775730,403.27,856,751,0
5775740,403.70,856,749,0
5775750,403.32,856,751,0
5775760,401.42,856,749,0
5775770,398.81,856,751,0
5775780,394.84,856,749,0
5775790,390.47,856,751,0
5775800,385.27,856,749,0
5775810,379.92,856,751,0
5775820,373.73,856,749,0
5775831,367.90,856,751,0
5775841,362.06,856,749,0
5775851,357.50,856,751,0
5775861,354.13,856,749,0
5775872,353.28,856,751,0
5775881,355.25,856,749,0
5775891,361.82,856,751,0
5775901,372.97,856,749,0
5775911,390.00,856,751,0
5775921,412.03,856,749,0
5775931,439.58,856,751,0
5775941,470.99,856,749,0
5775951,505.45,856,751,0
5775961,540.11,856,749,0
5775980,573.29,956,748,0
5775983,601.88,956,750,0
5775992,625.19,956,751,0
5776002,640.77,956,749,0
5776012,648.64,956,751,0
5776022,647.81,956,749,0
5776032,639.81,956,751,0
5776043,624.99,956,749,0
5776052,606.01,956,751,0
5776062,583.42,956,749,0
5776072,559.68,956,751,0
5776082,535.43,956,749,0
5776092,512.93,956,751,0
5776102,491.74,956,749,0
5776112,473.22,956,751,0
5776122,456.61,956,749,0
5776132,442.75,956,751,0
5776142,430.74,956,749,0
5776152,420.96,956,751,0
5776162,412.27,956,749,0
5776172,405.29,956,751,0
5776182,398.99,956,749,0
5776192,393.89,956,751,0
5776202,389.21,956,749,0
5776212,385.80,956,751,0
5776222,383.03,956,749,0
5776232,381.87,956,751,0
5776242,381.78,956,749,0
5776252,383.52,956,751,0
5776262,386.15,956,749,0
5776272,389.92,956,751,0
5776282,393.46,956,749,0
5776292,397.05,956,751,0
5776302,399.35,956,749,0
5776312,400.70,956,751,0
5776322,400.19,956,749,0
5776332,398.42,956,751,0
5776343,394.99,956,749,0
5776353,390.67,956,750,0
5776363,385.24,956,749,0
5776373,379.64,956,751,0
5776384,373.66,956,749,0
5776393,368.28,956,751,0
5776403,363.14,956,749,0
5776413,358.90,956,751,0
5776423,355.28,956,749,0
5776433,352.84,956,750,0
5776443,350.92,956,749,0
5776453,350.04,956,751,0
5776463,349.60,956,749,0
5776473,350.15,956,751,0
5776483,351.00,956,749,0
5776493,352.67,956,750,0
5776503,354.44,956,749,0
5776513,356.80,956,750,0
5776523,358.96,956,749,0
5776533,361.24,956,750,0
5776543,363.01,956,749,0
5776553,364.55,956,751,0
5776563,365.33,956,750,0
5776573,365.83,956,750,0
5776583,365.54,956,749,0
5776593,365.08,956,751,0
5776603,364.11,956,749,0
5776613,363.13,956,750,0
5776623,361.94,956,749,0
5776633,361.14,956,751,0
5776643,360.16,956,749,0
5776653,359.72,956,750,0
5776663,359.25,956,749,0
5776673,359.35,956,751,0
5776684,359.41,956,749,0
5776694,359.80,956,750,0
5776704,360.12,956,749,0
5776714,361.28,956,751,0
5776724,363.34,956,749,0
5776734,367.40,956,750,0
5776744,373.83,956,749,0
5776754,384.13,956,750,0
5776764,399.05,956,750,0
5776783,418.96,803,748,0
5776786,444.26,803,750,0
5776795,474.18,803,750,0
5776805,507.38,803,750,0
5776815,541.98,803,750,0
5776825,575.89,803,750,0
5776835,606.95,803,750,0
5776845,633.41,803,750,0
5776855,653.21,803,750,0
5776865,665.32,803,750,0
5776875,669.42,803,750,0
5776885,665.87,803,750,0
5776896,655.19,803,750,0
5776905,638.55,803,749,0
5776915,617.39,803,750,0
5776925,593.06,803,750,0
5776935,567.11,803,750,0
5776945,540.89,803,750,0
5776955,515.51,803,750,0
5776965,491.87,803,750,0
5776975,470.31,803,750,0
5776985,451.19,803,750,0
5776995,434.67,803,750,0
5777005,420.89,803,750,0
5777015,409.43,803,750,0
5777025,400.43,803,750,0
5777035,393.62,803,750,0
5777045,388.89,803,750,0
5777055,386.01,803,750,0
5777065,384.81,803,750,0
5777075,385.08,803,750,0
5777085,386.85,803,750,0
5777095,389.86,803,750,0
5777105,393.76,803,750,0
5777115,398.46,803,751,0
5777125,403.46,803,750,0
5777135,408.30,803,750,0
5777145,412.79,803,750,0
5777155,416.54,803,750,0
5777165,419.16,803,750,0
5777175,420.57,803,750,0
5777185,420.61,803,750,0
5777196,419.23,803,750,0
5777206,416.89,803,750,0
5777216,413.24,803,750,0
5777226,409.01,803,750,0
5777236,404.03,803,750,0
5777246,399.01,803,750,0
5777256,393.82,803,750,0
5777266,389.03,803,750,0
5777276,384.35,803,750,0
5777286,380.43,803,750,0
5777296,376.70,803,750,0
5777306,373.58,803,750,0
5777316,370.45,803,750,0
5777326,367.70,803,750,0
5777336,364.92,803,750,0
5777346,362.54,803,750,0
5777356,360.11,803,750,0
5777367,358.06,803,751,0
5777377,356.16,803,750,0
5777387,355.00,803,751,0
5777397,354.05,803,750,0
5777408,354.04,803,751,0
5777417,354.11,803,750,0
5777427,354.89,803,751,0
5777437,355.57,803,750,0
5777447,356.81,803,751,0
5777457,357.64,803,750,0
5777467,358.86,803,751,0
5777477,359.63,803,750,0
5777487,360.99,803,751,0
5777497,362.28,803,750,0
5777507,364.64,803,750,0
5777517,367.96,803,750,0
5777527,373.63,803,751,0
5777537,381.54,803,750,0
5777547,393.16,803,750,0
5777557,408.67,803,750,0
5777567,429.13,803,751,0
5777577,453.90,803,750,0
5777587,482.65,803,750,0
5777606,513.74,823,750,0
5777609,546.56,823,752,0
5777618,578.49,823,750,0
5777628,607.92,823,751,0
5777638,632.33,823,750,0
5777648,651.00,823,751,0
5777658,662.10,823,750,0
5777668,666.10,823,751,0
5777678,662.21,823,749,0
5777688,651.82,823,751,0
5777698,635.12,823,749,0
5777708,614.42,823,751,0
5777718,590.21,823,749,0
5777728,564.91,823,751,0
5777738,538.83,823,749,0
5777748,513.81,823,751,0
5777758,490.04,823,749,0
5777768,468.94,823,751,0
5777778,449.85,823,749,0
5777788,433.82,823,751,0
5777798,420.07,823,750,0
5777808,409.29,823,751,0
5777818,400.59,823,749,0
5777828,394.59,823,751,0
5777838,390.38,823,749,0
5777848,388.60,823,751,0
5777858,388.12,823,749,0
5777868,389.71,823,751,0
5777879,392.28,823,749,0
5777889,396.31,823,751,0
5777899,400.59,823,749,0
5777909,405.64,823,751,0
5777920,410.29,823,749,0
5777929,415.18,823,751,0
5777939,419.11,823,749,0
5777949,422.68,823,751,0
5777959,424.92,823,749,0
5777969,426.66,823,751,0
5777979,426.97,823,749,0
5777989,426.81,823,751,0
5777999,425.41,823,749,0
5778009,423.79,823,751,0
5778019,421.24,823,749,0
5778029,418.85,823,751,0
5778039,415.85,823,749,0
5778049,413.28,823,751,0
5778059,410.28,823,749,0
5778069,407.76,823,751,0
5778079,404.74,823,749,0
5778089,402.33,823,751,0
5778099,399.53,823,749,0
5778109,397.36,823,751,0
5778119,395.02,823,749,0
5778129,393.64,823,751,0
5778139,392.42,823,749,0
5778149,392.42,823,751,0
5778159,392.77,823,749,0
5778169,394.34,823,751,0
5778179,396.21,823,749,0
5778189,399.06,823,751,0
5778199,401.74,823,749,0
5778209,404.99,823,751,0
5778220,407.69,823,749,0
5778230,410.49,823,751,0
5778240,412.40,823,749,0
5778250,414.38,823,751,0
5778260,416.02,823,749,0
5778270,418.54,823,751,0
5778280,421.85,823,749,0
5778290,427.90,823,751,0
5778300,436.76,823,749,0
5778310,450.29,823,751,0
5778320,467.90,823,749,0
5778330,490.47,823,751,0
5778350,516.73,743,750,0
5778353,546.38,743,751,0
5778362,577.17,743,750,0
5778372,607.63,743,751,0
5778382,634.96,743,749,0
5778392,658.33,743,751,0
5778402,675.20,743,749,0
5778412,685.47,743,751,0
5778422,687.90,743,749,0
5778433,682.87,743,751,0
5778443,670.87,743,749,0
5778453,653.51,743,751,0
5778463,631.76,743,749,0
5778473,607.96,743,750,0
5778483,583.24,743,749,0
5778493,559.34,743,751,0
5778503,537.08,743,750,0
5778513,517.56,743,751,0
5778523,501.02,743,749,0
5778533,487.60,743,751,0
5778543,476.70,743,749,0
5778553,468.18,743,751,0
5778563,461.70,743,749,0
5778573,457.16,743,751,0
5778583,453.94,743,749,0
5778593,451.94,743,751,0
5778604,450.59,743,749,0
5778614,449.94,743,750,0
5778624,449.62,743,750,0
5778634,449.35,743,750,0
5778644,448.94,743,750,0
5778654,448.57,743,750,0
5778664,447.80,743,750,0
5778674,446.96,743,750,0
5778684,445.82,743,750,0
5778694,444.63,743,750,0
5778704,443.28,743,750,0
5778714,441.65,743,750,0
5778724,439.87,743,750,0
5778734,438.03,743,751,0
5778744,436.09,743,750,0
5778754,434.26,743,750,0
5778764,432.60,743,749,0
5778775,431.22,743,750,0
5778785,430.38,743,750,0
5778795,429.75,743,750,0
5778805,429.53,743,750,0
5778816,429.41,743,750,0
5778825,429.63,743,750,0
5778835,429.87,743,750,0
5778845,430.42,743,750,0
5778855,431.03,743,750,0
5778865,432.00,743,750,0
5778875,433.20,743,750,0
5778885,434.98,743,750,0
5778895,436.87,743,750,0
5778905,439.10,743,750,0
5778915,441.17,743,750,0
5778925,443.35,743,750,0
5778935,445.26,743,750,0
5778945,447.15,743,750,0
5778955,448.73,743,750,0
5778965,450.44,743,750,0
5778975,451.98,743,750,0
5778985,453.96,743,751,0
5778995,456.24,743,750,0
5779005,459.56,743,750,0
5779015,464.32,743,750,0
5779025,471.64,743,751,0
5779035,481.65,743,750,0
5779054,495.38,705,749,0
5779057,513.05,705,750,0
5779066,535.02,705,751,0
5779076,559.96,705,750,0
5779086,586.89,705,751,0
5779096,613.88,705,750,0
5779106,639.84,705,751,0
5779116,662.73,705,750,0
5779126,681.11,705,751,0
5779136,693.21,705,750,0
5779146,699.19,705,751,0
5779156,698.40,705,750,0
5779166,691.73,705,751,0
5779176,679.04,705,750,0
5779186,661.88,705,751,0
5779196,640.79,705,750,0
5779206,617.97,705,751,0
5779216,593.98,705,750,0
5779226,570.50,705,751,0
5779236,547.76,705,750,0
5779246,527.39,705,751,0
5779256,508.67,705,750,0
5779266,492.23,705,751,0
5779276,477.16,705,750,0
5779287,463.95,705,751,0
5779297,451.88,705,749,0
5779307,441.42,705,751,0
5779317,431.65,705,749,0
5779328,423.70,705,751,0
5779337,417.36,705,750,0
5779347,413.27,705,751,0
5779357,410.91,705,750,0
5779367,410.85,705,751,0
5779377,412.36,705,750,0
5779387,415.81,705,751,0
5779397,420.02,705,749,0
5779407,425.37,705,751,0
5779417,430.57,705,750,0
5779427,436.10,705,751,0
5779437,440.66,705,750,0
5779447,444.49,705,751,0
5779457,446.70,705,749,0
5779467,447.95,705,751,0
5779477,447.19,705,749,0
5779487,445.33,705,751,0
5779497,441.59,705,749,0
5779507,437.09,705,751,0
5779517,431.45,705,750,0
5779527,425.65,705,751,0
5779537,419.29,705,749,0
5779547,413.41,705,751,0
5779557,407.63,705,750,0
5779567,402.81,705,751,0
5779577,398.37,705,749,0
5779587,395.26,705,751,0
5779597,392.70,705,750,0
5779607,391.72,705,751,0
5779617,391.03,705,749,0
5779628,391.45,705,751,0
5779638,391.91,705,749,0
5779648,393.31,705,751,0
5779658,394.29,705,749,0
5779668,395.83,705,751,0
5779678,396.52,705,749,0
5779688,397.57,705,751,0
5779698,398.00,705,749,0
5779708,398.77,705,751,0
5779718,398.88,705,749,0
5779728,399.35,705,751,0
5779738,399.28,705,749,0
5779748,399.80,705,751,0
5779758,400.50,705,749,0
5779768,402.49,705,751,0
5779778,405.65,705,749,0
5779788,411.62,705,751,0
5779799,420.31,705,749,0
5779809,433.12,705,751,0
5779819,449.45,705,749,0
5779829,469.89,705,751,0
5779840,493.06,705,749,0
5779849,518.46,705,751,0
5779868,543.56,814,749,0
5779871,567.22,814,752,0
5779880,587.30,814,750,0
5779890,603.28,814,751,0
5779900,612.84,814,749,0
5779910,616.27,814,751,0
5779920,612.85,814,750,0
5779930,604.11,814,751,0
5779940,590.36,814,749,0
5779950,572.98,814,751,0
5779960,552.72,814,750,0
5779970,532.14,814,751,0
5779980,511.36,814,749,0
5779990,491.96,814,751,0
5780000,473.72,814,749,0
5780011,457.82,814,751,0
5780020,443.94,814,749,0
5780030,432.47,814,751,0
5780040,422.48,814,749,0
5780050,414.49,814,751,0
5780060,407.96,814,749,0
5780070,403.26,814,751,0
5780080,399.54,814,749,0
5780090,397.40,814,751,0
5780100,396.08,814,749,0
5780110,396.27,814,751,0
5780120,397.39,814,749,0
5780130,399.93,814,751,0
5780140,402.95,814,749,0
5780150,406.87,814,751,0
5780160,410.51,814,749,0
5780170,414.25,814,751,0
5780180,417.09,814,749,0
5780190,419.46,814,751,0
5780200,420.35,814,749,0
5780210,420.46,814,751,0
5780220,419.25,814,749,0
5780230,417.55,814,751,0
5780240,414.77,814,749,0
5780250,411.67,814,751,0
5780260,407.70,814,749,0
5780270,403.80,814,751,0
5780280,399.49,814,749,0
5780290,395.61,814,751,0
5780300,391.70,814,749,0
5780311,388.49,814,751,0
5780321,385.47,814,750,0
5780331,383.44,814,751,0
5780341,381.68,814,749,0
5780352,380.84,814,751,0
5780361,380.28,814,750,0
5780371,380.46,814,751,0
5780381,381.13,814,749,0
5780391,382.29,814,751,0
5780401,383.36,814,750,0
5780411,384.88,814,751,0
5780421,386.37,814,749,0
5780431,388.06,814,751,0
5780441,389.59,814,750,0
5780451,391.08,814,751,0
5780461,392.39,814,749,0
5780471,393.86,814,750,0
5780481,394.88,814,749,0
5780491,395.91,814,751,0
5780501,396.45,814,749,0
5780511,396.83,814,750,0
5780521,396.58,814,749,0
5780531,396.36,814,751,0
5780541,395.83,814,749,0
5780551,395.23,814,750,0
5780561,394.61,814,749,0
5780571,394.68,814,751,0
5780581,395.63,814,750,0
5780591,398.62,814,750,0
5780601,403.92,814,749,0
5780611,412.47,814,751,0
5780621,424.80,814,750,0
5780640,441.32,772,748,0
5780643,461.75,772,750,0
5780652,485.44,772,752,0
5780662,510.55,772,749,0
5780672,535.80,772,751,0
5780682,559.17,772,749,0
5780692,579.26,772,751,0
5780702,594.23,772,749,0
5780712,603.25,772,751,0
5780722,605.49,772,750,0
5780732,601.40,772,751,0
5780742,591.38,772,749,0
5780752,576.61,772,750,0
5780762,558.30,772,750,0
5780772,537.81,772,751,0
5780782,516.09,772,749,0
5780792,494.72,772,750,0
5780802,474.41,772,749,0
5780812,455.94,772,751,0
5780823,439.63,772,750,0
5780833,425.47,772,750,0
5780843,413.63,772,750,0
5780853,403.84,772,750,0
5780864,396.05,772,750,0
5780873,390.12,772,750,0
5780883,385.80,772,750,0
5780893,382.99,772,750,0
5780903,381.62,772,750,0
5780913,381.35,772,750,0
5780923,382.31,772,750,0
5780933,384.11,772,750,0
5780943,386.73,772,750,0
5780953,389.85,772,751,0
5780963,393.24,772,750,0
5780973,396.60,772,750,0
5780983,399.63,772,750,0
5780993,402.14,772,750,0
5781003,404.03,772,750,0
5781013,404.96,772,750,0
5781023,405.15,772,750,0
5781033,404.29,772,750,0
5781043,402.66,772,750,0
5781053,400.28,772,750,0
5781063,397.49,772,750,0
5781073,394.26,772,750,0
5781083,390.97,772,750,0
5781093,387.55,772,751,0
5781103,384.43,772,750,0
5781113,381.43,772,750,0
5781123,378.90,772,749,0
5781133,376.70,772,751,0
5781143,375.08,772,750,0
5781153,373.85,772,750,0
5781164,373.04,772,750,0
5781174,372.51,772,750,0
5781184,372.53,772,751,0
5781194,372.76,772,750,0
5781204,373.34,772,751,0
5781214,374.06,772,750,0
5781224,375.07,772,751,0
5781234,376.08,772,750,0
5781244,377.30,772,751,0
5781254,378.28,772,750,0
5781264,379.35,772,751,0
5781274,380.02,772,750,0
5781284,380.66,772,751,0
5781294,380.93,772,750,0
5781304,381.17,772,751,0
5781314,381.03,772,750,0
5781324,380.94,772,751,0
5781335,380.53,772,750,0
5781345,380.28,772,751,0
5781355,379.73,772,750,0
5781365,379.29,772,751,0
5781376,378.56,772,750,0
5781385,378.05,772,751,0
5781395,377.26,772,750,0
5781405,376.71,772,751,0
5781415,375.99,772,750,0
5781425,375.78,772,751,0
5781435,375.84,772,750,0
5781445,377.26,772,751,0
5781455,379.93,772,750,0
5781465,385.01,772,751,0
5781475,392.50,772,750,0
5781485,403.45,772,751,0
5781505,417.42,864,750,0
5781508,435.16,864,752,0
5781517,455.26,864,749,0
5781527,477.12,864,751,0
5781537,498.77,864,749,0
5781548,519.33,864,752,0
5781558,536.59,864,750,0
5781568,549.91,864,751,0
5781578,557.48,864,749,0
5781588,559.74,864,751,0
5781598,556.17,864,749,0
5781608,548.11,864,751,0
5781618,535.60,864,749,0
5781628,520.72,864,751,0
5781638,503.83,864,749,0
5781648,486.78,864,751,0
5781658,469.62,864,749,0
5781668,453.92,864,751,0
5781678,439.29,864,750,0
5781688,426.82,864,751,0
5781698,415.64,864,749,0
5781708,406.62,864,751,0
5781719,398.81,864,749,0
5781729,392.91,864,751,0
5781739,388.01,864,749,0
5781749,384.79,864,751,0
5781760,382.58,864,749,0
5781769,381.89,864,751,0
5781779,381.97,864,749,0
5781789,383.31,864,751,0
5781799,385.19,864,749,0
5781809,388.04,864,751,0
5781819,390.99,864,749,0
5781829,394.42,864,751,0
5781839,397.47,864,750,0
5781849,400.58,864,751,0
5781859,402.81,864,749,0
5781869,404.62,864,751,0
5781879,405.25,864,749,0
5781889,405.39,864,751,0
5781899,404.29,864,750,0
5781909,402.83,864,751,0
5781919,400.31,864,749,0
5781929,397.73,864,751,0
5781939,394.55,864,749,0
5781949,391.65,864,751,0
5781959,388.45,864,750,0
5781969,385.79,864,751,0
5781979,383.02,864,749,0
5781989,380.96,864,751,0
5781999,378.91,864,749,0
5782009,377.57,864,751,0
5782019,376.24,864,749,0
5782029,375.65,864,751,0
5782039,375.12,864,750,0
5782049,375.25,864,751,0
5782060,375.39,864,749,0
5782070,376.09,864,751,0
5782080,376.66,864,749,0
5782090,377.79,864,751,0
5782100,378.63,864,749,0
5782110,379.81,864,751,0
5782120,380.68,864,750,0
5782130,381.72,864,751,0
5782140,382.45,864,749,0
5782150,383.34,864,751,0
5782160,383.84,864,750,0
5782170,384.53,864,751,0
5782180,384.80,864,749,0
5782190,385.20,864,751,0
5782200,385.31,864,750,0
5782210,385.52,864,751,0
5782220,385.41,864,749,0
5782231,385.41,864,751,0
5782241,385.16,864,749,0
5782251,385.07,864,751,0
5782261,384.79,864,749,0
5782272,384.68,864,751,0
5782281,384.48,864,749,0
5782291,384.55,864,751,0
5782301,384.64,864,750,0
5782311,385.13,864,751,0
5782321,385.99,864,749,0
5782331,387.88,864,751,0
5782341,391.09,864,749,0
5782351,396.20,864,751,0
5782361,403.39,864,749,0
5782380,413.21,876,748,0
5782383,426.05,876,752,0
5782392,441.72,876,750,0
5782402,459.20,876,750,0
5782412,477.70,876,750,0
5782422,496.09,876,750,0
5782432,513.33,876,751,0
5782443,528.19,876,750,0
5782452,539.41,876,751,0
5782462,546.40,876,749,0
5782472,549.06,876,751,0
5782482,547.33,876,750,0
5782492,541.57,876,751,0
5782502,532.36,876,749,0
5782512,520.47,876,750,0
5782522,506.78,876,750,0
5782532,492.15,876,750,0
5782542,477.36,876,749,0
5782552,463.20,876,750,0
5782562,450.11,876,750,0
5782572,438.50,876,751,0
5782582,428.45,876,749,0
5782592,419.96,876,750,0
5782602,413.11,876,750,0
5782612,407.59,876,750,0
5782622,403.34,876,749,0
5782632,400.24,876,751,0
5782642,398.28,876,750,0
5782652,397.34,876,750,0
5782662,397.32,876,749,0
5782672,398.00,876,750,0
5782682,399.54,876,750,0
