Time,PPG,IBI,GSR,GSR_Event
5046986,583.19,763,763,0
5046996,538.39,763,763,0
5047006,495.03,763,763,0
5047016,455.38,763,763,0
5047026,421.36,763,763,0
5047036,393.27,763,763,0
5047046,371.72,763,763,0
5047056,357.15,763,764,0
5047066,352.09,763,763,0
5047076,352.40,763,763,0
5047086,356.70,763,763,0
5047096,363.13,763,763,0
5047106,371.02,763,763,0
5047116,379.07,763,763,0
5047127,386.85,763,763,0
5047137,393.37,763,763,0
5047147,398.70,763,764,0
5047157,402.00,763,763,0
5047168,403.46,763,763,0
5047177,402.76,763,764,0
5047187,400.22,763,763,0
5047197,395.70,763,763,0
5047207,389.75,763,764,0
5047217,382.54,763,764,0
5047227,374.79,763,764,0
5047237,366.37,763,763,0
5047247,358.11,763,763,0
5047257,350.07,763,763,0
5047267,342.93,763,764,0
5047277,336.52,763,763,0
5047287,331.44,763,763,0
5047297,327.36,763,763,0
5047307,324.98,763,763,0
5047317,323.53,763,763,0
5047327,323.59,763,763,0
5047337,324.35,763,763,0
5047347,326.30,763,763,0
5047357,328.48,763,763,0
5047367,331.30,763,763,0
5047377,333.86,763,763,0
5047387,336.69,763,763,0
5047397,338.80,763,763,0
5047407,340.83,763,763,0
5047417,342.12,763,763,0
5047427,343.33,763,764,0
5047437,343.96,763,763,0
5047447,344.74,763,763,0
5047457,345.03,763,763,0
5047468,345.67,763,764,0
5047478,345.90,763,763,0
5047488,346.40,763,764,0
5047498,346.62,763,763,0
5047508,347.46,763,764,0
5047518,348.70,763,763,0
5047528,352.00,763,763,0
5047538,357.92,763,763,0
5047548,368.78,763,764,0
5047558,385.22,763,763,0
5047568,409.50,763,763,0
5047578,441.79,763,763,0
5047598,481.24,783,763,0
5047601,524.24,783,766,0
5047610,568.27,783,765,0
5047620,610.23,783,765,0
5047630,648.30,783,766,0
5047640,679.93,783,765,0
5047650,703.91,783,765,0
5047660,720.73,783,764,0
5047670,732.51,783,766,0
5047681,740.76,783,764,0
5047691,745.89,783,765,0
5047701,745.75,783,764,0
5047711,739.40,783,766,0
5047721,725.86,783,764,0
5047731,705.42,783,765,0
5047741,677.78,783,764,0
5047751,643.77,783,766,0
5047761,604.20,783,764,0
5047771,562.95,783,765,0
5047781,521.78,783,764,0
5047791,483.10,783,766,0
5047801,447.33,783,764,0
5047811,416.12,783,765,0
5047821,389.17,783,764,0
5047831,367.47,783,766,0
5047841,350.45,783,764,0
5047852,338.78,783,765,0
5047862,331.65,783,764,0
5047872,329.27,783,765,0
5047882,330.43,783,764,0
5047892,335.02,783,765,0
5047902,341.65,783,764,0
5047912,350.03,783,766,0
5047922,358.81,783,764,0
5047932,367.56,783,765,0
5047942,375.24,783,764,0
5047952,381.72,783,765,0
5047962,386.22,783,764,0
5047972,388.81,783,765,0
5047982,389.13,783,764,0
5047992,387.50,783,766,0
5048002,383.92,783,764,0
5048012,378.93,783,765,0
5048023,372.57,783,764,0
5048033,365.50,783,766,0
5048043,357.98,783,764,0
5048053,350.57,783,765,0
5048064,343.50,783,765,0
5048073,337.26,783,766,0
5048083,331.70,783,764,0
5048093,327.12,783,765,0
5048103,323.44,783,764,0
5048113,320.86,783,766,0
5048123,319.49,783,764,0
5048133,318.96,783,765,0
5048143,319.18,783,765,0
5048153,320.24,783,765,0
5048163,321.88,783,764,0
5048173,324.11,783,765,0
5048183,326.69,783,764,0
5048193,329.18,783,766,0
5048203,331.74,783,764,0
5048213,334.09,783,765,0
5048223,336.29,783,764,0
5048233,338.00,783,765,0
5048243,339.25,783,764,0
5048253,340.03,783,765,0
5048263,340.62,783,764,0
5048273,341.59,783,765,0
5048283,343.60,783,764,0
5048293,347.79,783,765,0
5048303,355.91,783,764,0
5048313,369.57,783,765,0
5048323,390.10,783,765,0
5048333,418.82,783,766,0
5048343,456.03,783,764,0
5048353,498.62,783,766,0
5048373,543.39,776,764,0
5048376,587.59,776,766,0
5048385,628.56,776,765,0
5048395,664.26,776,765,0
5048406,692.77,776,765,0
5048415,712.94,776,765,0
5048425,727.06,776,765,0
5048435,736.94,776,765,0
5048445,743.86,776,765,0
5048455,748.70,776,765,0
5048465,749.35,776,765,0
5048475,744.27,776,765,0
5048485,732.88,776,765,0
5048495,714.74,776,765,0
5048505,689.92,776,764,0
5048515,658.40,776,765,0
5048525,620.99,776,765,0
5048535,580.88,776,765,0
5048545,540.76,776,764,0
5048555,502.05,776,765,0
5048565,466.46,776,765,0
5048576,434.69,776,765,0
5048585,407.91,776,764,0
5048595,386.04,776,765,0
5048605,369.70,776,765,0
5048615,358.43,776,765,0
5048625,352.43,776,764,0
5048635,350.63,776,765,0
5048645,353.01,776,765,0
5048655,358.07,776,765,0
5048665,365.37,776,765,0
5048675,373.62,776,765,0
5048685,382.01,776,765,0
5048695,389.29,776,765,0
5048705,395.42,776,764,0
5048715,399.49,776,765,0
5048725,401.66,776,765,0
5048735,401.33,776,765,0
5048745,398.79,776,764,0
5048755,394.44,776,765,0
5048765,388.82,776,765,0
5048775,381.67,776,765,0
5048785,373.80,776,765,0
5048795,365.29,776,765,0
5048805,357.06,776,765,0
5048815,348.86,776,765,0
5048825,341.44,776,765,0
5048835,334.75,776,765,0
5048845,329.64,776,765,0
5048855,325.55,776,765,0
5048865,323.07,776,765,0
5048876,321.51,776,765,0
5048886,321.57,776,765,0
5048896,322.43,776,765,0
5048906,324.53,776,765,0
5048916,327.03,776,765,0
5048926,330.28,776,765,0
5048936,333.58,776,765,0
5048946,337.26,776,765,0
5048956,340.61,776,765,0
5048966,343.94,776,765,0
5048976,346.45,776,765,0
5048986,348.84,776,765,0
5048996,350.35,776,765,0
5049006,351.87,776,765,0
5049016,352.47,776,765,0
5049026,352.88,776,765,0
5049036,352.66,776,765,0
5049047,353.11,776,765,0
5049057,353.80,776,765,0
5049067,357.03,776,765,0
5049077,362.89,776,764,0
5049088,374.41,776,766,0
5049097,392.07,776,765,0
5049107,418.41,776,765,0
5049117,453.26,776,765,0
5049127,494.49,776,766,0
5049146,538.23,773,764,0
5049149,582.35,773,767,0
5049158,623.56,773,764,0
5049168,660.25,773,766,0
5049178,689.70,773,765,0
5049188,710.88,773,766,0
5049198,725.66,773,764,0
5049208,736.00,773,766,0
5049218,743.24,773,765,0
5049228,748.31,773,766,0
5049238,751.82,773,764,0
5049248,753.42,773,766,0
5049259,750.85,773,765,0
5049268,743.65,773,766,0
5049278,730.34,773,764,0
5049288,711.12,773,766,0
5049298,685.16,773,764,0
5049308,653.27,773,765,0
5049318,616.20,773,764,0
5049328,577.36,773,766,0
5049338,537.52,773,764,0
5049348,499.52,773,766,0
5049358,463.54,773,764,0
5049368,431.62,773,766,0
5049378,403.36,773,764,0
5049388,380.11,773,766,0
5049398,361.31,773,764,0
5049408,347.89,773,766,0
5049418,338.79,773,764,0
5049428,334.53,773,766,0
5049438,333.72,773,764,0
5049448,336.51,773,765,0
5049458,341.20,773,764,0
5049468,347.78,773,765,0
5049478,354.58,773,764,0
5049488,361.65,773,766,0
5049498,367.45,773,764,0
5049508,372.33,773,766,0
5049518,375.06,773,764,0
5049528,376.16,773,766,0
5049538,374.78,773,764,0
5049548,371.89,773,766,0
5049559,366.91,773,764,0
5049569,361.06,773,766,0
5049579,353.97,773,764,0
5049589,346.87,773,766,0
5049600,339.62,773,764,0
5049609,333.43,773,766,0
5049619,327.86,773,764,0
5049629,323.83,773,765,0
5049639,320.67,773,764,0
5049649,319.14,773,766,0
5049659,318.50,773,764,0
5049669,319.29,773,766,0
5049679,320.70,773,764,0
5049689,323.28,773,766,0
5049699,325.98,773,764,0
5049709,329.46,773,766,0
5049719,332.79,773,764,0
5049729,336.45,773,766,0
5049739,339.62,773,764,0
5049749,342.78,773,766,0
5049759,345.16,773,764,0
5049769,347.55,773,766,0
5049779,349.19,773,764,0
5049789,350.67,773,766,0
5049799,351.63,773,764,0
5049809,352.90,773,766,0
5049819,354.21,773,764,0
5049829,357.06,773,766,0
5049839,361.97,773,764,0
5049849,371.11,773,765,0
5049859,385.35,773,764,0
5049869,407.10,773,766,0
5049879,436.90,773,764,0
5049889,474.60,773,766,0
5049909,516.59,763,764,0
5049912,560.30,763,766,0
5049921,602.68,763,765,0
5049931,641.82,763,766,0
5049942,674.87,763,765,0
5049951,700.41,763,766,0
5049961,718.29,763,765,0
5049971,730.80,763,766,0
5049981,739.56,763,764,0
5049991,745.69,763,766,0
5050001,749.98,763,764,0
5050011,752.99,763,766,0
5050021,752.78,763,765,0
5050031,747.87,763,766,0
5050041,736.73,763,764,0
5050051,718.59,763,766,0
5050061,693.09,763,764,0
5050071,660.66,763,766,0
5050081,621.55,763,764,0
5050091,578.61,763,765,0
5050101,534.37,763,764,0
5050112,491.53,763,766,0
5050121,452.07,763,765,0
5050131,417.42,763,765,0
5050141,388.02,763,764,0
5050151,364.62,763,765,0
5050161,347.37,763,764,0
5050171,336.42,763,765,0
5050181,331.32,763,764,0
5050191,331.44,763,766,0
5050201,335.94,763,764,0
5050211,344.01,763,765,0
5050221,354.42,763,764,0
5050231,366.25,763,766,0
5050241,378.18,763,765,0
5050251,389.27,763,765,0
5050261,398.49,763,764,0
5050271,405.37,763,766,0
5050281,409.50,763,765,0
5050291,410.94,763,765,0
5050301,409.58,763,764,0
5050311,405.89,763,766,0
5050321,400.27,763,765,0
5050331,393.33,763,765,0
5050341,385.39,763,764,0
5050351,377.00,763,766,0
5050361,368.56,763,764,0
5050371,360.72,763,765,0
5050381,353.56,763,764,0
5050391,347.22,763,766,0
5050401,341.93,763,764,0
5050412,337.79,763,765,0
5050422,334.94,763,764,0
5050432,333.37,763,765,0
5050442,333.00,763,765,0
5050452,333.56,763,765,0
5050462,335.11,763,764,0
5050472,337.22,763,766,0
5050482,339.94,763,765,0
5050492,342.61,763,765,0
5050502,345.26,763,765,0
5050512,347.45,763,765,0
5050522,349.37,763,765,0
5050532,350.63,763,765,0
5050542,351.56,763,765,0
5050552,352.29,763,766,0
5050562,353.79,763,765,0
5050572,356.81,763,765,0
5050583,363.08,763,765,0
5050593,374.11,763,765,0
5050603,392.12,763,765,0
5050613,418.31,763,765,0
5050624,453.58,763,765,0
5050633,494.76,763,766,0
5050643,538.98,763,765,0
5050653,583.17,763,765,0
5050673,624.90,763,764,0
5050676,661.45,763,766,0
5050685,690.93,763,765,0
5050695,711.82,763,765,0
5050705,726.45,763,765,0
5050715,736.64,763,765,0
5050725,743.78,763,765,0
5050735,748.73,763,765,0
5050745,749.63,763,765,0
5050755,744.94,763,765,0
5050765,733.90,763,765,0
5050775,715.46,763,765,0
5050785,690.03,763,765,0
5050796,657.45,763,765,0
5050806,618.70,763,765,0
5050816,576.36,763,764,0
5050826,533.57,763,765,0
5050836,491.78,763,764,0
5050846,453.75,763,765,0
5050856,419.54,763,764,0
5050866,390.92,763,766,0
5050876,367.20,763,764,0
5050886,349.87,763,765,0
5050896,337.95,763,764,0
5050906,332.05,763,765,0
5050916,331.05,763,764,0
5050926,334.72,763,765,0
5050936,341.36,763,764,0
5050946,350.98,763,765,0
5050956,361.49,763,764,0
5050967,372.87,763,766,0
5050977,383.41,763,764,0
5050987,392.71,763,765,0
5050997,399.91,763,764,0
5051008,405.17,763,765,0
5051017,407.65,763,764,0
5051027,408.05,763,765,0
5051037,405.72,763,764,0
5051047,401.82,763,766,0
5051057,395.87,763,764,0
5051067,389.23,763,765,0
5051077,381.57,763,764,0
5051087,374.12,763,765,0
5051097,366.49,763,764,0
5051107,359.75,763,765,0
5051117,353.35,763,764,0
5051127,348.36,763,765,0
5051137,343.97,763,764,0
5051147,341.06,763,765,0
5051157,338.77,763,764,0
5051167,337.81,763,765,0
5051177,337.40,763,764,0
5051187,338.13,763,765,0
5051197,339.17,763,764,0
5051207,341.09,763,765,0
5051217,343.03,763,764,0
5051227,345.64,763,765,0
5051237,347.93,763,764,0
5051247,350.52,763,765,0
5051257,352.42,763,764,0
5051267,354.44,763,765,0
5051277,355.59,763,764,0
5051287,356.44,763,765,0
5051297,356.23,763,764,0
5051308,355.73,763,765,0
5051318,354.31,763,764,0
5051328,352.89,763,765,0
5051338,350.91,763,764,0
5051348,349.82,763,765,0
5051358,349.92,763,764,0
5051368,353.20,763,765,0
5051378,360.77,763,764,0
5051388,375.07,763,765,0
5051398,397.03,763,764,0
5051408,428.61,763,766,0
5051418,467.90,763,764,0
5051438,511.90,765,762,0
5051441,557.32,765,765,0
5051450,601.53,765,766,0
5051460,641.57,765,764,0
5051470,675.47,765,765,0
5051480,700.96,765,764,0
5051490,718.84,765,766,0
5051500,731.36,765,764,0
5051510,740.08,765,765,0
5051521,746.19,765,764,0
5051531,750.42,765,765,0
5051541,752.82,765,764,0
5051551,750.99,765,765,0
5051561,743.28,765,764,0
5051571,729.01,765,765,0
5051581,707.53,765,764,0
5051591,678.57,765,764,0
5051601,642.74,765,764,0
5051611,601.12,765,765,0
5051621,557.03,765,764,0
5051631,513.01,765,765,0
5051641,470.88,765,764,0
5051651,432.47,765,765,0
5051661,398.99,765,764,0
5051671,370.75,765,765,0
5051681,348.41,765,764,0
5051692,332.13,765,765,0
5051702,322.06,765,764,0
5051712,317.59,765,764,0
5051722,318.27,765,764,0
5051732,323.12,765,765,0
5051742,331.40,765,764,0
5051752,341.69,765,765,0
5051762,353.23,765,764,0
5051772,364.47,765,765,0
5051782,375.17,765,764,0
5051792,383.91,765,764,0
5051802,390.62,765,764,0
5051812,394.68,765,765,0
5051822,396.23,765,764,0
5051832,395.05,765,765,0
5051842,391.99,765,764,0
5051852,386.85,765,765,0
5051863,380.64,765,765,0
5051873,373.29,765,764,0
5051883,365.83,765,764,0
5051893,358.25,765,764,0
5051904,351.45,765,765,0
5051913,345.14,765,764,0
5051923,339.91,765,764,0
5051933,335.48,765,765,0
5051943,332.60,765,765,0
5051953,330.53,765,764,0
5051963,329.81,765,764,0
5051973,329.74,765,765,0
5051983,330.80,765,765,0
5051993,332.36,765,764,0
5052003,334.70,765,764,0
5052013,336.89,765,764,0
5052023,339.49,765,764,0
5052033,341.83,765,765,0
5052043,344.28,765,764,0
5052053,346.13,765,764,0
5052063,347.93,765,765,0
5052073,349.11,765,764,0
5052083,350.32,765,764,0
5052093,350.87,765,765,0
5052103,351.29,765,764,0
5052113,350.95,765,764,0
5052123,350.53,765,764,0
5052133,349.35,765,765,0
5052143,348.26,765,765,0
5052153,346.68,765,764,0
5052163,345.66,765,764,0
5052173,345.29,765,765,0
5052183,347.30,765,764,0
5052193,352.40,765,764,0
5052204,363.04,765,764,0
5052214,380.30,765,764,0
5052224,406.52,765,765,0
5052243,441.89,806,764,0
5052247,483.88,806,766,0
5052255,528.96,806,764,0
5052265,574.62,806,765,0
5052275,617.67,806,764,0
5052285,655.83,806,765,0
5052295,686.57,806,764,0
5052305,708.72,806,765,0
5052315,724.19,806,764,0
5052325,735.02,806,765,0
5052335,742.56,806,764,0
5052345,747.83,806,765,0
5052355,751.53,806,764,0
5052365,752.18,806,765,0
5052375,747.76,806,764,0
5052385,737.46,806,765,0
5052395,720.09,806,764,0
5052405,695.72,806,765,0
5052416,664.18,806,764,0
5052425,626.45,806,765,0
5052435,584.49,806,764,0
5052445,541.66,806,765,0
5052455,499.20,806,764,0
5052465,459.93,806,765,0
5052475,424.21,806,764,0
5052485,393.59,806,765,0
5052495,367.61,806,764,0
5052505,347.46,806,765,0
5052515,332.53,806,764,0
5052525,323.59,806,765,0
5052535,319.34,806,764,0
5052545,320.05,806,765,0
5052555,324.11,806,764,0
5052565,331.49,806,765,0
5052575,340.39,806,764,0
5052585,350.60,806,765,0
5052595,360.36,806,764,0
5052605,369.51,806,765,0
5052615,376.69,806,764,0
5052625,382.27,806,765,0
5052635,385.19,806,764,0
5052645,386.03,806,765,0
5052655,384.14,806,764,0
5052665,380.75,806,765,0
5052675,375.51,806,764,0
5052685,369.66,806,765,0
5052695,362.82,806,764,0
5052705,356.06,806,765,0
5052716,349.27,806,764,0
5052726,343.36,806,765,0
5052736,337.72,806,764,0
5052746,333.31,806,765,0
5052756,329.40,806,764,0
5052766,326.88,806,765,0
5052776,324.94,806,764,0
5052786,324.28,806,765,0
5052796,324.19,806,764,0
5052806,325.21,806,765,0
5052816,326.39,806,764,0
5052826,328.41,806,765,0
5052836,330.13,806,764,0
5052846,332.36,806,765,0
5052856,334.23,806,764,0
5052866,336.26,806,765,0
5052876,337.72,806,764,0
5052887,339.35,806,765,0
5052897,340.44,806,764,0
5052907,341.77,806,765,0
5052917,342.57,806,764,0
5052928,343.25,806,765,0
5052937,343.35,806,763,0
5052947,343.54,806,765,0
5052957,343.25,806,764,0
5052967,342.83,806,765,0
5052977,341.98,806,764,0
5052987,341.26,806,765,0
5052997,340.54,806,764,0
5053007,340.76,806,765,0
5053017,342.03,806,764,0
5053027,346.05,806,765,0
5053037,353.97,806,764,0
5053047,367.90,806,765,0
5053057,388.63,806,764,0
5053076,418.06,833,762,0
5053079,455.97,833,764,0
5053088,499.31,833,765,0
5053099,544.60,833,763,0
5053108,589.29,833,765,0
5053118,630.39,833,764,0
5053128,666.23,833,765,0
5053138,694.49,833,763,0
5053148,714.27,833,765,0
5053158,728.08,833,764,0
5053168,737.78,833,765,0
5053178,744.53,833,763,0
5053188,749.26,833,765,0
5053198,749.70,833,764,0
5053208,744.60,833,765,0
5053218,732.81,833,763,0
5053228,714.31,833,765,0
5053238,688.63,833,763,0
5053248,656.43,833,765,0
5053258,617.81,833,763,0
5053268,576.30,833,765,0
5053278,534.25,833,764,0
5053288,494.02,833,765,0
5053298,456.38,833,763,0
5053308,422.97,833,765,0
5053318,393.92,833,764,0
5053328,370.20,833,765,0
5053338,351.80,833,763,0
5053348,338.96,833,765,0
5053358,331.30,833,763,0
5053368,328.72,833,765,0
5053378,330.35,833,763,0
5053388,335.73,833,765,0
5053399,343.78,833,763,0
5053409,353.66,833,765,0
5053419,364.18,833,763,0
5053429,374.41,833,765,0
5053440,383.54,833,763,0
5053449,391.01,833,765,0
5053459,396.24,833,763,0
5053469,398.91,833,765,0
5053479,399.06,833,764,0
5053489,396.86,833,765,0
5053499,392.62,833,763,0
5053509,386.69,833,765,0
5053519,379.58,833,764,0
5053529,371.86,833,765,0
5053539,363.98,833,763,0
5053549,356.23,833,765,0
5053559,349.04,833,763,0
5053569,342.69,833,765,0
5053579,337.51,833,763,0
5053589,333.41,833,764,0
5053599,330.55,833,764,0
5053609,328.67,833,765,0
5053619,327.87,833,763,0
5053629,327.86,833,765,0
5053639,328.55,833,763,0
5053649,329.63,833,765,0
5053659,331.11,833,763,0
5053669,332.58,833,764,0
5053679,334.33,833,763,0
5053689,336.08,833,765,0
5053699,337.94,833,763,0
5053709,339.84,833,764,0
5053719,341.78,833,763,0
5053729,343.56,833,764,0
5053740,345.32,833,763,0
5053750,346.77,833,764,0
5053760,348.04,833,764,0
5053770,348.67,833,764,0
5053780,349.07,833,764,0
5053790,348.70,833,764,0
5053800,348.06,833,764,0
5053810,346.89,833,764,0
5053820,345.76,833,764,0
5053830,344.89,833,764,0
5053840,345.70,833,764,0
5053850,348.87,833,764,0
5053860,356.54,833,764,0
5053870,369.66,833,764,0
5053880,390.34,833,763,0
5053890,419.42,833,764,0
5053910,457.39,833,763,0
5053913,500.43,833,765,0
5053922,545.56,833,764,0
5053932,589.79,833,764,0
5053942,630.95,833,764,0
5053953,666.45,833,763,0
5053963,694.60,833,764,0
5053973,714.31,833,764,0
5053983,728.10,833,765,0
5053993,737.76,833,763,0
5054003,744.52,833,764,0
5054013,747.49,833,764,0
5054023,745.41,833,764,0
5054033,736.89,833,763,0
5054043,721.92,833,764,0
5054053,699.83,833,764,0
5054063,671.13,833,764,0
5054073,635.77,833,763,0
5054083,596.67,833,764,0
5054093,555.84,833,764,0
5054103,516.12,833,764,0
5054113,478.02,833,763,0
5054124,443.69,833,764,0
5054134,413.14,833,763,0
5054144,387.77,833,765,0
5054154,366.84,833,763,0
5054164,351.46,833,764,0
5054174,340.65,833,763,0
5054184,335.27,833,764,0
5054194,333.95,833,763,0
5054204,336.92,833,764,0
5054214,342.56,833,763,0
5054224,350.83,833,765,0
5054234,359.93,833,763,0
5054244,369.85,833,764,0
5054254,378.85,833,763,0
5054264,387.12,833,764,0
5054274,393.30,833,763,0
5054284,397.88,833,764,0
5054295,399.85,833,763,0
5054305,400.02,833,764,0
5054315,397.79,833,763,0
5054325,394.12,833,764,0
5054336,388.60,833,763,0
5054345,382.46,833,764,0
5054355,375.30,833,763,0
5054365,368.35,833,764,0
5054375,361.22,833,763,0
5054385,354.98,833,764,0
5054395,349.16,833,763,0
5054405,344.70,833,764,0
5054415,340.93,833,763,0
5054425,338.55,833,764,0
5054435,336.71,833,763,0
5054445,336.07,833,764,0
5054455,335.84,833,763,0
5054465,336.70,833,764,0
5054475,337.82,833,763,0
5054485,339.72,833,765,0
5054495,341.60,833,763,0
5054505,343.99,833,765,0
5054515,346.14,833,763,0
5054525,348.54,833,765,0
5054535,350.39,833,763,0
5054545,352.25,833,765,0
5054555,353.33,833,763,0
5054565,354.34,833,765,0
5054575,354.67,833,763,0
5054585,354.90,833,765,0
5054595,354.50,833,763,0
5054605,354.09,833,764,0
5054615,353.08,833,763,0
5054625,352.16,833,765,0
5054636,350.74,833,763,0
5054646,349.49,833,765,0
5054656,348.06,833,763,0
5054666,347.22,833,765,0
5054676,347.07,833,763,0
5054686,348.81,833,765,0
5054696,353.15,833,763,0
5054706,361.98,833,765,0
5054716,376.51,833,763,0
5054726,398.34,833,765,0
5054745,428.16,836,764,0
5054748,466.17,836,765,0
5054757,508.80,836,763,0
5054767,553.26,836,765,0
5054777,596.64,836,763,0
5054787,636.52,836,765,0
5054797,670.73,836,763,0
5054807,697.73,836,764,0
5054817,716.62,836,763,0
5054827,729.89,836,765,0
5054837,739.18,836,763,0
5054848,745.64,836,765,0
5054857,750.16,836,763,0
5054867,752.26,836,765,0
5054877,749.91,836,763,0
5054887,741.88,836,764,0
5054897,727.69,836,763,0
5054907,707.04,836,765,0
5054917,679.86,836,763,0
5054927,646.38,836,764,0
5054937,608.30,836,763,0
5054947,568.61,836,765,0
5054957,529.34,836,763,0
5054967,491.87,836,764,0
5054977,457.32,836,763,0
5054987,426.88,836,765,0
5054997,400.99,836,763,0
5055007,379.95,836,764,0
5055017,363.85,836,763,0
5055027,352.75,836,765,0
5055037,346.40,836,763,0
5055047,344.39,836,764,0
5055057,345.90,836,763,0
5055067,350.39,836,765,0
5055077,356.74,836,763,0
5055087,364.06,836,765,0
5055097,371.63,836,763,0
5055107,378.81,836,765,0
5055117,385.00,836,763,0
5055127,389.80,836,765,0
5055137,392.64,836,763,0
5055148,393.69,836,765,0
5055158,392.84,836,763,0
5055168,390.06,836,764,0
5055178,385.71,836,763,0
5055188,380.01,836,764,0
5055198,373.41,836,763,0
5055208,366.39,836,764,0
5055218,359.37,836,763,0
5055228,352.70,836,764,0
5055238,346.92,836,763,0
5055248,341.93,836,764,0
5055258,338.01,836,763,0
5055268,335.05,836,764,0
5055278,333.28,836,763,0
5055288,332.17,836,765,0
5055298,331.99,836,763,0
5055308,332.16,836,765,0
5055319,333.01,836,764,0
5055329,334.00,836,764,0
5055339,335.45,836,764,0
5055349,336.69,836,764,0
5055360,338.37,836,764,0
5055369,339.76,836,764,0
5055379,341.59,836,764,0
5055389,342.91,836,764,0
5055399,344.48,836,764,0
5055409,345.58,836,764,0
5055419,346.78,836,764,0
5055429,347.40,836,764,0
5055439,348.18,836,764,0
5055449,348.38,836,764,0
5055459,348.70,836,764,0
5055469,348.49,836,764,0
5055479,348.17,836,764,0
5055489,347.39,836,764,0
5055499,346.67,836,763,0
5055509,345.49,836,764,0
5055519,344.61,836,764,0
5055529,344.09,836,764,0
5055539,345.17,836,763,0
5055549,348.64,836,764,0
5055559,356.42,836,764,0
5055569,369.28,836,764,0
5055579,389.08,836,764,0
5055598,416.14,853,763,0
5055601,451.97,853,765,0
5055610,493.51,853,764,0
5055620,537.76,853,764,0
5055630,581.50,853,764,0
5055640,622.66,853,764,0
5055650,658.85,853,764,0
5055660,688.77,853,764,0
5055670,710.35,853,764,0
5055680,725.46,853,764,0
5055690,735.99,853,764,0
5055700,743.37,853,764,0
5055710,746.69,853,764,0
5055720,745.07,853,764,0
5055730,737.25,853,764,0
5055740,723.20,853,764,0
5055750,702.61,853,764,0
5055760,676.03,853,764,0
5055770,643.28,853,764,0
5055780,607.15,853,764,0
5055790,569.48,853,764,0
5055800,532.86,853,764,0
5055810,497.93,853,764,0
5055820,466.24,853,763,0
5055831,437.75,853,764,0
5055841,413.83,853,764,0
5055851,393.86,853,764,0
5055861,378.61,853,764,0
5055872,367.37,853,764,0
5055881,360.83,853,764,0
5055891,357.84,853,764,0
5055901,358.66,853,764,0
5055911,361.89,853,764,0
5055921,367.54,853,764,0
5055931,374.28,853,764,0
5055941,381.91,853,764,0
5055951,388.92,853,764,0
5055961,395.59,853,764,0
5055971,400.47,853,764,0
5055981,404.06,853,764,0
5055991,405.37,853,764,0
5056001,405.09,853,764,0
5056011,402.70,853,764,0
5056021,398.98,853,764,0
5056031,393.33,853,764,0
5056041,387.01,853,765,0
5056051,379.60,853,764,0
5056061,372.30,853,764,0
5056071,364.58,853,764,0
5056081,357.51,853,765,0
5056091,350.67,853,764,0
5056101,345.11,853,764,0
5056111,340.15,853,764,0
5056121,336.59,853,764,0
5056131,333.71,853,764,0
5056141,332.26,853,764,0
5056151,331.32,853,764,0
5056161,331.74,853,764,0
5056172,332.42,853,764,0
5056182,334.14,853,764,0
5056192,335.81,853,763,0
5056202,338.05,853,765,0
5056212,339.97,853,763,0
5056222,342.29,853,765,0
5056232,343.96,853,763,0
5056242,345.90,853,765,0
5056252,347.13,853,763,0
5056262,348.55,853,764,0
5056272,349.24,853,763,0
5056282,350.03,853,765,0
5056292,350.06,853,763,0
5056302,350.21,853,765,0
5056312,349.64,853,763,0
5056322,349.14,853,765,0
5056332,348.33,853,763,0
5056343,348.32,853,765,0
5056353,349.04,853,763,0
5056363,352.24,853,765,0
5056373,358.47,853,763,0
5056384,369.60,853,765,0
5056393,386.13,853,763,0
5056403,409.58,853,765,0
5056413,439.66,853,763,0
5056433,476.49,834,762,0
5056436,517.44,834,764,0
5056445,559.74,834,765,0
5056455,600.53,834,763,0
5056465,638.09,834,765,0
5056475,670.29,834,763,0
5056485,696.35,834,765,0
5056495,714.71,834,763,0
5056505,724.87,834,765,0
5056515,727.35,834,763,0
5056525,722.53,834,765,0
5056535,710.33,834,763,0
5056545,691.16,834,765,0
5056556,665.27,834,763,0
5056566,634.16,834,765,0
5056576,600.17,834,763,0
5056586,565.06,834,765,0
5056596,530.37,834,763,0
5056606,497.69,834,765,0
5056616,467.70,834,763,0
5056626,441.13,834,765,0
5056636,418.12,834,763,0
5056646,398.71,834,765,0
5056656,382.94,834,763,0
5056666,370.79,834,765,0
5056676,362.15,834,763,0
5056686,356.92,834,765,0
5056696,354.84,834,763,0
5056706,355.62,834,765,0
5056716,358.86,834,763,0
5056727,364.05,834,764,0
5056737,370.59,834,763,0
5056747,377.70,834,765,0
5056757,384.90,834,763,0
5056768,391.40,834,765,0
5056777,396.90,834,763,0
5056787,400.74,834,765,0
5056797,402.92,834,763,0
5056807,403.03,834,764,0
5056817,401.35,834,763,0
5056827,397.77,834,765,0
5056837,392.91,834,763,0
5056847,386.77,834,765,0
5056857,379.98,834,763,0
5056867,372.61,834,765,0
5056877,365.44,834,763,0
5056887,358.45,834,764,0
5056897,352.32,834,763,0
5056907,346.95,834,764,0
5056917,342.72,834,763,0
5056927,339.33,834,764,0
5056937,337.22,834,764,0
5056947,335.95,834,765,0
5056957,335.71,834,763,0
5056967,335.88,834,764,0
5056977,336.69,834,764,0
5056987,337.73,834,765,0
5056997,339.14,834,763,0
5057007,340.47,834,765,0
5057017,341.91,834,764,0
5057027,343.27,834,765,0
5057037,344.69,834,763,0
5057047,345.77,834,764,0
5057057,346.87,834,764,0
5057068,347.68,834,764,0
5057078,348.42,834,764,0
5057088,348.63,834,764,0
5057098,348.74,834,764,0
5057108,348.31,834,764,0
5057118,347.79,834,764,0
5057128,346.69,834,764,0
5057138,345.67,834,764,0
5057148,344.36,834,764,0
5057158,343.73,834,764,0
5057168,343.64,834,764,0
5057178,345.64,834,764,0
5057188,350.20,834,764,0
5057198,358.88,834,764,0
5057208,372.33,834,764,0
5057218,392.29,834,764,0
5057238,418.73,805,763,0
5057241,452.46,805,766,0
5057250,491.83,805,764,0
5057260,534.14,805,765,0
5057270,576.44,805,764,0
5057281,616.59,805,764,0
5057291,652.29,805,764,0
5057301,682.42,805,765,0
5057311,704.66,805,764,0
5057321,718.18,805,765,0
5057331,723.35,805,764,0
5057341,721.15,805,765,0
5057351,711.55,805,764,0
5057361,695.35,805,765,0
5057371,672.75,805,763,0
5057381,645.52,805,765,0
5057391,614.98,805,763,0
5057401,583.44,805,765,0
5057411,551.72,805,764,0
5057421,521.85,805,765,0
5057431,493.57,805,763,0
5057441,468.03,805,765,0
5057452,444.87,805,763,0
5057462,424.94,805,765,0
5057472,407.56,805,763,0
5057482,393.51,805,765,0
5057492,382.00,805,763,0
5057502,373.94,805,765,0
5057512,368.47,805,763,0
5057522,366.15,805,765,0
5057532,366.02,805,763,0
5057542,368.41,805,765,0
5057552,372.06,805,764,0
5057562,377.06,805,765,0
5057572,382.22,805,763,0
5057582,387.77,805,765,0
5057592,392.55,805,764,0
5057602,396.59,805,765,0
5057612,398.98,805,763,0
5057623,400.23,805,765,0
5057633,399.52,805,763,0
5057643,397.65,805,765,0
5057653,394.03,805,763,0
5057664,389.35,805,765,0
5057673,383.71,805,764,0
5057683,377.89,805,765,0
5057693,371.58,805,763,0
5057703,365.79,805,765,0
5057713,360.07,805,763,0
5057723,355.33,805,765,0
5057733,351.16,805,763,0
5057743,347.94,805,765,0
5057753,345.17,805,764,0
5057763,343.41,805,765,0
5057773,342.13,805,763,0
5057783,341.79,805,765,0
5057793,341.90,805,763,0
5057803,342.74,805,765,0
5057813,343.80,805,763,0
5057823,345.45,805,765,0
5057833,347.20,805,764,0
5057843,349.28,805,765,0
5057853,351.08,805,763,0
5057863,352.94,805,765,0
5057873,354.33,805,763,0
5057883,355.60,805,765,0
5057893,356.28,805,763,0
5057903,356.75,805,765,0
5057913,356.61,805,763,0
5057923,356.56,805,765,0
5057933,355.79,805,763,0
5057943,354.95,805,765,0
5057953,353.77,805,763,0
5057964,352.64,805,765,0
5057974,351.25,805,763,0
5057984,350.14,805,765,0
5057994,349.24,805,763,0
5058004,349.47,805,765,0
5058014,351.21,805,763,0
5058024,355.69,805,765,0
5058034,363.84,805,763,0
5058044,376.88,805,765,0
5058054,395.34,805,763,0
5058073,420.01,836,762,0
5058076,451.21,836,765,0
5058085,488.09,836,765,0
5058095,528.39,836,763,0
5058105,569.42,836,765,0
5058115,608.72,836,764,0
5058125,644.59,836,765,0
5058135,675.01,836,763,0
5058145,697.64,836,765,0
5058155,711.25,836,764,0
5058165,715.84,836,765,0
5058176,712.20,836,764,0
5058185,701.43,836,765,0
5058195,683.99,836,764,0
5058205,660.68,836,765,0
5058215,633.39,836,763,0
5058225,604.00,836,765,0
5058235,574.26,836,764,0
5058245,545.25,836,765,0
5058255,517.66,836,764,0
5058265,492.26,836,765,0
5058275,469.68,836,764,0
5058285,449.81,836,765,0
5058295,432.59,836,764,0
5058305,417.72,836,765,0
5058315,405.33,836,764,0
5058325,395.24,836,765,0
5058335,387.46,836,764,0
5058345,381.75,836,765,0
5058355,378.18,836,764,0
5058365,376.54,836,765,0
5058375,376.72,836,764,0
5058385,378.43,836,765,0
5058395,381.30,836,764,0
5058405,384.73,836,765,0
5058415,388.45,836,764,0
5058425,391.83,836,765,0
5058435,394.67,836,764,0
5058445,396.52,836,765,0
5058455,397.22,836,764,0
5058465,396.56,836,765,0
5058476,394.80,836,764,0
5058486,391.65,836,765,0
5058496,387.68,836,764,0
5058506,382.76,836,764,0
5058516,377.48,836,764,0
5058526,371.89,836,765,0
5058536,366.52,836,764,0
5058546,361.44,836,764,0
5058556,357.06,836,764,0
5058566,353.14,836,765,0
5058576,350.32,836,764,0
5058586,348.04,836,764,0
5058596,346.57,836,764,0
5058606,345.58,836,765,0
5058616,345.19,836,764,0
5058626,345.05,836,764,0
5058636,345.55,836,764,0
5058647,346.03,836,765,0
5058657,347.00,836,764,0
5058667,347.99,836,764,0
5058677,349.41,836,764,0
5058688,350.53,836,764,0
5058697,351.91,836,764,0
5058707,352.92,836,764,0
5058717,354.10,836,764,0
5058727,354.80,836,764,0
5058737,355.63,836,764,0
5058747,355.83,836,764,0
5058757,356.22,836,764,0
5058767,356.11,836,764,0
5058777,355.99,836,764,0
5058787,355.31,836,764,0
5058797,354.75,836,764,0
5058807,353.66,836,764,0
5058817,352.99,836,764,0
5058827,352.44,836,764,0
5058837,353.08,836,764,0
5058847,355.03,836,764,0
5058857,359.73,836,764,0
5058867,367.31,836,764,0
5058877,379.48,836,764,0
5058887,396.39,836,764,0
5058907,419.16,833,763,0
5058910,447.40,833,765,0
5058919,481.05,833,765,0
5058929,517.55,833,764,0
5058939,555.83,833,765,0
5058949,592.74,833,764,0
5058959,626.54,833,765,0
5058969,654.28,833,764,0
5058979,674.73,833,765,0
5058989,686.16,833,764,0
5058999,689.37,833,765,0
5059009,683.99,833,764,0
5059019,671.78,833,765,0
5059030,653.29,833,763,0
5059039,630.92,833,765,0
5059049,605.31,833,764,0
5059059,578.73,833,765,0
5059069,551.73,833,764,0
5059079,526.01,833,765,0
5059089,501.41,833,764,0
5059099,479.17,833,765,0
5059109,458.63,833,764,0
5059119,440.79,833,765,0
5059129,424.74,833,764,0
5059139,411.27,833,765,0
5059149,399.66,833,764,0
5059159,390.76,833,765,0
5059169,383.68,833,764,0
5059179,379.27,833,765,0
5059189,376.58,833,764,0
5059200,376.23,833,765,0
5059209,377.19,833,764,0
5059219,379.83,833,765,0
5059229,383.06,833,764,0
5059239,387.24,833,765,0
5059249,391.15,833,764,0
5059259,395.22,833,765,0
5059269,398.28,833,764,0
5059279,400.77,833,765,0
5059289,401.74,833,764,0
5059299,401.82,833,765,0
5059309,400.24,833,764,0
5059319,397.94,833,765,0
5059329,394.36,833,764,0
5059339,390.52,833,765,0
5059349,385.87,833,764,0
5059359,381.41,833,765,0
5059369,376.61,833,764,0
5059379,372.53,833,765,0
5059389,368.38,833,764,0
5059399,365.01,833,765,0
5059409,361.71,833,764,0
5059419,359.35,833,765,0
5059429,357.19,833,764,0
5059439,355.93,833,765,0
5059449,354.80,833,764,0
5059459,354.51,833,765,0
5059469,354.23,833,764,0
5059479,354.72,833,765,0
5059489,354.97,833,764,0
5059500,355.75,833,765,0
5059510,356.21,833,764,0
5059520,357.26,833,765,0
5059530,357.83,833,764,0
5059540,358.69,833,765,0
5059550,358.91,833,764,0
5059560,359.45,833,765,0
5059570,359.45,833,764,0
5059580,359.70,833,765,0
5059590,359.19,833,764,0
5059600,358.96,833,765,0
5059610,358.42,833,764,0
5059620,358.21,833,765,0
5059630,357.76,833,764,0
5059640,358.22,833,765,0
5059650,359.52,833,764,0
5059660,363.14,833,765,0
5059671,369.31,833,764,0
5059681,379.46,833,765,0
5059691,394.15,833,764,0
5059701,414.59,833,765,0
5059721,440.39,814,764,0
5059724,471.60,814,766,0
5059733,506.86,814,764,0
5059743,544.49,814,765,0
5059753,582.01,814,764,0
5059763,617.28,814,765,0
5059773,647.84,814,764,0
5059783,671.97,814,765,0
5059793,688.14,814,764,0
5059803,695.68,814,765,0
5059813,694.79,814,763,0
5059823,686.24,814,765,0
5059833,671.08,814,764,0
5059843,650.74,814,765,0
5059853,626.65,814,763,0
5059863,600.23,814,765,0
5059873,572.86,814,763,0
5059884,545.73,814,764,0
5059894,519.67,814,763,0
5059904,495.17,814,765,0
5059914,472.75,814,764,0
5059924,452.55,814,764,0
5059934,434.86,814,763,0
5059944,419.51,814,765,0
5059954,406.72,814,763,0
5059964,396.34,814,764,0
5059974,388.74,814,763,0
5059984,383.63,814,765,0
5059994,381.26,814,763,0
5060004,381.09,814,764,0
5060014,382.99,814,763,0
5060024,386.47,814,765,0
5060034,391.30,814,763,0
5060044,396.69,814,764,0
5060055,402.36,814,763,0
5060065,407.39,814,764,0
5060075,411.82,814,764,0
5060085,414.96,814,764,0
5060096,416.94,814,764,0
5060105,417.35,814,764,0
5060115,416.56,814,764,0
5060125,414.25,814,764,0
5060135,411.13,814,764,0
5060145,406.93,814,764,0
5060155,402.45,814,764,0
5060165,397.43,814,764,0
5060175,392.55,814,764,0
5060185,387.58,814,764,0
5060195,383.25,814,764,0
5060205,379.10,814,764,0
5060215,375.73,814,763,0
5060225,372.81,814,764,0
5060235,370.72,814,763,0
5060245,368.92,814,764,0
5060255,367.87,814,763,0
5060265,366.97,814,764,0
5060275,366.89,814,764,0
5060285,366.97,814,764,0
5060295,367.32,814,763,0
5060305,367.57,814,764,0
5060315,368.13,814,763,0
5060325,368.39,814,764,0
5060335,368.96,814,763,0
5060345,369.14,814,764,0
5060355,369.40,814,763,0
5060365,369.49,814,764,0
5060375,369.77,814,763,0
5060385,369.80,814,764,0
5060396,370.07,814,764,0
5060406,369.88,814,764,0
5060416,369.83,814,763,0
5060426,369.37,814,764,0
5060436,368.96,814,764,0
5060446,367.98,814,764,0
5060456,367.22,814,763,0
5060466,366.30,814,764,0
5060476,366.51,814,764,0
5060486,367.60,814,764,0
5060496,371.28,814,763,0
5060506,377.96,814,763,0
5060516,389.67,814,764,0
5060526,406.57,814,764,0
5060545,430.02,825,762,0
5060548,459.75,825,763,0
5060557,495.87,825,764,0
5060567,535.29,825,764,0
5060577,575.62,825,763,0
5060587,614.09,825,763,0
5060597,649.29,825,764,0
5060608,679.33,825,763,0
5060617,703.15,825,763,0
5060627,718.96,825,763,0
5060637,727.59,825,764,0
5060647,729.17,825,763,0
5060657,724.66,825,763,0
5060667,713.92,825,763,0
5060677,697.96,825,764,0
5060687,676.54,825,763,0
5060697,651.87,825,763,0
5060707,624.82,825,763,0
5060717,597.45,825,764,0
5060727,570.10,825,763,0
5060737,544.31,825,763,0
5060747,519.66,825,763,0
5060757,497.48,825,764,0
5060767,477.23,825,763,0
5060777,459.59,825,764,0
5060787,444.11,825,763,0
5060797,431.44,825,764,0
5060807,421.02,825,763,0
5060817,413.64,825,764,0
5060827,408.48,825,763,0
5060837,405.89,825,764,0
5060847,405.02,825,763,0
5060857,406.30,825,763,0
5060867,408.57,825,763,0
5060877,412.04,825,764,0
5060887,415.37,825,763,0
5060897,418.86,825,764,0
5060908,421.39,825,763,0
5060918,423.37,825,764,0
5060928,423.73,825,763,0
5060938,423.04,825,764,0
5060948,420.46,825,762,0
5060958,416.98,825,764,0
5060968,411.97,825,763,0
5060978,406.36,825,764,0
5060988,399.78,825,762,0
5060998,393.38,825,764,0
5061008,386.71,825,763,0
5061018,380.84,825,764,0
5061028,375.19,825,762,0
5061038,370.59,825,764,0
5061048,366.55,825,762,0
5061058,363.86,825,764,0
5061068,361.63,825,762,0
5061079,360.54,825,764,0
5061089,359.69,825,762,0
5061099,359.74,825,764,0
5061109,359.86,825,762,0
5061120,360.63,825,764,0
5061129,361.21,825,762,0
5061139,362.35,825,764,0
5061149,363.27,825,762,0
5061159,364.65,825,764,0
5061169,365.70,825,762,0
5061179,367.07,825,764,0
5061189,368.08,825,762,0
5061199,369.26,825,764,0
5061209,369.82,825,762,0
5061219,370.39,825,764,0
5061229,370.36,825,762,0
5061239,370.25,825,764,0
5061249,369.58,825,763,0
5061259,368.97,825,764,0
5061269,367.82,825,762,0
5061279,366.85,825,764,0
5061289,365.65,825,762,0
5061299,365.16,825,764,0
5061309,365.32,825,762,0
5061319,367.54,825,764,0
5061329,372.14,825,762,0
5061339,380.75,825,764,0
5061349,393.94,825,762,0
5061359,413.33,825,764,0
5061379,438.90,833,763,0
5061382,471.42,833,764,0
5061391,509.18,833,762,0
5061401,549.45,833,764,0
5061411,589.52,833,762,0
5061421,627.42,833,764,0
5061431,660.94,833,762,0
5061441,689.03,833,764,0
5061451,710.36,833,763,0
5061462,723.92,833,764,0
5061471,730.46,833,762,0
5061481,730.41,833,764,0
5061491,723.99,833,762,0
5061501,711.48,833,764,0
5061511,693.25,833,762,0
5061521,669.86,833,764,0
5061531,642.90,833,762,0
5061541,614.05,833,764,0
5061551,584.72,833,762,0
5061561,556.13,833,764,0
5061571,528.92,833,762,0
5061581,503.66,833,764,0
5061591,480.49,833,762,0
5061601,459.90,833,764,0
5061611,441.97,833,762,0
5061621,426.77,833,764,0
5061632,414.24,833,762,0
5061641,404.69,833,764,0
5061651,397.89,833,762,0
5061661,393.85,833,764,0
5061671,392.31,833,762,0
5061681,392.99,833,764,0
5061691,395.35,833,762,0
5061701,399.02,833,764,0
5061711,403.25,833,762,0
5061721,407.76,833,764,0
5061731,411.82,833,762,0
5061741,415.05,833,764,0
5061751,417.00,833,762,0
5061761,417.69,833,764,0
5061771,416.88,833,762,0
5061781,414.77,833,764,0
5061791,411.28,833,762,0
5061801,406.79,833,764,0
5061811,401.49,833,762,0
5061821,395.86,833,764,0
5061831,389.99,833,762,0
5061841,384.21,833,764,0
5061851,378.70,833,762,0
5061861,373.69,833,764,0
5061871,369.33,833,762,0
5061881,365.67,833,764,0
5061891,362.68,833,762,0
5061901,360.51,833,764,0
5061911,359.03,833,762,0
5061921,358.12,833,764,0
5061932,357.78,833,762,0
5061942,357.89,833,764,0
5061952,358.40,833,763,0
5061962,359.13,833,764,0
5061972,360.08,833,763,0
5061982,361.13,833,764,0
5061992,362.29,833,763,0
5062002,363.40,833,764,0
5062012,364.57,833,763,0
5062022,365.64,833,764,0
5062032,366.65,833,763,0
5062042,367.27,833,764,0
5062052,367.70,833,763,0
5062062,367.79,833,764,0
5062072,367.68,833,763,0
5062082,367.18,833,763,0
5062092,366.61,833,763,0
5062103,366.08,833,764,0
5062113,366.49,833,763,0
5062123,368.27,833,764,0
5062133,372.73,833,763,0
5062144,380.66,833,763,0
5062153,393.36,833,763,0
5062163,411.59,833,763,0
5062173,436.36,833,763,0
5062193,467.15,814,762,0
5062196,503.83,814,765,0
5062205,543.27,814,763,0
5062215,583.09,814,764,0
5062225,620.91,814,763,0
5062235,655.00,814,763,0
5062245,683.72,814,763,0
5062255,706.13,814,763,0
5062265,719.72,814,763,0
5062275,725.59,814,763,0
5062285,723.78,814,763,0
5062295,715.06,814,763,0
5062305,699.40,814,763,0
5062316,677.64,814,764,0
5062326,650.28,814,762,0
5062336,620.06,814,764,0
5062346,587.99,814,763,0
5062356,556.32,814,764,0
5062366,525.58,814,763,0
5062376,497.25,814,764,0
5062386,471.16,814,763,0
5062396,448.36,814,764,0
5062406,428.23,814,763,0
5062416,411.62,814,764,0
5062426,397.81,814,763,0
5062436,387.49,814,764,0
5062446,379.85,814,763,0
5062456,375.56,814,764,0
5062466,373.59,814,763,0
5062476,374.49,814,764,0
5062487,377.00,814,762,0
5062497,381.46,814,764,0
5062507,386.38,814,763,0
5062517,392.13,814,764,0
5062528,397.19,814,762,0
5062537,401.89,814,764,0
5062547,405.01,814,763,0
5062557,406.89,814,764,0
5062567,406.67,814,762,0
5062577,405.18,814,764,0
5062587,401.70,814,763,0
5062597,397.42,814,764,0
5062607,391.81,814,762,0
5062617,385.95,814,764,0
5062627,379.45,814,763,0
5062637,373.32,814,764,0
5062647,367.09,814,763,0
5062657,361.84,814,764,0
5062667,356.87,814,763,0
5062677,353.10,814,764,0
5062687,349.81,814,763,0
5062697,347.81,814,764,0
5062707,346.15,814,763,0
5062717,345.55,814,764,0
5062727,345.21,814,763,0
5062737,345.71,814,764,0
5062747,346.31,814,763,0
5062757,347.59,814,764,0
5062767,348.70,814,763,0
5062777,350.20,814,764,0
5062787,351.38,814,763,0
5062797,352.81,814,764,0
5062807,353.77,814,763,0
5062817,354.91,814,764,0
5062828,355.54,814,763,0
5062838,356.32,814,764,0
5062848,356.78,814,763,0
5062858,357.53,814,764,0
5062868,357.89,814,763,0
5062878,358.48,814,764,0
5062888,358.46,814,763,0
5062898,358.45,814,764,0
5062908,357.93,814,763,0
5062918,357.69,814,764,0
5062928,357.01,814,763,0
5062938,356.80,814,764,0
5062948,357.20,814,763,0
5062958,359.50,814,764,0
5062968,364.28,814,763,0
5062978,373.19,814,764,0
5062988,386.89,814,763,0
5063008,407.28,816,761,0
5063011,434.97,816,763,0
5063020,469.86,816,764,0
5063030,509.72,816,763,0
5063041,551.76,816,764,0
5063051,593.19,816,763,0
5063061,631.92,816,764,0
5063071,665.80,816,763,0
5063081,693.12,816,764,0
5063091,713.22,816,763,0
5063101,726.23,816,764,0
5063111,732.50,816,763,0
5063121,731.92,816,764,0
5063131,724.96,816,763,0
5063141,711.39,816,764,0
5063151,691.60,816,763,0
5063161,665.92,816,764,0
5063171,636.07,816,763,0
5063181,604.04,816,764,0
5063191,571.80,816,763,0
5063201,540.14,816,764,0
5063212,510.40,816,763,0
5063222,482.98,816,764,0
5063232,458.51,816,763,0
5063242,436.89,816,764,0
5063252,418.37,816,763,0
5063262,402.78,816,764,0
5063272,390.46,816,763,0
5063282,381.11,816,764,0
5063292,375.08,816,763,0
5063302,371.84,816,764,0
5063312,371.46,816,763,0
5063322,373.12,816,764,0
5063332,376.77,816,763,0
5063342,381.34,816,764,0
5063352,386.72,816,763,0
5063362,391.82,816,764,0
5063372,396.63,816,763,0
5063383,400.17,816,763,0
5063393,402.69,816,763,0
5063403,403.30,816,764,0
5063413,402.69,816,764,0
5063424,400.26,816,763,0
5063433,396.84,816,763,0
5063443,391.96,816,764,0
5063453,386.53,816,763,0
5063463,380.20,816,763,0
5063473,374.10,816,763,0
5063483,367.77,816,764,0
5063493,362.27,816,764,0
5063503,357.00,816,763,0
5063513,352.80,816,763,0
5063523,349.09,816,764,0
5063533,346.58,816,763,0
5063543,344.52,816,763,0
5063553,343.55,816,763,0
5063563,342.91,816,764,0
5063573,343.15,816,764,0
5063583,343.41,816,763,0
5063593,344.36,816,763,0
5063603,345.24,816,764,0
5063613,346.62,816,763,0
5063623,347.68,816,763,0
5063633,349.02,816,763,0
5063643,349.96,816,764,0
5063653,351.17,816,763,0
5063663,351.89,816,763,0
5063673,352.74,816,763,0
5063683,353.12,816,764,0
5063693,353.77,816,763,0
5063703,353.88,816,763,0
5063713,354.13,816,763,0
5063724,353.92,816,763,0
5063734,354.03,816,763,0
5063744,353.76,816,763,0
5063754,353.96,816,764,0
5063764,354.06,816,763,0
5063774,355.33,816,763,0
5063784,357.72,816,763,0
5063794,362.90,816,764,0
5063804,371.16,816,763,0
5063814,384.44,816,764,0
5063824,402.99,816,764,0
5063843,428.41,835,762,0
5063846,460.47,835,764,0
5063855,498.73,835,764,0
5063865,539.61,835,763,0
5063875,580.87,835,764,0
5063885,619.87,835,763,0
5063895,655.01,835,764,0
5063905,684.40,835,763,0
5063915,707.08,835,764,0
5063925,722.32,835,763,0
5063936,730.92,835,764,0
5063945,732.92,835,763,0
5063955,728.61,835,764,0
5063965,717.59,835,763,0
5063975,700.61,835,764,0
5063985,677.63,835,763,0
5063995,650.18,835,764,0
5064005,619.57,835,763,0
5064015,588.28,835,764,0
5064025,557.13,835,763,0
5064035,528.03,835,764,0
5064045,500.72,835,763,0
5064055,476.46,835,764,0
5064065,454.64,835,763,0
5064075,436.15,835,764,0
5064085,420.12,835,763,0
5064095,407.44,835,764,0
5064105,397.49,835,763,0
5064115,390.87,835,764,0
5064125,386.67,835,763,0
5064135,385.57,835,764,0
5064145,386.47,835,763,0
5064155,389.50,835,764,0
5064165,393.16,835,763,0
5064175,397.66,835,764,0
5064185,401.79,835,763,0
5064195,405.97,835,764,0
5064205,408.76,835,763,0
5064215,410.76,835,764,0
5064225,411.00,835,763,0
5064236,410.19,835,764,0
5064246,407.43,835,763,0
5064256,403.96,835,764,0
5064266,398.91,835,763,0
5064276,393.41,835,764,0
5064286,386.99,835,763,0
5064296,380.61,835,764,0
5064306,374.17,835,763,0
5064316,368.55,835,764,0
5064326,363.11,835,763,0
5064336,358.75,835,764,0
5064346,355.05,835,763,0
5064356,352.47,835,764,0
5064366,350.48,835,763,0
5064376,349.48,835,764,0
5064386,348.91,835,763,0
5064396,349.32,835,764,0
5064407,349.91,835,763,0
5064417,351.14,835,764,0
5064427,352.25,835,763,0
5064437,353.81,835,764,0
5064448,355.24,835,763,0
5064457,357.01,835,765,0
5064467,358.29,835,763,0
5064477,359.75,835,764,0
5064487,360.72,835,763,0
5064497,361.96,835,764,0
5064507,362.87,835,763,0
5064517,363.77,835,764,0
5064527,364.22,835,763,0
5064537,364.71,835,764,0
5064547,364.76,835,763,0
5064557,364.74,835,764,0
5064567,364.39,835,763,0
5064577,364.49,835,764,0
5064587,365.11,835,763,0
5064597,367.44,835,764,0
5064607,372.02,835,763,0
5064617,380.63,835,764,0
5064627,393.81,835,763,0
5064637,413.07,835,764,0
5064656,438.55,813,763,0
5064659,470.83,813,764,0
5064668,508.55,813,763,0
5064678,548.88,813,764,0
5064688,588.86,813,763,0
5064698,626.70,813,765,0
5064708,660.22,813,763,0
5064718,688.31,813,764,0
5064728,709.30,813,763,0
5064738,721.81,813,765,0
5064748,726.67,813,763,0
5064758,724.15,813,764,0
5064768,714.59,813,763,0
5064778,698.34,813,764,0
5064788,675.96,813,763,0
5064798,648.58,813,764,0
5064808,618.11,813,762,0
5064818,586.53,813,764,0
5064828,555.26,813,763,0
5064838,525.52,813,764,0
5064848,497.90,813,763,0
5064858,472.77,813,764,0
5064868,450.17,813,763,0
5064878,430.57,813,764,0
5064888,413.56,813,762,0
5064898,399.51,813,764,0
5064908,388.43,813,763,0
5064919,380.50,813,764,0
5064929,375.63,813,762,0
5064939,373.73,813,764,0
5064949,374.41,813,763,0
5064960,377.37,813,764,0
5064969,382.02,813,762,0
5064979,387.58,813,764,0
5064989,393.58,813,763,0
5064999,399.23,813,764,0
5065009,404.18,813,762,0
5065019,407.90,813,764,0
5065029,410.28,813,763,0
5065039,410.76,813,764,0
5065049,409.63,813,762,0
5065059,406.65,813,764,0
5065069,402.30,813,763,0
5065079,396.77,813,764,0
5065089,390.32,813,762,0
5065099,383.37,813,764,0
5065109,376.53,813,763,0
5065119,369.77,813,764,0
5065129,363.75,813,762,0
5065139,358.51,813,764,0
5065149,354.20,813,763,0
5065159,350.84,813,764,0
5065169,348.40,813,762,0
5065179,346.87,813,764,0
5065189,346.35,813,763,0
5065199,346.42,813,764,0
5065209,347.06,813,763,0
5065219,348.07,813,764,0
5065229,349.51,813,763,0
5065239,351.07,813,764,0
5065249,352.81,813,763,0
5065260,354.41,813,764,0
5065270,356.13,813,763,0
5065280,357.63,813,764,0
5065290,359.16,813,763,0
5065300,360.40,813,764,0
5065310,361.56,813,763,0
5065320,362.34,813,764,0
5065330,363.01,813,763,0
5065340,363.18,813,764,0
5065350,363.29,813,763,0
5065360,362.95,813,764,0
5065370,362.58,813,763,0
5065380,361.93,813,764,0
5065390,361.78,813,763,0
5065400,362.32,813,764,0
5065410,364.92,813,763,0
5065420,370.22,813,764,0
5065431,379.92,813,763,0
5065441,394.86,813,764,0
5065451,416.59,813,763,0
5065470,445.00,814,762,0
5065474,480.57,814,764,0
5065483,520.47,814,763,0
5065493,561.99,814,764,0
5065503,602.32,814,763,0
5065513,639.59,814,764,0
5065523,671.64,814,763,0
5065533,697.64,814,764,0
5065543,716.43,814,763,0
5065553,728.26,814,764,0
5065563,733.20,814,763,0
5065573,731.59,814,764,0
5065583,723.23,814,763,0
5065593,708.63,814,764,0
5065603,687.91,814,763,0
5065613,661.84,814,764,0
5065623,631.76,814,763,0
5065633,600.33,814,764,0
5065644,568.52,814,763,0
5065654,538.11,814,764,0
5065664,509.23,814,762,0
5065674,483.02,814,764,0
5065684,459.10,814,763,0
5065694,438.45,814,764,0
5065704,420.28,814,762,0
5065714,405.45,814,764,0
5065724,393.27,814,763,0
5065734,384.62,814,764,0
5065744,378.69,814,762,0
5065754,376.04,814,764,0
5065764,375.64,814,763,0
5065774,377.89,814,764,0
5065784,381.35,814,762,0
5065794,386.35,814,764,0
5065804,391.56,814,763,0
5065815,397.05,814,764,0
5065825,401.62,814,762,0
5065835,405.55,814,764,0
5065845,407.74,814,762,0
5065856,408.80,814,764,0
5065865,408.05,814,762,0
5065875,406.06,814,764,0
5065885,402.44,814,762,0
5065895,398.02,814,764,0
5065905,392.45,814,762,0
5065915,386.78,814,764,0
5065925,380.68,814,762,0
5065935,374.86,814,764,0
5065945,369.12,814,762,0
5065955,364.15,814,764,0
5065965,359.39,814,763,0
5065975,355.67,814,764,0
5065985,352.26,814,762,0
5065995,349.95,814,764,0
5066005,348.17,814,763,0
5066015,347.30,814,764,0
5066025,346.87,814,762,0
5066035,347.38,814,764,0
5066045,348.21,814,762,0
5066055,349.65,814,764,0
5066065,351.21,814,762,0
5066075,353.03,814,764,0
5066085,354.52,814,762,0
5066095,356.17,814,764,0
5066105,357.44,814,762,0
5066115,358.68,814,764,0
5066125,359.55,814,763,0
5066135,360.41,814,764,0
5066145,360.80,814,762,0
5066156,361.46,814,764,0
5066166,361.54,814,763,0
5066176,361.46,814,764,0
5066186,360.85,814,762,0
5066196,360.38,814,764,0
5066206,359.41,814,762,0
5066216,359.12,814,764,0
5066226,359.17,814,762,0
5066236,360.87,814,764,0
5066246,364.81,814,762,0
5066256,372.37,814,764,0
5066266,384.39,814,762,0
5066276,402.57,814,764,0
5066295,426.83,825,763,0
5066298,458.08,825,766,0
5066307,495.56,825,762,0
5066317,536.32,825,764,0
5066327,577.49,825,763,0
5066337,616.82,825,764,0
5066347,652.01,825,762,0
5066357,682.01,825,764,0
5066368,705.41,825,763,0
5066377,720.93,825,764,0
5066387,728.96,825,762,0
5066397,729.96,825,764,0
5066407,723.97,825,762,0
5066417,711.51,825,764,0
5066427,692.67,825,762,0
5066437,668.04,825,764,0
5066447,639.01,825,762,0
5066457,608.02,825,764,0
5066467,576.69,825,762,0
5066477,546.27,825,764,0
5066487,517.52,825,762,0
5066497,491.26,825,764,0
5066507,467.57,825,762,0
5066517,446.61,825,764,0
5066527,428.34,825,762,0
5066537,412.55,825,764,0
5066547,399.62,825,762,0
5066557,389.19,825,764,0
5066567,381.38,825,762,0
5066577,376.29,825,764,0
5066587,373.68,825,762,0
5066597,373.30,825,764,0
5066607,374.93,825,763,0
5066617,377.90,825,764,0
5066627,382.05,825,763,0
5066637,386.79,825,764,0
5066647,391.48,825,762,0
5066657,395.67,825,764,0
5066668,398.89,825,763,0
5066678,400.77,825,764,0
5066688,401.27,825,763,0
5066698,400.24,825,764,0
5066708,397.81,825,763,0
5066718,394.14,825,764,0
5066728,389.60,825,763,0
5066738,384.23,825,764,0
5066748,378.68,825,763,0
5066758,373.03,825,764,0
5066768,367.71,825,763,0
5066778,362.61,825,764,0
5066788,358.06,825,763,0
5066798,354.01,825,764,0
5066808,350.71,825,763,0
5066818,347.92,825,764,0
5066828,345.93,825,763,0
5066839,344.37,825,763,0
5066849,343.57,825,763,0
5066859,343.14,825,764,0
5066869,343.36,825,763,0
5066880,343.85,825,763,0
5066889,344.88,825,763,0
5066899,345.95,825,764,0
5066909,347.38,825,763,0
5066919,348.55,825,763,0
5066929,349.88,825,763,0
5066939,350.82,825,764,0
5066949,351.86,825,763,0
5066959,352.42,825,763,0
5066969,352.93,825,763,0
5066979,353.00,825,764,0
5066989,353.21,825,763,0
5066999,352.98,825,763,0
5067009,352.90,825,763,0
5067019,352.46,825,764,0
5067029,352.23,825,763,0
5067039,351.78,825,763,0
5067049,351.76,825,763,0
5067059,352.00,825,764,0
5067069,353.67,825,763,0
5067079,357.07,825,763,0
5067089,363.74,825,763,0
5067099,374.14,825,764,0
5067109,389.91,825,763,0
5067128,411.37,833,762,0
5067131,439.72,833,765,0
5067140,473.62,833,764,0
5067150,512.04,833,764,0
5067160,552.27,833,764,0
5067170,592.18,833,764,0
5067180,629.28,833,764,0
5067190,661.68,833,764,0
5067200,686.16,833,764,0
5067210,702.19,833,764,0
5067220,708.64,833,764,0
5067230,706.74,833,764,0
5067240,696.66,833,764,0
5067250,679.66,833,763,0
5067260,656.58,833,764,0
5067270,630.05,833,763,0
5067280,601.10,833,764,0
5067290,572.06,833,763,0
5067300,543.20,833,764,0
5067310,516.35,833,764,0
5067320,491.26,833,764,0
5067330,469.03,833,763,0
5067340,448.75,833,764,0
5067351,431.25,833,764,0
5067361,415.62,833,763,0
5067371,402.53,833,764,0
5067381,391.36,833,763,0
5067392,383.02,833,764,0
5067401,376.72,833,763,0
5067411,373.33,833,764,0
5067421,371.77,833,763,0
5067431,372.87,833,764,0
5067441,375.27,833,763,0
5067451,379.26,833,764,0
5067461,383.64,833,763,0
5067471,388.46,833,764,0
5067481,392.57,833,763,0
5067491,396.12,833,764,0
5067501,397.84,833,763,0
5067511,398.53,833,764,0
5067521,397.39,833,764,0
5067531,395.09,833,764,0
5067541,391.16,833,763,0
5067551,386.40,833,764,0
5067561,380.54,833,763,0
5067571,374.67,833,763,0
5067581,368.17,833,763,0
5067591,362.25,833,764,0
5067601,356.17,833,763,0
5067611,351.07,833,763,0
5067621,346.29,833,763,0
5067631,342.77,833,764,0
5067641,339.63,833,763,0
5067651,337.81,833,763,0
5067661,336.37,833,763,0
5067671,335.96,833,764,0
5067681,335.71,833,763,0
5067692,336.18,833,764,0
5067702,336.52,833,763,0
5067712,337.47,833,764,0
5067722,338.28,833,763,0
5067732,339.48,833,764,0
5067742,340.58,833,763,0
5067752,342.03,833,764,0
5067762,343.22,833,763,0
5067772,344.57,833,764,0
5067782,345.56,833,763,0
5067792,346.55,833,764,0
5067802,346.81,833,763,0
5067812,347.21,833,764,0
5067822,346.93,833,763,0
5067832,346.82,833,765,0
5067842,346.41,833,763,0
5067852,346.16,833,764,0
5067863,345.85,833,763,0
5067873,346.84,833,764,0
5067883,348.60,833,763,0
5067893,352.96,833,764,0
5067904,360.13,833,763,0
5067913,371.84,833,764,0
5067923,388.51,833,763,0
5067933,411.46,833,764,0
5067953,439.91,824,763,0
5067956,474.09,824,766,0
5067965,512.16,824,763,0
5067975,552.23,824,764,0
5067985,591.33,824,763,0
5067995,627.32,824,765,0
5068005,657.22,824,763,0
5068015,679.48,824,764,0
5068025,692.50,824,763,0
5068035,696.16,824,765,0
5068045,690.80,824,763,0
5068055,677.70,824,764,0
5068065,658.08,824,763,0
5068076,633.88,824,765,0
5068086,606.70,824,763,0
5068096,578.25,824,764,0
5068106,549.72,824,763,0
5068116,522.20,824,764,0
5068126,496.51,824,763,0
5068136,473.00,824,764,0
5068146,451.87,824,763,0
5068156,433.23,824,764,0
5068166,417.00,824,763,0
5068176,403.03,824,764,0
5068186,391.41,824,763,0
5068196,381.94,824,764,0
5068206,374.76,824,763,0
5068216,369.82,824,764,0
5068226,367.17,824,763,0
5068236,366.61,824,765,0
5068247,368.01,824,763,0
5068257,370.88,824,764,0
5068267,374.94,824,763,0
5068277,379.55,824,764,0
5068288,384.40,824,763,0
5068297,388.73,824,764,0
5068307,392.46,824,763,0
5068317,394.72,824,764,0
5068327,395.83,824,763,0
5068337,395.24,824,764,0
5068347,393.41,824,763,0
5068357,390.07,824,764,0
5068367,385.89,824,763,0
5068377,380.74,824,764,0
5068387,375.29,824,763,0
5068397,369.46,824,764,0
5068407,364.05,824,763,0
5068417,359.11,824,764,0
5068427,354.87,824,763,0
5068437,351.01,824,764,0
5068447,347.97,824,763,0
5068457,345.53,824,764,0
5068467,344.00,824,763,0
5068477,342.89,824,764,0
5068487,342.41,824,763,0
5068497,342.33,824,764,0
5068507,343.13,824,763,0
5068517,344.12,824,764,0
5068527,345.67,824,763,0
5068537,347.05,824,764,0
5068547,348.84,824,763,0
5068557,350.30,824,764,0
5068567,351.88,824,763,0
5068577,352.99,824,764,0
5068588,354.06,824,763,0
5068598,354.64,824,764,0
5068608,355.31,824,764,0
5068618,355.34,824,764,0
5068628,355.41,824,764,0
5068638,355.07,824,764,0
5068648,354.71,824,764,0
5068658,354.07,824,764,0
5068668,353.66,824,763,0
5068678,353.08,824,764,0
5068688,353.05,824,764,0
5068698,353.55,824,764,0
5068708,355.96,824,763,0
5068718,360.64,824,764,0
5068728,369.28,824,764,0
5068738,382.44,824,764,0
5068748,401.93,824,763,0
5068768,427.75,816,763,0
5068771,460.57,816,764,0
5068780,498.80,816,764,0
5068790,540.00,816,764,0
5068801,581.10,816,763,0
5068811,620.16,816,765,0
5068821,654.78,816,763,0
5068831,684.03,816,764,0
5068841,704.64,816,763,0
5068851,716.23,816,765,0
5068861,719.08,816,763,0
5068871,714.55,816,764,0
5068881,702.69,816,763,0
5068891,684.91,816,765,0
5068901,661.32,816,763,0
5068911,634.70,816,764,0
5068921,605.86,816,763,0
5068931,577.36,816,765,0
5068941,549.48,816,763,0
5068951,523.75,816,764,0
5068961,499.57,816,763,0
5068972,477.93,816,764,0
5068982,458.53,816,763,0
5068992,441.83,816,764,0
5069002,427.05,816,763,0
5069012,414.69,816,765,0
5069022,404.46,816,763,0
5069032,396.82,816,764,0
5069042,391.22,816,763,0
5069052,388.11,816,765,0
5069062,386.83,816,763,0
5069072,387.65,816,764,0
5069082,389.64,816,763,0
5069092,392.84,816,765,0
5069102,396.27,816,763,0
5069112,400.09,816,764,0
5069122,403.19,816,763,0
5069132,405.92,816,765,0
5069143,407.23,816,763,0
5069153,407.55,816,764,0
5069163,406.31,816,763,0
5069173,404.07,816,765,0
5069184,400.41,816,763,0
5069193,396.09,816,764,0
5069203,390.70,816,763,0
5069213,385.18,816,765,0
5069223,379.47,816,763,0
5069233,374.14,816,764,0
5069243,369.13,816,763,0
5069253,364.93,816,765,0
5069263,361.22,816,763,0
5069273,358.50,816,764,0
5069283,356.25,816,763,0
5069293,354.76,816,765,0
5069303,353.59,816,763,0
5069313,353.11,816,765,0
5069323,352.86,816,763,0
5069333,353.16,816,765,0
5069343,353.63,816,763,0
5069353,354.60,816,764,0
5069363,355.49,816,763,0
5069373,356.71,816,765,0
5069383,357.83,816,763,0
5069393,359.21,816,764,0
5069403,360.47,816,763,0
5069413,362.00,816,765,0
5069423,363.46,816,763,0
5069433,365.34,816,764,0
5069443,367.16,816,763,0
5069453,369.13,816,765,0
5069463,370.85,816,763,0
5069473,372.65,816,764,0
5069484,374.13,816,763,0
5069494,375.59,816,765,0
5069504,376.83,816,763,0
5069514,378.38,816,765,0
5069524,380.45,816,763,0
5069534,384.13,816,765,0
5069544,389.45,816,763,0
5069554,397.84,816,765,0
5069564,410.23,816,763,0
5069583,427.73,815,762,0
5069586,451.34,815,764,0
5069595,481.54,815,764,0
5069605,516.91,815,763,0
5069615,555.21,815,765,0
5069625,593.67,815,763,0
5069635,630.29,815,764,0
5069645,663.20,815,763,0
5069655,690.65,815,765,0
5069665,711.50,815,763,0
5069675,726.09,815,764,0
5069685,734.72,815,763,0
5069696,737.38,815,765,0
5069705,734.26,815,763,0
5069715,725.36,815,764,0
5069725,710.85,815,763,0
5069735,690.97,815,764,0
5069745,666.38,815,763,0
5069755,639.01,815,764,0
5069765,610.76,815,762,0
5069775,582.72,815,764,0
5069785,556.10,815,763,0
5069795,531.43,815,764,0
5069805,509.14,815,763,0
5069815,488.87,815,764,0
5069825,470.82,815,763,0
5069835,454.85,815,764,0
5069845,440.92,815,762,0
5069855,428.82,815,764,0
5069865,418.71,815,763,0
5069875,410.49,815,764,0
5069885,404.38,815,763,0
5069895,400.11,815,764,0
5069905,397.59,815,763,0
5069915,396.51,815,764,0
5069925,396.66,815,763,0
5069935,397.45,815,764,0
5069945,398.60,815,763,0
5069955,399.62,815,764,0
5069965,400.25,815,763,0
5069975,400.09,815,764,0
5069985,399.20,815,763,0
5069996,397.34,815,764,0
5070006,394.71,815,763,0
5070016,391.28,815,764,0
5070026,387.51,815,763,0
5070036,383.42,815,764,0
5070046,379.26,815,763,0
5070056,374.94,815,764,0
5070066,371.02,815,763,0
5070076,367.33,815,764,0
5070086,364.53,815,763,0
5070096,362.18,815,764,0
5070106,360.67,815,763,0
5070116,359.48,815,764,0
5070126,359.17,815,763,0
5070136,358.95,815,764,0
5070146,359.26,815,763,0
5070156,359.53,815,764,0
5070167,359.97,815,763,0
5070177,360.24,815,763,0
5070187,360.94,815,763,0
5070197,361.47,815,764,0
5070208,362.40,815,763,0
5070217,363.14,815,763,0
5070227,364.04,815,763,0
5070237,364.80,815,763,0
5070247,365.80,815,763,0
5070257,366.63,815,763,0
5070267,367.60,815,763,0
5070277,368.19,815,763,0
5070287,369.12,815,763,0
5070297,369.81,815,763,0
5070307,370.94,815,763,0
5070317,371.77,815,763,0
5070327,373.04,815,763,0
5070337,374.23,815,763,0
5070347,376.17,815,763,0
5070357,378.44,815,763,0
5070367,382.12,815,763,0
5070377,387.14,815,763,0
5070387,395.11,815,763,0
5070397,406.39,815,763,0
5070416,422.86,833,762,0
5070419,445.06,833,762,0
5070428,473.63,833,763,0
5070438,507.25,833,763,0
5070448,544.55,833,763,0
5070458,582.70,833,763,0
5070468,619.77,833,763,0
5070478,653.40,833,763,0
5070488,682.04,833,763,0
5070498,704.61,833,763,0
5070508,720.46,833,763,0
5070518,728.68,833,763,0
5070528,730.06,833,763,0
5070538,724.47,833,763,0
5070548,712.63,833,764,0
5070558,694.65,833,763,0
5070568,671.36,833,763,0
5070578,643.74,833,763,0
5070588,614.42,833,763,0
5070598,584.46,833,763,0
5070608,555.82,833,763,0
5070618,528.49,833,763,0
5070628,503.53,833,763,0
5070638,480.57,833,763,0
5070648,460.30,833,763,0
5070658,442.00,833,763,0
5070668,426.35,833,763,0
5070679,412.40,833,763,0
5070689,401.18,833,764,0
5070699,391.83,833,762,0
5070709,385.15,833,764,0
5070720,380.35,833,762,0
5070729,378.40,833,764,0
5070739,377.64,833,763,0
5070749,379.12,833,764,0
5070759,381.01,833,762,0
5070769,383.96,833,764,0
5070779,386.80,833,762,0
5070789,389.78,833,764,0
5070799,391.60,833,763,0
5070809,393.05,833,764,0
5070819,392.82,833,762,0
5070829,392.19,833,764,0
5070839,390.42,833,762,0
5070849,387.94,833,764,0
5070859,384.70,833,763,0
5070869,381.06,833,764,0
5070879,376.80,833,763,0
5070889,372.79,833,764,0
5070899,368.44,833,763,0
5070909,364.71,833,764,0
5070919,360.94,833,763,0
5070929,357.70,833,764,0
5070939,354.75,833,763,0
5070949,352.89,833,764,0
5070959,351.30,833,762,0
5070969,350.74,833,764,0
5070979,350.00,833,763,0
5070989,350.00,833,764,0
5070999,350.13,833,763,0
5071009,350.78,833,764,0
5071020,351.14,833,763,0
5071030,351.91,833,764,0
5071040,352.37,833,763,0
5071050,353.24,833,764,0
5071060,354.11,833,762,0
5071070,355.15,833,764,0
5071080,355.92,833,763,0
5071090,357.02,833,764,0
5071100,357.78,833,762,0
5071110,358.66,833,764,0
5071120,359.02,833,763,0
5071130,359.44,833,764,0
5071140,359.27,833,762,0
5071150,359.27,833,764,0
5071160,358.55,833,763,0
5071170,357.87,833,764,0
5071180,356.84,833,762,0
5071191,356.50,833,764,0
5071201,356.22,833,762,0
5071211,357.61,833,764,0
5071221,360.77,833,762,0
5071232,367.61,833,764,0
5071241,378.49,833,762,0
5071251,395.23,833,764,0
5071270,418.04,854,763,0
5071273,448.16,854,765,0
5071282,484.33,854,762,0
5071292,524.64,854,764,0
5071302,565.85,854,763,0
5071312,606.01,854,764,0
5071322,642.61,854,763,0
5071332,674.18,854,764,0
5071342,698.68,854,763,0
5071352,714.16,854,764,0
5071362,720.84,854,763,0
5071372,719.39,854,764,0
5071382,710.14,854,763,0
5071392,693.77,854,764,0
5071403,670.78,854,762,0
5071412,642.78,854,764,0
5071422,611.99,854,762,0
5071432,580.15,854,764,0
5071442,548.78,854,762,0
5071452,519.40,854,764,0
5071462,492.37,854,762,0
5071472,468.26,854,764,0
5071482,446.79,854,762,0
5071492,428.43,854,764,0
5071502,412.78,854,762,0
5071512,400.03,854,764,0
5071522,389.87,854,762,0
5071532,382.54,854,764,0
5071542,377.75,854,762,0
5071552,375.55,854,764,0
5071562,375.43,854,762,0
5071572,377.31,854,764,0
5071582,380.52,854,762,0
5071592,384.82,854,764,0
5071602,389.46,854,762,0
5071612,394.21,854,764,0
5071622,398.39,854,763,0
5071632,401.91,854,764,0
5071642,404.17,854,762,0
5071652,405.23,854,764,0
5071662,404.73,854,763,0
5071672,402.93,854,764,0
5071682,399.69,854,762,0
5071692,395.41,854,764,0
5071703,390.15,854,763,0
5071713,384.32,854,764,0
5071723,378.18,854,762,0
5071733,372.04,854,764,0
5071744,366.24,854,763,0
5071753,361.03,854,764,0
5071763,356.43,854,762,0
5071773,352.49,854,764,0
5071783,349.34,854,763,0
5071793,346.93,854,764,0
5071803,345.32,854,762,0
5071813,344.37,854,764,0
5071823,344.08,854,763,0
5071833,344.36,854,764,0
5071843,345.15,854,762,0
5071853,346.31,854,764,0
5071863,347.71,854,762,0
5071873,349.26,854,764,0
5071883,350.81,854,762,0
5071893,352.24,854,764,0
5071903,353.58,854,763,0
5071913,354.73,854,764,0
5071923,355.71,854,762,0
5071933,356.44,854,764,0
5071943,357.00,854,763,0
5071953,357.30,854,764,0
5071963,357.38,854,762,0
5071973,357.18,854,764,0
5071983,356.95,854,763,0
5071993,356.93,854,764,0
5072003,357.59,854,762,0
5072013,359.73,854,764,0
5072023,364.40,854,763,0
5072033,372.68,854,764,0
5072044,385.89,854,763,0
5072054,404.99,854,764,0
5072064,430.54,854,763,0
5072083,462.61,813,762,0
5072087,500.01,813,765,0
5072095,540.38,813,764,0
5072105,580.98,813,763,0
5072115,619.39,813,764,0
5072125,653.73,813,763,0
5072135,681.54,813,764,0
5072145,700.88,813,763,0
5072155,710.34,813,764,0
5072165,710.58,813,763,0
5072175,702.39,813,764,0
5072185,686.72,813,763,0
5072195,664.00,813,764,0
5072205,636.70,813,763,0
5072215,606.06,813,764,0
5072225,574.54,813,763,0
5072235,543.14,813,764,0
5072245,513.44,813,763,0
5072256,485.75,813,764,0
5072265,461.14,813,763,0
5072275,438.98,813,764,0
5072285,420.13,813,763,0
5072295,404.02,813,764,0
5072305,391.16,813,763,0
5072315,380.95,813,764,0
5072325,373.98,813,763,0
5072335,369.53,813,764,0
5072345,367.91,813,763,0
5072355,368.41,813,764,0
5072365,371.29,813,763,0
5072375,375.44,813,764,0
5072385,380.97,813,763,0
5072395,386.72,813,764,0
5072405,392.59,813,763,0
5072415,397.60,813,764,0
5072425,401.92,813,764,0
5072435,404.56,813,764,0
5072445,405.89,813,763,0
5072455,405.19,813,764,0
5072465,403.08,813,764,0
5072475,399.28,813,764,0
5072485,394.48,813,763,0
5072495,388.38,813,764,0
5072505,381.92,813,764,0
5072515,374.92,813,764,0
5072525,368.30,813,763,0
5072535,361.70,813,764,0
5072545,355.92,813,764,0
5072556,350.58,813,764,0
5072566,346.34,813,763,0
5072576,342.68,813,764,0
5072586,340.25,813,764,0
5072596,338.29,813,764,0
5072606,337.52,813,763,0
5072616,337.06,813,763,0
5072626,337.60,813,764,0
5072636,338.36,813,764,0
5072646,339.93,813,764,0
5072656,341.36,813,764,0
5072666,343.35,813,764,0
5072676,345.00,813,764,0
5072686,347.06,813,764,0
5072696,348.63,813,763,0
5072706,350.37,813,764,0
5072716,351.37,813,763,0
5072727,352.46,813,764,0
5072737,352.88,813,763,0
5072747,353.56,813,764,0
5072757,354.12,813,763,0
5072768,356.01,813,764,0
5072777,359.44,813,763,0
5072787,366.33,813,764,0
5072797,377.21,813,763,0
5072807,394.16,813,764,0
5072817,416.91,813,763,0
5072827,446.51,813,764,0
5072837,481.54,813,764,0
5072857,521.15,773,762,0
5072860,561.95,773,763,0
5072869,601.78,773,765,0
5072879,637.93,773,763,0
5072889,669.45,773,765,0
5072899,693.10,773,763,0
5072909,708.03,773,765,0
5072919,712.78,773,763,0
5072929,708.73,773,765,0
5072940,696.34,773,763,0
5072950,676.69,773,765,0
5072960,650.34,773,763,0
5072970,620.11,773,764,0
5072980,587.55,773,763,0
5072990,555.37,773,765,0
5073000,524.02,773,763,0
5073010,494.95,773,765,0
5073020,468.27,773,763,0
5073030,444.79,773,765,0
5073040,424.02,773,763,0
5073050,406.36,773,765,0
5073060,391.12,773,762,0
5073070,379.09,773,765,0
5073080,369.76,773,763,0
5073090,363.62,773,765,0
5073100,360.00,773,763,0
5073111,359.27,773,765,0
5073121,360.61,773,763,0
5073131,363.94,773,764,0
5073141,368.41,773,763,0
5073152,373.86,773,765,0
5073161,379.30,773,763,0
5073171,384.61,773,764,0
5073181,388.84,773,763,0
5073191,392.02,773,765,0
5073201,393.64,773,763,0
5073211,393.83,773,765,0
5073221,392.38,773,763,0
5073231,389.57,773,765,0
5073241,385.50,773,763,0
5073251,380.68,773,764,0
5073261,375.20,773,763,0
5073271,369.48,773,764,0
5073281,363.68,773,763,0
5073291,358.25,773,765,0
5073301,353.16,773,763,0
5073311,348.61,773,765,0
5073321,344.70,773,763,0
5073331,341.62,773,765,0
5073341,339.25,773,762,0
5073351,337.72,773,765,0
5073361,336.77,773,763,0
5073371,336.80,773,765,0
5073381,337.33,773,763,0
5073391,338.47,773,765,0
5073401,339.87,773,763,0
5073411,341.80,773,765,0
5073421,343.92,773,763,0
5073431,346.21,773,764,0
5073441,348.33,773,763,0
5073452,350.42,773,765,0
5073462,352.14,773,762,0
5073472,353.60,773,764,0
5073482,354.62,773,763,0
5073492,355.16,773,764,0
5073502,355.41,773,763,0
5073512,355.42,773,765,0
5073522,355.59,773,763,0
5073532,356.23,773,765,0
5073542,358.09,773,763,0
5073552,362.09,773,765,0
5073562,369.65,773,763,0
5073572,382.10,773,765,0
5073582,400.41,773,763,0
5073592,425.62,773,765,0
5073602,457.96,773,763,0
5073622,496.54,765,762,0
5073625,538.17,765,764,0
5073634,579.99,765,764,0
5073644,619.46,765,764,0
5073654,654.85,765,764,0
5073665,684.30,765,764,0
5073675,707.01,765,764,0
5073685,722.18,765,764,0
5073695,729.71,765,764,0
5073705,729.93,765,764,0
5073715,722.83,765,764,0
5073725,708.95,765,764,0
5073735,688.23,765,764,0
5073745,661.46,765,764,0
5073755,629.73,765,764,0
5073765,596.17,765,764,0
5073775,562.09,765,764,0
5073785,529.41,765,764,0
5073795,498.51,765,764,0
5073805,470.80,765,764,0
5073815,445.92,765,764,0
5073825,424.56,765,764,0
5073836,406.05,765,764,0
5073846,391.16,765,764,0
5073856,379.11,765,764,0
5073866,370.64,765,764,0
5073876,364.92,765,763,0
5073886,362.54,765,764,0
5073896,362.42,765,764,0
5073906,365.00,765,764,0
5073916,368.98,765,763,0
5073926,374.64,765,764,0
5073936,380.67,765,764,0
5073946,386.89,765,764,0
5073956,392.20,765,763,0
5073966,396.81,765,764,0
5073976,399.52,765,764,0
5073986,400.91,765,764,0
5073996,400.08,765,763,0
5074007,397.78,765,765,0
5074017,393.61,765,763,0
5074027,388.45,765,765,0
5074037,381.97,765,763,0
5074048,375.38,765,765,0
5074057,368.20,765,764,0
5074067,361.62,765,765,0
5074077,355.01,765,763,0
5074087,349.56,765,765,0
5074097,344.55,765,764,0
5074107,340.91,765,765,0
5074117,337.81,765,763,0
5074127,336.15,765,765,0
5074137,335.04,765,764,0
5074147,335.24,765,765,0
5074157,335.85,765,763,0
5074167,337.57,765,765,0
5074177,339.46,765,764,0
5074187,342.28,765,765,0
5074197,344.98,765,763,0
5074207,348.16,765,765,0
5074217,350.94,765,763,0
5074227,353.91,765,765,0
5074237,356.17,765,763,0
5074247,358.43,765,765,0
5074257,359.76,765,763,0
5074267,361.07,765,765,0
5074277,361.40,765,763,0
5074287,361.62,765,765,0
5074297,361.26,765,763,0
5074307,361.65,765,765,0
5074317,362.79,765,763,0
5074327,366.54,765,765,0
5074337,373.45,765,763,0
5074348,386.04,765,765,0
5074358,404.97,765,763,0
5074368,431.89,765,765,0
5074378,466.34,765,764,0
5074398,506.48,776,762,0
5074401,548.89,776,764,0
5074410,591.18,776,765,0
5074420,630.51,776,763,0
5074430,665.03,776,765,0
5074440,692.79,776,763,0
5074450,713.17,776,765,0
5074460,727.43,776,764,0
5074470,737.42,776,765,0
5074480,743.16,776,763,0
5074490,743.89,776,765,0
5074500,738.86,776,763,0
5074510,727.85,776,765,0
5074520,710.84,776,763,0
5074530,688.00,776,765,0
5074540,659.11,776,763,0
5074550,626.08,776,765,0
5074561,590.91,776,763,0
5074571,555.71,776,765,0
5074581,521.38,776,763,0
5074591,488.91,776,765,0
5074601,458.85,776,763,0
5074611,432.37,776,765,0
5074621,409.50,776,763,0
5074631,390.75,776,765,0
5074641,376.08,776,763,0
5074651,365.81,776,765,0
5074661,359.70,776,763,0
5074671,357.35,776,765,0
5074681,358.14,776,763,0
5074691,361.53,776,765,0
5074701,366.56,776,763,0
5074711,372.39,776,765,0
5074721,378.40,776,763,0
5074732,383.68,776,765,0
5074742,388.06,776,763,0
5074752,390.70,776,765,0
5074762,391.60,776,763,0
5074772,390.57,776,764,0
5074782,387.95,776,763,0
5074792,383.72,776,765,0
5074802,378.32,776,763,0
5074812,371.93,776,765,0
5074822,365.35,776,763,0
5074832,358.81,776,765,0
5074842,352.78,776,763,0
5074852,347.32,776,764,0
5074862,342.77,776,763,0
5074872,339.15,776,765,0
5074882,336.71,776,763,0
5074892,335.25,776,764,0
5074903,334.92,776,764,0
5074913,335.33,776,764,0
5074923,336.64,776,764,0
5074933,338.25,776,764,0
5074944,340.62,776,764,0
5074953,342.96,776,764,0
5074963,345.59,776,764,0
5074973,347.77,776,764,0
5074983,350.11,776,764,0
5074993,351.96,776,764,0
5075003,353.94,776,764,0
5075013,355.20,776,764,0
5075023,356.47,776,764,0
5075033,357.19,776,765,0
5075043,357.82,776,764,0
5075053,357.79,776,764,0
5075063,357.68,776,764,0
5075073,357.22,776,765,0
5075083,357.41,776,764,0
5075093,358.44,776,764,0
5075103,361.95,776,764,0
5075113,369.00,776,764,0
5075123,381.47,776,764,0
5075133,400.49,776,764,0
5075143,427.77,776,764,0
5075163,463.24,765,763,0
5075166,504.27,765,765,0
5075175,547.52,765,764,0
5075185,590.47,765,764,0
5075195,630.58,765,764,0
5075205,665.72,765,764,0
5075215,693.74,765,764,0
5075225,713.84,765,764,0
5075235,727.86,765,764,0
5075245,737.71,765,764,0
5075255,744.57,765,764,0
5075265,748.26,765,764,0
5075275,746.85,765,764,0
5075286,739.74,765,764,0
5075295,726.10,765,764,0
5075305,706.14,765,764,0
5075315,679.49,765,764,0
5075325,646.98,765,765,0
5075335,610.09,765,764,0
5075345,572.00,765,764,0
5075355,534.12,765,764,0
5075365,498.30,765,765,0
5075375,465.04,765,764,0
5075385,435.84,765,764,0
5075395,410.34,765,764,0
5075405,389.41,765,764,0
5075415,372.66,765,764,0
5075425,360.85,765,764,0
5075435,353.27,765,764,0
5075445,350.23,765,764,0
5075456,350.55,765,763,0
5075465,354.32,765,764,0
5075475,360.01,765,764,0
5075485,367.51,765,764,0
5075495,375.16,765,763,0
5075505,382.95,765,764,0
5075515,389.44,765,764,0
5075525,394.88,765,764,0
5075535,398.09,765,764,0
5075545,399.56,765,764,0
5075555,398.58,765,764,0
5075565,396.05,765,764,0
5075575,391.40,765,764,0
5075585,385.84,765,764,0
5075595,378.90,765,764,0
5075605,371.82,765,764,0
5075615,364.24,765,764,0
5075625,357.40,765,764,0
5075635,350.77,765,764,0
5075645,345.39,765,764,0
5075655,340.65,765,764,0
5075665,337.41,765,764,0
5075675,334.93,765,764,0
5075685,333.84,765,764,0
5075695,333.33,765,764,0
5075705,334.13,765,764,0
5075715,335.25,765,764,0
5075725,337.27,765,764,0
5075735,339.25,765,764,0
5075745,341.79,765,764,0
5075756,344.08,765,764,0
5075766,346.63,765,765,0
5075776,348.58,765,763,0
5075786,350.72,765,765,0
5075796,352.22,765,763,0
5075806,353.87,765,765,0
5075816,354.72,765,763,0
5075826,355.58,765,765,0
5075836,355.62,765,763,0
5075846,355.56,765,765,0
5075856,354.71,765,763,0
5075866,353.94,765,765,0
5075876,352.89,765,763,0
5075886,353.22,765,765,0
5075896,355.13,765,763,0
5075906,360.87,765,765,0
5075916,371.37,765,763,0
5075927,389.04,765,765,0
5075937,414.49,765,764,0
5075947,448.88,765,764,0
5075966,489.42,804,764,0
5075970,533.39,804,766,0
5075979,577.46,804,763,0
5075989,619.32,804,765,0
5075999,656.21,804,764,0
5076009,686.53,804,765,0
5076019,708.70,804,763,0
5076029,724.26,804,764,0
5076039,735.16,804,764,0
5076049,742.82,804,765,0
5076059,746.13,804,763,0
5076069,743.86,804,764,0
5076079,734.99,804,763,0
5076089,719.18,804,765,0
5076099,696.37,804,763,0
5076109,666.94,804,764,0
5076119,631.26,804,763,0
5076129,592.05,804,765,0
5076140,551.67,804,763,0
5076150,512.34,804,764,0
5076160,475.42,804,763,0
5076170,441.91,804,765,0
5076180,412.32,804,763,0
5076190,387.33,804,764,0
5076200,367.04,804,763,0
5076210,351.90,804,765,0
5076220,341.77,804,763,0
5076230,336.53,804,764,0
5076240,335.81,804,763,0
5076250,339.08,804,765,0
5076260,345.44,804,763,0
5076270,354.05,804,764,0
5076280,363.81,804,763,0
5076290,373.89,804,765,0
5076300,383.40,804,763,0
5076311,391.46,804,764,0
5076321,397.71,804,763,0
5076331,401.44,804,765,0
5076341,402.77,804,763,0
5076352,401.38,804,764,0
5076361,397.75,804,763,0
5076371,392.04,804,764,0
5076381,384.87,804,763,0
5076391,376.47,804,764,0
5076401,367.84,804,763,0
5076411,359.10,804,764,0
5076421,351.10,804,764,0
5076431,343.70,804,764,0
5076441,337.53,804,763,0
5076451,332.53,804,765,0
5076461,329.03,804,763,0
5076471,326.66,804,764,0
5076481,325.78,804,763,0
5076491,325.84,804,765,0
5076501,327.13,804,763,0
5076511,328.94,804,764,0
5076521,331.53,804,763,0
5076531,334.24,804,765,0
5076541,337.21,804,763,0
5076551,339.85,804,764,0
5076561,342.59,804,763,0
5076571,344.99,804,765,0
5076581,347.22,804,763,0
5076591,348.74,804,764,0
5076601,349.93,804,763,0
5076611,350.55,804,765,0
5076621,350.94,804,763,0
5076631,350.70,804,764,0
5076641,350.45,804,763,0
5076652,350.70,804,764,0
5076662,352.76,804,764,0
5076672,357.59,804,764,0
5076682,366.97,804,764,0
5076692,382.15,804,764,0
5076702,404.61,804,764,0
5076712,434.68,804,764,0
5076722,472.66,804,764,0
5076742,514.94,775,763,0
5076745,558.71,775,765,0
5076754,601.06,775,764,0
5076764,639.74,775,764,0
5076774,672.86,775,764,0
5076784,699.13,775,764,0
5076794,717.56,775,764,0
5076804,730.51,775,764,0
5076814,738.07,775,764,0
5076824,740.41,775,764,0
5076834,736.21,775,764,0
5076844,725.56,775,764,0
5076854,707.95,775,764,0
5076865,683.97,775,764,0
5076875,653.50,775,763,0
5076885,619.07,775,764,0
5076895,581.76,775,763,0
5076905,544.55,775,765,0
5076915,508.21,775,763,0
5076925,474.59,775,764,0
5076935,443.73,775,763,0
5076945,416.98,775,765,0
5076955,393.89,775,763,0
5076965,375.49,775,764,0
5076975,361.33,775,763,0
5076985,352.10,775,764,0
5076995,346.97,775,763,0
5077005,346.55,775,764,0
5077015,349.39,775,763,0
5077025,355.53,775,765,0
5077036,363.51,775,763,0
5077046,373.09,775,764,0
5077056,382.62,775,763,0
5077066,392.08,775,764,0
5077076,399.81,775,763,0
5077086,406.21,775,764,0
5077096,410.09,775,763,0
5077106,411.99,775,764,0
5077116,411.27,775,763,0
5077126,408.91,775,764,0
5077136,404.40,775,763,0
5077146,398.84,775,765,0
5077156,392.03,775,763,0
5077166,385.03,775,764,0
5077176,377.65,775,763,0
5077186,370.90,775,764,0
5077196,364.37,775,763,0
5077207,359.03,775,764,0
5077217,354.39,775,763,0
5077227,351.06,775,765,0
5077237,348.56,775,763,0
5077248,347.28,775,764,0
5077257,346.64,775,763,0
5077267,347.09,775,765,0
5077277,347.83,775,763,0
5077287,349.34,775,764,0
5077297,350.78,775,763,0
5077307,352.65,775,764,0
5077317,354.34,775,763,0
5077327,356.21,775,764,0
5077337,357.65,775,763,0
5077347,359.25,775,764,0
5077357,360.38,775,763,0
5077367,361.46,775,764,0
5077377,361.92,775,763,0
5077387,362.33,775,764,0
5077397,362.15,775,763,0
5077407,361.76,775,764,0
5077417,360.85,775,763,0
5077427,360.12,775,765,0
5077437,359.66,775,763,0
5077447,360.66,775,764,0
5077457,363.68,775,763,0
5077467,370.37,775,765,0
5077477,381.70,775,763,0
5077487,399.62,775,764,0
5077497,424.72,775,763,0
5077507,457.59,775,765,0
5077526,496.50,785,763,0
5077529,538.52,785,765,0
5077538,580.71,785,763,0
5077548,620.95,785,765,0
5077558,656.58,785,763,0
5077568,686.06,785,764,0
5077578,708.33,785,763,0
5077588,723.96,785,765,0
5077598,734.86,785,763,0
5077608,740.26,785,764,0
5077618,739.32,785,763,0
5077628,731.77,785,765,0
5077638,717.52,785,763,0
5077648,696.75,785,765,0
5077658,669.61,785,763,0
5077668,636.77,785,765,0
5077678,601.14,785,763,0
5077688,565.14,785,764,0
5077698,530.08,785,763,0
5077708,497.32,785,765,0
5077719,467.39,785,763,0
5077729,441.05,785,765,0
5077739,418.32,785,763,0
5077749,399.28,785,765,0
5077760,383.98,785,763,0
5077769,372.76,785,765,0
5077779,365.07,785,763,0
5077789,361.24,785,765,0
5077799,360.57,785,763,0
5077809,362.75,785,765,0
5077819,367.11,785,763,0
5077829,372.91,785,765,0
5077839,379.54,785,763,0
5077849,386.40,785,765,0
5077859,392.54,785,763,0
5077869,397.69,785,765,0
5077879,401.51,785,763,0
5077889,403.80,785,765,0
5077899,404.20,785,763,0
5077909,402.69,785,765,0
5077919,399.48,785,763,0
5077929,394.79,785,765,0
5077939,388.98,785,762,0
5077949,382.35,785,765,0
5077959,375.30,785,763,0
5077969,368.44,785,765,0
5077979,361.96,785,763,0
5077989,356.15,785,765,0
5077999,351.26,785,763,0
5078009,347.24,785,765,0
5078019,344.17,785,762,0
5078029,342.02,785,765,0
5078039,340.81,785,763,0
5078049,340.44,785,765,0
5078060,340.86,785,763,0
5078070,341.85,785,765,0
5078080,343.52,785,763,0
5078090,345.51,785,764,0
5078100,347.84,785,763,0
5078110,350.20,785,765,0
5078120,352.67,785,763,0
5078130,354.96,785,764,0
5078140,357.24,785,763,0
5078150,359.18,785,764,0
5078160,360.97,785,763,0
5078170,362.22,785,764,0
5078180,363.14,785,763,0
5078190,363.70,785,765,0
5078200,363.92,785,763,0
5078210,363.69,785,764,0
5078220,363.78,785,763,0
5078231,364.53,785,764,0
5078241,367.41,785,764,0
5078251,373.38,785,764,0
5078261,383.93,785,763,0
5078272,400.45,785,764,0
5078281,424.10,785,764,0
5078291,454.72,785,764,0
5078310,492.26,784,763,0
5078313,533.24,784,765,0
5078322,575.04,784,764,0
5078332,614.88,784,764,0
5078342,650.79,784,764,0
5078352,681.02,784,764,0
5078362,704.80,784,764,0
5078372,721.02,784,764,0
5078382,730.01,784,764,0
5078392,731.34,784,764,0
5078402,725.54,784,764,0
5078412,712.22,784,764,0
5078422,691.88,784,764,0
5078432,664.66,784,764,0
5078443,632.10,784,764,0
5078452,596.42,784,764,0
5078462,560.38,784,764,0
5078472,524.82,784,764,0
5078482,491.79,784,764,0
5078492,461.60,784,764,0
5078502,435.32,784,764,0
5078512,412.34,784,764,0
5078522,393.29,784,764,0
5078532,377.65,784,764,0
5078542,366.05,784,764,0
5078552,357.77,784,764,0
5078562,353.21,784,764,0
5078572,351.47,784,764,0
5078582,352.92,784,764,0
5078592,356.37,784,764,0
5078602,362.09,784,764,0
5078612,368.70,784,764,0
5078622,376.25,784,764,0
5078632,383.50,784,764,0
5078642,390.47,784,764,0
5078652,396.03,784,764,0
5078662,400.43,784,764,0
5078672,402.62,784,764,0
5078682,403.25,784,764,0
5078692,401.59,784,764,0
5078702,398.54,784,764,0
5078712,393.66,784,764,0
5078722,388.15,784,764,0
5078732,381.59,784,764,0
5078743,374.94,784,764,0
5078753,367.89,784,764,0
5078763,361.58,784,764,0
5078773,355.41,784,764,0
5078784,350.44,784,764,0
5078793,345.85,784,764,0
5078803,342.51,784,764,0
5078813,339.87,784,764,0
5078823,338.62,784,764,0
5078833,337.88,784,763,0
5078843,338.30,784,764,0
5078853,338.98,784,764,0
5078863,340.53,784,764,0
5078873,342.17,784,763,0
5078883,344.31,784,764,0
5078893,346.01,784,764,0
5078903,348.07,784,764,0
5078913,349.59,784,763,0
5078923,351.30,784,764,0
5078933,352.32,784,764,0
5078943,353.25,784,764,0
5078953,353.52,784,763,0
5078963,353.92,784,764,0
5078973,353.65,784,764,0
5078983,353.71,784,764,0
5078993,353.71,784,763,0
5079003,355.17,784,764,0
5079013,358.38,784,764,0
5079023,365.38,784,764,0
5079033,376.75,784,763,0
5079043,394.48,784,764,0
5079053,418.94,784,764,0
5079063,451.06,784,764,0
5079073,489.44,784,764,0
5079093,531.44,783,762,0
5079096,573.78,783,764,0
5079105,614.34,783,765,0
5079115,650.67,783,763,0
5079126,681.33,783,765,0
5079135,704.97,783,764,0
5079145,721.05,783,765,0
5079155,729.14,783,763,0
5079165,729.61,783,765,0
5079175,722.44,783,763,0
5079185,708.25,783,765,0
5079195,686.70,783,763,0
5079205,658.72,783,764,0
5079215,625.42,783,763,0
5079225,590.07,783,765,0
5079235,553.96,783,763,0
5079245,519.26,783,765,0
5079255,486.44,783,763,0
5079265,457.03,783,764,0
5079275,430.71,783,763,0
5079285,408.13,783,764,0
5079296,388.80,783,763,0
5079305,373.60,783,764,0
5079315,361.77,783,763,0
5079325,353.74,783,764,0
5079335,349.10,783,763,0
5079345,348.09,783,764,0
5079355,349.56,783,763,0
5079365,353.68,783,764,0
5079375,359.22,783,763,0
5079385,366.31,783,764,0
5079395,373.46,783,763,0
5079405,380.56,783,764,0
5079415,386.39,783,763,0
5079425,391.46,783,765,0
5079435,394.58,783,763,0
5079445,396.04,783,764,0
5079455,395.04,783,763,0
5079465,392.50,783,765,0
5079475,387.93,783,763,0
5079485,382.47,783,764,0
5079495,375.81,783,763,0
5079505,368.93,783,765,0
5079515,361.79,783,763,0
5079525,355.00,783,764,0
5079535,348.31,783,763,0
5079545,342.56,783,765,0
5079555,337.29,783,763,0
5079565,333.22,783,764,0
5079575,329.85,783,763,0
5079585,327.67,783,765,0
5079596,326.40,783,763,0
5079606,326.49,783,764,0
5079616,327.29,783,763,0
5079626,329.17,783,765,0
5079636,331.31,783,763,0
5079646,334.21,783,764,0
5079656,337.15,783,763,0
5079666,340.41,783,764,0
5079676,343.41,783,763,0
5079686,346.50,783,764,0
5079696,349.18,783,763,0
5079706,351.74,783,765,0
5079716,353.62,783,763,0
5079726,355.32,783,764,0
5079736,356.29,783,763,0
5079746,356.98,783,765,0
5079756,356.94,783,763,0
5079767,356.57,783,764,0
5079777,355.63,783,763,0
5079787,354.71,783,764,0
5079797,353.68,783,763,0
5079808,353.56,783,764,0
5079817,354.85,783,763,0
5079827,359.05,783,765,0
5079837,367.27,783,763,0
5079847,381.29,783,764,0
5079857,401.86,783,763,0
5079876,430.23,783,762,0
5079879,466.72,783,764,0
5079888,508.20,783,764,0
5079898,551.51,783,763,0
5079908,594.09,783,765,0
5079918,633.36,783,763,0
5079928,667.62,783,764,0
5079938,695.17,783,763,0
5079948,714.66,783,765,0
5079958,728.30,783,763,0
5079968,736.96,783,764,0
5079979,739.84,783,763,0
5079988,736.50,783,765,0
5079998,726.41,783,763,0
5080008,709.40,783,764,0
5080018,685.88,783,763,0
5080028,656.43,783,764,0
5080038,622.44,783,763,0
5080048,586.44,783,764,0
5080058,550.26,783,763,0
5080068,515.77,783,764,0
5080078,484.04,783,763,0
5080088,455.44,783,764,0
5080098,430.20,783,763,0
5080108,408.54,783,764,0
5080118,390.63,783,763,0
5080128,376.43,783,764,0
5080138,365.84,783,763,0
5080148,358.69,783,764,0
5080158,354.93,783,763,0
5080168,354.18,783,764,0
5080178,356.14,783,763,0
5080188,360.04,783,764,0
5080198,365.47,783,763,0
5080208,371.72,783,764,0
5080218,378.23,783,763,0
5080228,384.33,783,764,0
5080238,389.59,783,763,0
5080248,393.36,783,764,0
5080258,395.61,783,763,0
5080268,396.15,783,764,0
5080279,394.95,783,763,0
5080289,392.05,783,764,0
5080299,387.84,783,763,0
5080309,382.36,783,764,0
5080320,376.25,783,763,0
5080329,369.70,783,764,0
5080339,363.19,783,763,0
5080349,356.79,783,764,0
5080359,351.03,783,763,0
5080369,345.83,783,764,0
5080379,341.68,783,763,0
5080389,338.26,783,764,0
5080399,335.96,783,763,0
5080409,334.30,783,764,0
5080419,333.65,783,762,0
5080429,333.67,783,764,0
5080439,334.63,783,763,0
5080449,336.07,783,764,0
5080459,338.15,783,763,0
5080469,340.42,783,764,0
5080479,343.21,783,763,0
5080489,345.93,783,764,0
5080499,348.78,783,762,0
5080509,351.20,783,764,0
5080519,353.46,783,763,0
5080529,355.16,783,764,0
5080539,356.53,783,763,0
5080549,357.18,783,764,0
5080559,357.60,783,763,0
5080569,357.33,783,764,0
5080579,357.02,783,762,0
5080589,356.46,783,764,0
5080599,356.41,783,763,0
5080609,357.06,783,764,0
5080620,359.82,783,763,0
5080630,365.53,783,764,0
5080640,376.09,783,763,0
5080650,392.39,783,764,0
5080660,416.10,783,763,0
5080670,446.93,783,764,0
5080689,485.01,813,763,0
5080692,526.75,813,764,0
5080701,569.51,813,763,0
5080711,610.46,813,764,0
5080721,647.56,813,764,0
5080731,678.64,813,764,0
5080741,703.09,813,763,0
5080751,720.20,813,764,0
5080761,731.63,813,764,0
5080771,736.45,813,764,0
5080781,734.65,813,763,0
5080791,725.75,813,764,0
5080801,710.10,813,764,0
5080811,687.53,813,764,0
5080821,658.87,813,763,0
5080832,625.05,813,763,0
5080841,589.64,813,764,0
5080851,553.87,813,764,0
5080861,519.80,813,763,0
5080871,487.84,813,763,0
5080881,459.52,813,763,0
5080891,434.38,813,763,0
5080901,413.09,813,763,0
5080911,394.89,813,763,0
5080921,380.57,813,763,0
5080931,369.47,813,764,0
5080941,362.21,813,764,0
5080951,357.91,813,763,0
5080961,357.03,813,763,0
5080971,358.57,813,764,0
5080981,362.73,813,764,0
5080991,368.17,813,763,0
5081001,375.02,813,764,0
5081011,381.87,813,764,0
5081021,388.76,813,764,0
5081031,394.36,813,763,0
5081041,398.88,813,764,0
5081051,401.28,813,764,0
5081061,402.14,813,764,0
5081071,400.59,813,763,0
5081081,397.55,813,764,0
5081091,392.62,813,764,0
5081101,386.91,813,764,0
5081111,380.12,813,764,0
5081121,373.23,813,764,0
5081132,365.92,813,764,0
5081142,359.30,813,764,0
5081152,353.12,813,763,0
5081162,347.99,813,764,0
5081172,343.40,813,763,0
5081182,340.15,813,764,0
5081192,337.54,813,763,0
5081202,336.30,813,764,0
5081212,335.66,813,763,0
5081222,336.10,813,764,0
5081232,336.93,813,763,0
5081242,338.75,813,764,0
5081252,340.54,813,763,0
5081262,343.08,813,764,0
5081272,345.37,813,763,0
5081282,347.96,813,764,0
5081292,349.94,813,763,0
5081303,352.02,813,764,0
5081313,353.30,813,763,0
5081323,354.58,813,765,0
5081333,355.05,813,763,0
5081344,355.46,813,764,0
5081353,355.20,813,762,0
5081363,355.01,813,764,0
5081373,354.32,813,763,0
5081383,354.22,813,764,0
5081393,354.59,813,763,0
5081403,357.11,813,764,0
5081413,362.22,813,763,0
5081423,372.05,813,764,0
5081433,387.08,813,762,0
5081443,409.38,813,765,0
5081453,438.80,813,763,0
5081473,475.80,783,762,0
5081476,516.96,783,764,0
5081485,559.74,783,765,0
5081495,601.09,783,763,0
5081505,639.29,783,765,0
5081516,671.91,783,763,0
5081526,698.03,783,765,0
5081536,716.67,783,763,0
5081546,729.28,783,765,0
5081556,735.33,783,763,0
5081566,734.93,783,765,0
5081576,727.54,783,763,0
5081586,713.36,783,764,0
5081596,692.34,783,762,0
5081606,665.28,783,764,0
5081616,633.01,783,763,0
5081626,598.46,783,765,0
5081636,563.10,783,762,0
5081646,529.04,783,764,0
5081656,497.06,783,763,0
5081666,468.24,783,765,0
5081676,442.62,783,762,0
5081687,420.71,783,765,0
5081697,402.50,783,763,0
5081707,388.12,783,765,0
5081717,377.45,783,763,0
5081728,370.42,783,764,0
5081737,366.91,783,763,0
5081747,366.59,783,765,0
5081757,368.86,783,763,0
5081767,373.19,783,764,0
5081777,379.13,783,763,0
5081787,385.91,783,765,0
5081797,393.05,783,763,0
5081807,399.85,783,764,0
5081817,405.59,783,763,0
5081827,409.96,783,765,0
5081837,412.59,783,763,0
5081847,413.10,783,764,0
5081857,411.57,783,763,0
5081867,408.10,783,765,0
5081877,402.84,783,763,0
5081887,396.33,783,764,0
5081897,388.99,783,763,0
5081907,381.15,783,765,0
5081917,373.43,783,763,0
5081927,366.10,783,764,0
5081937,359.47,783,763,0
5081947,353.67,783,765,0
5081957,348.93,783,763,0
5081967,345.14,783,764,0
5081977,342.44,783,763,0
5081987,340.68,783,765,0
5081997,339.87,783,763,0
5082007,339.87,783,764,0
5082017,340.68,783,763,0
5082028,342.10,783,765,0
5082038,344.13,783,763,0
5082048,346.45,783,764,0
5082058,349.19,783,763,0
5082068,351.92,783,764,0
5082078,354.73,783,763,0
5082088,357.25,783,764,0
5082098,359.62,783,763,0
5082108,361.58,783,764,0
5082118,363.42,783,763,0
5082128,364.71,783,764,0
5082138,365.82,783,763,0
5082148,366.30,783,764,0
5082158,366.47,783,763,0
5082168,366.07,783,764,0
5082178,365.49,783,763,0
5082188,364.62,783,764,0
5082199,364.30,783,764,0
5082209,364.94,783,764,0
5082219,368.00,783,764,0
5082229,374.43,783,764,0
5082240,386.13,783,764,0
5082249,403.83,783,764,0
5082259,429.04,783,764,0
5082278,461.60,806,763,0
5082281,500.33,806,766,0
5082290,541.89,806,764,0
5082300,583.80,806,764,0
5082310,623.16,806,764,0
5082320,658.34,806,764,0
5082330,687.29,806,764,0
5082340,709.23,806,764,0
5082350,724.55,806,764,0
5082360,735.31,806,764,0
5082370,742.08,806,764,0
5082380,744.15,806,764,0
5082390,740.34,806,764,0
5082400,730.55,806,764,0
5082411,714.18,806,763,0
5082420,691.93,806,764,0
5082430,663.62,806,764,0
5082440,630.82,806,764,0
5082450,595.43,806,763,0
5082460,560.37,806,764,0
5082470,526.28,806,764,0
5082480,494.95,806,764,0
5082490,466.17,806,763,0
5082500,441.13,806,764,0
5082510,419.45,806,764,0
5082520,402.00,806,764,0
5082530,387.94,806,763,0
5082540,378.06,806,764,0
5082550,371.48,806,764,0
5082560,368.77,806,764,0
5082570,368.79,806,764,0
5082580,371.86,806,764,0
5082590,376.49,806,764,0
5082600,382.73,806,764,0
5082610,389.15,806,764,0
5082620,395.83,806,764,0
5082630,401.50,806,764,0
5082640,406.36,806,764,0
5082650,409.21,806,764,0
5082660,410.65,806,764,0
5082670,409.94,806,764,0
5082680,407.81,806,764,0
5082690,403.76,806,764,0
5082700,398.81,806,764,0
5082711,392.57,806,764,0
5082721,386.01,806,764,0
5082731,378.77,806,763,0
5082741,371.98,806,764,0
5082752,365.30,806,763,0
5082761,359.72,806,764,0
5082771,354.45,806,764,0
5082781,350.46,806,764,0
5082791,347.19,806,763,0
5082801,345.42,806,764,0
5082811,344.27,806,764,0
5082821,344.36,806,764,0
5082831,344.72,806,763,0
5082841,346.13,806,764,0
5082851,347.59,806,764,0
5082861,349.69,806,764,0
5082871,351.54,806,764,0
5082881,353.73,806,764,0
5082891,355.49,806,764,0
5082901,357.44,806,764,0
5082911,358.72,806,764,0
5082921,360.09,806,765,0
5082931,360.75,806,764,0
5082941,361.38,806,764,0
5082951,361.22,806,764,0
5082961,361.16,806,765,0
5082971,360.55,806,764,0
5082981,360.52,806,764,0
5082991,360.96,806,764,0
5083001,363.67,806,765,0
5083011,368.87,806,764,0
5083021,378.68,806,764,0
5083031,393.73,806,764,0
5083041,416.06,806,765,0
5083052,445.44,806,763,0
5083062,482.21,806,765,0
5083081,522.82,803,764,0
5083084,565.00,803,766,0
5083094,605.80,803,763,0
5083103,643.27,803,765,0
5083113,675.12,803,763,0
5083123,700.50,803,765,0
5083133,718.48,803,763,0
5083143,730.51,803,764,0
5083153,735.88,803,763,0
5083163,734.67,803,765,0
5083173,726.37,803,763,0
5083183,711.65,803,764,0
5083193,690.37,803,763,0
5083203,663.34,803,765,0
5083213,631.35,803,763,0
5083223,597.65,803,764,0
5083233,563.55,803,763,0
5083243,531.20,803,765,0
5083253,500.58,803,763,0
5083264,472.94,803,764,0
5083273,448.10,803,763,0
5083283,426.85,803,765,0
5083293,408.64,803,763,0
5083303,394.13,803,764,0
5083313,382.69,803,763,0
5083323,375.07,803,765,0
5083333,370.59,803,763,0
5083343,369.47,803,764,0
5083353,370.74,803,763,0
5083363,374.51,803,765,0
5083373,379.63,803,763,0
5083383,386.08,803,765,0
5083393,392.57,803,763,0
5083403,399.04,803,765,0
5083413,404.34,803,763,0
5083423,408.57,803,765,0
5083433,410.84,803,763,0
5083443,411.66,803,765,0
5083453,410.31,803,763,0
5083463,407.51,803,765,0
5083473,402.95,803,763,0
5083483,397.52,803,765,0
5083493,390.98,803,763,0
5083503,384.26,803,765,0
5083513,377.15,803,763,0
5083523,370.68,803,765,0
5083533,364.56,803,763,0
5083543,359.59,803,764,0
5083553,355.26,803,763,0
5083564,352.31,803,765,0
5083574,350.24,803,763,0
5083584,349.23,803,765,0
5083594,348.90,803,763,0
5083604,349.40,803,765,0
5083614,350.27,803,763,0
5083624,351.82,803,765,0
5083634,353.46,803,763,0
5083644,355.55,803,765,0
5083654,357.61,803,763,0
5083664,359.91,803,765,0
5083674,361.95,803,763,0
5083684,363.85,803,765,0
5083694,365.23,803,763,0
5083704,366.40,803,765,0
5083714,366.84,803,763,0
5083724,367.02,803,765,0
5083735,366.50,803,763,0
5083745,365.79,803,765,0
5083755,364.95,803,763,0
5083765,364.75,803,765,0
5083776,365.81,803,763,0
5083785,369.38,803,765,0
5083795,376.55,803,763,0
5083805,388.99,803,765,0
5083815,408.02,803,763,0
5083825,434.41,803,765,0
5083835,468.28,803,763,0
5083854,507.62,773,762,0
5083857,549.44,773,765,0
5083866,591.09,773,765,0
5083876,630.02,773,763,0
5083886,664.13,773,765,0
5083896,691.99,773,763,0
5083906,712.69,773,765,0
5083916,727.19,773,763,0
5083926,737.33,773,765,0
5083936,744.39,773,764,0
5083947,746.89,773,765,0
5083956,744.22,773,763,0
5083966,735.75,773,765,0
5083976,721.26,773,763,0
5083986,700.65,773,765,0
5083996,674.36,773,763,0
5084006,642.62,773,764,0
5084016,608.45,773,763,0
5084026,573.39,773,765,0
5084036,539.16,773,763,0
5084046,506.92,773,765,0
5084056,477.42,773,763,0
5084066,450.94,773,765,0
5084076,428.07,773,763,0
5084086,408.89,773,764,0
5084096,393.75,773,763,0
5084106,382.56,773,765,0
5084116,375.23,773,763,0
5084126,371.56,773,765,0
5084136,371.31,773,763,0
5084146,373.70,773,764,0
5084156,378.16,773,763,0
5084166,383.94,773,765,0
5084176,390.43,773,763,0
5084186,396.60,773,765,0
5084196,402.08,773,763,0
5084206,406.08,773,764,0
5084216,408.59,773,763,0
5084226,409.23,773,765,0
5084236,408.09,773,763,0
5084247,404.97,773,764,0
5084257,400.57,773,764,0
5084267,394.83,773,764,0
5084277,388.66,773,763,0
5084288,381.91,773,764,0
5084297,375.34,773,763,0
5084307,368.98,773,764,0
5084317,363.46,773,763,0
5084327,358.52,773,764,0
5084337,354.72,773,763,0
5084347,351.55,773,764,0
5084357,349.58,773,763,0
5084367,348.25,773,764,0
5084377,347.88,773,763,0
5084387,347.96,773,764,0
5084397,348.87,773,764,0
5084407,350.07,773,764,0
5084417,351.85,773,763,0
5084427,353.78,773,764,0
5084437,356.12,773,764,0
5084447,358.22,773,764,0
5084457,360.56,773,764,0
5084467,362.49,773,764,0
5084477,364.40,773,763,0
5084487,365.61,773,764,0
5084497,366.50,773,764,0
5084507,366.73,773,764,0
5084517,366.81,773,763,0
5084527,366.23,773,764,0
5084537,365.60,773,764,0
5084547,364.69,773,764,0
5084557,364.53,773,764,0
5084567,365.31,773,764,0
5084577,368.52,773,764,0
5084588,375.05,773,764,0
5084598,386.91,773,764,0
5084608,405.11,773,764,0
5084618,431.26,773,764,0
5084628,465.21,773,764,0
5084647,504.96,793,763,0
5084650,547.23,793,764,0
5084659,589.55,793,764,0
5084669,629.15,793,764,0
5084679,664.04,793,764,0
5084689,692.18,793,764,0
5084699,712.83,793,764,0
5084709,727.28,793,764,0
5084719,737.40,793,764,0
5084729,744.48,793,763,0
5084739,748.19,793,764,0
5084749,746.98,793,764,0
5084759,740.64,793,764,0
5084769,728.23,793,763,0
5084779,709.91,793,764,0
5084789,685.38,793,764,0
5084800,655.26,793,764,0
5084809,621.07,793,763,0
5084819,585.78,793,764,0
5084829,550.10,793,764,0
5084839,516.13,793,764,0
5084849,484.12,793,763,0
5084859,455.63,793,764,0
5084869,430.41,793,764,0
5084879,409.42,793,764,0
5084889,392.10,793,763,0
5084899,379.43,793,764,0
5084909,370.82,793,764,0
5084919,366.71,793,764,0
5084929,365.90,793,764,0
5084939,368.67,793,764,0
5084949,373.40,793,764,0
5084959,380.09,793,764,0
5084969,387.14,793,763,0
5084979,394.42,793,764,0
5084989,400.68,793,764,0
5084999,406.18,793,764,0
5085009,409.42,793,763,0
5085019,411.18,793,764,0
5085029,410.57,793,764,0
5085039,408.47,793,764,0
5085049,404.22,793,763,0
5085059,398.92,793,764,0
5085069,392.09,793,764,0
5085079,385.12,793,764,0
5085089,377.50,793,763,0
5085100,370.53,793,764,0
5085110,363.77,793,763,0
5085120,358.40,793,764,0
5085130,353.74,793,763,0
5085140,350.60,793,765,0
5085150,348.24,793,764,0
5085160,347.39,793,764,0
5085170,347.06,793,763,0
5085180,347.94,793,765,0
5085190,349.12,793,764,0
5085200,351.10,793,764,0
5085210,353.00,793,763,0
5085220,355.48,793,765,0
5085230,357.61,793,764,0
5085240,360.13,793,764,0
5085250,362.02,793,763,0
5085260,363.98,793,765,0
5085271,365.19,793,763,0
5085281,366.37,793,765,0
5085291,366.69,793,763,0
5085301,366.91,793,764,0
5085312,366.34,793,763,0
5085321,365.89,793,765,0
5085331,364.85,793,763,0
5085341,364.56,793,764,0
5085351,364.99,793,763,0
5085361,367.82,793,765,0
5085371,373.70,793,763,0
5085381,384.89,793,764,0
5085391,402.32,793,763,0
5085401,427.64,793,765,0
5085411,460.58,793,763,0
5085430,499.75,783,762,0
5085433,541.82,783,763,0
5085442,584.35,783,765,0
5085452,624.36,783,763,0
5085462,659.78,783,765,0
5085472,688.77,783,763,0
5085483,710.44,783,765,0
5085492,725.61,783,763,0
5085502,736.23,783,764,0
5085512,743.66,783,763,0
5085522,747.83,783,765,0
5085532,747.28,783,763,0
5085542,741.37,783,764,0
5085552,729.04,783,763,0
5085562,710.35,783,765,0
5085572,685.17,783,763,0
5085582,653.96,783,764,0
5085592,617.97,783,763,0
5085602,580.01,783,765,0
5085612,541.56,783,763,0
5085622,504.88,783,764,0
5085632,470.50,783,763,0
5085642,439.71,783,765,0
5085652,412.75,783,763,0
5085662,390.50,783,764,0
5085672,372.86,783,763,0
5085682,360.39,783,765,0
5085692,352.52,783,763,0
5085702,349.49,783,764,0
5085712,350.24,783,763,0
5085722,354.58,783,765,0
5085732,361.14,783,763,0
5085742,369.45,783,765,0
5085752,378.06,783,763,0
5085762,386.70,783,765,0
5085772,394.16,783,763,0
5085783,400.33,783,764,0
5085793,404.30,783,763,0
5085803,406.31,783,765,0
5085813,405.92,783,763,0
5085824,403.67,783,764,0
5085833,399.36,783,763,0
5085843,393.72,783,765,0
5085853,386.90,783,763,0
5085863,379.56,783,764,0
5085873,371.89,783,763,0
5085883,364.60,783,765,0
5085893,357.73,783,763,0
5085903,351.81,783,765,0
5085913,346.73,783,763,0
5085923,342.82,783,765,0
5085933,339.88,783,763,0
5085943,338.11,783,765,0
5085953,337.09,783,763,0
5085963,337.15,783,765,0
5085973,337.75,783,763,0
5085983,339.07,783,764,0
5085993,340.72,783,763,0
5086003,342.90,783,765,0
5086013,345.12,783,763,0
5086023,347.61,783,765,0
5086033,349.91,783,763,0
5086043,352.30,783,765,0
5086053,354.35,783,763,0
5086063,356.22,783,765,0
5086073,357.52,783,763,0
5086083,358.57,783,765,0
5086093,358.95,783,763,0
5086103,358.92,783,765,0
5086113,358.26,783,763,0
5086124,357.41,783,765,0
5086134,356.52,783,763,0
5086144,356.45,783,765,0
5086154,358.03,783,763,0
5086164,362.78,783,765,0
5086174,371.80,783,763,0
5086184,387.12,783,765,0
5086194,410.01,783,763,0
5086204,441.55,783,765,0
5086223,480.34,793,764,0
5086226,523.10,793,765,0
5086235,566.87,793,764,0
5086245,609.25,793,765,0
5086255,647.58,793,764,0
5086265,679.76,793,765,0
5086275,704.13,793,763,0
5086285,721.19,793,765,0
5086295,733.13,793,764,0
5086305,741.49,793,765,0
5086315,747.35,793,763,0
5086325,751.44,793,765,0
5086336,752.25,793,764,0
5086345,748.32,793,765,0
5086355,738.58,793,763,0
5086365,722.34,793,765,0
5086375,699.39,793,764,0
5086385,669.83,793,764,0
5086395,634.01,793,763,0
5086405,594.32,793,765,0
5086415,553.30,793,764,0
5086425,512.92,793,765,0
5086435,474.80,793,763,0
5086445,439.98,793,765,0
5086455,409.38,793,764,0
5086465,383.47,793,765,0
5086475,362.84,793,763,0
5086485,347.42,793,765,0
5086495,337.22,793,763,0
5086505,331.88,793,765,0
5086515,331.06,793,763,0
5086525,333.91,793,764,0
5086535,339.77,793,764,0
5086545,347.55,793,764,0
5086555,356.43,793,763,0
5086565,365.34,793,765,0
5086575,373.68,793,764,0
5086585,380.55,793,765,0
5086595,385.61,793,763,0
5086605,388.47,793,765,0
5086615,389.14,793,763,0
5086625,387.56,793,765,0
5086636,384.26,793,763,0
5086646,379.30,793,764,0
5086656,373.47,793,764,0
5086666,366.85,793,764,0
5086676,360.26,793,764,0
5086686,353.71,793,764,0
5086696,347.92,793,764,0
5086706,342.68,793,764,0
5086716,338.62,793,764,0
5086726,335.35,793,764,0
5086736,333.44,793,764,0
5086746,332.24,793,764,0
5086756,332.21,793,764,0
5086766,332.70,793,764,0
5086776,334.04,793,764,0
5086786,335.61,793,764,0
5086796,337.78,793,764,0
5086807,339.95,793,764,0
5086817,342.62,793,764,0
5086827,345.05,793,764,0
5086837,347.78,793,764,0
5086848,350.12,793,764,0
5086857,352.57,793,764,0
5086867,354.54,793,764,0
5086877,356.48,793,764,0
5086887,357.71,793,764,0
5086897,358.82,793,764,0
5086907,359.22,793,764,0
5086917,359.62,793,764,0
5086927,359.27,793,764,0
5086937,358.84,793,764,0
5086947,357.78,793,764,0
5086957,356.94,793,764,0
5086967,356.15,793,764,0
5086977,356.66,793,764,0
5086987,358.95,793,764,0
5086997,365.26,793,764,0
5087007,376.54,793,764,0
5087017,395.24,793,764,0
5087036,421.78,813,763,0
5087039,457.63,813,765,0
5087048,499.06,813,764,0
5087058,543.31,813,765,0
5087068,587.19,813,764,0
5087078,628.45,813,764,0
5087088,664.27,813,764,0
5087098,693.25,813,765,0
5087108,713.57,813,764,0
5087118,727.80,813,764,0
5087128,737.76,813,764,0
5087138,744.73,813,765,0
5087148,749.61,813,764,0
5087158,753.03,813,764,0
5087168,752.98,813,764,0
5087178,748.10,813,764,0
5087188,736.84,813,764,0
5087198,719.23,813,764,0
5087208,694.52,813,763,0
5087218,663.16,813,764,0
5087228,625.27,813,764,0
5087238,584.22,813,764,0
5087248,541.81,813,764,0
5087258,500.81,813,764,0
5087268,461.74,813,764,0
5087278,426.72,813,764,0
5087288,395.90,813,763,0
5087298,370.56,813,764,0
5087308,350.21,813,764,0
5087319,335.83,813,765,0
5087329,326.58,813,763,0
5087339,322.94,813,765,0
5087349,323.43,813,763,0
5087360,328.01,813,765,0
5087369,334.82,813,763,0
5087379,343.70,813,765,0
5087389,352.79,813,764,0
5087399,361.98,813,765,0
5087409,369.66,813,763,0
5087419,376.02,813,765,0
5087429,379.78,813,763,0
5087439,381.61,813,765,0
5087449,380.65,813,764,0
5087459,377.93,813,765,0
5087469,373.02,813,763,0
5087479,367.14,813,765,0
5087489,360.03,813,763,0
5087499,352.99,813,765,0
5087509,345.75,813,763,0
5087519,339.44,813,765,0
5087529,333.52,813,763,0
5087539,328.99,813,765,0
5087549,325.14,813,763,0
5087559,322.83,813,765,0
5087569,321.25,813,763,0
5087579,321.09,813,765,0
5087589,321.41,813,764,0
5087599,322.96,813,765,0
5087609,324.77,813,763,0
5087619,327.54,813,765,0
5087629,330.29,813,763,0
5087639,333.63,813,765,0
5087649,336.57,813,763,0
5087660,339.87,813,765,0
5087670,342.65,813,764,0
5087680,345.54,813,765,0
5087690,347.69,813,763,0
5087700,349.71,813,765,0
5087710,350.83,813,763,0
5087720,351.78,813,765,0
5087730,351.76,813,763,0
5087740,351.45,813,765,0
5087750,350.33,813,763,0
5087760,349.20,813,765,0
5087770,347.60,813,763,0
5087780,346.73,813,765,0
5087790,346.68,813,764,0
5087800,349.35,813,765,0
5087810,355.50,813,763,0
5087820,367.27,813,765,0
5087831,385.61,813,763,0
5087841,412.52,813,765,0
5087860,447.63,824,764,0
5087863,489.19,824,765,0
5087873,533.53,824,763,0
5087883,578.11,824,765,0
5087893,619.99,824,763,0
5087903,657.07,824,765,0
5087913,687.09,824,764,0
5087923,709.26,824,765,0
5087933,724.78,824,763,0
5087943,735.65,824,765,0
5087953,741.37,824,764,0
5087963,741.22,824,765,0
5087973,734.38,824,763,0
5087983,720.42,824,765,0
5087993,699.42,824,763,0
5088003,671.74,824,765,0
5088013,637.83,824,763,0
5088023,600.08,824,765,0
5088033,560.67,824,763,0
5088044,521.68,824,765,0
5088054,484.75,824,763,0
5088064,450.63,824,764,0
5088074,420.09,824,764,0
5088084,393.32,824,765,0
5088094,370.86,824,764,0
5088104,352.90,824,764,0
5088114,339.60,824,764,0
5088124,330.68,824,765,0
5088134,326.19,824,763,0
5088144,325.62,824,764,0
5088154,328.69,824,764,0
5088164,334.35,824,765,0
5088174,342.01,824,764,0
5088184,350.62,824,764,0
5088194,359.73,824,763,0
5088204,368.30,824,765,0
5088215,375.75,824,764,0
5088225,381.35,824,764,0
5088235,385.15,824,764,0
5088245,386.52,824,764,0
5088256,385.98,824,764,0
5088265,383.24,824,764,0
5088275,379.01,824,764,0
5088285,373.22,824,764,0
5088295,366.77,824,764,0
5088305,359.55,824,764,0
5088315,352.57,824,764,0
5088325,345.67,824,764,0
5088335,339.60,824,764,0
5088345,334.11,824,764,0
5088355,329.79,824,764,0
5088365,326.34,824,765,0
5088375,324.26,824,764,0
5088385,323.20,824,764,0
5088395,323.18,824,764,0
5088405,323.81,824,764,0
5088415,325.28,824,764,0
5088425,327.13,824,764,0
5088435,329.45,824,764,0
5088445,331.67,824,764,0
5088455,334.13,824,764,0
5088465,336.32,824,764,0
5088475,338.58,824,764,0
5088485,340.46,824,764,0
5088495,342.34,824,764,0
5088505,343.69,824,764,0
5088515,345.03,824,764,0
5088525,345.75,824,764,0
5088535,346.51,824,764,0
5088545,346.61,824,764,0
5088556,346.69,824,764,0
5088566,346.14,824,764,0
5088576,345.71,824,764,0
5088586,344.94,824,764,0
5088596,344.36,824,764,0
5088606,343.82,824,764,0
5088616,344.26,824,764,0
5088626,345.81,824,764,0
5088636,350.50,824,764,0
5088646,358.62,824,764,0
5088656,372.45,824,764,0
5088666,392.80,824,764,0
5088686,421.36,825,763,0
5088689,458.24,825,764,0
5088698,500.59,825,765,0
5088708,544.73,825,764,0
5088718,588.65,825,765,0
5088728,629.34,825,764,0
5088738,665.03,825,765,0
5088748,693.43,825,764,0
5088758,713.62,825,765,0
5088769,727.75,825,764,0
5088779,737.68,825,765,0
5088789,743.48,825,764,0
5088799,744.19,825,765,0
5088809,738.48,825,764,0
5088819,726.50,825,765,0
5088829,707.50,825,763,0
5088839,682.02,825,765,0
5088849,650.13,825,763,0
5088859,613.96,825,765,0
5088869,575.40,825,764,0
5088879,537.31,825,765,0
5088889,500.23,825,764,0
5088899,466.22,825,765,0
5088909,435.25,825,764,0
5088919,408.18,825,765,0
5088929,384.47,825,764,0
5088940,365.17,825,765,0
5088950,349.90,825,764,0
5088960,339.13,825,765,0
5088970,332.19,825,763,0
5088980,329.14,825,765,0
5088990,329.35,825,764,0
5089000,332.72,825,765,0
5089010,337.99,825,763,0
5089020,344.85,825,765,0
5089030,352.14,825,763,0
5089040,359.68,825,765,0
5089050,366.33,825,763,0
5089060,371.93,825,765,0
5089070,375.68,825,763,0
5089080,377.88,825,765,0
5089090,377.91,825,763,0
5089100,376.48,825,765,0
5089111,373.12,825,763,0
5089121,368.80,825,765,0
5089131,363.46,825,763,0
5089141,357.84,825,765,0
5089152,351.84,825,763,0
5089161,346.19,825,765,0
5089171,340.69,825,763,0
5089181,335.94,825,765,0
5089191,331.80,825,763,0
5089201,328.60,825,765,0
5089211,326.15,825,763,0
5089221,324.73,825,765,0
5089231,324.04,825,763,0
5089241,324.33,825,765,0
5089251,325.13,825,763,0
5089261,326.59,825,765,0
5089271,328.39,825,763,0
5089281,330.80,825,765,0
5089291,333.30,825,763,0
5089301,336.13,825,765,0
5089311,338.70,825,763,0
5089321,341.11,825,764,0
5089331,343.00,825,763,0
5089341,344.67,825,765,0
5089351,345.71,825,764,0
5089361,346.44,825,765,0
5089371,346.61,825,763,0
5089381,346.64,825,765,0
5089391,346.41,825,763,0
5089401,346.11,825,765,0
5089411,345.39,825,763,0
5089421,344.59,825,765,0
5089431,343.43,825,764,0
5089441,342.27,825,765,0
5089452,341.25,825,763,0
5089462,341.22,825,765,0
5089472,343.04,825,763,0
5089482,348.17,825,764,0
5089492,357.89,825,764,0
5089502,373.74,825,765,0
5089521,396.83,836,764,0
5089524,428.51,836,764,0
5089533,467.96,836,764,0
5089543,511.68,836,765,0
5089553,556.61,836,764,0
5089563,599.97,836,765,0
5089573,639.62,836,764,0
5089583,673.55,836,765,0
5089593,699.74,836,764,0
5089603,718.03,836,765,0
5089613,730.84,836,764,0
5089623,739.41,836,765,0
5089633,742.68,836,764,0
5089643,739.69,836,765,0
5089653,730.10,836,764,0
5089664,713.57,836,765,0
5089673,690.68,836,763,0
5089683,661.51,836,764,0
5089693,627.15,836,763,0
5089703,590.25,836,765,0
5089713,553.28,836,764,0
5089723,517.45,836,765,0
5089733,484.19,836,764,0
5089743,453.62,836,765,0
5089753,426.52,836,764,0
5089763,402.79,836,765,0
5089773,382.97,836,763,0
5089783,366.73,836,765,0
5089793,354.51,836,764,0
5089803,346.09,836,765,0
5089813,341.56,836,763,0
5089823,340.36,836,765,0
5089833,342.44,836,764,0
5089843,346.81,836,765,0
5089853,353.08,836,763,0
5089863,360.30,836,765,0
5089873,368.01,836,764,0
5089883,375.29,836,765,0
5089893,381.76,836,763,0
5089903,386.59,836,765,0
5089913,389.80,836,764,0
5089923,391.06,836,765,0
5089933,390.53,836,764,0
5089943,387.97,836,765,0
5089953,383.95,836,764,0
5089964,378.56,836,765,0
5089974,372.48,836,764,0
5089984,365.74,836,765,0
5089994,359.09,836,764,0
5090004,352.50,836,764,0
5090014,346.74,836,763,0
5090024,341.59,836,764,0
5090034,337.73,836,764,0
5090044,334.72,836,764,0
5090054,333.05,836,763,0
5090064,332.18,836,765,0
5090074,332.60,836,764,0
5090084,333.57,836,764,0
5090094,335.46,836,763,0
5090104,337.51,836,765,0
5090114,340.10,836,764,0
5090124,342.68,836,764,0
5090135,345.52,836,764,0
5090145,347.89,836,764,0
5090155,350.41,836,764,0
5090165,352.39,836,764,0
5090176,354.37,836,764,0
5090185,355.80,836,764,0
5090195,357.15,836,764,0
5090205,357.83,836,764,0
5090215,358.53,836,764,0
5090225,358.50,836,764,0
5090235,358.35,836,764,0
5090245,357.43,836,764,0
5090255,356.44,836,764,0
5090265,354.90,836,764,0
5090275,353.68,836,764,0
5090285,352.58,836,764,0
5090295,353.01,836,764,0
5090305,355.36,836,764,0
5090315,361.68,836,764,0
5090325,372.75,836,764,0
5090335,390.78,836,764,0
5090355,416.22,833,763,0
5090358,450.70,833,766,0
5090367,491.16,833,764,0
5090377,534.87,833,765,0
5090387,578.58,833,764,0
5090397,620.15,833,765,0
5090407,656.88,833,764,0
5090417,687.26,833,765,0
5090427,709.25,833,764,0
5090437,724.65,833,765,0
5090447,735.42,833,764,0
5090457,742.03,833,765,0
5090467,742.87,833,764,0
5090477,737.73,833,765,0
5090487,725.72,833,764,0
5090497,707.08,833,765,0
5090507,681.51,833,763,0
5090518,649.90,833,765,0
5090527,613.50,833,764,0
5090537,575.68,833,765,0
5090547,537.46,833,763,0
5090557,501.32,833,765,0
5090567,467.54,833,764,0
5090577,437.46,833,765,0
5090587,410.75,833,763,0
5090597,388.28,833,765,0
5090607,369.64,833,764,0
5090617,355.65,833,765,0
5090627,345.51,833,763,0
5090637,339.92,833,765,0
5090647,338.01,833,764,0
5090657,339.81,833,765,0
5090667,343.98,833,763,0
5090677,350.54,833,765,0
5090688,358.05,833,764,0
5090697,366.44,833,765,0
5090707,374.15,833,763,0
5090717,381.26,833,765,0
5090727,386.58,833,764,0
5090737,390.61,833,765,0
5090747,392.23,833,763,0
5090757,392.20,833,765,0
5090767,389.91,833,764,0
5090777,386.34,833,765,0
5090787,381.09,833,764,0
5090797,375.24,833,765,0
5090807,368.44,833,764,0
5090817,361.88,833,765,0
5090827,355.19,833,764,0
5090837,349.39,833,765,0
5090847,344.00,833,764,0
5090857,339.93,833,765,0
5090867,336.61,833,763,0
5090877,334.67,833,765,0
5090887,333.40,833,764,0
5090897,333.45,833,765,0
5090907,333.87,833,763,0
5090917,335.37,833,765,0
5090927,337.01,833,764,0
5090937,339.50,833,765,0
5090947,341.83,833,763,0
5090957,344.63,833,765,0
5090967,347.01,833,764,0
5090977,349.58,833,765,0
5090988,351.46,833,763,0
5090998,353.17,833,765,0
5091008,354.10,833,764,0
5091018,355.10,833,765,0
5091028,355.50,833,763,0
5091038,355.99,833,765,0
5091048,356.25,833,764,0
5091058,356.65,833,765,0
5091068,356.67,833,763,0
5091078,356.64,833,765,0
5091088,355.89,833,764,0
5091098,355.19,833,765,0
5091108,353.81,833,763,0
5091118,352.45,833,765,0
5091128,351.16,833,764,0
5091138,351.28,833,765,0
5091148,353.38,833,763,0
5091159,359.44,833,765,0
5091169,370.24,833,763,0
5091179,388.21,833,765,0
5091198,413.90,844,764,0
5091202,448.90,844,765,0
5091211,489.90,844,764,0
5091221,534.12,844,765,0
5091231,578.35,844,763,0
5091241,620.38,844,765,0
5091251,657.46,844,764,0
5091261,687.92,844,765,0
5091271,709.76,844,764,0
5091281,725.05,844,765,0
5091291,735.75,844,764,0
5091301,743.28,844,765,0
5091311,747.91,844,764,0
5091321,747.94,844,765,0
5091331,742.56,844,764,0
5091341,731.08,844,765,0
5091351,713.14,844,764,0
5091361,688.63,844,765,0
5091372,658.09,844,764,0
5091382,622.45,844,765,0
5091392,584.95,844,764,0
5091402,546.99,844,765,0
5091412,510.44,844,764,0
5091422,476.36,844,765,0
5091432,445.83,844,764,0
5091442,419.01,844,765,0
5091452,396.63,844,764,0
5091462,378.36,844,765,0
5091472,364.75,844,764,0
5091482,355.53,844,765,0
5091492,350.74,844,764,0
5091502,349.79,844,765,0
5091512,352.25,844,764,0
5091522,357.15,844,765,0
5091532,364.09,844,764,0
5091543,371.99,844,765,0
5091553,380.27,844,764,0
5091563,387.77,844,765,0
5091573,394.27,844,764,0
5091584,398.99,844,764,0
5091593,401.99,844,764,0
5091603,402.68,844,764,0
5091613,401.58,844,764,0
5091623,398.36,844,764,0
5091633,393.92,844,764,0
5091643,388.08,844,764,0
5091653,381.75,844,764,0
5091663,374.84,844,765,0
5091673,368.29,844,764,0
5091683,361.86,844,764,0
5091693,356.46,844,764,0
5091703,351.56,844,764,0
5091713,347.84,844,764,0
5091723,344.84,844,764,0
5091733,343.09,844,764,0
5091743,341.86,844,764,0
5091753,341.73,844,764,0
5091763,341.94,844,765,0
5091773,342.90,844,764,0
5091783,344.00,844,764,0
5091793,345.63,844,764,0
5091803,347.11,844,764,0
5091813,348.96,844,764,0
5091823,350.48,844,764,0
5091833,352.22,844,764,0
5091843,353.70,844,764,0
5091853,355.37,844,764,0
5091863,356.68,844,764,0
5091873,358.10,844,764,0
5091884,359.06,844,764,0
5091894,360.07,844,764,0
5091904,360.56,844,764,0
5091914,361.08,844,764,0
5091924,360.97,844,764,0
5091934,360.81,844,764,0
5091944,360.01,844,764,0
5091954,359.32,844,764,0
5091964,358.24,844,764,0
5091974,357.65,844,764,0
5091984,357.41,844,764,0
5091994,359.13,844,764,0
5092004,363.21,844,764,0
5092014,371.63,844,764,0
5092024,385.33,844,764,0
5092043,406.57,845,763,0
5092046,436.27,845,764,0
5092055,473.95,845,765,0
5092065,515.88,845,765,0
5092075,559.59,845,765,0
5092085,602.18,845,764,0
5092096,641.56,845,765,0
5092105,675.07,845,765,0
5092115,700.81,845,765,0
5092125,718.78,845,764,0
5092135,731.36,845,765,0
5092145,740.17,845,764,0
5092155,746.37,845,765,0
5092165,750.16,845,764,0
5092175,750.07,845,765,0
5092185,744.78,845,764,0
5092195,733.66,845,765,0
5092205,715.89,845,764,0
5092215,691.92,845,765,0
5092225,661.65,845,764,0
5092235,626.65,845,765,0
5092245,588.83,845,764,0
5092255,550.99,845,765,0
5092265,514.10,845,764,0
5092275,480.34,845,765,0
5092285,449.59,845,764,0
5092295,423.19,845,765,0
5092305,400.63,845,764,0
5092315,383.08,845,764,0
5092325,369.90,845,764,0
5092335,361.83,845,765,0
5092345,357.60,845,764,0
5092355,357.72,845,764,0
5092365,360.80,845,764,0
5092375,366.69,845,765,0
5092385,373.90,845,764,0
5092396,382.16,845,765,0
5092406,390.00,845,764,0
5092416,397.50,845,765,0
5092426,403.13,845,764,0
5092436,407.29,845,765,0
5092446,409.01,845,764,0
5092456,408.96,845,765,0
5092466,406.40,845,764,0
5092476,402.38,845,765,0
5092486,396.48,845,764,0
5092496,390.04,845,765,0
5092506,382.61,845,764,0
5092516,375.44,845,765,0
5092526,368.11,845,764,0
5092536,361.73,845,765,0
5092546,355.86,845,764,0
5092556,351.36,845,765,0
5092567,347.52,845,764,0
5092577,345.14,845,765,0
5092587,343.42,845,764,0
5092597,342.95,845,765,0
5092608,343.01,845,764,0
5092617,343.99,845,765,0
5092627,345.11,845,764,0
5092637,346.96,845,765,0
5092647,348.77,845,764,0
5092657,351.03,845,765,0
5092667,352.99,845,764,0
5092677,355.18,845,765,0
5092687,357.05,845,764,0
5092697,359.14,845,765,0
5092707,360.64,845,764,0
5092717,362.20,845,765,0
5092727,363.17,845,764,0
5092737,364.23,845,765,0
5092747,364.64,845,764,0
5092757,364.96,845,765,0
5092767,364.59,845,764,0
5092777,364.24,845,765,0
5092787,363.48,845,764,0
5092797,363.38,845,765,0
5092807,364.12,845,764,0
5092817,367.43,845,765,0
5092827,373.90,845,764,0
5092837,385.80,845,765,0
5092847,404.20,845,764,0
5092857,430.89,845,765,0
5092876,465.42,833,764,0
5092879,505.58,833,766,0
5092888,548.09,833,764,0
5092898,590.62,833,765,0
5092908,630.38,833,764,0
5092918,665.28,833,765,0
5092928,693.18,833,764,0
5092938,713.48,833,765,0
5092948,727.70,833,764,0
5092958,737.64,833,765,0
5092968,744.65,833,764,0
5092978,748.96,833,765,0
5092988,748.63,833,764,0
5092998,742.95,833,765,0
5093008,730.84,833,764,0
5093018,712.16,833,765,0
5093028,686.74,833,763,0
5093038,655.27,833,765,0
5093048,618.59,833,764,0
5093058,579.97,833,765,0
5093068,540.94,833,764,0
5093079,503.71,833,765,0
5093089,469.09,833,764,0
5093099,438.29,833,765,0
5093109,411.46,833,764,0
5093120,389.29,833,765,0
5093129,371.68,833,764,0
5093139,359.04,833,765,0
5093149,351.02,833,764,0
5093159,347.67,833,765,0
5093169,348.20,833,764,0
5093179,352.21,833,765,0
5093189,358.79,833,764,0
5093199,367.21,833,765,0
5093209,376.45,833,764,0
5093219,385.78,833,765,0
5093229,394.33,833,764,0
5093239,401.56,833,765,0
5093249,406.71,833,764,0
5093259,409.71,833,765,0
5093269,410.27,833,764,0
5093279,408.56,833,765,0
5093289,404.71,833,764,0
5093299,399.31,833,765,0
5093309,392.57,833,764,0
5093319,385.24,833,765,0
5093329,377.41,833,764,0
5093339,370.00,833,765,0
5093349,363.02,833,763,0
5093359,356.80,833,765,0
5093369,351.33,833,764,0
5093379,347.12,833,765,0
5093389,343.87,833,764,0
5093399,341.89,833,765,0
5093409,340.77,833,764,0
5093420,340.71,833,765,0
5093430,341.52,833,763,0
5093440,343.04,833,765,0
5093450,345.08,833,764,0
5093460,347.50,833,765,0
5093470,350.09,833,763,0
5093480,352.72,833,765,0
5093490,355.29,833,764,0
5093500,357.65,833,765,0
5093510,359.68,833,763,0
5093520,361.15,833,765,0
5093530,362.18,833,764,0
5093540,362.55,833,765,0
5093550,362.39,833,763,0
5093560,361.63,833,765,0
5093570,360.41,833,764,0
5093580,358.74,833,765,0
5093591,356.85,833,764,0
5093601,354.84,833,765,0
5093611,352.96,833,764,0
5093621,351.47,833,765,0
5093632,351.29,833,764,0
5093641,353.13,833,765,0
5093651,358.83,833,764,0
5093661,369.60,833,765,0
5093671,387.42,833,764,0
5093681,413.22,833,765,0
5093700,448.04,824,764,0
5093703,489.04,824,766,0
5093712,533.39,824,764,0
5093722,577.80,824,765,0
5093732,619.95,824,765,0
5093742,656.99,824,765,0
5093752,687.38,824,764,0
5093762,709.47,824,765,0
5093772,724.93,824,764,0
5093782,735.75,824,765,0
5093792,743.28,824,764,0
5093803,747.83,824,764,0
5093812,748.09,824,764,0
5093822,742.45,824,764,0
5093832,730.36,824,764,0
5093842,711.26,824,764,0
5093852,685.64,824,764,0
5093862,653.56,824,764,0
5093872,616.49,824,764,0
5093882,576.66,824,764,0
5093892,537.25,824,764,0
5093902,499.46,824,764,0
5093912,464.99,824,764,0
5093922,433.88,824,764,0
5093932,407.30,824,764,0
5093942,384.93,824,764,0
5093952,367.46,824,764,0
5093962,354.30,824,764,0
5093972,345.89,824,764,0
5093982,341.38,824,764,0
5093992,340.97,824,764,0
5094002,343.46,824,764,0
5094012,348.85,824,764,0
5094022,356.01,824,765,0
5094032,364.45,824,764,0
5094042,372.76,824,764,0
5094052,380.93,824,764,0
5094062,387.77,824,764,0
5094072,393.32,824,764,0
5094082,396.57,824,764,0
5094092,397.81,824,764,0
5094103,396.58,824,764,0
5094113,393.79,824,764,0
5094123,388.97,824,764,0
5094133,383.19,824,764,0
5094144,376.19,824,764,0
5094153,369.23,824,764,0
5094163,362.09,824,764,0
5094173,355.81,824,764,0
5094183,349.99,824,764,0
5094193,345.54,824,764,0
5094203,341.86,824,764,0
5094213,339.76,824,764,0
5094223,338.33,824,764,0
5094233,338.15,824,764,0
5094243,338.36,824,764,0
5094253,339.58,824,764,0
5094263,340.95,824,764,0
5094273,343.02,824,764,0
5094283,344.94,824,764,0
5094293,347.40,824,764,0
5094303,349.55,824,764,0
5094313,352.04,824,764,0
5094323,353.96,824,764,0
5094333,356.03,824,764,0
5094343,357.39,824,764,0
5094353,358.82,824,764,0
5094363,359.43,824,764,0
5094373,359.86,824,764,0
5094383,359.43,824,764,0
5094393,358.87,824,764,0
5094403,357.58,824,764,0
5094413,356.51,824,764,0
5094423,355.28,824,764,0
5094433,355.46,824,764,0
5094444,357.46,824,763,0
5094454,363.41,824,764,0
5094464,374.21,824,764,0
5094474,392.32,824,765,0
5094484,418.28,824,763,0
5094503,452.91,803,763,0
5094506,493.52,803,764,0
5094515,537.34,803,765,0
5094525,581.08,803,763,0
5094535,622.54,803,765,0
5094545,658.85,803,763,0
5094555,688.47,803,765,0
5094565,710.14,803,763,0
5094575,725.31,803,765,0
5094585,735.93,803,763,0
5094595,743.41,803,765,0
5094605,745.82,803,763,0
5094615,742.66,803,765,0
5094625,732.86,803,763,0
5094635,716.57,803,765,0
5094645,693.43,803,763,0
5094656,664.20,803,765,0
5094665,629.30,803,763,0
5094675,592.44,803,765,0
5094685,555.02,803,763,0
5094695,519.53,803,764,0
5094705,486.54,803,763,0
5094715,457.58,803,765,0
5094725,432.29,803,763,0
5094735,411.46,803,764,0
5094745,394.52,803,763,0
5094755,382.24,803,765,0
5094765,373.77,803,763,0
5094775,369.55,803,765,0
5094785,368.44,803,763,0
5094795,370.80,803,764,0
5094805,375.14,803,763,0
5094815,381.44,803,764,0
5094825,388.21,803,763,0
5094835,395.43,803,764,0
5094845,401.65,803,763,0
5094855,406.98,803,764,0
5094865,410.20,803,763,0
5094875,411.81,803,764,0
5094885,411.01,803,763,0
5094895,408.56,803,764,0
5094905,403.94,803,763,0
5094915,398.30,803,765,0
5094925,391.22,803,763,0
5094935,383.87,803,764,0
5094945,375.85,803,763,0
5094956,368.35,803,765,0
5094966,361.00,803,763,0
5094976,354.83,803,765,0
5094986,349.27,803,763,0
5094996,345.24,803,765,0
5095006,342.09,803,763,0
5095016,340.47,803,764,0
5095026,339.69,803,763,0
5095036,340.25,803,765,0
5095046,341.55,803,763,0
5095056,343.78,803,764,0
5095066,346.51,803,763,0
5095076,349.70,803,764,0
5095086,352.87,803,763,0
5095096,356.17,803,764,0
5095106,358.78,803,763,0
5095116,361.03,803,765,0
5095127,362.43,803,763,0
5095137,363.16,803,764,0
5095147,363.28,803,763,0
5095157,362.98,803,765,0
5095168,362.43,803,763,0
5095177,362.39,803,764,0
5095187,363.17,803,763,0
5095197,366.38,803,764,0
