Time,PPG,IBI,GSR,GSR_Event
7496693,410.76,874,764,0
7496704,408.43,874,763,0
7496713,405.94,874,765,0
7496723,403.43,874,764,0
7496733,400.94,874,765,0
7496743,398.39,874,763,0
7496753,396.09,874,765,0
7496763,395.76,874,764,0
7496773,396.69,874,765,0
7496783,397.51,874,763,0
7496793,397.96,874,765,0
7496803,397.88,874,764,0
7496813,397.41,874,765,0
7496823,396.30,874,763,0
7496833,394.88,874,764,0
7496843,392.77,874,764,0
7496853,390.53,874,765,0
7496863,388.05,874,763,0
7496873,385.47,874,765,0
7496883,382.84,874,764,0
7496893,380.40,874,765,0
7496903,378.05,874,763,0
7496913,376.24,874,765,0
7496923,374.62,874,764,0
7496933,373.49,874,765,0
7496943,372.62,874,763,0
7496953,371.87,874,765,0
7496963,371.27,874,764,0
7496973,371.02,874,765,0
7496983,370.88,874,763,0
7496993,370.96,874,765,0
7497004,371.06,874,763,0
7497014,371.34,874,765,0
7497024,371.54,874,763,0
7497034,371.89,874,765,0
7497044,372.01,874,763,0
7497054,372.18,874,765,0
7497064,372.17,874,763,0
7497074,372.12,874,765,0
7497084,371.87,874,763,0
7497094,371.78,874,765,0
7497104,371.33,874,763,0
7497114,371.06,874,765,0
7497124,370.57,874,763,0
7497134,370.40,874,765,0
7497144,370.32,874,763,0
7497154,370.87,874,765,0
7497164,372.24,874,763,0
7497175,375.21,874,765,0
7497185,380.03,874,762,0
7497195,387.65,874,765,0
7497205,398.04,874,763,0
7497216,412.21,874,765,0
7497234,429.85,914,765,0
7497237,452.10,914,766,0
7497246,477.27,914,764,0
7497256,504.06,914,766,0
7497266,530.53,914,763,0
7497276,555.57,914,766,0
7497286,577.30,914,764,0
7497296,594.69,914,766,0
7497306,605.50,914,763,0
7497316,610.49,914,766,0
7497326,609.70,914,763,0
7497336,604.39,914,766,0
7497346,595.06,914,763,0
7497356,582.91,914,765,0
7497366,568.80,914,764,0
7497376,553.77,914,766,0
7497387,538.37,914,763,0
7497396,523.64,914,766,0
7497406,509.57,914,763,0
7497416,496.92,914,766,0
7497426,485.33,914,763,0
7497436,475.33,914,766,0
7497446,466.58,914,763,0
7497456,459.33,914,766,0
7497466,453.15,914,763,0
7497476,448.30,914,766,0
7497486,444.27,914,763,0
7497496,441.57,914,766,0
7497506,439.60,914,763,0
7497516,438.91,914,766,0
7497526,438.63,914,763,0
7497536,439.47,914,766,0
7497546,440.49,914,763,0
7497556,442.06,914,766,0
7497566,443.58,914,763,0
7497576,445.16,914,766,0
7497586,446.10,914,763,0
7497596,446.84,914,766,0
7497606,446.46,914,763,0
7497616,445.72,914,766,0
7497626,443.92,914,764,0
7497636,441.50,914,766,0
7497646,438.09,914,763,0
7497656,434.08,914,766,0
7497666,429.43,914,763,0
7497676,424.76,914,766,0
7497687,419.69,914,763,0
7497697,415.02,914,766,0
7497707,410.39,914,764,0
7497717,406.54,914,766,0
7497728,403.04,914,764,0
7497737,400.28,914,766,0
7497747,397.76,914,764,0
7497757,395.99,914,765,0
7497767,394.40,914,764,0
7497777,393.34,914,766,0
7497787,392.25,914,764,0
7497797,391.75,914,765,0
7497807,391.01,914,764,0
7497817,390.96,914,766,0
7497827,390.67,914,764,0
7497837,390.64,914,766,0
7497847,390.32,914,764,0
7497857,390.27,914,766,0
7497867,390.06,914,764,0
7497877,390.26,914,766,0
7497887,389.92,914,764,0
7497897,389.73,914,766,0
7497907,389.21,914,764,0
7497917,389.02,914,766,0
7497927,388.37,914,764,0
7497937,387.79,914,766,0
7497947,386.69,914,764,0
7497957,385.67,914,766,0
7497967,384.53,914,764,0
7497977,383.64,914,766,0
7497987,382.59,914,764,0
7497997,382.33,914,766,0
7498007,382.23,914,764,0
7498017,383.45,914,766,0
7498028,386.06,914,764,0
7498038,391.22,914,766,0
7498048,399.39,914,765,0
7498058,411.91,914,766,0
7498078,429.08,843,765,0
7498081,452.33,843,765,0
7498090,480.60,843,765,0
7498100,513.38,843,766,0
7498110,548.66,843,766,0
7498120,584.47,843,765,0
7498130,618.48,843,765,0
7498140,649.15,843,766,0
7498150,674.31,843,766,0
7498160,693.07,843,766,0
7498170,704.36,843,765,0
7498180,708.24,843,766,0
7498190,705.25,843,766,0
7498200,696.35,843,765,0
7498210,681.72,843,765,0
7498220,662.73,843,766,0
7498230,640.74,843,766,0
7498241,617.37,843,765,0
7498251,593.82,843,765,0
7498261,571.20,843,765,0
7498271,550.06,843,766,0
7498281,531.31,843,764,0
7498291,514.80,843,765,0
7498301,500.68,843,765,0
7498311,488.73,843,766,0
7498321,478.74,843,764,0
7498331,470.72,843,766,0
7498341,464.29,843,765,0
7498351,459.40,843,766,0
7498361,455.68,843,764,0
7498371,453.03,843,766,0
7498381,451.27,843,765,0
7498391,450.42,843,766,0
7498401,450.12,843,764,0
7498412,450.38,843,766,0
7498422,450.65,843,763,0
7498432,451.14,843,766,0
7498442,451.19,843,763,0
7498452,450.92,843,766,0
7498462,449.91,843,764,0
7498472,448.22,843,766,0
7498482,445.59,843,764,0
7498492,442.24,843,766,0
7498502,437.88,843,763,0
7498512,433.16,843,766,0
7498522,427.75,843,763,0
7498532,422.21,843,766,0
7498542,416.32,843,763,0
7498552,410.61,843,766,0
7498562,404.98,843,764,0
7498572,399.80,843,766,0
7498583,394.89,843,763,0
7498593,390.64,843,766,0
7498603,386.80,843,763,0
7498613,383.82,843,766,0
7498624,381.13,843,763,0
7498633,379.08,843,766,0
7498643,377.38,843,763,0
7498653,376.37,843,766,0
7498663,375.49,843,763,0
7498673,375.04,843,766,0
7498683,374.56,843,763,0
7498693,374.48,843,766,0
7498703,374.29,843,763,0
7498713,374.46,843,766,0
7498723,374.45,843,763,0
7498733,374.70,843,766,0
7498743,374.62,843,763,0
7498753,374.73,843,766,0
7498763,374.73,843,763,0
7498773,375.02,843,766,0
7498783,375.02,843,763,0
7498793,375.01,843,766,0
7498803,374.71,843,763,0
7498813,374.50,843,766,0
7498823,373.88,843,763,0
7498833,373.18,843,765,0
7498843,372.01,843,763,0
7498853,370.90,843,766,0
7498863,369.68,843,763,0
7498873,368.75,843,766,0
7498883,367.88,843,763,0
7498893,367.75,843,765,0
7498903,368.25,843,763,0
7498913,370.66,843,766,0
7498924,375.35,843,763,0
7498934,383.60,843,766,0
7498944,396.15,843,763,0
7498963,414.40,886,763,0
7498967,438.88,886,765,0
7498975,469.35,886,766,0
7498985,504.17,886,763,0
7498995,541.83,886,766,0
7499005,579.56,886,763,0
7499015,615.43,886,766,0
7499025,647.36,886,763,0
7499035,673.61,886,766,0
7499045,692.67,886,764,0
7499055,704.34,886,765,0
7499065,708.14,886,763,0
7499075,705.05,886,766,0
7499085,695.39,886,764,0
7499095,680.15,886,765,0
7499105,659.53,886,763,0
7499115,635.93,886,766,0
7499125,610.11,886,764,0
7499136,584.28,886,765,0
7499145,558.95,886,763,0
7499155,535.65,886,766,0
7499165,514.24,886,764,0
7499175,495.65,886,766,0
7499185,479.30,886,763,0
7499195,465.63,886,766,0
7499205,453.74,886,764,0
7499215,444.00,886,766,0
7499225,435.69,886,763,0
7499235,429.35,886,765,0
7499245,424.49,886,764,0
7499255,421.34,886,766,0
7499265,419.23,886,763,0
7499275,418.52,886,765,0
7499285,418.62,886,764,0
7499295,419.76,886,766,0
7499305,420.99,886,764,0
7499315,422.41,886,765,0
7499325,423.19,886,764,0
7499335,424.03,886,766,0
7499345,424.19,886,764,0
7499355,423.96,886,765,0
7499365,422.60,886,764,0
7499375,420.54,886,766,0
7499385,417.59,886,764,0
7499395,414.50,886,765,0
7499405,410.49,886,764,0
7499415,406.32,886,766,0
7499425,401.42,886,764,0
7499436,396.71,886,765,0
7499446,391.95,886,764,0
7499456,387.60,886,765,0
7499466,383.22,886,764,0
7499476,379.34,886,765,0
7499486,375.64,886,764,0
7499496,372.96,886,766,0
7499506,370.70,886,764,0
7499516,369.33,886,765,0
7499526,368.29,886,764,0
7499536,368.07,886,766,0
7499546,368.14,886,764,0
7499556,368.74,886,766,0
7499566,369.29,886,764,0
7499576,370.06,886,766,0
7499586,370.56,886,764,0
7499596,371.16,886,766,0
7499607,371.37,886,765,0
7499617,371.82,886,765,0
7499627,372.04,886,765,0
7499637,372.33,886,765,0
7499648,372.40,886,765,0
7499657,372.54,886,766,0
7499667,372.38,886,765,0
7499677,372.31,886,765,0
7499687,371.74,886,765,0
7499697,371.09,886,765,0
7499707,370.16,886,765,0
7499717,369.60,886,765,0
7499727,368.95,886,765,0
7499737,368.58,886,765,0
7499747,368.02,886,765,0
7499757,367.88,886,765,0
7499767,367.71,886,765,0
7499777,367.84,886,766,0
7499787,367.80,886,765,0
7499797,368.25,886,766,0
7499807,369.41,886,765,0
7499817,372.50,886,765,0
7499827,377.75,886,764,0
7499846,386.66,883,764,0
7499849,400.64,883,766,0
7499858,420.34,883,765,0
7499868,445.56,883,765,0
7499878,476.08,883,765,0
7499888,510.64,883,765,0
7499898,547.86,883,765,0
7499908,585.06,883,765,0
7499918,619.54,883,766,0
7499928,649.64,883,765,0
7499938,673.83,883,765,0
7499948,690.77,883,765,0
7499958,699.71,883,766,0
7499968,700.40,883,765,0
7499978,693.85,883,765,0
7499988,680.74,883,766,0
7499998,662.26,883,766,0
7500008,639.77,883,765,0
7500018,615.02,883,765,0
7500028,589.34,883,765,0
7500038,564.56,883,765,0
7500048,541.42,883,765,0
7500058,520.68,883,765,0
7500068,502.47,883,765,0
7500078,487.20,883,765,0
7500088,474.54,883,765,0
7500098,464.57,883,765,0
7500108,456.55,883,766,0
7500119,450.39,883,765,0
7500129,445.86,883,765,0
7500139,442.73,883,765,0
7500149,440.84,883,766,0
7500160,439.90,883,764,0
7500169,439.63,883,765,0
7500179,440.00,883,765,0
7500189,440.68,883,766,0
7500199,441.47,883,764,0
7500209,442.18,883,765,0
7500219,442.51,883,765,0
7500229,442.53,883,766,0
7500239,441.86,883,764,0
7500249,440.49,883,765,0
7500259,438.24,883,765,0
7500269,435.34,883,766,0
7500279,431.64,883,764,0
7500289,427.29,883,765,0
7500299,422.23,883,765,0
7500309,416.68,883,765,0
7500319,410.52,883,764,0
7500329,404.06,883,765,0
7500339,397.31,883,765,0
7500349,390.79,883,766,0
7500359,384.51,883,764,0
7500369,378.66,883,765,0
7500379,373.36,883,765,0
7500389,368.88,883,766,0
7500399,365.23,883,764,0
7500409,362.38,883,765,0
7500419,360.08,883,765,0
7500429,358.38,883,766,0
7500439,357.03,883,764,0
7500449,356.12,883,766,0
7500460,355.40,883,764,0
7500470,355.19,883,766,0
7500480,355.09,883,763,0
7500490,355.24,883,766,0
7500500,355.08,883,763,0
7500510,355.27,883,766,0
7500520,355.49,883,763,0
7500530,356.03,883,766,0
7500540,356.15,883,763,0
7500550,356.45,883,765,0
7500560,356.48,883,763,0
7500570,356.90,883,766,0
7500580,357.06,883,763,0
7500590,357.08,883,766,0
7500600,356.71,883,764,0
7500610,356.41,883,766,0
7500620,355.90,883,764,0
7500631,355.50,883,766,0
7500641,354.75,883,763,0
7500651,354.06,883,766,0
7500661,353.22,883,763,0
7500672,352.64,883,766,0
7500681,352.19,883,763,0
7500691,352.22,883,765,0
7500701,352.93,883,763,0
7500711,355.26,883,766,0
7500721,359.47,883,763,0
7500731,366.91,883,766,0
7500741,377.74,883,763,0
7500761,392.95,914,762,0
7500764,412.72,914,764,0
7500773,436.89,914,766,0
7500783,464.14,914,764,0
7500793,493.62,914,766,0
7500803,523.01,914,763,0
7500813,551.21,914,766,0
7500823,575.53,914,763,0
7500833,594.83,914,766,0
7500844,607.69,914,764,0
7500854,614.34,914,766,0
7500864,614.07,914,764,0
7500874,607.88,914,766,0
7500884,595.96,914,764,0
7500894,580.41,914,765,0
7500904,561.69,914,764,0
7500914,541.47,914,766,0
7500924,520.24,914,764,0
7500934,499.77,914,766,0
7500944,480.17,914,764,0
7500954,462.33,914,765,0
7500964,446.07,914,764,0
7500974,432.12,914,765,0
7500984,420.09,914,764,0
7500994,410.50,914,766,0
7501004,402.81,914,764,0
7501015,397.38,914,765,0
7501025,393.54,914,764,0
7501035,391.58,914,765,0
7501045,390.76,914,764,0
7501056,391.43,914,765,0
7501065,392.85,914,764,0
7501075,394.99,914,765,0
7501085,397.27,914,765,0
7501095,400.06,914,765,0
7501105,402.53,914,764,0
7501115,405.11,914,766,0
7501125,407.05,914,764,0
7501135,408.49,914,765,0
7501145,408.86,914,764,0
7501155,408.64,914,766,0
7501165,407.42,914,765,0
7501175,405.37,914,765,0
7501185,402.17,914,764,0
7501195,398.43,914,766,0
7501205,393.76,914,764,0
7501215,388.78,914,765,0
7501225,383.19,914,765,0
7501235,377.69,914,765,0
7501245,372.34,914,764,0
7501255,367.48,914,765,0
7501265,362.75,914,764,0
7501275,359.01,914,766,0
7501285,355.88,914,765,0
7501295,353.82,914,765,0
7501305,352.24,914,765,0
7501315,351.40,914,766,0
7501325,350.85,914,765,0
7501335,350.98,914,765,0
7501345,351.42,914,765,0
7501356,352.32,914,766,0
7501366,353.21,914,765,0
7501376,354.30,914,765,0
7501386,355.41,914,765,0
7501396,356.66,914,765,0
7501406,357.75,914,765,0
7501416,358.51,914,765,0
7501426,358.91,914,765,0
7501436,359.07,914,765,0
7501446,358.92,914,765,0
7501456,358.47,914,765,0
7501466,357.69,914,765,0
7501476,356.75,914,765,0
7501486,355.63,914,765,0
7501496,354.54,914,765,0
7501506,353.48,914,765,0
7501516,352.56,914,765,0
7501527,351.84,914,765,0
7501537,351.29,914,765,0
7501547,350.94,914,765,0
7501557,350.83,914,765,0
7501568,350.97,914,766,0
7501577,351.45,914,765,0
7501587,352.26,914,765,0
7501597,353.68,914,765,0
7501607,356.26,914,766,0
7501617,360.51,914,765,0
7501627,367.30,914,766,0
7501646,377.28,886,765,0
7501649,391.60,886,766,0
7501658,410.19,886,764,0
7501668,432.85,886,765,0
7501678,458.78,886,763,0
7501688,487.00,886,766,0
7501698,515.89,886,764,0
7501708,543.74,886,766,0
7501718,568.16,886,763,0
7501728,588.12,886,766,0
7501739,602.14,886,763,0
7501748,609.73,886,765,0
7501758,610.45,886,763,0
7501768,604.96,886,766,0
7501778,593.74,886,763,0
7501788,577.88,886,765,0
7501798,558.33,886,763,0
7501808,537.27,886,766,0
7501818,515.55,886,763,0
7501828,494.51,886,766,0
7501838,474.47,886,763,0
7501848,456.37,886,766,0
7501858,440.45,886,763,0
7501868,427.28,886,766,0
7501878,416.23,886,763,0
7501888,407.55,886,766,0
7501898,400.70,886,763,0
7501908,395.82,886,766,0
7501918,392.44,886,763,0
7501928,390.64,886,766,0
7501938,389.63,886,763,0
7501948,389.70,886,765,0
7501958,390.30,886,763,0
7501968,391.46,886,765,0
7501978,392.82,886,763,0
7501988,394.37,886,765,0
7501998,395.93,886,763,0
7502008,397.50,886,766,0
7502018,398.38,886,763,0
7502028,398.91,886,766,0
7502039,398.63,886,763,0
7502049,397.89,886,766,0
7502059,396.29,886,763,0
7502069,394.15,886,765,0
7502080,391.32,886,763,0
7502089,388.39,886,766,0
7502099,384.85,886,763,0
7502109,381.38,886,766,0
7502119,377.58,886,763,0
7502129,374.15,886,766,0
7502139,370.55,886,763,0
7502149,367.38,886,766,0
7502159,364.31,886,763,0
7502169,362.03,886,766,0
7502179,360.18,886,763,0
7502189,359.01,886,765,0
7502199,357.89,886,763,0
7502209,357.45,886,766,0
7502219,357.19,886,763,0
7502229,357.48,886,766,0
7502239,357.72,886,763,0
7502249,358.32,886,766,0
7502259,358.86,886,763,0
7502269,359.85,886,766,0
7502279,360.58,886,763,0
7502289,361.43,886,766,0
7502299,362.03,886,763,0
7502309,362.79,886,765,0
7502319,363.24,886,763,0
7502329,363.90,886,766,0
7502339,364.31,886,763,0
7502349,364.78,886,766,0
7502359,365.02,886,763,0
7502369,365.40,886,766,0
7502380,365.58,886,763,0
7502390,365.75,886,766,0
7502400,365.52,886,763,0
7502410,365.37,886,766,0
7502420,365.04,886,764,0
7502430,364.86,886,766,0
7502440,364.21,886,763,0
7502450,363.59,886,766,0
7502460,362.94,886,764,0
7502470,363.13,886,766,0
7502480,363.95,886,763,0
7502490,366.71,886,766,0
7502500,371.77,886,764,0
7502519,380.45,873,762,0
7502522,393.56,873,765,0
7502531,411.69,873,766,0
7502541,434.11,873,764,0
7502551,460.78,873,766,0
7502561,489.90,873,764,0
7502571,520.40,873,765,0
7502581,550.24,873,764,0
7502592,577.34,873,766,0
7502601,599.95,873,764,0
7502611,617.15,873,765,0
7502621,627.65,873,764,0
7502631,631.61,873,766,0
7502641,628.81,873,764,0
7502651,620.04,873,765,0
7502661,605.89,873,764,0
7502671,587.83,873,766,0
7502681,566.88,873,764,0
7502691,544.76,873,765,0
7502701,522.12,873,764,0
7502711,500.44,873,766,0
7502721,479.95,873,764,0
7502731,461.79,873,766,0
7502741,445.70,873,764,0
7502751,432.03,873,766,0
7502761,420.49,873,764,0
7502771,411.65,873,766,0
7502781,404.64,873,764,0
7502791,399.90,873,765,0
7502801,396.76,873,764,0
7502811,395.46,873,765,0
7502821,395.54,873,764,0
7502831,397.05,873,765,0
7502841,399.05,873,764,0
7502851,401.86,873,766,0
7502861,404.77,873,764,0
7502871,407.89,873,765,0
7502881,410.53,873,764,0
7502892,412.82,873,765,0
7502902,414.24,873,765,0
7502912,415.24,873,765,0
7502922,415.21,873,764,0
7502932,414.72,873,766,0
7502942,413.13,873,764,0
7502952,411.21,873,766,0
7502962,408.66,873,764,0
7502972,405.98,873,765,0
7502982,402.77,873,765,0
7502992,399.67,873,766,0
7503002,396.38,873,765,0
7503012,393.52,873,765,0
7503022,390.71,873,764,0
7503032,388.40,873,766,0
7503042,386.18,873,764,0
7503052,384.62,873,765,0
7503063,383.41,873,765,0
7503073,382.64,873,765,0
7503083,382.15,873,765,0
7503093,381.98,873,766,0
7503104,381.86,873,766,0
7503113,382.11,873,765,0
7503123,382.25,873,765,0
7503133,382.56,873,765,0
7503143,382.82,873,765,0
7503153,383.17,873,765,0
7503163,383.42,873,765,0
7503173,383.77,873,765,0
7503183,383.92,873,765,0
7503193,384.20,873,766,0
7503203,384.14,873,765,0
7503213,384.01,873,765,0
7503223,383.58,873,765,0
7503233,383.11,873,765,0
7503243,382.39,873,765,0
7503253,381.76,873,765,0
7503263,380.89,873,765,0
7503273,380.19,873,765,0
7503283,379.49,873,765,0
7503293,379.60,873,765,0
7503303,381.05,873,765,0
7503313,384.72,873,765,0
7503323,391.06,873,765,0
7503333,401.41,873,765,0
7503343,416.55,873,765,0
7503363,437.38,843,764,0
7503366,463.93,843,766,0
7503375,495.10,843,764,0
7503385,529.53,843,765,0
7503395,565.50,843,764,0
7503405,600.58,843,766,0
7503415,632.59,843,764,0
7503425,659.28,843,765,0
7503435,678.61,843,764,0
7503446,689.83,843,766,0
7503455,692.50,843,764,0
7503465,687.08,843,765,0
7503475,674.37,843,764,0
7503485,655.91,843,765,0
7503495,632.93,843,764,0
7503505,607.19,843,765,0
7503515,580.05,843,764,0
7503525,553.08,843,765,0
7503535,527.47,843,764,0
7503545,504.23,843,765,0
7503555,483.20,843,764,0
7503565,464.93,843,765,0
7503575,449.22,843,764,0
7503585,436.43,843,765,0
7503595,426.23,843,764,0
7503605,418.27,843,766,0
7503616,412.11,843,763,0
7503625,407.87,843,765,0
7503635,405.38,843,764,0
7503645,404.50,843,766,0
7503655,404.65,843,763,0
7503665,405.65,843,766,0
7503675,407.17,843,764,0
7503685,409.31,843,766,0
7503695,411.36,843,763,0
7503705,413.35,843,766,0
7503715,414.87,843,764,0
7503725,415.94,843,766,0
7503735,416.22,843,763,0
7503745,415.94,843,765,0
7503755,414.71,843,764,0
7503765,412.91,843,765,0
7503775,410.11,843,763,0
7503785,406.86,843,766,0
7503795,402.92,843,764,0
7503805,398.70,843,765,0
7503815,394.03,843,763,0
7503825,389.39,843,765,0
7503835,384.82,843,763,0
7503845,380.72,843,765,0
7503855,376.82,843,763,0
7503865,373.70,843,766,0
7503875,370.96,843,763,0
7503885,368.96,843,766,0
7503895,367.13,843,763,0
7503905,365.72,843,766,0
7503916,364.30,843,763,0
7503926,363.18,843,766,0
7503936,361.93,843,763,0
7503946,360.92,843,766,0
7503956,359.53,843,763,0
7503966,358.21,843,766,0
7503976,356.44,843,763,0
7503986,354.51,843,766,0
7503996,351.74,843,763,0
7504006,348.35,843,766,0
7504016,343.87,843,763,0
7504026,338.77,843,766,0
7504036,332.67,843,763,0
7504046,326.08,843,766,0
7504056,318.77,843,763,0
7504066,311.55,843,766,0
7504076,304.27,843,762,0
7504087,297.72,843,765,0
7504097,291.72,843,763,0
7504107,286.79,843,765,0
7504117,282.78,843,762,0
7504128,280.53,843,766,0
7504137,279.69,843,763,0
7504147,281.45,843,766,0
7504157,285.99,843,763,0
7504167,294.69,843,766,0
7504177,307.90,843,763,0
7504187,326.83,843,766,0
7504197,351.14,843,763,0
7504207,381.18,843,766,0
7504217,415.28,843,763,0
7504236,452.31,874,762,0
7504239,489.81,874,764,0
7504248,526.16,874,766,0
7504258,558.30,874,763,0
7504268,584.87,874,765,0
7504278,604.19,874,763,0
7504288,616.09,874,765,0
7504299,620.14,874,764,0
7504308,617.35,874,766,0
7504318,608.29,874,763,0
7504328,595.22,874,766,0
7504338,578.95,874,764,0
7504348,561.39,874,765,0
7504358,543.23,874,763,0
7504368,526.02,874,766,0
7504378,509.56,874,764,0
7504388,494.90,874,766,0
7504398,481.35,874,763,0
7504408,469.37,874,766,0
7504418,458.12,874,764,0
7504428,448.05,874,765,0
7504438,438.22,874,763,0
7504448,429.28,874,766,0
7504458,420.50,874,764,0
7504468,412.72,874,766,0
7504478,405.65,874,763,0
7504488,399.84,874,766,0
7504498,395.00,874,764,0
7504508,392.00,874,765,0
7504518,390.72,874,763,0
7504528,391.49,874,766,0
7504538,393.53,874,764,0
7504548,397.23,874,766,0
7504558,401.91,874,763,0
7504568,407.77,874,766,0
7504578,413.88,874,763,0
7504588,420.09,874,765,0
7504599,425.63,874,764,0
7504609,430.76,874,766,0
7504619,434.64,874,764,0
7504629,437.75,874,766,0
7504640,439.28,874,764,0
7504649,439.93,874,766,0
7504659,439.05,874,764,0
7504669,437.32,874,765,0
7504679,434.35,874,765,0
7504689,430.95,874,765,0
7504699,426.89,874,764,0
7504709,422.90,874,765,0
7504719,418.51,874,764,0
7504729,414.59,874,766,0
7504739,410.68,874,764,0
7504749,407.48,874,765,0
7504759,404.38,874,764,0
7504769,401.86,874,765,0
7504779,399.63,874,764,0
7504789,398.07,874,766,0
7504799,396.46,874,764,0
7504809,395.30,874,765,0
7504819,393.84,874,764,0
7504829,392.56,874,765,0
7504839,390.76,874,764,0
7504849,388.86,874,765,0
7504859,386.55,874,764,0
7504869,384.45,874,765,0
7504879,382.26,874,764,0
7504889,380.55,874,765,0
7504899,379.02,874,764,0
7504909,378.11,874,765,0
7504919,377.22,874,764,0
7504929,376.77,874,765,0
7504940,376.41,874,765,0
7504950,376.42,874,765,0
7504960,376.29,874,765,0
7504970,376.33,874,765,0
7504980,376.53,874,765,0
7504990,377.70,874,765,0
7505000,379.98,874,765,0
7505010,384.83,874,765,0
7505020,393.11,874,765,0
7505030,406.53,874,765,0
7505040,425.92,874,765,0
7505050,452.26,874,765,0
7505070,485.35,833,765,0
7505073,522.87,833,764,0
7505082,561.74,833,765,0
7505092,599.75,833,765,0
7505102,634.67,833,766,0
7505112,664.89,833,765,0
7505122,688.88,833,766,0
7505132,706.06,833,765,0
7505142,718.04,833,766,0
7505153,726.43,833,764,0
7505163,732.30,833,766,0
7505173,736.41,833,763,0
7505183,738.04,833,766,0
7505193,736.06,833,763,0
7505203,730.38,833,766,0
7505213,720.33,833,764,0
7505223,705.87,833,766,0
7505233,686.84,833,763,0
7505243,663.62,833,765,0
7505253,637.37,833,764,0
7505263,610.05,833,766,0
7505273,582.18,833,763,0
7505283,555.59,833,765,0
7505293,530.82,833,763,0
7505303,508.71,833,766,0
7505313,489.43,833,764,0
7505324,473.87,833,766,0
7505334,462.04,833,763,0
7505344,454.23,833,766,0
7505354,449.53,833,763,0
7505364,447.79,833,765,0
7505374,447.89,833,763,0
7505384,449.47,833,766,0
7505394,450.91,833,763,0
7505404,451.75,833,765,0
7505414,451.18,833,763,0
7505424,449.20,833,766,0
7505434,445.07,833,763,0
7505444,439.26,833,765,0
7505454,431.34,833,763,0
7505464,422.24,833,766,0
7505474,411.92,833,763,0
7505484,401.28,833,765,0
7505495,390.01,833,763,0
7505505,379.29,833,766,0
7505515,368.96,833,763,0
7505525,360.02,833,765,0
7505536,352.51,833,763,0
7505545,347.00,833,766,0
7505555,342.84,833,763,0
7505565,340.88,833,765,0
7505575,340.23,833,763,0
7505585,341.53,833,766,0
7505595,343.90,833,763,0
7505605,347.36,833,766,0
7505615,351.11,833,763,0
7505625,355.23,833,765,0
7505635,358.89,833,763,0
7505645,362.74,833,765,0
7505655,365.73,833,763,0
7505665,368.38,833,765,0
7505675,370.07,833,763,0
7505685,371.46,833,766,0
7505695,372.09,833,763,0
7505705,372.24,833,765,0
7505715,371.10,833,763,0
7505725,369.70,833,765,0
7505735,367.69,833,763,0
7505745,365.55,833,765,0
7505755,362.82,833,763,0
7505765,360.13,833,765,0
7505775,357.30,833,763,0
7505785,354.98,833,765,0
7505795,352.50,833,763,0
7505805,350.30,833,765,0
7505815,347.94,833,763,0
7505825,346.24,833,765,0
7505836,345.48,833,763,0
7505846,347.01,833,765,0
7505856,351.38,833,763,0
7505866,360.78,833,765,0
7505876,376.02,833,764,0
7505886,398.81,833,765,0
7505896,429.17,833,764,0
7505915,467.05,846,762,0
7505918,508.86,846,765,0
7505927,552.06,846,766,0
7505937,593.48,846,764,0
7505947,631.10,846,765,0
7505957,662.95,846,765,0
7505967,688.04,846,765,0
7505977,705.60,846,764,0
7505987,717.85,846,765,0
7505997,726.38,846,764,0
7506007,732.31,846,765,0
7506017,733.76,846,764,0
7506027,730.06,846,765,0
7506037,720.31,846,764,0
7506048,704.53,846,765,0
7506057,682.60,846,764,0
7506067,654.82,846,765,0
7506077,621.49,846,764,0
7506087,586.33,846,765,0
7506097,550.79,846,764,0
7506107,516.95,846,765,0
7506117,485.42,846,764,0
7506127,457.40,846,765,0
7506137,432.93,846,764,0
7506147,412.68,846,765,0
7506157,395.85,846,764,0
7506167,383.17,846,765,0
7506177,373.69,846,764,0
7506187,367.70,846,765,0
7506197,364.27,846,765,0
7506207,363.85,846,765,0
7506217,365.39,846,765,0
7506227,369.00,846,765,0
7506237,373.50,846,765,0
7506247,379.18,846,765,0
7506257,385.08,846,765,0
7506267,391.40,846,765,0
7506277,396.85,846,765,0
7506287,401.91,846,765,0
7506297,405.88,846,765,0
7506307,409.34,846,765,0
7506317,411.77,846,765,0
7506327,413.72,846,765,0
7506337,414.49,846,765,0
7506348,414.95,846,765,0
7506358,414.40,846,765,0
7506368,413.60,846,765,0
7506378,412.05,846,765,0
7506388,410.32,846,765,0
7506398,407.95,846,765,0
7506408,405.82,846,765,0
7506418,403.69,846,765,0
7506428,402.07,846,765,0
7506438,400.59,846,765,0
7506448,399.69,846,765,0
7506458,398.84,846,765,0
7506468,398.54,846,765,0
7506478,397.91,846,765,0
7506488,397.25,846,765,0
7506498,396.15,846,765,0
7506508,394.90,846,765,0
7506519,393.05,846,765,0
7506529,391.02,846,765,0
7506539,388.23,846,765,0
7506549,385.54,846,765,0
7506560,382.55,846,765,0
7506569,379.77,846,765,0
7506579,376.93,846,765,0
7506589,374.46,846,765,0
7506599,372.05,846,765,0
7506609,370.24,846,765,0
7506619,368.67,846,765,0
7506629,367.48,846,765,0
7506639,366.48,846,765,0
7506649,365.78,846,765,0
7506659,364.99,846,765,0
7506669,364.35,846,765,0
7506679,363.69,846,765,0
7506689,363.27,846,765,0
7506699,363.40,846,765,0
7506709,364.87,846,765,0
7506719,368.68,846,765,0
7506729,376.45,846,765,0
7506739,389.25,846,765,0
7506749,408.76,846,765,0
7506759,435.79,846,765,0
7506779,470.70,863,764,0
7506782,510.22,863,765,0
7506791,551.47,863,764,0
7506801,591.74,863,765,0
7506811,629.06,863,764,0
7506821,661.23,863,765,0
7506831,686.75,863,764,0
7506841,704.61,863,765,0
7506851,717.07,863,765,0
7506861,725.79,863,765,0
7506871,731.90,863,764,0
7506881,736.17,863,765,0
7506891,739.16,863,764,0
7506902,741.26,863,765,0
7506911,740.28,863,764,0
7506921,734.97,863,765,0
7506931,724.13,863,765,0
7506941,707.47,863,765,0
7506951,684.78,863,765,0
7506961,656.22,863,765,0
7506971,621.91,863,764,0
7506981,585.21,863,766,0
7506991,548.16,863,764,0
7507001,513.01,863,765,0
7507011,480.87,863,765,0
7507021,452.83,863,765,0
7507031,429.44,863,765,0
7507041,411.39,863,765,0
7507051,398.16,863,765,0
7507061,389.76,863,765,0
7507072,385.37,863,764,0
7507081,384.66,863,765,0
7507091,386.73,863,765,0
7507101,391.10,863,765,0
7507111,396.60,863,764,0
7507121,403.02,863,765,0
7507131,409.18,863,764,0
7507141,414.87,863,765,0
7507151,419.32,863,764,0
7507161,422.48,863,765,0
7507171,423.62,863,764,0
7507181,423.09,863,765,0
7507191,420.24,863,764,0
7507201,415.88,863,765,0
7507211,409.92,863,764,0
7507221,403.21,863,765,0
7507231,395.73,863,764,0
7507241,388.40,863,765,0
7507251,381.17,863,764,0
7507261,374.82,863,765,0
7507271,368.87,863,764,0
7507281,364.07,863,766,0
7507291,359.76,863,764,0
7507301,356.49,863,765,0
7507311,353.64,863,764,0
7507321,351.65,863,766,0
7507331,350.08,863,764,0
7507341,349.46,863,766,0
7507351,349.19,863,763,0
7507361,349.61,863,766,0
7507372,349.94,863,764,0
7507382,350.81,863,765,0
7507392,351.60,863,764,0
7507402,352.70,863,765,0
7507412,353.48,863,764,0
7507422,354.32,863,766,0
7507432,354.91,863,764,0
7507442,355.92,863,765,0
7507452,356.59,863,764,0
7507462,357.44,863,765,0
7507472,357.82,863,764,0
7507482,358.39,863,765,0
7507492,358.44,863,764,0
7507502,358.70,863,765,0
7507512,358.45,863,764,0
7507522,358.44,863,765,0
7507532,358.09,863,764,0
7507543,358.37,863,765,0
7507553,359.16,863,764,0
7507563,362.15,863,766,0
7507573,367.55,863,764,0
7507584,377.67,863,766,0
7507593,392.90,863,765,0
7507603,415.60,863,765,0
7507622,445.93,844,764,0
7507625,483.15,844,765,0
7507634,523.69,844,765,0
7507644,565.27,844,765,0
7507654,604.83,844,765,0
7507664,640.88,844,766,0
7507674,670.88,844,765,0
7507684,693.71,844,766,0
7507694,709.66,844,765,0
7507704,720.82,844,766,0
7507714,728.63,844,765,0
7507724,734.10,844,766,0
7507734,737.88,844,765,0
7507744,740.53,844,766,0
7507755,741.10,844,765,0
7507764,738.50,844,765,0
7507774,730.76,844,765,0
7507784,717.68,844,765,0
7507794,698.53,844,765,0
7507804,673.86,844,765,0
7507814,643.43,844,764,0
7507824,609.36,844,766,0
7507834,573.21,844,765,0
7507844,538.17,844,765,0
7507854,504.86,844,764,0
7507864,475.16,844,765,0
7507874,448.89,844,765,0
7507884,427.32,844,765,0
7507894,409.91,844,764,0
7507904,397.51,844,765,0
7507914,389.13,844,764,0
7507924,385.15,844,765,0
7507934,384.42,844,765,0
7507944,387.08,844,765,0
7507954,391.68,844,765,0
7507964,398.12,844,765,0
7507974,404.56,844,764,0
7507984,411.03,844,765,0
7507994,416.25,844,765,0
7508004,420.46,844,765,0
7508014,422.68,844,765,0
7508024,423.25,844,765,0
7508034,421.42,844,765,0
7508044,418.33,844,765,0
7508055,413.26,844,765,0
7508065,406.97,844,765,0
7508075,399.26,844,765,0
7508085,391.17,844,765,0
7508096,382.76,844,765,0
7508105,375.12,844,765,0
7508115,367.80,844,765,0
7508125,361.73,844,765,0
7508135,356.63,844,765,0
7508145,352.88,844,765,0
7508155,349.79,844,765,0
7508165,347.88,844,765,0
7508175,346.33,844,765,0
7508185,345.72,844,765,0
7508195,345.33,844,765,0
7508205,345.66,844,765,0
7508215,346.06,844,765,0
7508225,347.07,844,765,0
7508235,347.99,844,765,0
7508245,349.28,844,765,0
7508255,350.18,844,765,0
7508265,351.28,844,765,0
7508275,352.10,844,765,0
7508285,353.01,844,765,0
7508295,353.61,844,765,0
7508305,354.07,844,765,0
7508315,354.05,844,765,0
7508325,354.08,844,765,0
7508335,353.67,844,765,0
7508345,353.12,844,765,0
7508355,352.14,844,765,0
7508365,351.37,844,765,0
7508375,350.49,844,765,0
7508385,350.17,844,765,0
7508396,350.12,844,765,0
7508406,351.28,844,765,0
7508416,354.41,844,765,0
7508426,361.02,844,765,0
7508436,371.98,844,765,0
7508446,389.13,844,765,0
7508465,413.31,843,764,0
7508468,446.51,843,764,0
7508477,485.70,843,766,0
7508487,527.92,843,765,0
7508497,570.37,843,766,0
7508507,610.68,843,765,0
7508517,646.56,843,766,0
7508527,676.26,843,765,0
7508537,697.48,843,765,0
7508547,712.34,843,765,0
7508557,722.74,843,766,0
7508567,730.02,843,765,0
7508577,735.11,843,765,0
7508587,738.68,843,765,0
7508597,741.17,843,766,0
7508608,742.15,843,765,0
7508617,740.01,843,765,0
7508627,733.32,843,765,0
7508637,721.18,843,766,0
7508647,703.13,843,765,0
7508657,679.17,843,765,0
7508667,649.59,843,765,0
7508677,615.56,843,765,0
7508687,579.30,843,765,0
7508697,543.26,843,765,0
7508707,508.85,843,765,0
7508717,477.52,843,765,0
7508727,449.85,843,765,0
7508737,426.41,843,765,0
7508747,407.47,843,765,0
7508757,393.23,843,765,0
7508767,383.30,843,764,0
7508777,377.73,843,765,0
7508787,375.67,843,765,0
7508797,376.80,843,765,0
7508807,380.20,843,764,0
7508817,385.28,843,765,0
7508827,391.11,843,764,0
7508837,396.86,843,765,0
7508847,401.83,843,764,0
7508857,405.83,843,765,0
7508867,408.45,843,764,0
7508877,409.64,843,765,0
7508887,409.02,843,764,0
7508897,406.96,843,765,0
7508908,403.50,843,764,0
7508918,399.11,843,765,0
7508928,393.46,843,764,0
7508938,387.28,843,765,0
7508948,380.42,843,764,0
7508958,373.53,843,765,0
7508968,366.38,843,765,0
7508978,359.67,843,765,0
7508988,353.12,843,764,0
7508998,347.52,843,765,0
7509008,342.13,843,764,0
7509018,337.94,843,765,0
7509028,334.53,843,764,0
7509038,332.23,843,765,0
7509048,330.66,843,765,0
7509058,330.16,843,765,0
7509068,330.11,843,764,0
7509079,330.94,843,765,0
7509089,331.73,843,764,0
7509099,333.05,843,766,0
7509109,334.41,843,764,0
7509120,336.00,843,765,0
7509129,337.29,843,764,0
7509139,338.91,843,765,0
7509149,340.23,843,764,0
7509159,341.79,843,765,0
7509169,342.71,843,764,0
7509179,343.70,843,765,0
7509189,344.00,843,764,0
7509199,344.43,843,765,0
7509209,344.17,843,764,0
7509219,343.95,843,765,0
7509229,343.15,843,764,0
7509239,342.50,843,765,0
7509249,341.37,843,765,0
7509259,340.57,843,766,0
7509269,339.29,843,764,0
7509279,338.26,843,765,0
7509289,337.15,843,764,0
7509299,337.19,843,765,0
7509309,338.46,843,764,0
7509319,342.95,843,765,0
7509329,351.32,843,765,0
7509339,365.41,843,765,0
7509358,386.07,893,765,0
7509361,415.41,893,765,0
7509370,452.27,893,765,0
7509380,494.28,893,766,0
7509390,537.82,893,764,0
7509400,580.65,893,765,0
7509410,620.27,893,765,0
7509420,654.90,893,766,0
7509430,682.02,893,764,0
7509440,701.51,893,765,0
7509450,715.16,893,765,0
7509460,724.71,893,766,0
7509470,730.03,893,764,0
7509480,730.40,893,765,0
7509490,724.71,893,764,0
7509500,712.97,893,765,0
7509510,695.06,893,764,0
7509520,671.47,893,765,0
7509530,642.02,893,764,0
7509540,609.05,893,765,0
7509550,574.37,893,764,0
7509560,540.61,893,765,0
7509570,508.33,893,764,0
7509580,479.05,893,765,0
7509591,452.55,893,765,0
7509601,430.27,893,765,0
7509611,411.29,893,764,0
7509621,396.42,893,765,0
7509632,384.81,893,765,0
7509641,377.15,893,765,0
7509651,372.26,893,764,0
7509661,370.68,893,765,0
7509671,370.95,893,765,0
7509681,373.62,893,765,0
7509691,377.16,893,764,0
7509701,381.87,893,765,0
7509711,386.41,893,765,0
7509721,390.96,893,765,0
7509731,394.49,893,764,0
7509741,397.43,893,765,0
7509751,398.63,893,765,0
7509761,398.91,893,765,0
7509771,397.27,893,764,0
7509781,394.61,893,765,0
7509791,390.32,893,765,0
7509801,385.16,893,765,0
7509811,378.81,893,764,0
7509821,372.36,893,765,0
7509831,365.31,893,765,0
7509841,358.66,893,765,0
7509851,351.90,893,765,0
7509861,346.06,893,765,0
7509871,340.60,893,765,0
7509881,336.22,893,765,0
7509891,332.21,893,764,0
7509901,329.28,893,765,0
7509911,326.92,893,765,0
7509921,325.57,893,765,0
7509932,324.46,893,765,0
7509942,324.06,893,765,0
7509952,323.83,893,765,0
7509962,324.44,893,765,0
7509972,325.04,893,765,0
7509982,326.05,893,765,0
7509992,326.89,893,765,0
7510002,328.34,893,765,0
7510012,329.78,893,765,0
7510022,331.43,893,765,0
7510032,332.55,893,765,0
7510042,333.71,893,765,0
7510052,334.53,893,765,0
7510062,335.53,893,765,0
7510072,335.97,893,765,0
7510082,336.49,893,765,0
7510092,336.77,893,765,0
7510103,337.23,893,765,0
7510113,337.59,893,765,0
7510123,338.01,893,765,0
7510133,338.09,893,765,0
7510144,338.11,893,765,0
7510153,337.69,893,765,0
7510163,337.23,893,765,0
7510173,336.56,893,765,0
7510183,336.01,893,765,0
7510193,335.66,893,765,0
7510203,336.36,893,765,0
7510213,338.61,893,765,0
7510223,343.48,893,765,0
7510233,351.91,893,765,0
7510252,365.22,894,764,0
7510255,385.13,894,765,0
7510264,411.83,894,765,0
7510274,444.54,894,765,0
7510284,482.65,894,765,0
7510294,523.81,894,765,0
7510304,565.31,894,764,0
7510315,604.73,894,765,0
7510324,639.31,894,765,0
7510334,667.89,894,765,0
7510344,688.88,894,764,0
7510354,701.13,894,765,0
7510364,704.73,894,765,0
7510374,700.31,894,765,0
7510384,688.65,894,764,0
7510394,670.33,894,765,0
7510404,646.23,894,765,0
7510414,618.52,894,765,0
7510424,588.62,894,764,0
7510434,558.39,894,765,0
7510444,529.34,894,765,0
7510454,502.16,894,765,0
7510464,477.59,894,764,0
7510474,456.12,894,765,0
7510484,437.40,894,764,0
7510494,421.81,894,765,0
7510504,409.01,894,764,0
7510514,398.98,894,766,0
7510524,391.31,894,764,0
7510534,385.99,894,765,0
7510544,382.48,894,764,0
7510554,381.01,894,765,0
7510564,381.05,894,764,0
7510574,382.32,894,765,0
7510584,384.41,894,764,0
7510594,387.41,894,765,0
7510604,390.50,894,764,0
7510615,393.95,894,765,0
7510625,396.88,894,764,0
7510635,399.32,894,766,0
7510645,400.81,894,764,0
7510656,401.29,894,765,0
7510665,400.56,894,764,0
7510675,398.89,894,765,0
7510685,395.67,894,764,0
7510695,391.74,894,765,0
7510705,386.80,894,764,0
7510715,381.59,894,765,0
7510725,375.80,894,764,0
7510735,370.16,894,765,0
7510745,364.54,894,764,0
7510755,359.58,894,765,0
7510765,354.95,894,764,0
7510775,351.28,894,765,0
7510785,347.94,894,764,0
7510795,345.73,894,766,0
7510805,343.75,894,764,0
7510815,342.67,894,765,0
7510825,341.87,894,764,0
7510835,341.82,894,765,0
7510845,341.83,894,764,0
7510855,342.48,894,765,0
7510865,343.02,894,764,0
7510875,344.09,894,765,0
7510885,344.79,894,764,0
7510895,345.92,894,765,0
7510905,346.76,894,764,0
7510915,347.95,894,765,0
7510925,348.78,894,764,0
7510935,349.87,894,765,0
7510945,350.47,894,764,0
7510956,351.31,894,766,0
7510966,351.61,894,764,0
7510976,351.85,894,765,0
7510986,351.38,894,764,0
7510996,351.18,894,766,0
7511006,350.36,894,764,0
7511016,349.91,894,765,0
7511026,349.03,894,764,0
7511036,348.64,894,766,0
7511046,348.23,894,764,0
7511056,348.81,894,765,0
7511066,350.11,894,765,0
7511076,353.80,894,766,0
7511086,359.91,894,764,0
7511096,370.31,894,765,0
7511115,385.26,863,764,0
7511118,406.57,863,766,0
7511127,433.52,863,765,0
7511137,466.11,863,766,0
7511147,502.38,863,765,0
7511157,541.18,863,765,0
7511168,579.57,863,765,0
7511177,615.70,863,766,0
7511187,646.56,863,765,0
7511197,671.16,863,765,0
7511207,687.40,863,765,0
7511217,695.64,863,765,0
7511227,694.93,863,765,0
7511237,686.60,863,765,0
7511247,671.07,863,765,0
7511257,650.22,863,765,0
7511267,624.83,863,764,0
7511277,597.36,863,765,0
7511287,568.28,863,765,0
7511297,540.26,863,766,0
7511307,513.39,863,765,0
7511317,489.02,863,765,0
7511327,466.68,863,765,0
7511337,447.36,863,765,0
7511347,430.50,863,765,0
7511357,416.68,863,765,0
7511367,404.86,863,765,0
7511377,395.69,863,765,0
7511387,388.28,863,765,0
7511397,383.35,863,765,0
7511407,379.73,863,765,0
7511417,378.01,863,765,0
7511427,377.37,863,765,0
7511437,378.24,863,765,0
7511447,379.67,863,765,0
7511457,382.17,863,765,0
7511468,384.60,863,765,0
7511478,387.51,863,765,0
7511488,389.63,863,765,0
7511498,391.54,863,765,0
7511508,392.15,863,765,0
7511518,391.98,863,765,0
7511528,390.27,863,765,0
7511538,387.66,863,765,0
7511548,383.86,863,765,0
7511558,379.62,863,765,0
7511568,374.25,863,765,0
7511578,368.82,863,765,0
7511588,362.96,863,765,0
7511598,357.66,863,765,0
7511608,352.36,863,765,0
7511618,347.79,863,765,0
7511628,343.53,863,765,0
7511639,340.33,863,765,0
7511649,337.79,863,765,0
7511659,336.35,863,765,0
7511669,335.34,863,765,0
7511680,335.24,863,765,0
7511689,335.25,863,765,0
7511699,336.08,863,765,0
7511709,336.87,863,765,0
7511719,337.68,863,765,0
7511729,338.03,863,765,0
7511739,338.41,863,765,0
7511749,338.50,863,765,0
7511759,338.69,863,765,0
7511769,338.27,863,765,0
7511779,338.10,863,765,0
7511789,337.69,863,765,0
7511799,337.52,863,765,0
7511809,337.11,863,765,0
7511819,336.86,863,765,0
7511829,336.35,863,765,0
7511839,336.07,863,765,0
7511849,335.36,863,765,0
7511859,334.83,863,765,0
7511869,334.19,863,765,0
7511879,333.79,863,765,0
7511889,333.04,863,765,0
7511899,332.60,863,765,0
7511909,331.99,863,765,0
7511919,331.61,863,765,0
7511929,331.30,863,765,0
7511939,331.29,863,765,0
7511949,331.59,863,765,0
7511959,333.13,863,765,0
7511969,336.30,863,765,0
7511980,342.73,863,765,0
7511999,352.88,884,764,0
7512002,368.30,884,764,0
7512011,389.51,884,765,0
7512022,416.40,884,764,0
7512031,448.38,884,765,0
7512041,484.14,884,765,0
7512051,521.64,884,765,0
7512061,558.86,884,765,0
7512071,592.97,884,766,0
7512081,621.83,884,765,0
7512091,643.99,884,766,0
7512101,658.09,884,765,0
7512111,663.98,884,765,0
7512121,661.37,884,764,0
7512131,651.23,884,765,0
7512141,634.28,884,764,0
7512151,612.25,884,765,0
7512161,586.68,884,764,0
7512171,559.69,884,765,0
7512181,532.35,884,765,0
7512192,506.19,884,765,0
7512201,482.05,884,765,0
7512211,460.78,884,765,0
7512221,442.16,884,765,0
7512231,426.55,884,765,0
7512241,413.19,884,764,0
7512251,402.25,884,765,0
7512261,393.30,884,765,0
7512271,386.18,884,765,0
7512281,380.81,884,764,0
7512291,377.18,884,765,0
7512301,374.73,884,764,0
7512311,373.78,884,765,0
7512321,373.89,884,764,0
7512331,375.17,884,765,0
7512341,377.17,884,764,0
7512351,379.78,884,765,0
7512361,382.67,884,764,0
7512371,385.90,884,765,0
7512381,388.80,884,765,0
7512391,391.26,884,765,0
7512401,392.85,884,764,0
7512411,393.80,884,765,0
7512421,393.64,884,765,0
7512431,392.72,884,765,0
7512441,390.79,884,764,0
7512451,388.45,884,765,0
7512461,385.45,884,765,0
7512471,382.01,884,765,0
7512481,377.81,884,764,0
7512492,373.41,884,765,0
7512502,368.79,884,764,0
7512512,364.65,884,765,0
7512522,360.34,884,764,0
7512532,356.72,884,765,0
7512542,353.55,884,764,0
7512552,351.33,884,765,0
7512562,349.52,884,764,0
7512572,348.33,884,765,0
7512582,347.29,884,764,0
7512592,347.12,884,766,0
7512602,346.95,884,764,0
7512612,347.40,884,765,0
7512622,347.71,884,764,0
7512632,348.57,884,765,0
7512642,349.17,884,764,0
7512652,349.93,884,765,0
7512663,350.12,884,764,0
7512673,350.43,884,765,0
7512683,350.30,884,764,0
7512693,350.72,884,766,0
7512704,350.64,884,764,0
7512713,351.09,884,765,0
7512723,351.15,884,764,0
7512733,351.66,884,765,0
7512743,351.72,884,764,0
7512753,351.93,884,765,0
7512763,351.40,884,764,0
7512773,351.19,884,765,0
7512783,350.41,884,764,0
7512793,350.07,884,766,0
7512803,349.32,884,764,0
7512813,349.27,884,766,0
7512823,349.06,884,764,0
7512833,349.94,884,765,0
7512843,351.63,884,764,0
7512853,355.64,884,765,0
7512863,362.09,884,764,0
7512873,372.86,884,765,0
7512892,387.82,893,765,0
7512895,409.13,893,765,0
7512904,435.66,893,764,0
7512914,467.52,893,765,0
7512924,502.55,893,765,0
7512934,539.71,893,765,0
7512944,576.14,893,765,0
7512954,610.34,893,766,0
7512964,638.74,893,765,0
7512974,660.55,893,765,0
7512984,673.84,893,765,0
7512994,678.90,893,766,0
7513004,675.12,893,764,0
7513014,663.94,893,765,0
7513024,645.66,893,765,0
7513034,622.49,893,765,0
7513044,595.47,893,765,0
7513054,567.00,893,765,0
7513064,538.07,893,765,0
7513074,510.54,893,766,0
7513084,484.40,893,765,0
7513094,461.31,893,765,0
7513104,440.86,893,764,0
7513114,424.15,893,766,0
7513124,410.39,893,765,0
7513134,399.94,893,765,0
7513144,391.82,893,765,0
7513154,386.51,893,766,0
7513164,382.97,893,765,0
7513175,381.87,893,766,0
7513185,381.95,893,765,0
7513195,383.68,893,765,0
7513205,386.13,893,765,0
7513216,389.82,893,765,0
7513225,393.78,893,765,0
7513235,398.39,893,765,0
7513245,402.51,893,765,0
7513255,406.47,893,765,0
7513265,409.55,893,765,0
7513275,412.08,893,765,0
7513285,413.09,893,765,0
7513295,413.32,893,765,0
7513305,412.06,893,765,0
7513315,410.16,893,765,0
7513325,406.90,893,765,0
7513335,402.90,893,765,0
7513345,398.04,893,765,0
7513355,393.23,893,765,0
7513365,387.93,893,765,0
7513375,383.11,893,765,0
7513385,378.11,893,765,0
7513395,373.92,893,765,0
7513405,370.00,893,765,0
7513415,366.87,893,765,0
7513425,364.08,893,765,0
7513435,362.04,893,765,0
7513445,360.27,893,765,0
7513455,359.33,893,765,0
7513465,358.59,893,765,0
7513475,358.63,893,765,0
7513485,358.61,893,765,0
7513495,359.28,893,765,0
7513505,360.06,893,765,0
7513516,361.20,893,765,0
7513526,362.17,893,765,0
7513536,363.27,893,765,0
7513546,364.05,893,765,0
7513556,364.85,893,765,0
7513566,365.19,893,765,0
7513576,365.69,893,765,0
7513586,365.74,893,765,0
7513596,365.78,893,765,0
7513606,365.59,893,765,0
7513616,365.50,893,765,0
7513626,365.39,893,765,0
7513636,365.14,893,765,0
7513646,364.50,893,765,0
7513656,364.01,893,765,0
7513666,363.53,893,765,0
7513676,363.59,893,765,0
7513687,364.53,893,765,0
7513697,367.58,893,765,0
7513707,373.92,893,765,0
7513717,384.57,893,764,0
7513728,400.47,893,766,0
7513746,422.06,854,764,0
7513749,450.11,854,765,0
7513758,483.64,854,764,0
7513768,521.03,854,766,0
7513778,559.51,854,765,0
7513788,596.81,854,765,0
7513798,630.94,854,765,0
7513808,660.19,854,765,0
7513818,681.94,854,764,0
7513828,695.16,854,765,0
7513838,699.06,854,764,0
7513848,694.75,854,765,0
7513858,683.17,854,764,0
7513868,664.99,854,765,0
7513878,641.38,854,764,0
7513888,614.05,854,765,0
7513899,584.94,854,764,0
7513908,555.98,854,765,0
7513918,528.13,854,764,0
7513928,502.38,854,766,0
7513938,479.08,854,764,0
7513948,459.00,854,765,0
7513958,441.94,854,764,0
7513968,427.99,854,766,0
7513978,416.59,854,764,0
7513988,407.76,854,765,0
7513998,401.02,854,764,0
7514008,396.47,854,766,0
7514018,393.50,854,764,0
7514028,392.23,854,765,0
7514038,392.04,854,764,0
7514048,393.27,854,765,0
7514058,395.33,854,764,0
7514068,398.10,854,765,0
7514078,401.11,854,764,0
7514088,404.25,854,765,0
7514098,407.13,854,764,0
7514108,409.92,854,765,0
7514118,411.70,854,764,0
7514128,412.65,854,765,0
7514138,412.28,854,764,0
7514148,411.04,854,765,0
7514158,408.59,854,764,0
7514168,405.07,854,765,0
7514178,400.38,854,764,0
7514188,395.25,854,765,0
7514199,389.73,854,764,0
7514209,384.37,854,765,0
7514219,379.07,854,764,0
7514229,374.47,854,765,0
7514240,370.34,854,764,0
7514249,367.11,854,765,0
7514259,364.25,854,764,0
7514269,362.07,854,765,0
7514279,360.04,854,764,0
7514289,358.48,854,765,0
7514299,357.01,854,764,0
7514309,356.32,854,765,0
7514319,355.62,854,764,0
7514329,355.61,854,765,0
7514339,355.55,854,764,0
7514349,356.25,854,765,0
7514359,356.86,854,764,0
7514369,357.71,854,765,0
7514379,358.19,854,764,0
7514389,358.99,854,765,0
7514399,359.42,854,764,0
7514409,360.19,854,765,0
7514419,360.61,854,764,0
7514429,361.24,854,765,0
7514439,361.47,854,764,0
7514449,361.88,854,765,0
7514459,362.22,854,764,0
7514469,362.92,854,765,0
7514479,363.16,854,764,0
7514489,363.63,854,765,0
7514499,363.78,854,764,0
7514509,364.40,854,765,0
7514519,364.71,854,764,0
7514529,365.18,854,765,0
7514540,365.43,854,764,0
7514550,367.10,854,765,0
7514560,370.33,854,764,0
7514570,376.87,854,765,0
7514580,387.32,854,764,0
7514599,403.43,853,763,0
7514602,426.10,853,765,0
7514611,456.28,853,765,0
7514621,492.28,853,765,0
7514631,531.67,853,765,0
7514641,571.41,853,764,0
7514651,609.52,853,765,0
7514661,643.86,853,765,0
7514671,672.57,853,765,0
7514681,694.52,853,764,0
7514691,710.00,853,765,0
7514701,720.03,853,765,0
7514711,724.99,853,765,0
7514721,724.01,853,764,0
7514731,717.24,853,765,0
7514741,704.05,853,765,0
7514752,685.22,853,765,0
7514761,660.98,853,764,0
7514771,632.96,853,765,0
7514781,602.37,853,765,0
7514791,572.05,853,765,0
7514801,542.80,853,764,0
7514811,516.59,853,765,0
7514821,492.89,853,764,0
7514831,472.48,853,765,0
7514841,454.59,853,764,0
7514851,440.06,853,765,0
7514861,428.04,853,764,0
7514871,418.86,853,765,0
7514881,411.57,853,765,0
7514891,406.73,853,765,0
7514901,403.42,853,764,0
7514911,402.35,853,765,0
7514921,402.12,853,764,0
7514931,403.24,853,765,0
7514941,404.71,853,764,0
7514951,407.07,853,765,0
7514961,409.28,853,765,0
7514971,411.68,853,765,0
7514981,413.28,853,764,0
7514991,414.65,853,765,0
7515001,414.71,853,764,0
7515011,414.28,853,765,0
7515021,412.57,853,764,0
7515031,410.43,853,765,0
7515041,407.26,853,765,0
7515052,403.71,853,765,0
7515062,399.47,853,764,0
7515072,395.21,853,765,0
7515082,390.48,853,765,0
7515092,385.92,853,765,0
7515102,381.02,853,764,0
7515112,376.60,853,765,0
7515122,372.17,853,765,0
7515132,368.44,853,765,0
7515142,365.13,853,765,0
7515152,362.69,853,765,0
7515162,360.69,853,765,0
7515172,359.67,853,765,0
7515182,358.99,853,765,0
7515192,359.30,853,765,0
7515202,359.76,853,765,0
7515212,360.82,853,765,0
7515223,361.69,853,764,0
7515233,362.81,853,765,0
7515243,363.81,853,765,0
7515253,365.02,853,765,0
7515264,366.00,853,765,0
7515273,367.12,853,765,0
7515283,367.90,853,765,0
7515293,368.87,853,765,0
7515303,369.47,853,765,0
7515313,370.01,853,765,0
7515323,370.18,853,765,0
7515333,370.13,853,765,0
7515343,369.70,853,765,0
7515353,369.15,853,765,0
7515363,368.16,853,765,0
7515373,367.26,853,765,0
7515383,365.94,853,765,0
7515393,364.80,853,765,0
7515403,363.53,853,765,0
7515413,362.64,853,765,0
7515423,362.24,853,765,0
7515433,363.32,853,765,0
7515443,366.40,853,765,0
7515453,372.96,853,765,0
7515463,384.07,853,765,0
7515483,401.24,883,764,0
7515486,425.85,883,766,0
7515495,458.08,883,765,0
7515505,495.86,883,765,0
7515515,536.44,883,765,0
7515525,577.24,883,765,0
7515535,615.74,883,765,0
7515545,649.97,883,765,0
7515555,677.71,883,765,0
7515565,698.28,883,766,0
7515575,712.73,883,765,0
7515585,722.84,883,765,0
7515595,729.87,883,764,0
7515606,732.27,883,765,0
7515615,729.32,883,764,0
7515625,720.78,883,765,0
7515635,706.19,883,764,0
7515645,685.77,883,765,0
7515655,659.87,883,764,0
7515665,629.14,883,765,0
7515675,596.48,883,764,0
7515685,563.85,883,765,0
7515695,532.48,883,764,0
7515705,503.58,883,765,0
7515715,477.56,883,764,0
7515725,454.94,883,765,0
7515735,435.41,883,764,0
7515745,419.47,883,765,0
7515755,406.82,883,764,0
7515765,397.57,883,765,0
7515776,391.32,883,764,0
7515785,388.09,883,765,0
7515795,387.21,883,764,0
7515805,388.69,883,765,0
7515815,391.48,883,764,0
7515825,395.45,883,765,0
7515835,399.64,883,764,0
7515845,404.21,883,765,0
7515855,408.17,883,764,0
7515865,411.68,883,765,0
7515875,413.96,883,764,0
7515885,415.34,883,766,0
7515895,415.37,883,764,0
7515905,414.36,883,765,0
7515915,411.89,883,764,0
7515925,408.63,883,765,0
7515935,404.11,883,764,0
7515945,399.23,883,765,0
7515955,393.72,883,764,0
7515965,388.19,883,765,0
7515975,382.48,883,764,0
7515985,377.15,883,765,0
7515995,372.05,883,764,0
7516005,367.66,883,766,0
7516015,363.65,883,764,0
7516025,360.63,883,765,0
7516035,358.29,883,764,0
7516045,357.05,883,766,0
7516055,356.31,883,764,0
7516065,356.34,883,765,0
7516076,356.80,883,764,0
7516086,357.80,883,765,0
7516096,358.67,883,764,0
7516106,359.84,883,765,0
7516116,360.58,883,764,0
7516126,361.69,883,765,0
7516136,362.43,883,764,0
7516146,363.63,883,765,0
7516156,364.51,883,764,0
7516166,365.64,883,765,0
7516176,366.26,883,764,0
7516186,367.04,883,765,0
7516196,367.16,883,764,0
7516206,367.41,883,766,0
7516216,366.90,883,764,0
7516226,366.46,883,765,0
7516236,365.42,883,764,0
7516247,364.52,883,766,0
7516257,363.30,883,764,0
7516267,362.31,883,765,0
7516277,360.93,883,765,0
7516288,359.88,883,765,0
7516297,358.76,883,764,0
7516307,358.62,883,766,0
7516317,359.37,883,764,0
7516327,362.73,883,766,0
7516337,368.98,883,764,0
7516347,380.26,883,765,0
7516366,397.15,884,764,0
7516369,422.01,884,766,0
7516378,453.98,884,764,0
7516388,492.04,884,766,0
7516398,532.66,884,765,0
7516408,573.82,884,766,0
7516418,612.66,884,765,0
7516428,647.52,884,765,0
7516438,675.65,884,765,0
7516448,696.93,884,765,0
7516459,711.82,884,765,0
7516468,722.29,884,766,0
7516478,729.57,884,765,0
7516488,732.57,884,765,0
7516498,729.96,884,765,0
7516508,721.70,884,765,0
7516518,707.05,884,764,0
7516528,686.42,884,765,0
7516538,659.81,884,765,0
7516548,628.15,884,765,0
7516558,593.69,884,765,0
7516568,559.28,884,765,0
7516578,525.81,884,765,0
7516588,495.35,884,765,0
7516598,467.86,884,765,0
7516608,444.59,884,765,0
7516618,424.91,884,765,0
7516628,409.77,884,765,0
7516638,398.18,884,764,0
7516648,390.84,884,765,0
7516658,386.69,884,765,0
7516668,386.05,884,765,0
7516678,387.62,884,764,0
7516688,391.64,884,765,0
7516698,396.59,884,764,0
7516708,402.80,884,765,0
7516718,408.77,884,764,0
7516728,414.84,884,765,0
7516738,419.86,884,765,0
7516748,424.14,884,765,0
7516759,426.72,884,765,0
7516769,428.13,884,765,0
7516779,427.75,884,765,0
7516789,426.11,884,765,0
7516800,422.56,884,765,0
7516809,417.89,884,765,0
7516819,411.80,884,765,0
7516829,405.43,884,765,0
7516839,398.44,884,765,0
7516849,391.62,884,765,0
7516859,384.58,884,765,0
7516869,378.19,884,765,0
7516879,372.39,884,765,0
7516889,367.77,884,765,0
7516899,363.68,884,765,0
7516909,360.61,884,765,0
7516919,357.98,884,765,0
7516929,356.57,884,765,0
7516939,355.63,884,765,0
7516949,355.48,884,765,0
7516959,355.51,884,765,0
7516969,356.09,884,765,0
7516979,356.92,884,765,0
7516989,358.44,884,765,0
7516999,359.85,884,765,0
7517009,361.48,884,765,0
7517019,362.58,884,765,0
7517029,363.86,884,765,0
7517039,364.68,884,765,0
7517049,365.37,884,765,0
7517059,365.69,884,765,0
7517069,366.13,884,765,0
7517079,366.26,884,765,0
7517089,366.70,884,765,0
7517100,366.74,884,765,0
7517110,366.82,884,765,0
7517120,366.40,884,765,0
7517130,365.81,884,764,0
7517140,364.97,884,765,0
7517150,364.29,884,765,0
7517160,363.52,884,765,0
7517170,363.15,884,765,0
7517180,363.79,884,765,0
7517190,366.60,884,765,0
7517200,372.29,884,765,0
7517210,382.32,884,765,0
7517220,397.99,884,765,0
7517239,420.71,873,764,0
7517242,451.61,873,765,0
7517251,488.71,873,765,0
7517261,529.00,873,765,0
7517271,569.97,873,765,0
7517281,609.15,873,765,0
7517291,644.33,873,765,0
7517301,673.68,873,765,0
7517312,695.46,873,765,0
7517321,710.75,873,765,0
7517331,721.50,873,764,0
7517341,729.02,873,765,0
7517351,734.28,873,764,0
7517361,736.04,873,765,0
7517371,732.90,873,764,0
7517381,724.15,873,765,0
7517391,709.27,873,764,0
7517401,688.41,873,765,0
7517411,661.67,873,764,0
7517421,629.50,873,765,0
7517431,594.38,873,764,0
7517441,558.95,873,765,0
7517451,524.81,873,764,0
7517461,493.49,873,765,0
7517471,465.45,873,764,0
7517481,441.44,873,765,0
7517491,421.64,873,764,0
7517501,406.15,873,765,0
7517511,394.79,873,764,0
7517521,387.39,873,765,0
7517531,383.42,873,764,0
7517541,382.78,873,765,0
7517551,384.69,873,764,0
7517561,388.72,873,765,0
7517571,394.04,873,764,0
7517581,400.15,873,765,0
7517591,406.15,873,765,0
7517601,411.63,873,765,0
7517612,416.16,873,764,0
7517622,419.58,873,765,0
7517632,421.29,873,764,0
7517642,421.59,873,765,0
7517652,419.79,873,764,0
7517662,416.68,873,765,0
7517672,412.06,873,765,0
7517682,406.34,873,765,0
7517692,399.55,873,764,0
7517702,392.53,873,765,0
7517712,385.13,873,764,0
7517722,378.32,873,765,0
7517732,371.67,873,764,0
7517742,365.98,873,765,0
7517752,360.84,873,764,0
7517762,356.95,873,765,0
7517772,353.66,873,764,0
7517783,351.49,873,765,0
7517793,349.85,873,764,0
7517803,349.08,873,765,0
7517813,348.58,873,764,0
7517824,349.09,873,765,0
7517833,349.58,873,764,0
7517843,350.86,873,765,0
7517853,352.10,873,764,0
7517863,353.74,873,765,0
7517873,355.15,873,764,0
7517883,356.86,873,765,0
7517893,357.97,873,764,0
7517903,359.27,873,765,0
7517913,359.87,873,764,0
7517923,360.43,873,765,0
7517933,360.43,873,764,0
7517943,360.73,873,765,0
7517953,360.42,873,764,0
7517963,360.34,873,765,0
7517973,359.77,873,764,0
7517983,359.24,873,765,0
7517993,358.31,873,764,0
7518003,357.57,873,765,0
7518013,356.33,873,764,0
7518023,355.59,873,765,0
7518033,354.30,873,764,0
7518043,353.52,873,765,0
7518053,352.59,873,764,0
7518063,352.46,873,765,0
7518073,352.96,873,764,0
7518083,355.50,873,765,0
7518093,360.50,873,764,0
7518103,370.16,873,765,0
7518123,385.11,883,764,0
7518126,408.39,883,766,0
7518135,439.43,883,764,0
7518145,477.40,883,765,0
7518155,518.90,883,764,0
7518166,561.48,883,765,0
7518175,602.35,883,764,0
7518185,639.53,883,765,0
7518195,669.84,883,764,0
7518205,692.86,883,765,0
7518215,708.98,883,764,0
7518225,720.30,883,765,0
7518235,728.18,883,764,0
7518245,733.74,883,765,0
7518255,737.59,883,764,0
7518265,740.33,883,765,0
7518275,739.67,883,764,0
7518285,734.58,883,765,0
7518295,724.21,883,764,0
7518305,708.29,883,765,0
7518315,686.26,883,764,0
7518325,658.84,883,765,0
7518336,625.89,883,765,0
7518345,591.04,883,765,0
7518355,555.75,883,764,0
7518365,522.06,883,765,0
7518375,490.67,883,764,0
7518385,463.25,883,765,0
7518395,439.52,883,764,0
7518405,420.55,883,765,0
7518415,405.43,883,765,0
7518425,394.71,883,765,0
7518435,387.39,883,764,0
7518445,384.01,883,766,0
7518455,383.15,883,764,0
7518465,384.91,883,765,0
7518475,387.93,883,765,0
7518485,392.28,883,765,0
7518495,396.87,883,765,0
7518505,401.79,883,765,0
7518515,405.63,883,765,0
7518525,408.82,883,766,0
7518535,410.29,883,765,0
7518545,410.63,883,765,0
7518555,409.29,883,764,0
7518565,406.76,883,765,0
7518575,402.63,883,765,0
7518585,397.73,883,765,0
7518595,391.72,883,765,0
7518605,385.72,883,765,0
7518615,379.20,883,765,0
7518625,373.06,883,765,0
7518636,366.87,883,765,0
7518646,361.55,883,765,0
7518656,356.63,883,765,0
7518666,352.71,883,765,0
7518676,349.07,883,765,0
7518686,346.43,883,765,0
7518696,344.25,883,765,0
7518706,343.23,883,765,0
7518716,342.78,883,765,0
7518726,343.36,883,765,0
7518736,344.24,883,765,0
7518746,345.92,883,765,0
7518756,347.79,883,765,0
7518766,349.95,883,765,0
7518776,351.72,883,765,0
7518786,353.26,883,765,0
7518796,354.13,883,765,0
7518807,354.90,883,765,0
7518817,355.19,883,765,0
7518827,355.26,883,765,0
7518837,355.01,883,765,0
7518848,354.62,883,765,0
7518857,354.01,883,765,0
7518867,353.49,883,765,0
7518877,352.70,883,765,0
7518887,351.93,883,765,0
7518897,351.05,883,765,0
7518907,350.22,883,765,0
7518917,349.47,883,765,0
7518927,348.82,883,764,0
7518937,348.01,883,765,0
7518947,347.37,883,765,0
7518957,346.74,883,765,0
7518967,346.39,883,764,0
7518977,346.62,883,765,0
7518987,348.15,883,765,0
7518997,352.09,883,765,0
7519007,360.12,883,764,0
7519017,373.58,883,765,0
7519036,393.77,914,764,0
7519039,422.42,914,765,0
7519048,459.11,914,764,0
7519058,500.61,914,765,0
7519068,543.97,914,765,0
7519078,586.36,914,765,0
7519088,625.38,914,764,0
7519098,659.21,914,765,0
7519108,685.46,914,764,0
7519118,703.88,914,765,0
7519128,716.73,914,764,0
7519138,725.73,914,765,0
7519148,732.02,914,765,0
7519158,736.47,914,765,0
7519168,738.22,914,764,0
7519178,735.75,914,765,0
7519188,727.85,914,764,0
7519198,714.36,914,765,0
7519208,694.66,914,764,0
7519218,668.84,914,765,0
7519228,637.21,914,764,0
7519238,602.14,914,765,0
7519248,565.92,914,764,0
7519258,530.72,914,766,0
7519268,497.46,914,764,0
7519278,467.66,914,765,0
7519288,441.88,914,764,0
7519298,420.44,914,765,0
7519308,402.87,914,764,0
7519319,389.41,914,765,0
7519329,379.99,914,764,0
7519339,374.59,914,765,0
7519349,372.31,914,764,0
7519360,372.99,914,765,0
7519369,375.69,914,764,0
7519379,380.20,914,765,0
7519389,385.63,914,764,0
7519399,391.44,914,765,0
7519409,396.75,914,764,0
7519419,401.54,914,765,0
7519429,404.89,914,764,0
7519439,407.24,914,765,0
7519449,407.81,914,764,0
7519459,406.92,914,765,0
7519469,404.08,914,764,0
7519479,399.94,914,765,0
7519489,394.51,914,764,0
7519499,388.57,914,765,0
7519509,381.89,914,764,0
7519519,375.24,914,765,0
7519529,368.44,914,764,0
7519539,362.39,914,765,0
7519549,356.70,914,764,0
7519559,351.95,914,765,0
7519569,347.59,914,764,0
7519579,344.41,914,765,0
7519589,341.98,914,764,0
7519599,340.65,914,765,0
7519609,339.86,914,764,0
7519619,339.94,914,765,0
7519629,340.22,914,764,0
7519639,341.22,914,765,0
7519649,341.97,914,764,0
7519660,343.05,914,765,0
7519670,343.81,914,764,0
7519680,344.81,914,765,0
7519690,345.47,914,764,0
7519700,346.27,914,765,0
7519710,346.70,914,764,0
7519720,347.35,914,765,0
7519730,347.33,914,764,0
7519740,347.49,914,765,0
7519750,347.17,914,764,0
7519760,347.16,914,765,0
7519770,346.64,914,764,0
7519780,346.45,914,765,0
7519790,345.84,914,764,0
7519800,345.76,914,765,0
7519810,345.36,914,764,0
7519820,345.34,914,765,0
7519831,344.89,914,764,0
7519841,344.97,914,765,0
7519851,344.51,914,764,0
7519861,344.53,914,765,0
7519872,344.03,914,764,0
7519881,343.98,914,765,0
7519891,343.90,914,764,0
7519901,345.26,914,765,0
7519911,348.48,914,764,0
7519921,355.54,914,765,0
7519940,367.03,904,764,0
7519943,386.18,904,765,0
7519952,412.78,904,765,0
7519962,447.73,904,765,0
7519972,488.19,904,765,0
7519982,531.29,904,765,0
7519992,574.19,904,765,0
7520002,614.76,904,765,0
7520012,649.67,904,765,0
7520022,678.06,904,765,0
7520032,698.74,904,765,0
7520043,713.22,904,765,0
7520052,723.35,904,765,0
7520062,730.45,904,765,0
7520072,734.98,904,765,0
7520082,735.59,904,765,0
7520092,731.00,904,764,0
7520102,720.58,904,765,0
7520112,703.74,904,765,0
7520122,680.84,904,765,0
7520132,651.79,904,765,0
7520142,617.95,904,765,0
7520152,581.45,904,765,0
7520162,545.10,904,765,0
7520172,510.19,904,765,0
7520182,478.50,904,765,0
7520192,450.02,904,764,0
7520202,426.10,904,765,0
7520212,406.40,904,765,0
7520222,391.54,904,765,0
7520232,380.58,904,764,0
7520242,374.15,904,765,0
7520252,371.02,904,765,0
7520262,371.53,904,765,0
7520272,374.20,904,764,0
7520282,378.85,904,765,0
7520292,384.47,904,765,0
7520302,390.97,904,765,0
7520312,396.85,904,764,0
7520322,402.47,904,765,0
7520332,406.70,904,765,0
7520343,409.92,904,765,0
7520353,411.23,904,765,0
7520363,411.07,904,765,0
7520373,408.99,904,765,0
7520384,405.57,904,765,0
7520393,400.47,904,764,0
7520403,394.41,904,765,0
7520413,387.30,904,765,0
7520423,379.88,904,765,0
7520433,372.08,904,764,0
7520443,364.77,904,765,0
7520453,357.72,904,765,0
7520463,351.68,904,765,0
7520473,346.29,904,764,0
7520483,342.09,904,765,0
7520493,338.76,904,765,0
7520503,336.56,904,765,0
7520513,334.98,904,765,0
7520523,334.56,904,765,0
7520533,334.48,904,765,0
7520543,335.28,904,765,0
7520553,336.22,904,764,0
7520563,337.74,904,765,0
7520573,339.15,904,765,0
7520583,340.73,904,765,0
7520593,342.01,904,765,0
7520603,343.47,904,765,0
7520613,344.48,904,765,0
7520623,345.58,904,765,0
7520633,346.22,904,765,0
7520643,347.01,904,765,0
7520653,347.31,904,765,0
7520663,347.60,904,765,0
7520673,347.46,904,765,0
7520684,347.41,904,765,0
7520694,346.90,904,765,0
7520704,346.29,904,764,0
7520714,345.56,904,765,0
7520724,345.09,904,765,0
7520734,344.46,904,765,0
7520744,344.11,904,765,0
7520754,343.69,904,765,0
7520764,343.61,904,765,0
7520774,343.69,904,765,0
7520784,343.74,904,765,0
7520794,343.86,904,765,0
7520804,344.42,904,765,0
7520814,345.75,904,765,0
7520824,348.87,904,765,0
7520834,354.86,904,765,0
7520844,365.23,904,765,0
7520864,381.49,924,764,0
7520867,405.34,924,765,0
7520876,437.21,924,765,0
7520886,475.76,924,765,0
7520897,517.88,924,765,0
7520907,560.77,924,764,0
7520917,601.90,924,765,0
7520927,638.96,924,765,0
7520937,669.61,924,765,0
7520947,692.79,924,764,0
7520957,709.05,924,765,0
7520967,720.44,924,764,0
7520977,728.40,924,765,0
7520987,731.67,924,764,0
7520997,729.41,924,765,0
7521007,720.76,924,764,0
7521017,705.62,924,765,0
7521027,684.05,924,764,0
7521037,656.52,924,765,0
7521047,623.19,924,764,0
7521057,587.35,924,765,0
7521068,550.86,924,764,0
7521078,516.10,924,765,0
7521088,483.93,924,764,0
7521098,455.32,924,765,0
7521108,430.41,924,764,0
7521118,410.32,924,765,0
7521128,394.36,924,764,0
7521138,383.20,924,765,0
7521148,375.81,924,764,0
7521158,372.44,924,765,0
7521168,372.14,924,764,0
7521178,375.09,924,765,0
7521188,379.78,924,764,0
7521198,386.19,924,765,0
7521208,392.86,924,764,0
7521218,399.93,924,765,0
7521228,406.29,924,764,0
7521239,412.25,924,765,0
7521249,416.42,924,764,0
7521259,419.21,924,765,0
7521269,419.79,924,764,0
7521280,418.91,924,765,0
7521289,416.06,924,764,0
7521299,411.97,924,765,0
7521309,405.98,924,764,0
7521319,399.26,924,765,0
7521329,391.47,924,764,0
7521339,383.78,924,765,0
7521349,375.75,924,764,0
7521359,368.41,924,765,0
7521369,361.17,924,764,0
7521379,354.95,924,765,0
7521389,349.18,924,764,0
7521399,344.93,924,765,0
7521409,341.39,924,764,0
7521419,339.30,924,765,0
7521429,337.63,924,764,0
7521439,337.31,924,765,0
7521449,337.73,924,764,0
7521459,339.44,924,765,0
7521469,341.15,924,764,0
7521479,343.51,924,765,0
7521489,345.71,924,764,0
7521499,348.41,924,765,0
7521509,350.52,924,764,0
7521519,352.55,924,765,0
7521529,353.71,924,764,0
7521539,354.87,924,766,0
7521549,355.12,924,764,0
7521559,355.13,924,765,0
7521569,354.15,924,764,0
7521580,353.29,924,765,0
7521590,352.05,924,765,0
7521600,351.26,924,765,0
7521610,350.11,924,764,0
7521620,349.31,924,765,0
7521630,348.36,924,765,0
7521640,348.16,924,765,0
7521650,347.77,924,765,0
7521660,347.71,924,765,0
7521670,347.20,924,765,0
7521680,347.05,924,765,0
7521690,347.08,924,765,0
7521700,348.21,924,765,0
7521710,350.55,924,765,0
7521720,355.74,924,765,0
7521730,364.78,924,765,0
7521740,379.97,924,765,0
7521760,402.09,896,764,0
7521763,432.79,896,765,0
7521772,470.48,896,765,0
7521782,512.30,896,765,0
7521793,555.28,896,765,0
7521803,596.98,896,765,0
7521813,634.57,896,765,0
7521823,666.42,896,764,0
7521833,690.50,896,765,0
7521843,707.37,896,765,0
7521853,719.17,896,765,0
7521863,727.43,896,765,0
7521873,732.79,896,765,0
7521883,733.88,896,764,0
7521893,729.67,896,765,0
7521903,719.27,896,764,0
7521913,702.56,896,765,0
7521923,679.68,896,764,0
7521933,650.85,896,765,0
7521943,616.99,896,764,0
7521953,580.91,896,765,0
7521964,544.72,896,764,0
7521974,510.43,896,765,0
7521984,478.93,896,765,0
7521994,451.18,896,765,0
7522004,427.51,896,764,0
7522014,408.37,896,765,0
7522024,393.48,896,764,0
7522034,383.00,896,765,0
7522044,376.32,896,764,0
7522054,373.35,896,765,0
7522064,373.25,896,764,0
7522074,375.87,896,765,0
7522084,380.07,896,764,0
7522094,385.66,896,765,0
7522104,391.38,896,764,0
7522114,397.22,896,765,0
7522124,402.38,896,764,0
7522135,406.73,896,765,0
7522145,409.42,896,764,0
7522155,410.88,896,765,0
7522165,410.53,896,764,0
7522176,409.13,896,765,0
7522185,406.09,896,764,0
7522195,402.03,896,765,0
7522205,396.58,896,764,0
7522215,390.66,896,765,0
7522225,383.82,896,763,0
7522235,376.80,896,765,0
7522245,369.36,896,764,0
7522255,362.57,896,765,0
7522265,355.93,896,764,0
7522275,350.42,896,765,0
7522285,345.62,896,764,0
7522295,342.39,896,765,0
7522305,340.05,896,764,0
7522315,339.13,896,765,0
7522325,338.71,896,764,0
7522335,339.39,896,765,0
7522345,340.35,896,764,0
7522355,342.00,896,766,0
7522365,343.41,896,764,0
7522375,345.09,896,765,0
7522385,346.18,896,764,0
7522395,347.32,896,765,0
7522405,347.91,896,764,0
7522415,348.67,896,765,0
7522425,348.72,896,764,0
7522435,348.98,896,765,0
7522445,348.98,896,764,0
7522455,349.33,896,765,0
7522465,349.19,896,764,0
7522476,349.22,896,765,0
7522486,348.81,896,764,0
7522496,348.78,896,765,0
7522506,348.12,896,764,0
7522516,347.65,896,765,0
7522526,346.77,896,764,0
7522536,346.28,896,765,0
7522546,345.43,896,764,0
7522556,344.87,896,765,0
7522566,343.92,896,764,0
7522576,343.60,896,765,0
7522586,343.04,896,764,0
7522596,343.28,896,765,0
7522606,344.23,896,764,0
7522616,347.42,896,765,0
7522626,353.25,896,765,0
7522636,363.89,896,765,0
7522656,380.04,896,764,0
7522659,404.54,896,766,0
7522668,436.91,896,765,0
7522678,476.02,896,766,0
7522689,518.44,896,765,0
7522699,561.77,896,766,0
7522709,603.07,896,765,0
7522719,640.42,896,766,0
7522729,670.81,896,765,0
7522739,693.66,896,765,0
7522749,709.67,896,765,0
7522759,720.87,896,766,0
7522769,728.71,896,765,0
7522779,734.19,896,765,0
7522789,737.48,896,765,0
7522799,736.95,896,766,0
7522809,731.22,896,765,0
7522819,720.01,896,765,0
7522829,702.82,896,765,0
7522839,679.78,896,766,0
7522849,651.00,896,765,0
7522860,617.70,896,765,0
7522870,582.43,896,765,0
7522880,547.63,896,765,0
7522890,514.57,896,765,0
7522900,484.44,896,765,0
7522910,457.82,896,765,0
7522920,435.25,896,765,0
7522930,416.75,896,765,0
7522940,402.38,896,765,0
7522950,391.94,896,765,0
7522960,385.06,896,765,0
7522970,381.40,896,765,0
7522980,380.59,896,765,0
7522990,382.09,896,765,0
7523000,385.27,896,765,0
7523010,389.61,896,765,0
7523020,394.44,896,765,0
7523031,399.24,896,765,0
7523041,403.54,896,765,0
7523051,406.93,896,766,0
7523061,409.10,896,765,0
7523072,409.84,896,765,0
7523081,409.03,896,765,0
7523091,406.58,896,765,0
7523101,402.63,896,764,0
7523111,397.56,896,765,0
7523121,391.56,896,765,0
7523131,385.18,896,766,0
7523141,378.48,896,765,0
7523151,371.91,896,765,0
7523161,365.85,896,765,0
7523171,360.45,896,766,0
7523181,355.82,896,765,0
7523191,351.84,896,765,0
7523201,348.33,896,764,0
7523211,345.79,896,766,0
7523221,343.92,896,765,0
7523231,342.66,896,765,0
7523241,341.82,896,764,0
7523251,341.36,896,765,0
7523261,341.29,896,765,0
7523271,341.81,896,765,0
7523281,342.34,896,764,0
7523291,343.05,896,765,0
7523301,343.85,896,764,0
7523311,344.71,896,765,0
7523321,345.35,896,764,0
7523331,346.06,896,766,0
7523341,346.51,896,765,0
7523351,346.92,896,765,0
7523361,347.03,896,764,0
7523372,347.11,896,765,0
7523382,346.99,896,764,0
7523392,346.95,896,765,0
7523402,346.58,896,764,0
7523412,346.32,896,765,0
7523422,345.84,896,764,0
7523432,345.50,896,765,0
7523442,344.79,896,764,0
7523452,344.26,896,766,0
7523462,343.41,896,764,0
7523472,342.86,896,765,0
7523482,342.17,896,764,0
7523492,341.99,896,766,0
7523502,341.95,896,764,0
7523512,343.08,896,765,0
7523522,345.58,896,764,0
7523532,351.37,896,765,0
7523543,361.24,896,764,0
7523562,376.98,906,764,0
7523565,399.87,906,764,0
7523574,430.77,906,766,0
7523585,468.72,906,765,0
7523595,510.89,906,766,0
7523605,554.00,906,765,0
7523615,595.70,906,766,0
7523625,633.50,906,765,0
7523635,665.19,906,765,0
7523645,689.61,906,765,0
7523655,706.74,906,765,0
7523665,718.73,906,765,0
7523675,727.13,906,765,0
7523685,730.39,906,765,0
7523695,728.09,906,765,0
7523705,719.49,906,765,0
7523715,705.07,906,765,0
7523725,684.44,906,765,0
7523735,658.03,906,765,0
7523745,626.18,906,765,0
7523756,592.27,906,765,0
7523766,557.95,906,764,0
7523776,525.39,906,766,0
7523786,494.89,906,765,0
7523796,467.92,906,765,0
7523806,444.33,906,765,0
7523816,424.56,906,765,0
7523826,408.15,906,765,0
7523836,395.33,906,765,0
7523846,385.59,906,765,0
7523856,379.16,906,765,0
7523866,375.25,906,765,0
7523876,374.19,906,765,0
7523886,375.12,906,765,0
7523896,377.87,906,765,0
7523906,381.59,906,765,0
7523916,386.13,906,765,0
7523927,390.42,906,765,0
7523937,394.37,906,765,0
7523947,397.43,906,765,0
7523957,399.66,906,765,0
7523968,400.66,906,765,0
7523977,400.59,906,765,0
7523987,398.83,906,765,0
7523997,395.96,906,765,0
7524007,391.78,906,765,0
7524017,386.70,906,765,0
7524027,380.75,906,765,0
7524037,374.44,906,765,0
7524047,367.83,906,765,0
7524057,361.54,906,765,0
7524067,355.68,906,765,0
7524077,350.63,906,765,0
7524087,346.07,906,765,0
7524097,342.49,906,765,0
7524107,339.60,906,765,0
7524117,337.54,906,765,0
7524127,336.18,906,765,0
7524137,335.39,906,765,0
7524147,335.02,906,765,0
7524157,335.23,906,765,0
7524167,335.59,906,765,0
7524177,336.35,906,764,0
7524187,337.28,906,765,0
7524197,338.35,906,765,0
7524207,339.40,906,765,0
7524217,340.52,906,765,0
7524227,341.44,906,765,0
7524237,342.38,906,765,0
7524247,342.95,906,765,0
7524257,343.27,906,764,0
7524268,343.19,906,765,0
7524278,342.79,906,765,0
7524288,342.29,906,765,0
7524298,341.86,906,764,0
7524308,341.39,906,765,0
7524318,340.97,906,764,0
7524328,340.64,906,765,0
7524338,340.62,906,764,0
7524348,341.03,906,765,0
7524358,341.45,906,765,0
7524368,341.74,906,765,0
7524378,341.95,906,764,0
7524388,342.14,906,765,0
7524398,342.31,906,765,0
7524408,342.43,906,765,0
7524418,342.82,906,764,0
7524428,344.41,906,766,0
7524439,348.23,906,764,0
7524449,355.49,906,765,0
7524468,367.34,906,764,0
7524471,385.88,906,765,0
7524481,411.38,906,764,0
7524491,443.96,906,765,0
7524501,482.50,906,764,0
7524511,524.14,906,766,0
7524521,566.05,906,764,0
7524531,606.02,906,765,0
7524541,641.12,906,764,0
7524551,670.48,906,766,0
7524561,693.18,906,764,0
7524571,708.68,906,765,0
7524581,716.88,906,764,0
7524591,718.20,906,766,0
7524601,712.35,906,764,0
7524611,700.12,906,765,0
7524621,681.27,906,764,0
7524631,656.55,906,766,0
7524641,626.77,906,764,0
7524652,594.82,906,765,0
7524662,561.96,906,764,0
7524672,530.52,906,766,0
7524682,500.66,906,764,0
7524692,474.06,906,765,0
7524702,450.52,906,764,0
7524712,430.82,906,766,0
7524722,414.16,906,765,0
7524732,401.17,906,765,0
7524742,390.96,906,764,0
7524752,384.03,906,766,0
7524762,379.43,906,764,0
7524772,377.50,906,765,0
7524782,377.18,906,764,0
7524792,378.88,906,765,0
7524802,381.49,906,764,0
7524812,385.41,906,765,0
7524823,389.66,906,764,0
7524833,394.26,906,765,0
7524843,398.26,906,765,0
7524853,402.04,906,765,0
7524864,404.68,906,765,0
7524873,406.62,906,765,0
7524883,406.82,906,764,0
7524893,405.85,906,765,0
7524903,403.15,906,765,0
7524913,399.63,906,765,0
7524923,394.86,906,765,0
7524933,389.71,906,765,0
7524943,383.84,906,765,0
7524953,378.23,906,766,0
7524963,372.38,906,765,0
7524973,367.08,906,765,0
7524983,361.53,906,764,0
7524993,356.65,906,765,0
7525003,351.96,906,764,0
7525013,348.41,906,765,0
7525023,345.38,906,764,0
7525033,343.38,906,765,0
7525043,341.89,906,765,0
7525053,341.62,906,765,0
7525063,341.74,906,764,0
7525073,342.63,906,765,0
7525083,343.30,906,765,0
7525093,344.32,906,765,0
7525103,345.08,906,765,0
7525113,346.13,906,765,0
7525123,346.78,906,765,0
7525133,347.66,906,765,0
7525143,348.19,906,764,0
7525153,348.90,906,765,0
7525164,349.15,906,765,0
7525174,349.53,906,765,0
7525184,349.41,906,765,0
7525194,349.42,906,765,0
7525204,349.12,906,765,0
7525214,349.04,906,765,0
7525224,348.69,906,765,0
7525234,348.52,906,765,0
7525244,348.11,906,765,0
7525254,347.95,906,765,0
7525264,347.58,906,765,0
7525274,347.15,906,764,0
7525284,346.20,906,765,0
7525294,345.37,906,765,0
7525304,344.53,906,765,0
7525314,344.54,906,765,0
7525324,345.71,906,765,0
7525335,349.40,906,765,0
7525345,356.39,906,765,0
7525364,368.27,896,764,0
7525367,386.45,896,765,0
7525377,411.09,896,764,0
7525387,441.96,896,765,0
7525397,478.44,896,764,0
7525407,518.47,896,765,0
7525417,559.38,896,764,0
7525427,598.61,896,765,0
7525437,633.53,896,764,0
7525447,663.37,896,765,0
7525457,685.93,896,764,0
7525467,700.01,896,765,0
7525477,705.28,896,764,0
7525487,702.54,896,765,0
7525497,692.18,896,764,0
7525507,675.02,896,765,0
7525517,651.36,896,764,0
7525527,623.39,896,765,0
7525537,592.68,896,764,0
7525548,561.14,896,765,0
7525558,529.94,896,764,0
7525568,500.69,896,765,0
7525578,473.83,896,764,0
7525588,450.39,896,765,0
7525598,430.09,896,764,0
7525608,413.39,896,765,0
7525618,399.69,896,764,0
7525628,389.50,896,765,0
7525638,382.02,896,764,0
7525648,377.43,896,765,0
7525658,374.90,896,764,0
7525668,374.72,896,765,0
7525678,376.09,896,764,0
7525688,379.15,896,765,0
7525698,382.83,896,764,0
7525708,387.42,896,765,0
7525719,391.93,896,764,0
7525729,396.58,896,766,0
7525739,400.43,896,764,0
7525749,403.60,896,765,0
7525760,405.35,896,764,0
7525769,406.19,896,766,0
7525779,405.36,896,764,0
7525789,403.28,896,765,0
7525799,399.38,896,764,0
7525809,394.81,896,766,0
7525819,389.34,896,764,0
7525829,383.67,896,765,0
7525839,377.38,896,764,0
7525849,371.48,896,766,0
7525859,365.72,896,764,0
7525869,360.88,896,765,0
7525879,356.11,896,764,0
7525889,351.88,896,765,0
7525899,347.89,896,764,0
7525909,344.92,896,765,0
7525919,342.16,896,764,0
7525929,340.40,896,765,0
7525939,339.04,896,764,0
7525949,338.64,896,765,0
7525959,338.79,896,764,0
7525969,339.97,896,765,0
7525979,341.13,896,764,0
7525989,342.94,896,765,0
7525999,344.54,896,764,0
7526009,346.61,896,765,0
7526019,348.27,896,764,0
7526029,349.86,896,765,0
7526039,350.63,896,764,0
7526049,351.30,896,765,0
7526060,351.25,896,764,0
7526070,350.83,896,765,0
7526080,349.43,896,764,0
7526090,348.18,896,765,0
7526100,346.59,896,764,0
7526110,345.47,896,765,0
7526120,344.26,896,764,0
7526130,343.41,896,765,0
7526140,342.69,896,764,0
7526150,342.65,896,765,0
7526160,342.41,896,764,0
7526170,342.67,896,765,0
7526180,342.56,896,764,0
7526190,342.78,896,765,0
7526200,342.89,896,764,0
7526210,343.78,896,765,0
7526220,345.04,896,764,0
7526231,348.12,896,765,0
7526241,353.27,896,764,0
7526251,362.32,896,765,0
7526261,375.64,896,765,0
7526281,394.77,916,764,0
7526284,420.00,916,765,0
7526293,451.33,916,765,0
7526303,487.06,916,765,0
7526313,525.87,916,765,0
7526323,564.91,916,765,0
7526333,602.35,916,765,0
7526343,635.55,916,765,0
7526353,662.12,916,764,0
7526363,680.56,916,765,0
7526373,690.38,916,764,0
7526383,691.34,916,765,0
7526393,684.46,916,765,0
7526403,670.31,916,765,0
7526413,650.50,916,765,0
7526423,626.31,916,765,0
7526433,599.64,916,764,0
7526444,571.94,916,765,0
7526454,544.53,916,764,0
7526464,518.23,916,765,0
7526474,494.07,916,765,0
7526484,472.19,916,765,0
7526494,453.11,916,764,0
7526504,436.53,916,765,0
7526514,422.49,916,764,0
7526524,411.03,916,765,0
7526534,401.98,916,765,0
7526544,394.87,916,765,0
7526554,389.59,916,764,0
7526564,386.24,916,765,0
7526574,384.67,916,765,0
7526584,384.47,916,765,0
7526594,385.27,916,765,0
7526604,386.90,916,765,0
7526615,389.33,916,764,0
7526625,392.19,916,765,0
7526635,394.79,916,764,0
7526645,397.25,916,765,0
7526656,399.19,916,764,0
7526665,400.55,916,765,0
7526675,400.94,916,764,0
7526685,400.44,916,765,0
7526695,398.85,916,764,0
7526705,396.45,916,766,0
7526715,393.06,916,764,0
7526725,389.06,916,765,0
7526735,384.28,916,764,0
7526745,379.40,916,765,0
7526755,374.22,916,764,0
7526765,369.36,916,765,0
7526775,364.62,916,764,0
7526785,360.45,916,765,0
7526795,356.80,916,764,0
7526805,353.95,916,765,0
7526815,351.69,916,764,0
7526825,350.24,916,765,0
7526835,349.27,916,764,0
7526845,349.06,916,765,0
7526855,348.87,916,764,0
7526865,349.17,916,765,0
7526875,349.50,916,764,0
7526885,350.12,916,765,0
7526895,350.81,916,764,0
7526905,351.68,916,765,0
7526915,352.38,916,764,0
7526925,353.55,916,765,0
7526935,354.33,916,764,0
7526945,355.34,916,765,0
7526956,355.93,916,764,0
7526966,356.42,916,765,0
7526976,356.47,916,764,0
7526986,356.54,916,765,0
7526996,356.08,916,764,0
7527006,355.71,916,765,0
7527016,354.94,916,764,0
7527026,354.36,916,765,0
7527036,353.52,916,764,0
7527046,352.98,916,765,0
7527056,352.21,916,764,0
7527066,351.81,916,765,0
7527076,351.27,916,764,0
7527086,351.06,916,765,0
7527096,350.74,916,764,0
7527106,350.82,916,765,0
7527116,350.66,916,764,0
7527127,351.02,916,765,0
7527137,351.40,916,764,0
7527147,352.99,916,765,0
7527157,355.91,916,764,0
7527168,361.59,916,765,0
7527177,370.07,916,764,0
7527196,383.17,916,763,0
7527199,401.67,916,764,0
7527208,426.59,916,765,0
7527218,456.54,916,764,0
7527228,491.35,916,765,0
7527238,528.74,916,764,0
7527248,567.18,916,765,0
7527258,603.98,916,764,0
7527268,636.99,916,765,0
7527278,663.95,916,764,0
7527288,684.19,916,765,0
7527298,696.22,916,764,0
7527308,700.18,916,765,0
7527318,696.19,916,764,0
7527328,685.46,916,765,0
7527339,668.14,916,764,0
7527348,646.24,916,765,0
7527358,620.75,916,764,0
7527368,593.65,916,765,0
7527378,565.86,916,764,0
7527388,539.42,916,765,0
7527398,514.22,916,764,0
7527408,491.82,916,765,0
7527418,471.56,916,764,0
7527428,454.51,916,765,0
7527438,439.74,916,765,0
7527448,427.86,916,765,0
7527458,417.83,916,764,0
7527468,410.13,916,765,0
7527478,403.79,916,765,0
7527488,399.44,916,765,0
7527498,396.09,916,764,0
7527508,394.52,916,765,0
7527518,393.72,916,764,0
7527528,394.15,916,765,0
7527538,394.96,916,764,0
7527548,396.47,916,765,0
7527558,397.92,916,765,0
7527568,399.61,916,765,0
7527578,400.59,916,764,0
7527588,401.40,916,765,0
7527598,401.19,916,764,0
7527608,400.66,916,765,0
7527618,399.14,916,764,0
7527628,397.21,916,765,0
7527639,394.27,916,765,0
7527649,391.11,916,765,0
7527659,387.22,916,764,0
7527669,383.34,916,765,0
7527680,379.12,916,765,0
7527689,375.31,916,765,0
7527699,371.41,916,765,0
7527709,368.16,916,765,0
7527719,364.94,916,765,0
7527729,362.43,916,765,0
7527739,360.16,916,765,0
7527749,358.52,916,765,0
7527759,357.08,916,765,0
7527769,356.37,916,765,0
7527779,355.75,916,765,0
7527789,355.69,916,765,0
7527799,355.44,916,764,0
7527809,355.74,916,765,0
7527819,355.99,916,764,0
7527829,356.76,916,765,0
7527839,357.39,916,764,0
7527849,358.30,916,765,0
7527859,358.98,916,764,0
7527869,359.89,916,765,0
7527879,360.39,916,764,0
7527889,361.00,916,765,0
7527899,361.00,916,765,0
7527909,360.96,916,765,0
7527919,360.50,916,764,0
7527929,360.39,916,765,0
7527939,360.02,916,764,0
7527949,359.88,916,765,0
7527959,359.53,916,765,0
7527969,359.50,916,765,0
7527980,359.39,916,765,0
7527990,359.53,916,765,0
7528000,359.20,916,764,0
7528010,359.14,916,765,0
7528020,358.71,916,765,0
7528030,358.37,916,765,0
7528040,357.83,916,765,0
7528050,357.37,916,765,0
7528060,357.00,916,765,0
7528070,357.47,916,765,0
7528080,359.09,916,765,0
7528090,362.92,916,765,0
7528100,369.63,916,765,0
7528119,380.37,923,764,0
7528122,396.50,923,765,0
7528131,418.46,923,765,0
7528141,446.27,923,765,0
7528151,479.10,923,765,0
7528161,515.71,923,765,0
7528171,554.03,923,765,0
7528181,591.61,923,765,0
7528192,626.01,923,764,0
7528201,655.84,923,765,0
7528211,679.20,923,765,0
7528221,695.04,923,765,0
7528231,702.48,923,764,0
7528241,701.95,923,765,0
7528251,694.30,923,765,0
7528261,680.15,923,765,0
7528271,660.13,923,764,0
7528281,635.84,923,765,0
7528291,608.84,923,765,0
7528301,580.90,923,765,0
7528311,553.16,923,764,0
7528321,526.63,923,765,0
7528331,502.01,923,765,0
7528341,479.81,923,765,0
7528351,460.02,923,764,0
7528361,443.04,923,765,0
7528371,428.67,923,765,0
7528381,417.03,923,765,0
7528391,407.68,923,764,0
7528401,400.53,923,765,0
7528411,395.61,923,764,0
7528421,392.94,923,765,0
7528431,391.93,923,764,0
7528441,392.42,923,765,0
7528451,393.71,923,764,0
7528461,395.73,923,765,0
7528471,398.08,923,764,0
7528481,400.50,923,765,0
7528492,402.62,923,764,0
7528502,404.32,923,765,0
7528512,405.25,923,764,0
7528522,405.52,923,765,0
7528532,404.85,923,764,0
7528542,403.61,923,765,0
7528552,401.45,923,764,0
7528562,398.70,923,765,0
7528572,395.06,923,764,0
7528582,391.02,923,765,0
7528592,386.64,923,764,0
7528602,382.33,923,765,0
7528612,377.78,923,764,0
7528622,373.51,923,765,0
7528632,369.37,923,764,0
7528642,365.96,923,765,0
7528652,362.89,923,764,0
7528663,360.65,923,765,0
7528673,358.87,923,764,0
7528683,357.88,923,765,0
7528693,357.19,923,764,0
7528704,357.13,923,765,0
7528713,357.18,923,764,0
7528723,357.72,923,765,0
7528733,357.98,923,764,0
7528743,358.58,923,765,0
7528753,358.88,923,764,0
7528763,359.47,923,765,0
7528773,359.63,923,764,0
7528783,359.96,923,765,0
7528793,359.88,923,764,0
7528803,360.00,923,765,0
7528813,359.66,923,764,0
7528823,359.72,923,765,0
7528833,359.55,923,764,0
7528843,359.85,923,765,0
7528853,359.85,923,764,0
7528863,360.20,923,765,0
7528873,360.31,923,764,0
7528883,360.69,923,765,0
7528893,360.61,923,764,0
7528903,360.56,923,765,0
7528913,359.92,923,764,0
7528923,359.51,923,765,0
7528933,358.72,923,764,0
7528943,358.24,923,765,0
7528953,357.53,923,764,0
7528963,357.16,923,765,0
7528973,356.64,923,764,0
7528983,356.62,923,765,0
7528993,356.78,923,764,0
7529004,358.21,923,765,0
7529014,360.85,923,764,0
7529033,366.38,914,763,0
7529036,375.57,914,765,0
7529046,390.01,914,765,0
7529055,409.55,914,764,0
7529065,435.31,914,765,0
7529075,466.51,914,764,0
7529085,502.87,914,765,0
7529095,541.52,914,765,0
7529105,579.85,914,766,0
7529115,615.47,914,764,0
7529125,647.47,914,765,0
7529135,674.20,914,764,0
7529145,694.71,914,765,0
7529155,706.97,914,765,0
7529165,711.56,914,765,0
7529175,708.87,914,764,0
7529185,699.61,914,765,0
7529195,683.82,914,764,0
7529205,662.36,914,765,0
7529216,635.94,914,764,0
7529225,607.46,914,765,0
7529235,577.88,914,764,0
7529245,549.11,914,765,0
7529255,521.52,914,764,0
7529265,496.68,914,765,0
7529275,474.32,914,764,0
7529285,455.37,914,765,0
7529295,439.01,914,765,0
7529305,425.77,914,765,0
7529315,414.78,914,764,0
7529325,406.53,914,765,0
7529335,400.11,914,764,0
7529345,396.22,914,765,0
7529355,393.84,914,764,0
7529365,393.33,914,765,0
7529375,393.88,914,764,0
7529385,395.84,914,765,0
7529395,398.29,914,764,0
7529405,401.63,914,765,0
7529415,404.36,914,764,0
7529425,407.16,914,765,0
7529435,409.13,914,764,0
7529445,410.85,914,765,0
7529455,411.41,914,764,0
7529465,411.37,914,765,0
7529475,409.93,914,764,0
7529485,408.07,914,765,0
7529495,405.09,914,764,0
7529505,401.63,914,765,0
7529516,397.16,914,764,0
7529526,392.70,914,765,0
7529536,387.82,914,764,0
7529546,383.24,914,765,0
7529556,378.58,914,765,0
7529566,374.42,914,765,0
7529576,370.44,914,765,0
7529586,367.26,914,765,0
7529596,364.31,914,765,0
7529606,362.25,914,765,0
7529616,360.42,914,764,0
7529626,359.43,914,765,0
7529636,358.75,914,765,0
7529646,358.95,914,765,0
7529656,359.27,914,765,0
7529666,360.09,914,765,0
7529676,360.79,914,765,0
7529687,361.97,914,765,0
7529697,362.92,914,765,0
7529707,364.10,914,765,0
7529717,364.80,914,765,0
7529728,365.55,914,765,0
7529737,365.98,914,765,0
7529747,366.50,914,765,0
7529757,366.65,914,765,0
7529767,366.71,914,765,0
7529777,366.50,914,765,0
7529787,366.39,914,765,0
7529797,365.97,914,765,0
7529807,365.60,914,765,0
7529817,364.77,914,765,0
7529827,364.03,914,765,0
7529837,363.16,914,765,0
7529847,362.39,914,765,0
7529857,361.50,914,765,0
7529867,361.05,914,765,0
7529877,360.39,914,765,0
7529887,360.10,914,765,0
7529897,359.73,914,765,0
7529907,359.90,914,765,0
7529917,360.53,914,765,0
7529927,362.64,914,765,0
7529937,366.69,914,765,0
7529947,374.20,914,765,0
7529966,385.92,933,764,0
7529969,403.78,933,765,0
7529978,427.80,933,765,0
7529988,458.07,933,765,0
7529998,493.67,933,765,0
7530008,532.38,933,765,0
7530018,571.52,933,765,0
7530028,609.00,933,765,0
7530038,642.25,933,765,0
7530048,670.25,933,765,0
7530058,692.42,933,765,0
7530068,707.85,933,764,0
7530078,716.42,933,765,0
7530088,718.40,933,765,0
7530098,713.73,933,765,0
7530108,702.54,933,765,0
7530118,685.28,933,765,0
7530128,662.31,933,765,0
7530138,634.87,933,765,0
7530148,604.83,933,764,0
7530158,574.24,933,765,0
7530168,544.68,933,765,0
7530178,517.39,933,765,0
7530188,492.67,933,764,0
7530199,471.13,933,765,0
7530209,452.75,933,764,0
7530219,437.69,933,765,0
7530229,425.40,933,764,0
7530240,415.94,933,765,0
7530249,408.67,933,764,0
7530259,403.88,933,765,0
7530269,400.88,933,764,0
7530279,399.76,933,765,0
7530289,400.04,933,764,0
7530299,401.57,933,765,0
7530309,403.72,933,764,0
7530319,406.67,933,765,0
7530329,409.77,933,764,0
7530339,413.14,933,765,0
7530349,415.88,933,764,0
7530359,418.06,933,765,0
7530369,419.33,933,764,0
7530379,419.79,933,765,0
7530389,419.04,933,764,0
7530399,417.14,933,765,0
7530409,413.67,933,764,0
7530419,409.48,933,765,0
7530429,404.67,933,764,0
7530439,399.54,933,765,0
7530449,393.85,933,764,0
7530459,388.15,933,765,0
7530469,382.53,933,764,0
7530479,377.83,933,765,0
7530489,373.51,933,764,0
7530499,369.76,933,765,0
7530509,366.66,933,764,0
7530519,364.66,933,765,0
7530529,363.26,933,764,0
7530540,362.76,933,765,0
7530550,362.36,933,764,0
7530560,362.59,933,765,0
7530570,362.84,933,764,0
7530580,363.36,933,765,0
7530590,363.68,933,764,0
7530600,364.16,933,765,0
7530610,364.46,933,765,0
7530620,365.13,933,765,0
7530630,365.44,933,764,0
7530640,366.08,933,765,0
7530650,366.44,933,764,0
7530660,367.16,933,765,0
7530670,367.80,933,764,0
7530680,368.59,933,766,0
7530690,369.01,933,765,0
7530700,369.65,933,765,0
7530711,369.80,933,764,0
7530721,370.03,933,765,0
7530731,369.59,933,765,0
7530741,369.16,933,766,0
7530752,368.21,933,765,0
7530761,367.46,933,766,0
7530771,366.34,933,765,0
7530781,365.38,933,766,0
7530791,364.07,933,764,0
7530801,363.36,933,765,0
7530811,362.82,933,764,0
7530821,363.82,933,766,0
7530831,366.36,933,764,0
7530841,372.04,933,765,0
7530860,381.54,894,764,0
7530863,397.62,894,765,0
7530872,420.11,894,765,0
7530882,449.69,894,765,0
7530892,485.22,894,764,0
7530902,524.54,894,766,0
7530912,564.79,894,764,0
7530923,603.98,894,766,0
7530932,638.75,894,764,0
7530942,668.14,894,766,0
7530952,691.15,894,764,0
7530962,707.69,894,765,0
7530972,719.23,894,764,0
7530982,725.42,894,765,0
7530992,725.46,894,764,0
7531002,719.41,894,765,0
7531012,707.12,894,764,0
7531022,689.12,894,765,0
7531032,665.09,894,764,0
7531042,636.05,894,765,0
7531052,604.06,894,764,0
7531062,572.03,894,765,0
7531072,540.82,894,764,0
7531082,511.99,894,765,0
7531092,485.63,894,764,0
7531102,463.16,894,765,0
7531112,443.87,894,764,0
7531122,428.44,894,765,0
7531132,415.83,894,764,0
7531142,406.80,894,765,0
7531152,400.43,894,765,0
7531162,397.17,894,765,0
7531172,395.96,894,765,0
7531182,397.22,894,765,0
7531192,399.81,894,764,0
7531202,404.15,894,765,0
7531212,408.91,894,765,0
7531223,414.46,894,766,0
7531233,419.42,894,765,0
7531243,424.31,894,765,0
7531253,427.95,894,765,0
7531264,430.71,894,765,0
7531273,431.78,894,765,0
7531283,431.76,894,765,0
7531293,429.86,894,765,0
7531303,426.99,894,765,0
7531313,422.45,894,765,0
7531323,417.21,894,765,0
7531333,410.94,894,764,0
7531343,404.40,894,765,0
7531353,397.46,894,765,0
7531363,390.98,894,765,0
7531373,384.52,894,765,0
7531383,378.88,894,766,0
7531393,373.64,894,765,0
7531403,369.68,894,765,0
7531413,366.39,894,764,0
7531423,364.21,894,765,0
7531433,362.56,894,765,0
7531443,362.10,894,765,0
7531453,362.11,894,765,0
7531463,362.98,894,765,0
7531473,363.80,894,765,0
7531483,365.14,894,765,0
7531493,366.30,894,765,0
7531503,367.88,894,765,0
7531513,368.99,894,765,0
7531523,370.28,894,765,0
7531533,371.18,894,765,0
7531543,372.20,894,765,0
7531553,372.74,894,765,0
7531564,373.29,894,765,0
7531574,373.29,894,765,0
7531584,373.24,894,765,0
7531594,372.74,894,765,0
7531604,372.18,894,765,0
7531614,371.27,894,765,0
7531624,370.63,894,765,0
7531634,369.88,894,765,0
7531644,369.28,894,765,0
7531654,368.55,894,765,0
7531664,367.87,894,765,0
7531674,367.27,894,765,0
7531684,367.23,894,765,0
7531694,367.67,894,765,0
7531704,369.96,894,765,0
7531714,374.81,894,765,0
7531724,383.96,894,765,0
7531735,398.63,894,765,0
7531754,420.04,894,764,0
7531757,449.26,894,766,0
7531766,485.31,894,764,0
7531777,524.90,894,765,0
7531787,565.56,894,764,0
7531797,604.73,894,765,0
7531807,640.26,894,765,0
7531817,670.35,894,765,0
7531827,693.17,894,764,0
7531837,709.19,894,766,0
7531847,720.36,894,764,0
7531857,728.23,894,765,0
7531867,732.66,894,764,0
7531877,732.68,894,765,0
7531887,727.16,894,764,0
7531897,715.97,894,765,0
7531907,698.96,894,764,0
7531917,676.65,894,765,0
7531927,649.07,894,764,0
7531937,617.93,894,765,0
7531948,585.17,894,764,0
7531958,553.27,894,765,0
7531968,522.98,894,764,0
7531978,495.47,894,765,0
7531988,470.60,894,764,0
7531998,449.42,894,765,0
7532008,431.59,894,764,0
7532018,417.70,894,765,0
7532028,406.95,894,764,0
7532038,399.85,894,766,0
7532048,395.52,894,764,0
7532058,394.42,894,765,0
7532068,395.28,894,764,0
7532078,398.20,894,766,0
7532088,402.12,894,764,0
7532098,407.14,894,766,0
7532108,412.12,894,764,0
7532119,417.14,894,765,0
7532129,421.04,894,764,0
7532139,424.24,894,765,0
7532149,425.84,894,764,0
7532160,426.40,894,765,0
7532169,425.17,894,764,0
7532179,422.93,894,765,0
7532189,419.09,894,764,0
7532199,414.48,894,765,0
7532209,408.68,894,764,0
7532219,402.65,894,765,0
7532229,395.85,894,764,0
7532239,389.47,894,766,0
7532249,382.81,894,764,0
7532259,376.91,894,765,0
7532269,371.41,894,764,0
7532279,366.96,894,766,0
7532289,363.07,894,764,0
7532299,360.44,894,765,0
7532309,358.12,894,764,0
7532319,356.97,894,766,0
7532329,356.16,894,764,0
7532339,356.29,894,765,0
7532349,356.59,894,764,0
7532359,357.61,894,765,0
7532369,358.54,894,764,0
7532379,360.09,894,765,0
7532389,361.35,894,764,0
7532399,362.96,894,766,0
7532409,364.09,894,764,0
7532419,365.43,894,765,0
7532429,366.16,894,764,0
7532439,367.01,894,765,0
7532449,367.18,894,765,0
7532460,367.43,894,765,0
7532470,367.08,894,765,0
7532480,366.84,894,765,0
7532490,366.08,894,765,0
7532500,365.50,894,765,0
7532510,364.66,894,764,0
7532520,364.29,894,766,0
7532530,363.65,894,765,0
7532540,363.50,894,765,0
7532550,363.09,894,764,0
7532560,363.06,894,765,0
7532570,362.79,894,765,0
7532580,362.85,894,765,0
7532590,362.72,894,765,0
7532600,363.88,894,765,0
7532610,366.31,894,764,0
7532620,372.05,894,765,0
7532631,381.63,894,765,0
7532650,397.39,896,764,0
7532653,420.71,896,766,0
7532662,452.56,896,765,0
7532673,490.19,896,765,0
7532683,531.15,896,765,0
7532693,572.46,896,765,0
7532703,612.18,896,765,0
7532713,647.57,896,765,0
7532723,676.28,896,765,0
7532733,697.28,896,765,0
7532743,712.03,896,765,0
7532753,722.39,896,765,0
7532763,729.64,896,765,0
7532773,734.72,896,765,0
7532783,738.32,896,765,0
7532793,740.88,896,765,0
7532803,741.69,896,765,0
7532813,738.82,896,765,0
7532823,731.33,896,765,0
7532833,718.42,896,765,0
7532844,699.95,896,765,0
7532854,675.92,896,765,0
7532864,646.37,896,764,0
7532874,613.05,896,765,0
7532884,578.45,896,764,0
7532894,544.58,896,765,0
7532904,512.82,896,764,0
7532914,484.03,896,765,0
7532924,458.70,896,764,0
7532934,437.36,896,765,0
7532944,420.02,896,765,0
7532954,406.90,896,765,0
7532964,397.29,896,764,0
7532974,391.16,896,765,0
7532984,387.90,896,764,0
7532994,387.41,896,765,0
7533004,389.05,896,764,0
7533015,392.12,896,765,0
7533025,395.77,896,764,0
7533035,399.91,896,765,0
7533045,403.58,896,764,0
7533056,406.83,896,765,0
7533065,408.90,896,764,0
7533075,409.96,896,765,0
7533085,409.46,896,764,0
7533095,407.82,896,765,0
7533105,404.66,896,764,0
7533115,400.69,896,765,0
7533125,395.64,896,764,0
7533135,390.18,896,765,0
7533145,384.17,896,764,0
7533155,378.37,896,765,0
7533165,372.43,896,764,0
7533175,367.07,896,765,0
7533185,361.95,896,764,0
7533195,357.72,896,765,0
7533205,353.86,896,764,0
7533215,350.82,896,765,0
7533225,348.47,896,764,0
7533235,347.30,896,765,0
7533245,346.61,896,764,0
7533255,346.86,896,766,0
7533265,347.20,896,764,0
7533275,348.34,896,765,0
7533285,349.57,896,764,0
7533295,351.03,896,765,0
7533305,352.05,896,764,0
7533315,353.10,896,765,0
7533325,353.72,896,764,0
7533335,354.53,896,766,0
7533345,354.88,896,764,0
7533356,355.26,896,765,0
7533366,355.01,896,764,0
7533376,355.05,896,766,0
7533386,354.86,896,764,0
7533396,354.91,896,765,0
7533406,354.63,896,764,0
7533416,354.44,896,765,0
7533426,354.01,896,764,0
7533436,354.05,896,765,0
7533446,353.69,896,764,0
7533456,353.48,896,765,0
7533466,352.82,896,764,0
7533476,352.41,896,765,0
7533486,351.81,896,764,0
7533496,351.53,896,765,0
7533506,351.07,896,764,0
7533516,351.52,896,765,0
7533527,352.99,896,764,0
7533537,357.24,896,766,0
7533547,364.79,896,765,0
7533566,378.01,916,764,0
7533570,398.45,916,765,0
7533579,427.46,916,765,0
7533589,464.05,916,765,0
7533599,505.39,916,765,0
7533609,548.35,916,765,0
7533619,590.71,916,765,0
7533629,629.59,916,765,0
7533639,662.50,916,765,0
7533649,687.85,916,765,0
7533659,705.59,916,765,0
7533669,718.01,916,765,0
7533679,726.71,916,765,0
7533689,732.80,916,765,0
7533699,737.06,916,765,0
7533709,740.04,916,765,0
7533719,742.13,916,765,0
7533729,742.09,916,765,0
7533740,738.51,916,765,0
7533750,730.00,916,765,0
7533760,716.20,916,765,0
7533770,696.64,916,765,0
7533780,671.42,916,765,0
7533790,640.86,916,765,0
7533800,607.13,916,765,0
7533810,572.08,916,765,0
7533820,537.98,916,765,0
7533830,505.63,916,765,0
7533840,476.51,916,765,0
7533850,450.86,916,765,0
7533860,429.30,916,765,0
7533870,411.47,916,765,0
7533880,397.74,916,765,0
7533890,387.71,916,765,0
7533900,381.49,916,765,0
7533911,378.09,916,765,0
7533921,377.55,916,765,0
7533931,378.88,916,765,0
7533941,381.92,916,765,0
7533952,385.89,916,765,0
7533961,390.38,916,765,0
7533971,394.55,916,765,0
7533981,398.28,916,765,0
7533991,401.07,916,765,0
7534001,402.68,916,765,0
7534011,402.82,916,765,0
7534021,401.63,916,764,0
7534031,398.91,916,765,0
7534041,395.25,916,765,0
7534051,390.55,916,765,0
7534061,385.16,916,765,0
7534071,379.37,916,765,0
7534081,373.56,916,765,0
7534091,367.77,916,765,0
7534101,362.49,916,765,0
7534111,357.58,916,765,0
7534121,353.51,916,765,0
7534131,350.01,916,765,0
7534141,347.35,916,765,0
7534151,345.45,916,766,0
7534161,344.24,916,765,0
7534171,343.65,916,765,0
7534181,343.59,916,765,0
7534191,343.92,916,766,0
7534201,344.59,916,765,0
7534211,345.40,916,765,0
7534221,346.26,916,765,0
7534231,347.13,916,765,0
7534241,347.95,916,765,0
7534252,348.69,916,765,0
7534262,349.21,916,764,0
7534272,349.79,916,765,0
7534282,350.15,916,764,0
7534292,350.45,916,765,0
7534302,350.62,916,764,0
7534312,350.52,916,765,0
7534322,350.15,916,764,0
7534332,349.67,916,765,0
7534342,349.13,916,764,0
7534352,348.70,916,765,0
7534362,347.98,916,764,0
7534372,347.30,916,765,0
7534382,346.52,916,764,0
7534392,345.94,916,765,0
7534402,345.44,916,764,0
7534412,345.01,916,765,0
7534423,344.54,916,764,0
7534433,344.72,916,765,0
7534443,345.70,916,764,0
7534453,348.79,916,765,0
7534464,354.68,916,764,0
7534473,365.06,916,765,0
7534492,381.12,926,764,0
7534495,405.42,926,766,0
7534505,438.21,926,764,0
7534515,477.53,926,765,0
7534525,520.10,926,765,0
7534535,563.44,926,765,0
7534545,604.84,926,764,0
7534555,642.22,926,765,0
7534565,672.58,926,764,0
7534575,694.91,926,765,0
7534585,710.53,926,764,0
7534595,721.47,926,765,0
7534605,729.13,926,764,0
7534615,734.49,926,765,0
7534625,738.24,926,764,0
7534636,740.27,926,765,0
7534646,738.26,926,764,0
7534656,731.45,926,765,0
7534666,718.46,926,764,0
7534676,699.42,926,765,0
7534686,674.31,926,764,0
7534696,643.83,926,765,0
7534706,608.78,926,764,0
7534716,572.72,926,765,0
7534726,536.85,926,764,0
7534736,503.85,926,765,0
7534746,473.77,926,764,0
7534756,447.82,926,765,0
7534766,425.29,926,764,0
7534776,407.20,926,765,0
7534786,392.78,926,764,0
7534796,382.52,926,765,0
7534807,375.29,926,765,0
7534817,371.69,926,765,0
7534827,370.41,926,764,0
7534837,371.96,926,765,0
7534848,374.76,926,765,0
7534857,379.03,926,765,0
7534867,383.56,926,764,0
7534877,388.41,926,765,0
7534887,392.40,926,765,0
7534897,395.79,926,765,0
7534907,397.66,926,764,0
7534917,398.45,926,765,0
7534927,397.33,926,764,0
7534937,395.00,926,765,0
7534947,390.97,926,764,0
7534957,386.39,926,765,0
7534967,380.75,926,765,0
7534977,374.99,926,765,0
7534987,368.57,926,764,0
7534997,362.57,926,765,0
7535007,356.74,926,765,0
7535017,352.02,926,765,0
7535027,347.47,926,764,0
7535037,343.94,926,765,0
7535047,340.83,926,765,0
7535057,339.13,926,765,0
7535067,337.97,926,764,0
7535077,337.81,926,765,0
7535087,337.82,926,765,0
7535097,338.48,926,765,0
7535107,339.19,926,764,0
7535117,340.42,926,765,0
7535127,341.28,926,765,0
7535137,342.22,926,765,0
7535148,342.50,926,765,0
7535158,342.82,926,765,0
7535168,342.87,926,765,0
7535178,342.91,926,765,0
7535188,342.42,926,765,0
7535198,342.04,926,765,0
7535208,341.39,926,765,0
7535218,341.27,926,765,0
7535228,340.93,926,765,0
7535238,340.82,926,765,0
7535248,340.53,926,765,0
7535258,340.54,926,765,0
7535268,340.38,926,765,0
7535278,340.35,926,765,0
7535288,339.99,926,765,0
7535298,339.78,926,765,0
7535308,339.33,926,765,0
7535319,339.06,926,765,0
7535329,338.61,926,765,0
7535339,338.43,926,765,0
7535349,338.60,926,765,0
7535360,339.88,926,765,0
7535369,342.96,926,765,0
7535379,349.23,926,765,0
7535398,360.13,906,764,0
7535401,377.96,906,764,0
7535411,403.65,906,765,0
7535421,437.61,906,764,0
7535431,477.80,906,765,0
7535441,521.23,906,764,0
7535451,565.09,906,765,0
7535461,606.81,906,764,0
7535471,643.42,906,765,0
7535481,673.29,906,764,0
7535491,695.41,906,765,0
7535501,710.88,906,765,0
7535511,721.72,906,765,0
7535521,729.30,906,764,0
7535532,734.61,906,765,0
7535542,736.96,906,764,0
7535552,734.91,906,765,0
7535562,727.14,906,764,0
7535572,713.43,906,765,0
7535582,693.50,906,764,0
7535592,667.68,906,765,0
7535602,635.97,906,764,0
7535612,600.58,906,765,0
7535622,563.81,906,764,0
7535632,528.21,906,765,0
7535642,494.55,906,764,0
7535652,464.25,906,764,0
7535662,437.39,906,764,0
7535672,415.03,906,765,0
7535682,396.68,906,764,0
7535692,382.68,906,765,0
7535703,372.49,906,764,0
7535713,366.47,906,765,0
7535723,363.63,906,764,0
7535733,364.13,906,765,0
7535744,366.70,906,764,0
7535753,371.42,906,765,0
7535763,377.12,906,764,0
7535773,383.73,906,765,0
7535783,389.98,906,764,0
7535793,395.90,906,765,0
7535803,400.35,906,764,0
7535813,403.76,906,765,0
7535823,405.24,906,764,0
7535833,405.38,906,765,0
7535843,403.38,906,764,0
7535853,400.14,906,765,0
7535863,395.17,906,764,0
7535873,389.59,906,765,0
7535883,382.90,906,764,0
7535893,376.11,906,765,0
7535903,368.84,906,764,0
7535913,362.07,906,765,0
7535923,355.36,906,764,0
7535933,349.64,906,765,0
7535943,344.31,906,764,0
7535953,340.10,906,765,0
7535963,336.17,906,764,0
7535973,333.50,906,765,0
7535983,331.55,906,764,0
7535993,330.83,906,765,0
7536003,330.62,906,764,0
7536013,331.38,906,765,0
7536023,332.34,906,764,0
7536033,334.21,906,765,0
7536044,335.90,906,764,0
7536054,337.95,906,765,0
7536064,339.46,906,765,0
7536074,340.82,906,765,0
7536084,341.43,906,764,0
7536094,342.16,906,765,0
7536104,342.46,906,765,0
7536114,343.09,906,765,0
7536124,343.19,906,764,0
7536134,343.65,906,765,0
7536144,343.80,906,764,0
7536154,344.41,906,765,0
7536164,344.55,906,765,0
7536174,344.90,906,765,0
7536184,344.59,906,764,0
7536194,344.41,906,765,0
7536204,343.52,906,764,0
7536215,343.06,906,765,0
7536225,342.31,906,765,0
7536235,342.26,906,765,0
7536245,342.53,906,765,0
7536256,344.81,906,765,0
7536265,349.50,906,765,0
7536275,358.82,906,765,0
7536285,373.32,906,764,0
7536305,394.99,906,764,0
7536308,424.69,906,765,0
7536317,462.24,906,765,0
7536327,503.96,906,765,0
7536337,547.34,906,765,0
7536347,589.41,906,765,0
7536357,628.16,906,765,0
7536367,661.28,906,765,0
7536377,686.95,906,765,0
7536387,704.97,906,765,0
7536397,717.58,906,765,0
7536407,726.36,906,765,0
7536417,730.11,906,765,0
7536428,727.72,906,765,0
7536438,718.76,906,765,0
7536448,703.02,906,765,0
7536458,680.64,906,764,0
7536468,652.03,906,765,0
7536478,617.91,906,765,0
7536488,581.25,906,765,0
7536498,544.40,906,764,0
7536508,509.23,906,765,0
7536518,477.02,906,765,0
7536528,448.47,906,765,0
7536538,423.98,906,764,0
7536548,403.67,906,765,0
7536558,387.57,906,765,0
7536568,375.57,906,765,0
7536578,367.30,906,764,0
7536588,362.62,906,765,0
7536599,361.15,906,765,0
7536609,362.52,906,765,0
7536619,366.05,906,764,0
7536629,371.22,906,765,0
7536640,377.50,906,764,0
7536649,384.38,906,765,0
7536659,391.04,906,764,0
7536669,397.20,906,765,0
7536679,402.02,906,764,0
7536689,405.57,906,765,0
7536699,407.33,906,764,0
7536709,407.49,906,765,0
7536719,405.80,906,764,0
7536729,402.56,906,765,0
7536739,397.63,906,764,0
7536749,391.87,906,765,0
7536759,385.01,906,764,0
7536769,377.94,906,765,0
7536779,370.54,906,764,0
7536789,363.39,906,765,0
7536799,356.38,906,764,0
7536809,350.31,906,765,0
7536819,344.73,906,764,0
7536829,340.27,906,765,0
7536839,336.63,906,764,0
7536849,334.26,906,765,0
7536859,332.76,906,764,0
7536869,332.49,906,765,0
7536879,332.64,906,764,0
7536889,333.52,906,765,0
7536899,334.57,906,764,0
7536909,335.90,906,765,0
7536919,337.21,906,764,0
7536929,338.69,906,765,0
7536940,339.81,906,764,0
7536950,341.07,906,765,0
7536960,341.99,906,764,0
7536970,343.11,906,765,0
7536980,343.72,906,764,0
7536990,344.23,906,765,0
7537000,344.29,906,764,0
7537010,344.50,906,765,0
7537020,344.22,906,764,0
7537030,344.16,906,765,0
7537040,343.72,906,764,0
7537050,343.51,906,765,0
7537060,342.80,906,764,0
7537070,342.30,906,765,0
7537080,341.70,906,764,0
7537090,342.00,906,765,0
7537100,343.24,906,764,0
7537111,346.94,906,765,0
7537121,354.03,906,764,0
7537131,366.41,906,765,0
7537141,384.84,906,764,0
7537161,410.78,856,763,0
7537164,444.23,856,765,0
7537173,483.85,856,765,0
7537183,526.19,856,765,0
7537193,568.69,856,765,0
7537203,608.68,856,765,0
7537213,644.31,856,765,0
7537223,673.62,856,764,0
7537233,695.54,856,765,0
7537243,710.85,856,764,0
7537253,721.53,856,765,0
7537263,726.30,856,764,0
7537273,725.14,856,765,0
7537283,717.30,856,764,0
7537293,703.11,856,765,0
7537303,682.20,856,764,0
7537313,655.31,856,765,0
7537324,622.69,856,765,0
7537334,587.86,856,765,0
7537344,552.11,856,765,0
7537354,517.92,856,765,0
7537364,485.67,856,765,0
7537374,457.14,856,765,0
7537384,432.03,856,765,0
7537394,410.89,856,765,0
7537404,393.40,856,765,0
7537414,380.12,856,765,0
7537424,370.27,856,764,0
7537434,364.23,856,765,0
7537444,360.99,856,765,0
7537454,360.78,856,765,0
7537464,362.86,856,764,0
7537474,367.27,856,765,0
7537484,373.02,856,764,0
7537495,379.91,856,765,0
7537505,386.88,856,765,0
7537515,393.77,856,765,0
7537525,399.76,856,765,0
7537536,404.72,856,765,0
7537545,407.84,856,765,0
7537555,409.39,856,765,0
7537565,408.72,856,765,0
7537575,406.40,856,765,0
7537585,402.30,856,765,0
7537595,396.98,856,765,0
7537605,390.51,856,765,0
7537615,383.33,856,765,0
7537625,375.47,856,765,0
7537635,367.75,856,765,0
7537645,360.15,856,764,0
7537655,353.25,856,765,0
7537665,346.87,856,765,0
7537675,341.55,856,765,0
7537685,337.19,856,764,0
7537695,333.96,856,765,0
7537705,331.79,856,765,0
7537715,330.69,856,765,0
7537725,330.36,856,765,0
7537735,330.98,856,765,0
7537745,332.06,856,765,0
7537755,333.75,856,765,0
7537765,335.58,856,765,0
7537775,337.51,856,765,0
7537785,339.29,856,765,0
7537795,341.13,856,765,0
7537805,342.63,856,765,0
7537815,343.90,856,765,0
7537825,344.79,856,765,0
7537836,345.49,856,765,0
7537846,345.82,856,765,0
7537856,345.79,856,764,0
7537866,345.42,856,765,0
7537876,344.87,856,764,0
7537886,344.22,856,765,0
7537896,343.30,856,764,0
7537906,342.27,856,765,0
7537916,341.11,856,764,0
7537926,340.31,856,765,0
7537936,340.34,856,765,0
7537946,342.08,856,765,0
7537956,346.52,856,764,0
7537966,354.93,856,765,0
7537976,368.54,856,764,0
7537986,388.99,856,765,0
7538006,417.07,845,764,0
7538009,453.35,845,766,0
7538018,494.47,845,764,0
7538028,537.44,845,765,0
7538038,579.82,845,764,0
7538049,619.35,845,765,0
7538059,653.83,845,764,0
7538069,681.65,845,765,0
7538079,701.21,845,764,0
7538089,714.91,845,765,0
7538099,724.49,845,764,0
7538109,730.30,845,765,0
7538119,731.03,845,764,0
7538129,725.96,845,765,0
7538139,714.70,845,764,0
7538149,697.30,845,765,0
7538159,673.43,845,764,0
7538169,643.90,845,765,0
7538179,609.86,845,764,0
7538189,574.54,845,765,0
7538199,539.41,845,764,0
7538209,506.29,845,765,0
7538220,475.56,845,764,0
7538230,448.78,845,765,0
7538240,425.31,845,764,0
7538250,406.02,845,765,0
7538260,389.90,845,764,0
7538270,377.80,845,765,0
7538280,368.60,845,764,0
7538290,362.98,845,765,0
7538300,359.77,845,764,0
7538310,359.37,845,765,0
7538320,360.59,845,764,0
7538330,363.71,845,765,0
7538340,367.40,845,764,0
7538350,372.16,845,765,0
7538360,376.61,845,764,0
7538370,381.23,845,765,0
7538380,384.85,845,764,0
7538391,387.81,845,765,0
7538401,389.36,845,764,0
7538411,389.98,845,765,0
7538421,388.87,845,764,0
7538432,386.81,845,765,0
7538441,383.05,845,764,0
7538451,378.62,845,765,0
7538461,373.04,845,765,0
7538471,367.24,845,765,0
7538481,360.95,845,764,0
7538491,355.10,845,765,0
7538501,349.07,845,764,0
7538511,344.16,845,765,0
7538521,339.40,845,764,0
7538531,335.76,845,765,0
7538541,332.62,845,764,0
7538551,330.59,845,765,0
7538561,328.91,845,764,0
7538571,328.64,845,765,0
7538581,328.41,845,764,0
7538591,329.27,845,765,0
7538601,330.35,845,764,0
7538611,331.96,845,765,0
7538621,333.26,845,764,0
7538631,335.06,845,765,0
7538641,336.29,845,764,0
7538651,337.70,845,765,0
7538661,338.43,845,764,0
7538671,339.16,845,765,0
7538681,339.33,845,765,0
7538691,339.74,845,765,0
7538701,339.48,845,764,0
7538711,339.33,845,765,0
7538721,338.81,845,764,0
7538732,338.56,845,765,0
7538742,337.92,845,764,0
7538752,337.56,845,765,0
7538762,336.75,845,765,0
7538772,336.27,845,765,0
7538782,335.59,845,764,0
7538792,335.33,845,765,0
7538802,335.40,845,765,0
7538812,336.87,845,765,0
7538822,340.29,845,764,0
7538832,347.49,845,765,0
7538842,359.09,845,765,0
7538862,376.97,856,764,0
7538865,402.40,856,766,0
7538874,435.62,856,765,0
7538884,475.25,856,765,0
7538894,518.12,856,765,0
7538904,561.20,856,765,0
7538914,602.41,856,765,0
7538924,639.31,856,765,0
7538934,669.69,856,765,0
7538945,692.76,856,765,0
7538955,708.90,856,765,0
7538965,720.24,856,765,0
7538975,728.23,856,764,0
7538985,733.73,856,765,0
7538995,735.35,856,765,0
7539005,732.16,856,765,0
7539015,723.29,856,764,0
7539025,708.46,856,765,0
7539035,687.83,856,765,0
7539045,661.53,856,765,0
7539055,630.04,856,764,0
7539065,596.13,856,765,0
7539075,561.89,856,765,0
7539085,529.22,856,765,0
7539095,498.73,856,764,0
7539105,471.25,856,765,0
7539116,446.96,856,764,0
7539126,426.32,856,765,0
7539136,408.95,856,764,0
7539146,394.91,856,765,0
7539156,383.79,856,764,0
7539166,376.05,856,765,0
7539176,370.98,856,764,0
7539186,368.84,856,765,0
7539196,368.76,856,764,0
7539206,370.81,856,765,0
7539216,374.21,856,764,0
7539226,378.77,856,765,0
7539236,383.64,856,764,0
7539246,388.63,856,765,0
7539256,393.07,856,764,0
7539266,396.99,856,765,0
7539276,399.70,856,765,0
7539287,401.24,856,765,0
7539297,401.17,856,764,0
7539307,399.96,856,765,0
7539317,397.32,856,764,0
7539328,393.75,856,765,0
7539337,389.11,856,764,0
7539347,384.11,856,765,0
7539357,378.46,856,764,0
7539367,373.14,856,765,0
7539377,367.65,856,764,0
7539387,362.96,856,765,0
7539397,358.43,856,764,0
7539407,354.74,856,765,0
7539417,351.30,856,764,0
7539427,348.86,856,765,0
7539437,346.84,856,764,0
7539447,345.65,856,765,0
7539457,344.55,856,764,0
7539467,344.34,856,765,0
7539477,344.24,856,763,0
7539487,344.94,856,765,0
7539497,345.47,856,764,0
7539507,346.32,856,765,0
7539517,347.04,856,764,0
7539527,348.14,856,765,0
7539537,348.74,856,764,0
7539547,349.55,856,765,0
7539557,349.85,856,764,0
7539567,350.46,856,765,0
7539577,350.62,856,764,0
7539587,351.12,856,765,0
7539597,351.13,856,764,0
7539607,351.56,856,765,0
7539617,351.52,856,764,0
7539628,351.62,856,765,0
7539638,351.26,856,764,0
7539648,351.10,856,765,0
7539658,350.47,856,764,0
7539668,350.41,856,765,0
7539678,350.55,856,764,0
7539688,352.65,856,765,0
7539698,357.30,856,764,0
7539708,366.47,856,765,0
7539718,380.60,856,764,0
7539737,401.42,876,763,0
7539740,429.66,876,763,0
7539749,465.77,876,765,0
7539759,506.12,876,764,0
7539769,548.13,876,765,0
7539779,588.85,876,765,0
7539789,626.65,876,765,0
7539799,659.37,876,764,0
7539809,685.32,876,765,0
7539819,703.69,876,764,0
7539829,716.60,876,765,0
7539840,725.59,876,765,0
7539849,731.93,876,765,0
7539859,735.16,876,764,0
7539869,734.39,876,765,0
7539879,728.14,876,764,0
7539889,716.48,876,765,0
7539899,698.81,876,764,0
7539909,675.60,876,765,0
7539919,646.79,876,765,0
7539929,614.41,876,765,0
7539939,580.17,876,764,0
7539949,546.69,876,765,0
7539959,514.38,876,764,0
7539969,485.13,876,766,0
7539979,458.60,876,764,0
7539989,435.88,876,765,0
7539999,416.33,876,764,0
7540009,400.67,876,765,0
7540019,388.21,876,764,0
7540029,379.45,876,765,0
7540039,373.32,876,764,0
7540049,370.48,876,765,0
7540059,369.78,876,764,0
7540069,371.52,876,765,0
7540079,374.45,876,764,0
7540089,378.77,876,765,0
7540099,383.34,876,764,0
7540109,388.38,876,765,0
7540119,392.64,876,764,0
7540129,396.35,876,765,0
7540140,398.60,876,765,0
7540150,399.66,876,765,0
7540160,398.74,876,764,0
7540170,396.76,876,765,0
7540180,393.14,876,765,0
7540190,388.94,876,765,0
7540200,383.73,876,765,0
7540210,378.28,876,765,0
7540220,372.54,876,765,0
7540230,367.45,876,765,0
7540240,362.34,876,765,0
7540250,358.00,876,765,0
7540260,353.76,876,765,0
7540270,350.40,876,765,0
7540280,347.41,876,765,0
7540290,345.31,876,764,0
7540300,343.59,876,765,0
7540311,342.69,876,765,0
7540321,342.09,876,765,0
7540331,342.07,876,764,0
7540341,342.17,876,765,0
7540352,342.81,876,765,0
7540361,343.64,876,765,0
7540371,344.95,876,765,0
7540381,346.25,876,765,0
7540391,347.63,876,765,0
7540401,348.94,876,765,0
7540411,350.24,876,765,0
7540421,351.16,876,765,0
7540431,351.71,876,765,0
7540441,351.54,876,765,0
7540451,351.08,876,765,0
7540461,350.15,876,765,0
7540471,349.21,876,765,0
7540481,347.99,876,765,0
7540491,346.92,876,765,0
7540501,345.83,876,765,0
7540511,344.90,876,765,0
7540521,343.94,876,765,0
7540531,343.27,876,765,0
7540541,342.81,876,765,0
7540551,343.08,876,765,0
7540561,344.43,876,765,0
7540571,347.86,876,765,0
7540581,354.46,876,765,0
7540591,365.50,876,765,0
7540611,382.07,873,764,0
7540614,405.45,873,764,0
7540623,435.66,873,765,0
7540633,471.89,873,764,0
7540643,512.16,873,765,0
7540653,553.60,873,764,0
7540663,593.66,873,765,0
7540673,630.28,873,764,0
7540683,661.31,873,765,0
7540694,685.95,873,764,0
7540703,703.66,873,766,0
7540713,713.62,873,764,0
7540723,716.35,873,765,0
7540733,711.92,873,764,0
7540743,700.84,873,765,0
7540753,683.23,873,764,0
7540763,659.68,873,765,0
7540773,631.06,873,764,0
7540783,600.06,873,765,0
7540793,568.24,873,764,0
7540803,537.48,873,765,0
7540813,508.11,873,764,0
7540823,481.29,873,765,0
7540833,457.29,873,764,0
7540843,436.76,873,765,0
7540853,419.13,873,764,0
7540864,404.56,873,765,0
7540873,392.44,873,764,0
7540883,383.35,873,765,0
7540893,376.77,873,764,0
7540903,372.68,873,765,0
7540913,370.29,873,764,0
7540923,369.73,873,765,0
7540933,370.33,873,764,0
7540943,372.24,873,765,0
7540953,374.70,873,764,0
7540963,377.66,873,765,0
7540973,380.51,873,764,0
7540983,383.27,873,765,0
7540993,385.33,873,764,0
7541003,386.99,873,765,0
7541013,387.38,873,764,0
7541023,386.92,873,765,0
7541033,385.27,873,764,0
7541043,382.75,873,765,0
7541053,379.31,873,764,0
7541063,375.32,873,765,0
7541073,370.51,873,764,0
7541083,365.81,873,765,0
7541093,360.90,873,764,0
7541103,356.21,873,765,0
7541113,351.48,873,764,0
7541123,347.31,873,765,0
7541133,343.49,873,764,0
7541143,340.43,873,765,0
7541153,337.64,873,764,0
7541164,335.69,873,765,0
7541174,334.07,873,764,0
7541184,333.41,873,765,0
7541194,332.86,873,764,0
7541204,332.94,873,765,0
7541214,333.00,873,764,0
7541224,333.64,873,765,0
7541234,333.92,873,764,0
7541244,334.59,873,765,0
7541254,335.10,873,764,0
7541264,335.88,873,765,0
7541274,336.39,873,764,0
7541284,337.30,873,765,0
7541294,337.85,873,764,0
7541304,338.84,873,765,0
7541314,339.45,873,764,0
7541324,340.08,873,765,0
7541335,340.23,873,764,0
7541345,340.33,873,765,0
7541355,339.85,873,764,0
7541365,339.55,873,765,0
7541376,338.74,873,764,0
7541385,338.13,873,765,0
7541395,337.32,873,764,0
7541405,337.44,873,765,0
7541415,338.29,873,764,0
7541425,341.08,873,765,0
7541435,345.81,873,764,0
7541445,354.10,873,765,0
7541455,365.98,873,764,0
7541474,382.62,864,763,0
7541477,403.69,864,764,0
7541486,429.45,864,765,0
7541496,458.03,864,764,0
7541506,488.71,864,765,0
7541516,518.88,864,765,0
7541526,547.42,864,765,0
7541536,572.02,864,764,0
7541547,591.39,864,765,0
7541556,603.96,864,764,0
7541566,610.14,864,765,0
7541576,609.07,864,764,0
7541586,602.15,864,765,0
7541596,589.76,864,764,0
7541606,573.46,864,765,0
7541616,553.91,864,765,0
7541626,532.89,864,765,0
7541636,510.94,864,764,0
7541646,489.96,864,765,0
7541656,469.87,864,765,0
7541666,451.69,864,765,0
7541676,435.03,864,764,0
7541686,420.79,864,765,0
7541696,408.34,864,764,0
7541706,398.38,864,765,0
7541716,390.00,864,764,0
7541726,383.57,864,765,0
7541736,378.43,864,764,0
7541746,375.26,864,765,0
7541756,373.25,864,764,0
7541766,373.00,864,765,0
7541776,373.47,864,764,0
7541786,375.26,864,765,0
7541796,377.67,864,764,0
7541806,380.90,864,765,0
7541816,383.93,864,764,0
7541826,387.21,864,765,0
7541836,389.67,864,764,0
7541847,391.91,864,765,0
7541857,393.01,864,764,0
7541867,393.48,864,765,0
7541877,392.69,864,764,0
7541888,391.37,864,765,0
7541897,388.73,864,764,0
7541907,385.73,864,765,0
7541917,381.74,864,764,0
7541927,377.49,864,765,0
7541937,372.63,864,764,0
7541947,367.94,864,765,0
7541957,363.03,864,764,0
7541967,358.73,864,765,0
7541977,354.66,864,765,0
7541987,351.50,864,765,0
7541997,348.69,864,764,0
7542007,346.90,864,765,0
7542017,345.60,864,765,0
7542027,345.34,864,765,0
7542037,345.23,864,764,0
7542047,345.72,864,765,0
7542057,346.06,864,765,0
7542067,346.99,864,765,0
7542077,347.68,864,764,0
7542087,348.67,864,765,0
7542097,349.16,864,765,0
7542107,349.92,864,765,0
7542117,350.33,864,764,0
7542127,350.92,864,765,0
7542137,351.03,864,765,0
7542147,351.32,864,765,0
7542157,351.10,864,765,0
7542167,351.07,864,765,0
7542177,350.53,864,765,0
7542188,350.07,864,765,0
7542198,349.41,864,765,0
7542208,348.99,864,765,0
7542218,348.43,864,765,0
7542228,348.22,864,764,0
7542238,348.07,864,765,0
7542248,348.82,864,765,0
7542258,350.42,864,765,0
7542268,353.68,864,765,0
7542278,358.79,864,765,0
7542288,366.74,864,765,0
7542298,377.66,864,765,0
7542318,392.25,843,764,0
7542321,410.56,843,766,0
7542330,431.91,843,765,0
7542340,455.29,843,765,0
7542350,479.63,843,764,0
7542360,503.23,843,765,0
7542370,524.97,843,765,0
7542380,543.20,843,765,0
7542390,556.47,843,764,0
7542401,564.77,843,765,0
7542411,567.62,843,764,0
7542421,565.51,843,765,0
7542431,558.76,843,764,0
7542441,548.29,843,765,0
7542451,534.96,843,765,0
7542461,520.06,843,765,0
7542471,504.01,843,764,0
7542481,488.11,843,765,0
7542491,472.60,843,764,0
7542501,458.41,843,765,0
7542511,445.30,843,764,0
7542521,433.85,843,765,0
7542531,423.65,843,764,0
7542541,415.02,843,765,0
7542551,407.51,843,764,0
7542561,401.40,843,765,0
7542572,396.27,843,764,0
7542582,392.67,843,765,0
7542592,389.98,843,764,0
7542602,388.66,843,765,0
7542612,388.12,843,764,0
7542622,388.64,843,765,0
7542632,389.61,843,764,0
7542642,391.35,843,765,0
7542652,393.18,843,764,0
7542662,395.39,843,765,0
7542672,397.20,843,764,0
7542682,398.99,843,765,0
7542692,400.02,843,764,0
7542702,400.78,843,765,0
7542712,400.51,843,764,0
7542722,399.71,843,765,0
7542732,397.78,843,764,0
7542743,395.49,843,765,0
7542753,392.26,843,764,0
7542763,388.88,843,765,0
7542773,384.93,843,764,0
7542784,381.35,843,765,0
7542793,377.52,843,764,0
7542803,374.45,843,765,0
7542813,371.31,843,764,0
7542823,368.99,843,765,0
7542833,366.81,843,764,0
7542843,365.37,843,765,0
7542853,363.84,843,764,0
7542863,363.12,843,765,0
7542873,362.23,843,764,0
7542883,362.03,843,765,0
7542893,361.76,843,764,0
7542903,362.22,843,765,0
7542913,362.67,843,764,0
7542923,363.75,843,765,0
7542933,364.43,843,764,0
7542943,365.50,843,765,0
7542953,366.12,843,764,0
7542963,367.03,843,765,0
7542973,367.32,843,764,0
7542983,367.78,843,765,0
7542993,367.55,843,764,0
7543003,367.64,843,765,0
7543013,367.15,843,764,0
7543023,366.85,843,765,0
7543033,366.08,843,764,0
7543043,365.58,843,765,0
7543053,364.64,843,764,0
7543063,364.15,843,765,0
7543073,363.16,843,764,0
7543084,362.68,843,765,0
7543094,362.31,843,764,0
7543104,363.07,843,765,0
7543114,364.81,843,764,0
7543124,368.77,843,765,0
7543134,374.66,843,764,0
7543144,383.89,843,765,0
7543163,396.01,846,764,0
7543166,412.16,846,765,0
7543175,430.97,846,764,0
7543185,452.24,846,765,0
7543195,474.37,846,765,0
7543205,496.97,846,765,0
7543215,518.07,846,764,0
7543225,537.16,846,765,0
7543235,552.07,846,765,0
7543245,563.02,846,765,0
7543255,569.19,846,764,0
7543265,571.10,846,766,0
7543275,568.41,846,765,0
7543285,562.29,846,765,0
7543296,552.90,846,765,0
7543305,541.70,846,765,0
7543315,528.85,846,765,0
7543325,515.57,846,765,0
7543335,501.98,846,765,0
7543345,489.17,846,765,0
7543355,476.82,846,765,0
7543365,465.77,846,765,0
7543375,455.47,846,765,0
7543385,446.59,846,765,0
7543395,438.44,846,765,0
7543405,431.49,846,765,0
7543415,425.22,846,765,0
7543425,420.48,846,765,0
7543435,416.52,846,764,0
7543445,413.84,846,765,0
7543455,411.83,846,765,0
7543465,411.07,846,765,0
7543475,410.87,846,764,0
7543485,411.64,846,765,0
7543495,412.35,846,765,0
7543505,413.44,846,765,0
7543515,414.38,846,765,0
7543525,415.38,846,765,0
7543535,415.91,846,765,0
7543545,416.24,846,765,0
7543555,415.82,846,764,0
7543565,415.28,846,765,0
7543575,413.86,846,764,0
7543585,412.15,846,765,0
7543596,409.70,846,765,0
7543606,407.05,846,765,0
7543616,403.91,846,765,0
7543626,400.63,846,765,0
7543636,396.93,846,765,0
7543646,393.48,846,765,0
7543656,389.86,846,765,0
7543666,386.60,846,765,0
7543676,383.34,846,765,0
7543686,380.58,846,765,0
7543696,378.09,846,765,0
7543706,376.14,846,765,0
7543716,374.47,846,765,0
7543726,373.34,846,765,0
7543736,372.42,846,764,0
7543746,371.95,846,765,0
7543756,371.58,846,765,0
7543767,371.58,846,765,0
7543777,371.66,846,765,0
7543787,371.89,846,764,0
7543797,372.10,846,765,0
7543808,372.37,846,764,0
7543817,372.64,846,765,0
7543827,372.92,846,764,0
7543837,373.12,846,765,0
7543847,373.25,846,764,0
7543857,373.35,846,765,0
7543867,373.42,846,764,0
7543877,373.51,846,765,0
7543887,373.70,846,764,0
7543897,373.96,846,765,0
7543907,374.27,846,764,0
7543917,374.66,846,765,0
7543927,374.98,846,764,0
7543937,375.37,846,765,0
7543947,375.77,846,765,0
7543957,376.01,846,765,0
7543967,376.27,846,764,0
7543977,376.70,846,765,0
7543987,377.48,846,764,0
7543997,379.00,846,765,0
7544007,381.40,846,764,0
7544017,385.53,846,765,0
7544027,392.05,846,764,0
7544046,401.55,883,764,0
7544049,414.63,883,764,0
7544058,431.58,883,765,0
7544068,451.72,883,764,0
7544078,474.73,883,765,0
7544088,499.41,883,764,0
7544098,524.45,883,765,0
7544108,548.27,883,764,0
7544118,569.23,883,765,0
7544128,585.96,883,764,0
7544138,598.27,883,765,0
7544148,605.31,883,764,0
7544158,607.27,883,765,0
7544168,604.23,883,764,0
7544178,597.09,883,765,0
7544188,586.44,883,764,0
7544198,573.45,883,765,0
7544208,558.70,883,764,0
7544218,543.49,883,765,0
7544228,528.34,883,764,0
7544238,514.23,883,765,0
7544248,501.21,883,764,0
7544258,489.79,883,765,0
7544268,479.74,883,764,0
7544279,471.42,883,765,0
7544289,464.39,883,764,0
7544299,458.62,883,765,0
7544309,453.42,883,764,0
7544320,449.09,883,765,0
7544329,445.25,883,764,0
7544339,442.13,883,765,0
7544349,439.18,883,764,0
7544359,436.72,883,765,0
7544369,434.36,883,764,0
7544379,432.63,883,765,0
7544389,430.98,883,764,0
7544399,429.96,883,765,0
7544409,428.86,883,764,0
7544419,428.21,883,765,0
7544429,427.38,883,764,0
7544439,426.88,883,765,0
7544449,426.06,883,764,0
7544459,425.27,883,765,0
7544469,423.86,883,764,0
7544479,422.44,883,765,0
7544489,420.34,883,764,0
7544499,418.22,883,765,0
7544509,415.46,883,764,0
7544519,412.83,883,765,0
7544529,409.84,883,764,0
7544539,407.10,883,765,0
7544549,404.03,883,764,0
7544559,401.32,883,765,0
7544569,398.52,883,764,0
7544579,396.40,883,765,0
7544589,394.35,883,764,0
7544599,393.13,883,765,0
7544609,391.98,883,764,0
7544620,391.77,883,765,0
7544630,391.71,883,764,0
7544640,392.23,883,765,0
7544650,392.50,883,764,0
7544660,393.08,883,765,0
7544670,393.23,883,764,0
7544680,393.63,883,765,0
7544690,393.44,883,764,0
7544700,393.52,883,765,0
7544710,393.24,883,764,0
7544720,393.29,883,765,0
7544730,392.99,883,764,0
7544740,392.99,883,765,0
7544750,392.65,883,764,0
7544760,392.71,883,765,0
7544770,392.29,883,764,0
7544780,392.24,883,765,0
7544791,391.83,883,764,0
7544801,391.75,883,765,0
7544811,391.27,883,764,0
7544821,391.19,883,765,0
7544832,390.75,883,764,0
7544841,390.78,883,765,0
7544851,390.42,883,764,0
7544861,390.38,883,765,0
7544871,389.96,883,764,0
7544881,390.02,883,765,0
7544891,389.71,883,765,0
7544901,389.97,883,765,0
