Time,PPG,IBI,GSR,GSR_Event
840966,381.67,723,724,0
840976,369.38,723,712,0
840986,354.91,723,724,0
840996,338.14,723,713,0
841006,321.77,723,725,0
841016,305.25,723,712,0
841026,290.90,723,724,0
841036,280.95,723,714,0
841047,278.56,723,722,0
841057,280.02,723,716,0
841067,285.50,723,723,0
841077,292.77,723,713,0
841088,301.96,723,723,0
841097,310.98,723,716,0
841107,320.41,723,723,0
841117,328.73,723,714,0
841127,336.57,723,723,0
841137,342.78,723,716,0
841147,348.21,723,723,0
841157,352.26,723,713,0
841167,356.34,723,723,0
841177,359.92,723,716,0
841187,364.92,723,723,0
841197,371.50,723,714,0
841207,381.59,723,723,0
841217,395.17,723,716,0
841227,414.36,723,723,0
841237,438.55,723,714,0
841247,468.77,723,723,0
841257,503.04,723,713,0
841267,539.33,723,723,0
841277,574.93,723,714,0
841287,608.59,723,722,0
841307,638.03,813,723,0
841310,662.62,813,725,0
841319,681.25,813,711,0
841329,694.37,813,723,0
841339,703.65,813,712,0
841349,710.22,813,724,0
841359,714.96,813,711,0
841369,718.31,813,723,0
841379,719.03,813,712,0
841389,715.77,813,724,0
841399,706.96,813,711,0
841409,691.85,813,723,0
841419,670.04,813,712,0
841430,641.35,813,723,0
841439,606.45,813,711,0
841449,567.40,813,723,0
841459,526.26,813,712,0
841469,485.26,813,723,0
841479,446.09,813,711,0
841489,409.81,813,723,0
841499,377.81,813,711,0
841509,349.79,813,723,0
841519,326.67,813,711,0
841529,308.26,813,723,0
841539,295.06,813,711,0
841549,286.56,813,723,0
841559,282.92,813,711,0
841569,283.03,813,723,0
841579,287.14,813,711,0
841589,293.65,813,723,0
841600,302.71,813,712,0
841609,312.87,813,723,0
841619,323.97,813,711,0
841629,334.78,813,723,0
841639,345.30,813,712,0
841649,354.47,813,723,0
841659,362.68,813,711,0
841669,368.95,813,723,0
841679,373.98,813,712,0
841689,377.03,813,723,0
841699,378.82,813,711,0
841709,378.79,813,723,0
841719,377.82,813,712,0
841729,375.39,813,723,0
841739,372.32,813,711,0
841749,368.11,813,723,0
841759,363.75,813,712,0
841769,358.64,813,722,0
841779,353.86,813,711,0
841789,348.84,813,723,0
841799,344.48,813,712,0
841809,340.22,813,722,0
841819,336.85,813,711,0
841829,333.73,813,723,0
841839,331.79,813,712,0
841849,329.97,813,722,0
841859,329.12,813,711,0
841869,328.36,813,723,0
841879,328.72,813,712,0
841889,329.02,813,722,0
841900,330.21,813,713,0
841910,331.22,813,722,0
841920,333.17,813,714,0
841930,334.70,813,721,0
841940,337.06,813,714,0
841950,338.76,813,722,0
841960,341.19,813,713,0
841970,342.85,813,722,0
841980,345.08,813,714,0
841990,346.43,813,722,0
842000,348.27,813,714,0
842010,349.30,813,722,0
842020,350.84,813,714,0
842030,351.62,813,722,0
842040,353.40,813,713,0
842050,355.25,813,721,0
842060,359.46,813,714,0
842071,365.62,813,722,0
842081,376.11,813,715,0
842091,390.13,813,721,0
842101,410.32,813,715,0
842121,435.34,814,714,0
842124,466.27,814,721,0
842133,501.20,814,721,0
842143,538.21,814,718,0
842153,574.06,814,722,0
842163,608.12,814,718,0
842173,637.57,814,721,0
842183,662.47,814,718,0
842193,681.53,814,722,0
842203,695.00,814,718,0
842213,704.34,814,721,0
842223,710.41,814,718,0
842233,711.66,814,722,0
842243,708.76,814,717,0
842253,700.18,814,721,0
842263,686.62,814,718,0
842273,666.89,814,721,0
842284,641.98,814,721,0
842294,611.64,814,718,0
842304,579.44,814,725,0
842314,544.93,814,714,0
842324,511.14,814,726,0
842334,477.41,814,718,0
842344,446.30,814,726,0
842354,416.85,814,714,0
842364,390.97,814,726,0
842374,367.28,814,718,0
842384,347.61,814,725,0
842394,330.88,814,714,0
842404,318.32,814,726,0
842414,308.62,814,719,0
842424,302.99,814,726,0
842434,299.82,814,714,0
842444,300.56,814,726,0
842455,303.18,814,715,0
842465,308.35,814,724,0
842475,314.59,814,718,0
842485,322.43,814,725,0
842496,330.31,814,715,0
842505,339.18,814,724,0
842515,346.97,814,718,0
842525,354.78,814,725,0
842535,361.19,814,715,0
842545,367.13,814,725,0
842555,371.38,814,718,0
842565,374.95,814,725,0
842575,376.85,814,715,0
842585,378.31,814,725,0
842595,378.26,814,718,0
842605,377.80,814,725,0
842615,376.06,814,715,0
842625,374.28,814,725,0
842635,371.41,814,718,0
842645,368.50,814,725,0
842655,364.62,814,715,0
842665,360.92,814,725,0
842675,356.66,814,718,0
842685,352.90,814,725,0
842695,348.82,814,715,0
842705,345.53,814,725,0
842715,342.16,814,718,0
842725,339.84,814,725,0
842735,337.74,814,715,0
842745,336.58,814,725,0
842755,335.46,814,718,0
842765,335.41,814,725,0
842775,335.46,814,715,0
842785,336.35,814,725,0
842796,337.19,814,714,0
842806,338.46,814,724,0
842816,339.91,814,714,0
842826,341.61,814,723,0
842836,343.05,814,712,0
842846,344.71,814,724,0
842856,346.04,814,714,0
842866,347.31,814,723,0
842876,348.42,814,712,0
842886,349.36,814,724,0
842896,350.24,814,714,0
842906,351.03,814,723,0
842916,351.66,814,712,0
842926,352.45,814,724,0
842936,353.39,814,714,0
842946,354.47,814,723,0
842956,355.87,814,712,0
842967,358.10,814,724,0
842977,361.75,814,711,0
842987,367.44,814,723,0
842997,376.22,814,712,0
843008,388.67,814,722,0
843026,405.78,906,722,0
843029,427.49,906,722,0
843038,455.03,906,713,0
843048,487.12,906,722,0
843058,522.36,906,713,0
843068,557.91,906,722,0
843078,592.18,906,713,0
843088,623.32,906,722,0
843098,650.66,906,713,0
843108,672.14,906,722,0
843118,688.17,906,713,0
843128,699.39,906,722,0
843138,707.33,906,712,0
843148,711.60,906,722,0
843158,711.77,906,713,0
843168,706.82,906,722,0
843179,696.72,906,714,0
843188,680.73,906,722,0
843198,659.17,906,713,0
843208,631.69,906,722,0
843218,600.41,906,714,0
843228,566.65,906,722,0
843238,532.47,906,713,0
843248,498.08,906,722,0
843258,465.53,906,713,0
843268,434.64,906,722,0
843278,406.94,906,713,0
843288,381.58,906,722,0
843298,359.81,906,713,0
843308,340.84,906,722,0
843318,326.01,906,713,0
843328,314.14,906,722,0
843338,306.38,906,714,0
843348,301.38,906,721,0
843358,300.15,906,713,0
843368,301.01,906,722,0
843378,304.95,906,713,0
843388,310.28,906,721,0
843398,317.74,906,712,0
843408,325.53,906,722,0
843418,334.50,906,713,0
843428,342.88,906,721,0
843438,351.57,906,713,0
843448,358.94,906,722,0
843458,366.03,906,713,0
843468,371.34,906,721,0
843479,376.12,906,714,0
843489,378.78,906,721,0
843499,380.99,906,715,0
843509,381.17,906,721,0
843520,380.94,906,715,0
843529,379.03,906,721,0
843539,377.18,906,714,0
843549,373.78,906,721,0
843559,370.81,906,715,0
843569,366.58,906,721,0
843579,363.06,906,714,0
843589,358.59,906,721,0
843599,355.02,906,715,0
843609,350.73,906,721,0
843619,347.55,906,714,0
843629,343.87,906,721,0
843639,341.60,906,715,0
843649,339.02,906,721,0
843659,337.90,906,714,0
843669,336.51,906,721,0
843679,336.57,906,715,0
843689,336.32,906,721,0
843699,337.38,906,714,0
843709,337.91,906,721,0
843719,339.65,906,715,0
843729,340.74,906,722,0
843739,342.88,906,715,0
843749,344.20,906,721,0
843759,346.41,906,715,0
843769,347.66,906,721,0
843779,349.65,906,714,0
843789,350.74,906,721,0
843799,352.62,906,714,0
843809,353.46,906,722,0
843820,355.04,906,715,0
843830,355.63,906,721,0
843840,357.02,906,716,0
843850,357.57,906,721,0
843860,359.03,906,717,0
843870,360.05,906,721,0
843880,362.86,906,716,0
843890,366.25,906,721,0
843900,372.86,906,717,0
843910,381.60,906,721,0
843920,395.18,906,716,0
843939,412.52,913,716,0
843942,435.90,913,725,0
843951,464.00,913,721,0
843961,497.43,913,717,0
843971,532.61,913,721,0
843981,568.43,913,720,0
843991,601.94,913,721,0
844001,632.56,913,717,0
844011,658.15,913,721,0
844021,678.29,913,719,0
844032,692.47,913,719,0
844041,702.45,913,717,0
844051,708.78,913,721,0
844061,711.68,913,719,0
844071,709.93,913,718,0
844081,703.78,913,717,0
844091,691.93,913,721,0
844101,675.07,913,719,0
844111,652.12,913,719,0
844121,624.74,913,717,0
844131,593.10,913,721,0
844141,560.24,913,718,0
844151,525.80,913,719,0
844161,492.77,913,716,0
844171,460.36,913,721,0
844181,430.98,913,718,0
844191,403.51,913,719,0
844201,379.96,913,723,0
844211,358.93,913,721,0
844221,342.49,913,718,0
844231,328.97,913,719,0
844241,320.11,913,723,0
844251,314.21,913,721,0
844261,312.64,913,718,0
844271,313.52,913,719,0
844281,317.95,913,723,0
844291,323.88,913,721,0
844301,332.53,913,718,0
844311,341.24,913,719,0
844321,351.33,913,723,0
844332,360.57,913,714,0
844342,370.21,913,725,0
844352,378.12,913,715,0
844362,385.33,913,724,0
844372,389.99,913,718,0
844382,393.89,913,725,0
844392,395.34,913,715,0
844402,396.05,913,724,0
844412,394.62,913,718,0
844422,393.02,913,725,0
844432,390.01,913,715,0
844442,387.10,913,724,0
844452,383.25,913,718,0
844462,379.92,913,725,0
844472,375.74,913,715,0
844482,372.18,913,724,0
844492,368.05,913,718,0
844503,364.69,913,725,0
844513,361.27,913,713,0
844523,358.62,913,724,0
844533,356.08,913,711,0
844544,354.34,913,723,0
844553,352.52,913,713,0
844563,351.77,913,724,0
844573,350.85,913,711,0
844583,350.47,913,723,0
844593,350.11,913,713,0
844603,350.29,913,724,0
844613,350.81,913,711,0
844623,352.02,913,723,0
844633,352.83,913,713,0
844643,354.38,913,724,0
844653,355.85,913,711,0
844663,357.65,913,724,0
844673,359.21,913,713,0
844683,360.86,913,724,0
844693,362.36,913,711,0
844703,364.01,913,724,0
844713,365.55,913,712,0
844723,367.53,913,724,0
844733,369.81,913,711,0
844743,373.34,913,724,0
844753,378.42,913,711,0
844763,386.23,913,725,0
844773,397.09,913,711,0
844783,412.53,913,724,0
844793,432.64,913,712,0
844812,458.21,873,710,0
844815,488.10,873,710,0
844824,521.67,873,724,0
844834,556.14,873,709,0
844844,590.08,873,723,0
844854,620.96,873,710,0
844864,647.97,873,724,0
844874,669.88,873,709,0
844884,686.67,873,723,0
844894,698.43,873,710,0
844904,706.61,873,724,0
844914,712.34,873,709,0
844924,716.31,873,723,0
844934,718.19,873,710,0
844944,716.85,873,723,0
844954,710.89,873,709,0
844964,699.44,873,723,0
844974,682.29,873,710,0
844984,659.41,873,723,0
844994,630.57,873,709,0
845004,596.93,873,723,0
845015,560.26,873,710,0
845025,522.73,873,723,0
845035,485.95,873,711,0
845045,450.65,873,722,0
845056,417.89,873,712,0
845065,388.35,873,723,0
845075,363.13,873,711,0
845085,341.92,873,722,0
845095,325.66,873,712,0
845105,313.85,873,723,0
845115,306.95,873,711,0
845125,303.79,873,722,0
845135,304.88,873,712,0
845145,308.48,873,723,0
845155,315.36,873,711,0
845165,323.61,873,722,0
845175,333.54,873,712,0
845185,343.41,873,723,0
845195,353.70,873,711,0
845205,363.09,873,722,0
845215,371.93,873,712,0
845225,378.98,873,722,0
845235,384.90,873,711,0
845245,388.66,873,722,0
845255,391.63,873,712,0
845265,392.81,873,722,0
845275,393.08,873,711,0
845285,391.60,873,722,0
845295,389.66,873,712,0
845305,386.17,873,722,0
845315,382.60,873,711,0
845325,377.84,873,722,0
845335,373.21,873,712,0
845345,367.75,873,722,0
845356,363.37,873,712,0
845366,358.29,873,721,0
845376,354.69,873,713,0
845386,350.67,873,721,0
845396,348.11,873,714,0
845406,345.38,873,721,0
845416,343.93,873,713,0
845426,342.24,873,721,0
845436,342.00,873,713,0
845446,341.53,873,722,0
845456,342.31,873,713,0
845466,342.77,873,721,0
845476,344.43,873,713,0
845486,345.84,873,722,0
845496,348.20,873,713,0
845506,349.81,873,721,0
845516,352.23,873,713,0
845527,353.83,873,721,0
845537,355.81,873,713,0
845547,356.72,873,721,0
845557,358.01,873,714,0
845568,358.09,873,721,0
845577,359.09,873,713,0
845587,358.98,873,721,0
845597,360.19,873,714,0
845607,360.90,873,721,0
845617,363.46,873,713,0
845627,366.54,873,721,0
845637,372.72,873,714,0
845647,380.90,873,721,0
845657,393.83,873,713,0
845667,410.47,873,721,0
845686,433.77,874,720,0
845689,462.08,874,717,0
845698,496.00,874,714,0
845708,531.83,874,721,0
845718,568.22,874,715,0
845728,602.40,874,721,0
845739,633.48,874,715,0
845748,659.01,874,721,0
845758,678.98,874,715,0
845768,692.95,874,721,0
845778,702.78,874,715,0
845788,709.66,874,721,0
845798,714.52,874,715,0
845808,717.92,874,721,0
845818,720.35,874,715,0
845828,719.26,874,721,0
845838,714.16,874,715,0
845848,703.19,874,721,0
845858,686.50,874,715,0
845868,663.08,874,721,0
845878,633.74,874,715,0
845888,597.82,874,721,0
845898,559.43,874,715,0
845908,519.23,874,721,0
845918,480.46,874,715,0
845928,442.78,874,721,0
845938,408.77,874,715,0
845948,377.77,874,721,0
845958,352.13,874,715,0
845968,330.19,874,721,0
845978,313.97,874,715,0
845988,301.90,874,721,0
845998,295.76,874,715,0
846008,293.39,874,721,0
846018,295.50,874,715,0
846028,299.94,874,721,0
846039,307.75,874,717,0
846049,316.06,874,717,0
846059,325.98,874,723,0
846069,335.07,874,714,0
846080,344.65,874,724,0
846089,352.98,874,718,0
846099,361.09,874,723,0
846109,367.32,874,714,0
846119,373.18,874,724,0
846129,376.94,874,718,0
846139,380.17,874,723,0
846149,381.32,874,714,0
846159,381.95,874,724,0
846169,380.77,874,718,0
846179,379.34,874,723,0
846189,376.28,874,714,0
846199,373.37,874,724,0
846209,369.10,874,718,0
846219,365.30,874,722,0
846229,360.58,874,714,0
846239,356.59,874,724,0
846249,351.91,874,715,0
846259,348.47,874,723,0
846269,344.64,874,714,0
846279,341.92,874,724,0
846289,338.94,874,715,0
846299,337.20,874,723,0
846309,335.21,874,714,0
846319,334.46,874,724,0
846329,333.43,874,715,0
846339,333.47,874,723,0
846349,333.24,874,714,0
846359,334.28,874,724,0
846369,334.93,874,715,0
846380,336.66,874,725,0
846390,337.92,874,715,0
846400,339.75,874,726,0
846410,341.11,874,709,0
846420,343.35,874,725,0
846430,344.70,874,714,0
846440,346.85,874,726,0
846450,348.22,874,709,0
846460,350.08,874,724,0
846470,351.34,874,715,0
846480,353.00,874,726,0
846490,354.16,874,709,0
846500,355.78,874,725,0
846510,356.75,874,715,0
846520,357.85,874,725,0
846530,358.58,874,709,0
846540,359.78,874,725,0
846551,361.04,874,708,0
846561,363.39,874,723,0
846571,367.26,874,710,0
846581,373.99,874,723,0
846592,384.54,874,708,0
846610,400.06,924,709,0
846613,421.39,924,711,0
846622,449.39,924,723,0
846632,483.26,924,710,0
846642,520.12,924,724,0
846652,557.59,924,708,0
846662,593.54,924,723,0
846672,626.25,924,710,0
846682,654.03,924,724,0
846692,675.54,924,708,0
846702,690.55,924,723,0
846712,701.10,924,709,0
846722,708.48,924,724,0
846732,713.69,924,708,0
846742,717.30,924,723,0
846752,719.82,924,709,0
846763,719.92,924,723,0
846772,716.52,924,708,0
846782,708.05,924,723,0
846792,693.93,924,709,0
846802,673.30,924,722,0
846812,646.59,924,708,0
846822,613.76,924,723,0
846832,577.02,924,710,0
846842,537.80,924,723,0
846852,498.86,924,708,0
846862,461.14,924,723,0
846872,426.51,924,709,0
846882,394.99,924,723,0
846892,367.61,924,708,0
846902,344.24,924,723,0
846912,325.78,924,709,0
846922,311.45,924,723,0
846932,302.01,924,711,0
846942,296.48,924,723,0
846952,295.14,924,709,0
846962,296.77,924,723,0
846972,301.68,924,711,0
846982,308.55,924,723,0
846992,317.43,924,709,0
847002,326.77,924,723,0
847012,337.04,924,711,0
847022,347.01,924,723,0
847032,356.95,924,709,0
847042,365.58,924,722,0
847052,373.42,924,711,0
847063,379.42,924,722,0
847073,384.27,924,711,0
847083,386.84,924,722,0
847093,388.26,924,712,0
847104,387.67,924,721,0
847113,386.27,924,711,0
847123,383.62,924,722,0
847133,381.20,924,713,0
847143,378.19,924,722,0
847153,375.86,924,711,0
847163,372.94,924,722,0
847173,370.86,924,713,0
847183,368.16,924,722,0
847193,365.75,924,712,0
847203,362.27,924,722,0
847213,359.06,924,713,0
847223,354.89,924,722,0
847233,351.23,924,712,0
847243,347.14,924,722,0
847253,344.14,924,713,0
847263,340.97,924,722,0
847273,339.05,924,714,0
847283,337.19,924,722,0
847293,336.71,924,713,0
847303,336.24,924,722,0
847313,336.89,924,713,0
847323,337.31,924,722,0
847333,338.89,924,713,0
847343,340.12,924,722,0
847353,342.31,924,713,0
847363,344.06,924,722,0
847373,346.70,924,713,0
847383,348.72,924,722,0
847393,351.55,924,714,0
847404,353.65,924,722,0
847414,356.41,924,713,0
847424,358.09,924,722,0
847434,360.25,924,714,0
847444,361.25,924,722,0
847454,362.67,924,714,0
847464,362.86,924,722,0
847474,363.41,924,713,0
847484,362.78,924,722,0
847494,362.93,924,714,0
847504,362.56,924,722,0
847514,363.77,924,713,0
847524,365.51,924,722,0
847534,370.20,924,713,0
847544,377.08,924,722,0
847554,388.89,924,713,0
847574,405.03,963,713,0
847577,427.74,963,721,0
847586,456.53,963,722,0
847596,491.00,963,715,0
847606,527.64,963,722,0
847617,565.04,963,721,0
847627,600.30,963,716,0
847637,632.31,963,722,0
847647,658.92,963,715,0
847657,679.13,963,724,0
847667,693.27,963,716,0
847677,703.18,963,722,0
847687,710.07,963,715,0
847697,714.93,963,724,0
847707,718.34,963,716,0
847717,720.72,963,723,0
847727,722.35,963,715,0
847737,722.76,963,725,0
847747,719.32,963,716,0
847757,711.29,963,723,0
847767,696.63,963,715,0
847777,675.57,963,724,0
847788,647.29,963,716,0
847798,612.70,963,725,0
847808,572.46,963,710,0
847818,530.62,963,726,0
847828,488.22,963,708,0
847838,448.86,963,725,0
847848,412.47,963,711,0
847858,381.34,963,726,0
847868,354.88,963,708,0
847878,334.35,963,725,0
847888,318.60,963,711,0
847898,308.56,963,726,0
847908,302.69,963,708,0
847918,301.76,963,725,0
847928,303.93,963,711,0
847938,309.57,963,726,0
847948,317.20,963,708,0
847959,327.04,963,725,0
847969,337.44,963,709,0
847979,348.49,963,724,0
847989,358.85,963,710,0
848000,368.66,963,724,0
848009,376.95,963,709,0
848019,384.08,963,724,0
848029,389.24,963,710,0
848039,392.85,963,724,0
848049,394.53,963,709,0
848059,394.93,963,724,0
848069,394.09,963,709,0
848079,392.26,963,724,0
848089,389.23,963,709,0
848099,385.60,963,724,0
848109,381.39,963,710,0
848119,376.90,963,724,0
848129,371.96,963,709,0
848139,367.17,963,724,0
848149,362.41,963,710,0
848159,357.96,963,724,0
848169,353.81,963,708,0
848179,350.18,963,724,0
848189,347.04,963,710,0
848199,344.50,963,724,0
848209,342.38,963,708,0
848219,341.02,963,724,0
848229,340.12,963,710,0
848239,339.65,963,724,0
848249,339.54,963,708,0
848259,339.98,963,724,0
848269,340.67,963,709,0
848279,341.46,963,724,0
848289,342.35,963,708,0
848300,343.40,963,724,0
848310,344.61,963,709,0
848320,345.63,963,723,0
848330,346.72,963,710,0
848340,347.75,963,723,0
848350,349.11,963,709,0
848360,350.28,963,723,0
848370,351.78,963,710,0
848380,352.96,963,723,0
848390,354.64,963,709,0
848400,356.04,963,723,0
848410,357.78,963,711,0
848420,358.96,963,723,0
848430,360.26,963,709,0
848440,361.04,963,723,0
848450,362.10,963,710,0
848460,362.75,963,723,0
848471,364.16,963,712,0
848481,365.95,963,722,0
848491,369.91,963,712,0
848501,376.28,963,722,0
848521,386.57,947,720,0
848524,400.88,947,722,0
848533,422.30,947,714,0
848543,449.38,947,722,0
848553,482.87,947,715,0
848563,519.29,947,722,0
848573,556.62,947,713,0
848583,592.52,947,722,0
848593,625.92,947,714,0
848603,653.37,947,722,0
848613,675.25,947,713,0
848623,690.56,947,722,0
848633,701.32,947,714,0
848643,708.85,947,722,0
848653,714.17,947,714,0
848663,717.85,947,722,0
848673,720.46,947,714,0
848684,722.25,947,722,0
848694,722.73,947,714,0
848704,718.74,947,722,0
848714,709.91,947,715,0
848724,694.33,947,722,0
848734,672.72,947,714,0
848744,643.88,947,722,0
848754,609.03,947,715,0
848764,568.56,947,722,0
848774,527.29,947,714,0
848784,485.63,947,722,0
848794,446.96,947,715,0
848804,410.71,947,722,0
848814,379.73,947,714,0
848824,352.72,947,722,0
848834,331.89,947,715,0
848844,315.55,947,722,0
848855,305.36,947,718,0
848865,299.51,947,717,0
848875,299.14,947,723,0
848885,302.36,947,715,0
848896,309.79,947,722,0
848905,318.77,947,717,0
848915,330.11,947,723,0
848925,341.31,947,715,0
848935,353.51,947,723,0
848945,364.29,947,717,0
848955,374.70,947,723,0
848965,382.89,947,715,0
848975,390.38,947,722,0
848985,395.75,947,717,0
848995,400.20,947,723,0
849005,402.07,947,715,0
849015,403.16,947,722,0
849025,401.83,947,717,0
849035,400.21,947,723,0
849045,396.80,947,715,0
849055,393.05,947,723,0
849065,388.06,947,715,0
849075,383.63,947,723,0
849085,378.30,947,715,0
849095,373.97,947,723,0
849105,368.96,947,715,0
849115,364.90,947,723,0
849125,360.43,947,715,0
849135,357.00,947,723,0
849145,353.14,947,715,0
849155,350.57,947,723,0
849165,347.61,947,715,0
849175,345.89,947,723,0
849185,344.16,947,715,0
849196,343.69,947,724,0
849206,343.22,947,711,0
849216,343.80,947,726,0
849226,344.29,947,707,0
849236,345.62,947,725,0
849246,346.72,947,711,0
849256,348.43,947,726,0
849266,349.84,947,707,0
849276,351.65,947,725,0
849286,353.34,947,711,0
849296,355.29,947,726,0
849306,356.62,947,706,0
849316,358.06,947,725,0
849326,358.77,947,711,0
849336,359.70,947,726,0
849346,360.13,947,706,0
849356,360.69,947,725,0
849367,361.47,947,708,0
849377,363.90,947,723,0
849387,368.26,947,709,0
849397,375.98,947,724,0
849408,387.52,947,708,0
849417,404.59,947,724,0
849427,427.43,947,709,0
849446,456.23,926,708,0
849449,490.32,926,713,0
849458,527.04,926,724,0
849468,564.05,926,709,0
849478,599.27,926,724,0
849488,630.77,926,711,0
849498,657.20,926,724,0
849508,677.92,926,709,0
849518,692.48,926,724,0
849528,702.70,926,711,0
849538,709.82,926,724,0
849548,714.80,926,709,0
849558,716.41,926,724,0
849568,713.37,926,711,0
849579,704.34,926,723,0
849588,689.33,926,708,0
849598,667.71,926,723,0
849608,639.73,926,711,0
849618,605.35,926,723,0
849628,567.23,926,708,0
849638,527.35,926,724,0
849648,488.07,926,711,0
849658,449.99,926,723,0
849668,414.90,926,708,0
849678,383.26,926,723,0
849688,356.35,926,710,0
849698,333.83,926,723,0
849708,316.52,926,708,0
849718,304.15,926,724,0
849728,297.21,926,710,0
849738,294.74,926,723,0
849748,296.96,926,711,0
849758,302.33,926,723,0
849768,310.76,926,710,0
849778,320.86,926,723,0
849788,332.52,926,711,0
849798,344.45,926,724,0
849808,356.53,926,710,0
849818,367.43,926,723,0
849828,377.67,926,711,0
849838,386.34,926,723,0
849848,393.82,926,710,0
849858,399.19,926,723,0
849868,403.21,926,711,0
849879,405.12,926,723,0
849889,405.98,926,712,0
849899,404.83,926,722,0
849909,402.91,926,713,0
849920,399.42,926,722,0
849929,395.74,926,712,0
849939,390.93,926,722,0
849949,386.49,926,713,0
849959,381.25,926,722,0
849969,376.76,926,713,0
849979,371.82,926,722,0
849989,367.97,926,713,0
849999,363.78,926,722,0
850009,360.67,926,713,0
850019,357.34,926,722,0
850029,355.31,926,713,0
850039,353.16,926,722,0
850049,352.17,926,713,0
850059,350.96,926,722,0
850069,351.02,926,713,0
850079,350.84,926,722,0
850089,351.83,926,714,0
850099,352.44,926,722,0
850109,354.02,926,713,0
850119,355.00,926,722,0
850129,356.80,926,714,0
850139,357.89,926,722,0
850149,359.59,926,713,0
850159,360.32,926,722,0
850169,361.72,926,714,0
850179,362.45,926,722,0
850189,364.28,926,713,0
850199,366.08,926,722,0
850209,369.92,926,714,0
850220,375.17,926,722,0
850230,384.38,926,713,0
850240,396.91,926,722,0
850250,415.49,926,714,0
850260,439.34,926,722,0
850270,469.88,926,713,0
850289,504.46,843,713,0
850292,541.31,843,718,0
850301,577.43,843,722,0
850311,611.72,843,714,0
850321,641.42,843,722,0
850331,666.02,843,715,0
850341,684.10,843,722,0
850351,696.80,843,714,0
850361,705.69,843,722,0
850371,711.95,843,715,0
850381,716.30,843,722,0
850391,719.34,843,714,0
850401,718.21,843,722,0
850411,712.70,843,715,0
850421,700.92,843,722,0
850432,683.29,843,714,0
850441,658.86,843,722,0
850451,628.77,843,714,0
850461,592.37,843,722,0
850471,554.16,843,714,0
850481,514.34,843,722,0
850491,476.52,843,715,0
850501,440.19,843,722,0
850511,407.95,843,714,0
850521,378.61,843,722,0
850531,354.51,843,715,0
850541,334.13,843,722,0
850551,319.39,843,714,0
850561,308.30,843,722,0
850571,302.81,843,715,0
850581,300.73,843,722,0
850591,303.38,843,714,0
850601,308.32,843,722,0
850611,316.71,843,715,0
850621,325.93,843,722,0
850631,337.22,843,714,0
850641,347.91,843,722,0
850651,359.29,843,715,0
850661,369.06,843,722,0
850671,378.64,843,714,0
850681,385.82,843,722,0
850691,392.48,843,714,0
850701,396.58,843,722,0
850711,399.96,843,715,0
850721,400.83,843,722,0
850732,401.09,843,717,0
850742,399.14,843,718,0
850752,397.04,843,722,0
850762,393.13,843,714,0
850772,389.40,843,722,0
850782,384.27,843,718,0
850792,379.69,843,722,0
850802,374.17,843,714,0
850812,369.53,843,722,0
850822,364.31,843,718,0
850832,360.28,843,722,0
850842,355.87,843,714,0
850852,352.73,843,722,0
850862,349.30,843,718,0
850872,347.24,843,722,0
850882,345.02,843,714,0
850892,344.16,843,722,0
850903,343.17,843,714,0
850913,343.46,843,723,0
850923,343.71,843,711,0
850933,345.12,843,726,0
850944,346.33,843,705,0
850953,348.50,843,722,0
850963,350.32,843,710,0
850973,353.10,843,726,0
850983,355.25,843,706,0
850993,357.83,843,722,0
851003,359.73,843,710,0
851013,361.91,843,726,0
851023,363.31,843,706,0
851033,365.02,843,722,0
851043,365.91,843,711,0
851053,367.95,843,726,0
851063,370.79,843,706,0
851073,376.30,843,722,0
851083,384.61,843,711,0
851093,397.97,843,728,0
851103,416.79,843,706,0
851113,442.57,843,725,0
851132,474.16,843,723,0
851135,509.98,843,725,0
851144,547.19,843,709,0
851154,583.86,843,724,0
851164,617.59,843,706,0
851174,646.81,843,724,0
851184,670.01,843,709,0
851194,687.02,843,724,0
851204,698.97,843,706,0
851214,707.34,843,724,0
851224,713.24,843,709,0
851234,717.37,843,724,0
851244,720.26,843,706,0
851254,721.94,843,724,0
851264,720.03,843,709,0
851274,713.25,843,724,0
851284,700.57,843,707,0
851294,681.89,843,724,0
851304,656.55,843,709,0
851314,624.93,843,724,0
851324,587.71,843,707,0
851334,548.19,843,724,0
851344,508.19,843,709,0
851354,469.61,843,724,0
851364,433.38,843,707,0
851374,400.87,843,724,0
851384,372.19,843,709,0
851394,347.88,843,724,0
851404,327.94,843,707,0
851415,312.62,843,724,0
851425,301.85,843,708,0
851435,295.16,843,724,0
851445,292.50,843,710,0
851456,293.38,843,723,0
851465,297.34,843,708,0
851475,303.92,843,724,0
851485,312.60,843,710,0
851495,322.36,843,723,0
851505,332.93,843,708,0
851515,343.19,843,724,0
851525,353.33,843,710,0
851535,362.49,843,723,0
851545,370.53,843,708,0
851555,376.84,843,723,0
851565,381.99,843,710,0
851575,385.29,843,723,0
851585,387.60,843,709,0
851595,388.19,843,724,0
851605,387.71,843,710,0
851615,385.82,843,723,0
851625,383.18,843,712,0
851635,379.44,843,724,0
851645,375.36,843,710,0
851655,370.58,843,723,0
851665,365.87,843,711,0
851675,360.98,843,724,0
851685,356.48,843,710,0
851695,351.84,843,723,0
851705,347.73,843,712,0
851715,344.00,843,724,0
851725,341.43,843,710,0
851735,339.11,843,723,0
851745,337.84,843,712,0
851756,336.56,843,723,0
851766,336.73,843,713,0
851776,336.73,843,722,0
851786,337.88,843,714,0
851796,338.26,843,722,0
851806,339.42,843,712,0
851816,340.03,843,723,0
851826,341.60,843,713,0
851836,342.75,843,722,0
851846,344.93,843,712,0
851856,346.41,843,723,0
851866,348.77,843,713,0
851876,350.42,843,722,0
851886,352.61,843,712,0
851896,353.93,843,723,0
851906,355.62,843,713,0
851916,356.59,843,722,0
851927,357.91,843,714,0
851937,358.63,843,722,0
851947,360.62,843,714,0
851957,362.71,843,722,0
851968,366.91,843,714,0
851977,372.42,843,723,0
851987,381.98,843,714,0
851997,395.06,843,722,0
852007,414.63,843,714,0
852026,439.21,894,713,0
852029,470.86,894,715,0
852038,506.30,894,722,0
852048,543.88,894,714,0
852058,580.30,894,722,0
852068,614.76,894,714,0
852078,644.14,894,722,0
852088,668.44,894,714,0
852098,685.88,894,722,0
852108,698.13,894,714,0
852118,706.71,894,722,0
852128,712.75,894,715,0
852139,716.94,894,722,0
852148,719.92,894,714,0
852158,721.83,894,722,0
852168,721.19,894,715,0
852178,715.39,894,722,0
852188,704.52,894,714,0
852198,686.83,894,722,0
852208,662.93,894,715,0
852218,632.09,894,722,0
852228,595.94,894,714,0
852238,555.75,894,722,0
852248,515.80,894,715,0
852258,475.75,894,722,0
852268,439.09,894,714,0
852278,405.04,894,722,0
852288,375.93,894,714,0
852298,350.19,894,722,0
852308,329.95,894,715,0
852318,313.42,894,722,0
852328,302.54,894,715,0
852338,295.13,894,722,0
852348,292.74,894,715,0
852358,293.12,894,722,0
852368,297.58,894,715,0
852378,303.75,894,722,0
852388,312.65,894,715,0
852398,321.67,894,722,0
852408,332.18,894,715,0
852418,341.77,894,722,0
852428,351.91,894,715,0
852439,360.25,894,722,0
852449,368.32,894,716,0
852459,374.27,894,718,0
852469,379.84,894,722,0
852480,383.02,894,715,0
852489,385.80,894,716,0
852499,386.29,894,718,0
852509,386.42,894,723,0
852519,384.53,894,715,0
852529,382.62,894,716,0
852539,378.96,894,718,0
852549,375.54,894,723,0
852559,370.88,894,715,0
852569,366.89,894,716,0
852579,361.86,894,718,0
852589,357.79,894,723,0
852599,352.97,894,715,0
852609,349.46,894,716,0
852619,345.60,894,718,0
852629,342.97,894,723,0
852639,339.85,894,715,0
852649,338.14,894,722,0
852659,335.96,894,718,0
852669,335.11,894,723,0
852679,333.79,894,715,0
852689,333.81,894,722,0
852699,333.48,894,718,0
852709,334.45,894,723,0
852719,335.09,894,715,0
852729,336.90,894,722,0
852739,338.18,894,718,0
852749,340.52,894,723,0
852759,342.08,894,715,0
852769,344.33,894,722,0
852780,345.77,894,712,0
852790,347.73,894,723,0
852800,348.88,894,711,0
852810,350.50,894,726,0
852820,351.25,894,704,0
852830,352.55,894,723,0
852840,352.90,894,711,0
852850,353.74,894,726,0
852860,353.78,894,704,0
852870,354.36,894,723,0
852880,354.46,894,711,0
852890,355.53,894,726,0
852900,357.12,894,704,0
852910,361.20,894,723,0
852920,367.48,894,711,0
852930,378.40,894,726,0
852950,393.92,923,724,0
852953,415.80,923,724,0
852962,444.53,923,708,0
852972,479.43,923,725,0
852982,517.19,923,708,0
852993,555.87,923,724,0
853003,592.73,923,711,0
853013,626.28,923,724,0
853023,654.78,923,711,0
853033,676.45,923,723,0
853043,691.61,923,711,0
853053,702.23,923,724,0
853063,709.66,923,712,0
853073,714.86,923,723,0
853083,718.55,923,711,0
853093,721.13,923,724,0
853103,722.24,923,712,0
853113,719.51,923,723,0
853123,712.12,923,711,0
853133,698.62,923,723,0
853143,678.72,923,712,0
853153,651.76,923,723,0
853164,618.66,923,713,0
853174,579.85,923,723,0
853184,539.14,923,713,0
853194,497.40,923,723,0
853204,458.19,923,714,0
853214,421.28,923,723,0
853224,388.67,923,713,0
853234,359.71,923,722,0
853244,336.22,923,714,0
853254,317.00,923,723,0
853264,303.50,923,713,0
853274,293.45,923,722,0
853284,288.77,923,714,0
853294,287.68,923,723,0
853304,290.91,923,713,0
853314,296.42,923,722,0
853324,305.08,923,714,0
853335,314.53,923,722,0
853345,325.77,923,713,0
853355,336.47,923,722,0
853365,347.77,923,714,0
853376,357.74,923,722,0
853385,367.46,923,714,0
853395,375.12,923,722,0
853405,382.24,923,714,0
853415,386.93,923,722,0
853425,390.89,923,714,0
853435,392.34,923,723,0
853445,393.05,923,714,0
853455,391.45,923,723,0
853465,389.34,923,714,0
853475,385.38,923,722,0
853485,381.54,923,714,0
853495,376.28,923,722,0
853505,371.65,923,714,0
853515,366.10,923,723,0
853525,361.57,923,714,0
853535,356.43,923,723,0
853545,352.53,923,714,0
853555,348.17,923,722,0
853565,345.25,923,714,0
853575,342.00,923,722,0
853585,340.46,923,714,0
853595,338.48,923,722,0
853605,337.95,923,714,0
853615,336.94,923,722,0
853625,337.38,923,714,0
853635,337.44,923,722,0
853645,338.85,923,714,0
853655,339.50,923,722,0
853665,341.49,923,714,0
853676,342.80,923,722,0
853686,345.30,923,715,0
853696,346.97,923,722,0
853706,349.64,923,715,0
853716,351.29,923,722,0
853726,353.73,923,715,0
853736,355.01,923,722,0
853746,357.02,923,715,0
853756,357.79,923,722,0
853766,359.27,923,715,0
853776,359.44,923,722,0
853786,360.55,923,715,0
853796,360.99,923,722,0
853806,363.22,923,715,0
853816,365.94,923,722,0
853826,371.83,923,715,0
853836,380.19,923,722,0
853847,393.85,923,716,0
853857,411.94,923,719,0
853876,436.86,927,714,0
853879,466.81,927,706,0
853889,501.88,927,727,0
853899,538.56,927,708,0
853909,575.25,927,726,0
853919,609.25,927,707,0
853929,639.60,927,725,0
853939,664.19,927,708,0
853949,683.03,927,726,0
853959,696.22,927,707,0
853969,705.46,927,725,0
853979,711.88,927,708,0
853989,714.66,927,726,0
853999,712.32,927,707,0
854009,704.46,927,725,0
854019,690.44,927,707,0
854029,670.46,927,726,0
854039,643.93,927,707,0
854049,611.50,927,725,0
854060,574.97,927,710,0
854070,537.05,927,724,0
854080,498.89,927,708,0
854090,461.98,927,725,0
854100,427.19,927,709,0
854110,395.97,927,724,0
854120,368.30,927,708,0
854130,344.94,927,725,0
854140,325.97,927,709,0
854150,311.75,927,724,0
854160,302.18,927,708,0
854170,296.73,927,725,0
854180,295.27,927,709,0
854190,297.50,927,724,0
854200,302.75,927,708,0
854210,310.24,927,725,0
854220,319.60,927,709,0
854231,329.87,927,724,0
854241,340.93,927,710,0
854251,351.58,927,724,0
854261,361.82,927,712,0
854272,370.83,927,723,0
854281,378.85,927,710,0
854291,385.15,927,724,0
854301,390.51,927,712,0
854311,393.87,927,723,0
854321,396.14,927,710,0
854331,396.61,927,723,0
854341,396.21,927,712,0
854351,394.31,927,723,0
854361,391.69,927,710,0
854371,387.75,927,724,0
854381,383.75,927,712,0
854391,378.94,927,723,0
854401,374.33,927,710,0
854411,369.39,927,724,0
854421,365.12,927,712,0
854431,360.62,927,723,0
854441,356.96,927,712,0
854451,353.29,927,724,0
854461,350.63,927,712,0
854471,348.04,927,723,0
854481,346.49,927,712,0
854491,345.10,927,724,0
854501,344.90,927,712,0
854511,344.80,927,723,0
854521,345.80,927,712,0
854531,346.89,927,724,0
854541,348.98,927,712,0
854551,350.83,927,723,0
854561,353.24,927,712,0
854572,355.09,927,723,0
854582,357.34,927,714,0
854592,358.74,927,722,0
854602,360.44,927,714,0
854612,361.21,927,723,0
854622,362.60,927,714,0
854632,363.71,927,722,0
854642,366.37,927,713,0
854652,369.86,927,723,0
854662,376.41,927,713,0
854672,385.63,927,722,0
854682,400.10,927,714,0
854692,419.06,927,723,0
854702,444.41,927,714,0
854721,474.72,845,713,0
854724,509.60,845,715,0
854733,545.72,845,723,0
854743,581.63,845,714,0
854753,614.57,845,723,0
854763,643.76,845,714,0
854773,667.27,845,723,0
854784,685.11,845,714,0
854793,697.55,845,722,0
854803,706.30,845,714,0
854813,712.38,845,722,0
854823,716.68,845,715,0
854833,716.86,845,723,0
854843,712.70,845,714,0
854853,702.33,845,722,0
854863,686.21,845,714,0
854873,663.26,845,722,0
854883,634.42,845,714,0
854893,599.03,845,722,0
854903,561.22,845,714,0
854913,521.30,845,722,0
854923,482.85,845,714,0
854933,445.35,845,722,0
854943,411.60,845,714,0
854953,380.48,845,722,0
854963,354.41,845,714,0
854973,331.87,845,722,0
854983,314.98,845,714,0
854993,301.96,845,722,0
855003,294.68,845,714,0
855013,290.97,845,722,0
855023,292.35,845,714,0
855033,296.44,845,722,0
855043,304.45,845,714,0
855053,313.87,845,722,0
855063,325.78,845,714,0
855073,337.42,845,722,0
855084,350.11,845,715,0
855094,361.30,845,722,0
855104,372.36,845,715,0
855114,381.12,845,722,0
855124,389.01,845,715,0
855134,394.07,845,722,0
855144,398.20,845,715,0
855154,399.64,845,722,0
855164,400.48,845,715,0
855174,399.09,845,722,0
855184,397.52,845,715,0
855194,394.15,845,722,0
855204,390.93,845,715,0
855214,386.33,845,722,0
855224,382.24,845,715,0
855234,376.98,845,722,0
855244,372.49,845,715,0
855255,367.16,845,719,0
855265,362.91,845,722,0
855275,358.31,845,715,0
855285,355.09,845,722,0
855296,351.55,845,714,0
855305,349.45,845,722,0
855315,347.09,845,715,0
855325,346.08,845,722,0
855335,344.90,845,714,0
855345,345.01,845,722,0
855355,344.75,845,715,0
855365,345.81,845,722,0
855375,346.51,845,714,0
855385,348.42,845,722,0
855395,349.53,845,715,0
855405,351.30,845,722,0
855415,352.37,845,714,0
855425,354.19,845,722,0
855435,355.16,845,715,0
855445,356.83,845,722,0
855455,357.78,845,714,0
855465,360.20,845,723,0
855475,362.93,845,715,0
855485,368.01,845,722,0
855495,374.90,845,714,0
855505,386.25,845,723,0
855515,401.56,845,715,0
855525,423.46,845,722,0
855535,450.84,845,714,0
855555,484.57,833,712,0
855558,521.00,833,710,0
855567,558.54,833,725,0
855577,594.21,833,709,0
855587,627.02,833,724,0
855597,654.44,833,706,0
855607,676.17,833,725,0
855617,691.37,833,708,0
855627,702.06,833,724,0
855638,709.54,833,709,0
855647,714.78,833,725,0
855657,718.45,833,708,0
855667,720.24,833,724,0
855677,718.28,833,708,0
855687,711.86,833,725,0
855697,699.68,833,708,0
855707,681.48,833,724,0
855717,656.86,833,708,0
855727,626.39,833,725,0
855737,590.83,833,708,0
855747,553.04,833,724,0
855757,514.33,833,708,0
855767,477.03,833,724,0
855777,441.71,833,709,0
855787,409.65,833,724,0
855797,380.91,833,708,0
855808,356.30,833,725,0
855817,335.76,833,708,0
855827,319.76,833,724,0
855837,308.09,833,708,0
855847,301.12,833,725,0
855857,297.87,833,708,0
855867,298.17,833,724,0
855877,301.33,833,708,0
855887,306.93,833,724,0
855897,314.15,833,708,0
855907,322.59,833,724,0
855917,331.46,833,708,0
855927,340.66,833,724,0
855937,349.59,833,709,0
855947,358.24,833,724,0
855957,366.10,833,708,0
855967,372.97,833,724,0
855977,378.46,833,708,0
855987,382.74,833,724,0
855997,385.73,833,708,0
856007,387.48,833,724,0
856017,387.98,833,708,0
856027,387.47,833,724,0
856037,385.87,833,708,0
856047,383.08,833,725,0
856057,379.42,833,708,0
856067,375.18,833,724,0
856077,370.67,833,709,0
856087,365.58,833,725,0
856097,360.39,833,708,0
856108,355.26,833,724,0
856118,350.85,833,710,0
856128,346.57,833,724,0
856138,343.01,833,712,0
856148,339.54,833,723,0
856158,337.10,833,711,0
856168,334.97,833,724,0
856178,333.78,833,712,0
856188,332.65,833,723,0
856198,332.54,833,710,0
856208,332.59,833,723,0
856218,333.66,833,712,0
856228,334.57,833,723,0
856238,336.24,833,710,0
856248,337.84,833,724,0
856258,340.12,833,711,0
856268,341.97,833,723,0
856279,344.34,833,713,0
856289,346.12,833,723,0
856299,348.44,833,713,0
856309,349.98,833,722,0
856320,352.00,833,714,0
856329,353.46,833,723,0
856339,356.11,833,713,0
856349,359.07,833,722,0
856359,364.75,833,714,0
856369,372.54,833,723,0
856379,385.15,833,713,0
856389,402.20,833,722,0
856399,426.36,833,714,0
856409,456.08,833,723,0
856428,491.37,874,721,0
856431,528.67,874,723,0
856440,566.57,874,714,0
856450,602.14,874,723,0
856460,634.16,874,714,0
856470,660.17,874,723,0
856480,680.26,874,714,0
856491,694.32,874,723,0
856500,704.17,874,714,0
856510,711.02,874,723,0
856520,715.86,874,714,0
856530,719.24,874,723,0
856540,721.66,874,714,0
856550,720.39,874,723,0
856560,715.00,874,714,0
856570,703.30,874,723,0
856580,685.98,874,714,0
856590,661.64,874,723,0
856600,631.58,874,714,0
856610,594.98,874,723,0
856620,556.41,874,714,0
856630,515.92,874,722,0
856640,477.37,874,714,0
856650,439.89,874,723,0
856660,406.58,874,714,0
856670,375.98,874,722,0
856680,350.61,874,714,0
856690,328.49,874,722,0
856700,311.97,874,714,0
856710,299.04,874,722,0
856720,291.48,874,714,0
856730,287.01,874,723,0
856740,287.35,874,714,0
856750,289.86,874,722,0
856760,296.24,874,714,0
856770,303.71,874,723,0
856780,313.70,874,714,0
856791,323.39,874,722,0
856801,334.33,874,715,0
856811,343.79,874,722,0
856821,353.49,874,715,0
856832,360.89,874,722,0
856841,367.99,874,715,0
856851,372.67,874,722,0
856861,376.92,874,715,0
856871,378.70,874,722,0
856881,380.08,874,715,0
856891,379.15,874,722,0
856901,378.04,874,715,0
856911,374.85,874,722,0
856921,371.73,874,715,0
856931,366.92,874,722,0
856941,362.66,874,715,0
856951,357.15,874,722,0
856961,352.69,874,715,0
856971,347.43,874,722,0
856981,343.53,874,715,0
856991,339.08,874,722,0
857001,336.19,874,715,0
857011,332.79,874,722,0
857021,331.05,874,715,0
857031,328.94,874,722,0
857041,328.53,874,715,0
857051,327.68,874,722,0
857061,328.29,874,715,0
857071,328.33,874,722,0
857081,330.03,874,715,0
857091,331.01,874,722,0
857101,333.11,874,715,0
857111,334.15,874,722,0
857121,336.16,874,715,0
857132,337.31,874,719,0
857142,339.53,874,722,0
857152,340.57,874,715,0
857162,342.59,874,722,0
857172,343.61,874,712,0
857182,345.53,874,722,0
857192,346.31,874,715,0
857202,347.76,874,722,0
857212,348.26,874,712,0
857222,349.68,874,722,0
857232,350.29,874,714,0
857242,352.18,874,722,0
857252,354.44,874,712,0
857262,359.49,874,722,0
857272,366.80,874,714,0
857282,378.90,874,722,0
857292,395.48,874,712,0
857312,419.16,884,711,0
857315,449.07,884,709,0
857324,484.83,884,725,0
857334,522.90,884,709,0
857345,561.59,884,724,0
857355,597.97,884,708,0
857365,630.85,884,725,0
857375,657.94,884,708,0
857385,678.61,884,724,0
857395,693.09,884,708,0
857405,703.26,884,725,0
857415,710.43,884,709,0
857425,715.48,884,724,0
857435,719.02,884,708,0
857445,721.46,884,725,0
857455,722.22,884,709,0
857465,719.20,884,724,0
857475,711.21,884,708,0
857485,697.30,884,725,0
857495,676.81,884,708,0
857505,649.44,884,724,0
857516,615.75,884,710,0
857526,576.65,884,724,0
857536,535.40,884,712,0
857546,493.41,884,723,0
857556,453.09,884,712,0
857566,415.47,884,724,0
857576,382.16,884,712,0
857586,352.84,884,723,0
857596,329.10,884,713,0
857606,310.13,884,724,0
857616,297.06,884,712,0
857626,288.34,884,723,0
857636,284.77,884,712,0
857646,284.54,884,723,0
857656,288.28,884,711,0
857666,293.98,884,723,0
857676,302.43,884,712,0
857687,311.51,884,723,0
857697,322.16,884,713,0
857707,332.27,884,722,0
857717,343.07,884,714,0
857728,352.52,884,722,0
857737,361.79,884,713,0
857747,368.93,884,722,0
857757,375.38,884,714,0
857767,379.25,884,722,0
857777,382.35,884,713,0
857787,383.06,884,722,0
857797,383.73,884,714,0
857807,382.52,884,723,0
857817,381.42,884,714,0
857827,378.81,884,723,0
857837,376.55,884,714,0
857847,372.92,884,723,0
857857,369.81,884,714,0
857867,365.24,884,723,0
857877,361.40,884,714,0
857887,356.39,884,723,0
857897,352.50,884,714,0
857907,347.94,884,723,0
857917,344.57,884,714,0
857927,340.50,884,722,0
857937,337.82,884,714,0
857947,334.70,884,722,0
857957,333.16,884,714,0
857967,331.06,884,723,0
857977,330.57,884,714,0
857987,329.97,884,723,0
857997,331.18,884,714,0
858007,331.81,884,722,0
858017,333.88,884,714,0
858028,335.25,884,722,0
858038,337.87,884,714,0
858048,339.58,884,722,0
858058,342.28,884,714,0
858068,343.91,884,722,0
858078,346.77,884,714,0
858088,348.25,884,722,0
858098,350.62,884,714,0
858108,351.63,884,722,0
858118,353.54,884,714,0
858128,354.07,884,722,0
858138,355.46,884,714,0
858148,355.71,884,722,0
858158,357.72,884,714,0
858168,359.86,884,722,0
858178,365.26,884,714,0
858188,372.85,884,722,0
858199,386.06,884,715,0
858209,403.82,884,722,0
858228,429.03,916,721,0
858231,459.80,916,709,0
858241,495.99,916,722,0
858251,533.75,916,712,0
858261,571.71,916,722,0
858271,606.77,916,710,0
858281,638.12,916,724,0
858291,663.33,916,712,0
858301,682.43,916,722,0
858311,695.80,916,710,0
858321,705.20,916,724,0
858331,711.79,916,712,0
858341,716.44,916,722,0
858351,719.69,916,710,0
858361,721.15,916,724,0
858371,718.45,916,712,0
858381,711.16,916,721,0
858391,697.40,916,710,0
858401,677.35,916,724,0
858412,650.20,916,702,0
858422,616.88,916,726,0
858432,578.09,916,705,0
858442,537.39,916,725,0
858452,495.75,916,709,0
858462,456.48,916,726,0
858472,419.65,916,705,0
858482,387.27,916,725,0
858492,358.95,916,709,0
858502,335.90,916,726,0
858512,317.50,916,704,0
858522,304.58,916,725,0
858532,295.92,916,709,0
858542,292.09,916,726,0
858552,291.76,916,704,0
858562,295.00,916,725,0
858572,300.70,916,709,0
858583,308.94,916,725,0
858593,318.43,916,709,0
858603,328.93,916,725,0
858613,339.62,916,708,0
858624,350.23,916,725,0
858633,360.19,916,709,0
858643,369.31,916,725,0
858653,377.01,916,709,0
858663,383.01,916,725,0
858673,387.38,916,709,0
858683,390.18,916,725,0
858693,391.67,916,708,0
858703,391.68,916,725,0
858713,390.41,916,709,0
858723,388.10,916,725,0
858733,385.33,916,708,0
858743,381.76,916,725,0
858753,377.63,916,709,0
858763,373.28,916,725,0
858773,369.13,916,708,0
858783,364.93,916,725,0
858793,361.05,916,711,0
858803,357.18,916,725,0
858813,353.83,916,708,0
858823,350.66,916,725,0
858833,348.06,916,711,0
858843,345.69,916,725,0
858853,344.02,916,708,0
858863,342.56,916,725,0
858873,341.96,916,710,0
858883,341.89,916,725,0
858893,342.65,916,708,0
858903,343.48,916,725,0
858913,344.97,916,711,0
858924,346.43,916,724,0
858934,348.36,916,712,0
858944,349.71,916,724,0
858954,351.43,916,713,0
858964,352.50,916,723,0
858974,354.02,916,712,0
858984,354.79,916,724,0
858994,356.22,916,713,0
859004,357.27,916,723,0
859014,359.89,916,712,0
859024,363.35,916,724,0
859034,370.06,916,713,0
859044,379.26,916,723,0
859054,393.28,916,712,0
859064,411.62,916,724,0
859074,436.47,916,713,0
859094,466.28,865,713,0
859097,501.00,865,716,0
859106,537.21,865,723,0
859116,573.53,865,715,0
859126,607.45,865,723,0
859137,637.87,865,714,0
859147,662.81,865,723,0
859157,682.15,865,715,0
859167,695.73,865,723,0
859177,705.29,865,715,0
859187,710.99,865,723,0
859197,713.00,865,715,0
859207,709.36,865,723,0
859217,700.51,865,715,0
859227,685.06,865,723,0
859237,663.91,865,715,0
859247,635.91,865,723,0
859257,603.49,865,715,0
859267,566.87,865,723,0
859277,530.31,865,715,0
859287,493.06,865,723,0
859297,458.33,865,715,0
859308,425.10,865,723,0
859318,396.27,865,715,0
859328,369.96,865,722,0
859338,348.54,865,721,0
859348,330.12,865,716,0
859358,317.06,865,715,0
859368,307.31,865,722,0
859378,302.76,865,721,0
859388,301.12,865,716,0
859398,304.17,865,715,0
859408,309.30,865,722,0
859418,317.83,865,721,0
859428,327.26,865,716,0
859438,338.80,865,715,0
859448,349.79,865,722,0
859458,361.51,865,722,0
859468,371.81,865,715,0
859479,382.07,865,722,0
859489,389.98,865,711,0
859499,396.84,865,720,0
859509,401.09,865,709,0
859520,404.28,865,722,0
859529,405.09,865,711,0
859539,405.02,865,721,0
859549,402.66,865,710,0
859559,399.89,865,723,0
859569,395.59,865,711,0
859579,391.43,865,721,0
859589,386.33,865,709,0
859599,381.65,865,723,0
859609,376.22,865,711,0
859619,371.74,865,721,0
859629,367.06,865,709,0
859639,363.66,865,723,0
859649,359.95,865,711,0
859659,357.35,865,721,0
859669,354.54,865,709,0
859679,352.84,865,723,0
859689,351.04,865,703,0
859699,350.30,865,721,0
859709,349.27,865,709,0
859719,349.45,865,723,0
859729,349.57,865,703,0
859739,350.90,865,721,0
859749,351.87,865,709,0
859759,353.62,865,723,0
859769,354.77,865,703,0
859779,356.68,865,721,0
859789,358.06,865,709,0
859799,360.36,865,723,0
859809,362.74,865,702,0
859820,367.27,865,725,0
859830,373.58,865,704,0
859840,383.82,865,725,0
859850,397.89,865,710,0
859860,418.02,865,725,0
859870,443.39,865,704,0
859880,475.33,865,726,0
859899,510.89,806,724,0
859902,547.99,806,725,0
859911,584.08,806,710,0
859921,617.66,806,726,0
859931,646.60,806,709,0
859941,670.29,806,725,0
859951,687.35,806,710,0
859961,699.33,806,726,0
859971,707.84,806,709,0
859981,713.81,806,725,0
859991,717.98,806,710,0
860001,720.86,806,726,0
860011,722.14,806,709,0
860021,719.91,806,725,0
860032,712.87,806,711,0
860041,700.01,806,725,0
860051,680.68,806,709,0
860061,654.46,806,725,0
860071,621.84,806,710,0
860081,584.00,806,726,0
860091,543.59,806,709,0
860101,502.22,806,725,0
860111,462.26,806,710,0
860121,424.98,806,726,0
860131,391.86,806,709,0
860141,362.80,806,725,0
860151,338.69,806,710,0
860161,319.45,806,726,0
860171,305.82,806,709,0
860181,297.00,806,725,0
860191,293.27,806,710,0
860201,293.45,806,724,0
860211,297.60,806,709,0
860221,304.32,806,725,0
860231,313.52,806,710,0
860241,323.91,806,724,0
860251,335.12,806,709,0
860261,345.89,806,725,0
860271,356.68,806,710,0
860281,366.29,806,724,0
860291,374.94,806,709,0
860301,381.86,806,725,0
860311,387.73,806,710,0
860321,391.54,806,724,0
860332,394.42,806,712,0
860342,395.24,806,724,0
860352,395.51,806,713,0
860362,394.03,806,724,0
860372,392.26,806,714,0
860382,388.97,806,724,0
860392,385.89,806,713,0
860402,381.60,806,724,0
860412,377.82,806,714,0
860422,372.99,806,724,0
860432,368.88,806,713,0
860442,364.03,806,724,0
860452,360.21,806,714,0
860462,355.94,806,724,0
860472,352.96,806,713,0
860482,349.54,806,724,0
860492,347.49,806,714,0
860503,345.33,806,723,0
860513,344.59,806,714,0
860523,343.47,806,723,0
860533,343.63,806,715,0
860544,343.18,806,723,0
860553,344.11,806,714,0
860563,344.51,806,723,0
860573,346.37,806,715,0
860583,347.29,806,723,0
860593,349.52,806,714,0
860603,350.95,806,723,0
860613,353.58,806,715,0
860623,355.12,806,723,0
860633,357.44,806,714,0
860643,358.64,806,723,0
860653,361.36,806,715,0
860663,363.82,806,723,0
860673,368.80,806,714,0
860683,375.55,806,723,0
860693,387.43,806,715,0
860703,403.71,806,724,0
860713,427.11,806,714,0
860723,455.97,806,723,0
860742,490.86,843,722,0
860745,528.06,843,724,0
860754,565.97,843,715,0
860764,601.38,843,724,0
860774,633.41,843,715,0
860784,659.56,843,723,0
860794,679.92,843,715,0
860804,694.13,843,724,0
860814,704.12,843,715,0
860824,711.15,843,723,0
860834,716.12,843,715,0
860844,719.56,843,723,0
860854,722.00,843,715,0
860864,722.65,843,723,0
860874,720.48,843,715,0
860884,712.88,843,723,0
860894,700.14,843,715,0
860904,680.43,843,723,0
860914,654.33,843,715,0
860924,621.10,843,723,0
860934,583.49,843,715,0
860944,542.07,843,723,0
860954,501.08,843,715,0
860964,459.61,843,723,0
860974,421.80,843,715,0
860984,386.67,843,723,0
860994,357.11,843,715,0
861004,330.81,843,723,0
861015,310.47,843,715,0
861025,294.25,843,723,0
861035,284.75,843,715,0
861045,278.95,843,723,0
861056,279.01,843,720,0
861065,282.18,843,723,0
861075,290.44,843,715,0
861085,300.68,843,723,0
861095,313.80,843,721,0
861105,326.72,843,723,0
861115,340.78,843,715,0
861125,353.01,843,723,0
861135,364.50,843,721,0
861145,373.09,843,723,0
861155,380.39,843,715,0
861165,384.05,843,722,0
861175,386.09,843,720,0
861185,384.91,843,723,0
861195,383.01,843,715,0
861205,378.76,843,722,0
861215,374.16,843,720,0
861225,367.68,843,716,0
861235,362.34,843,715,0
861245,356.28,843,722,0
861255,351.91,843,720,0
861265,346.88,843,716,0
861275,343.40,843,715,0
861285,339.51,843,722,0
861295,337.51,843,720,0
861305,335.60,843,715,0
861315,335.55,843,715,0
861325,334.96,843,722,0
861335,335.40,843,720,0
861345,334.85,843,716,0
861356,335.07,843,722,0
861366,333.89,843,711,0
861376,332.98,843,721,0
861386,330.89,843,709,0
861396,329.63,843,721,0
861406,328.03,843,711,0
861416,328.02,843,721,0
861426,327.84,843,709,0
861436,329.30,843,721,0
861446,330.50,843,710,0
861456,333.09,843,721,0
861466,335.12,843,709,0
861476,338.30,843,721,0
861486,340.61,843,711,0
861496,343.51,843,721,0
861506,345.33,843,708,0
861516,347.63,843,721,0
861527,348.98,843,703,0
861537,351.17,843,724,0
861547,353.22,843,702,0
861557,357.36,843,725,0
861568,363.42,843,707,0
861577,373.49,843,724,0
861587,387.53,843,702,0
861606,407.77,864,704,0
861609,434.28,864,711,0
861618,467.50,864,724,0
861628,504.38,864,710,0
861638,542.79,864,724,0
861648,580.23,864,708,0
861658,615.17,864,724,0
861668,645.25,864,710,0
861678,669.26,864,724,0
861688,686.50,864,708,0
861698,698.60,864,724,0
861708,707.04,864,710,0
861718,712.94,864,725,0
861728,717.12,864,708,0
861739,720.08,864,724,0
861748,722.07,864,710,0
861758,721.11,864,725,0
861768,715.59,864,708,0
861778,704.31,864,724,0
861788,686.73,864,709,0
861798,662.38,864,724,0
861808,631.58,864,707,0
861818,594.51,864,724,0
861828,554.11,864,710,0
861838,512.81,864,724,0
861848,472.49,864,708,0
861858,434.33,864,724,0
861868,399.73,864,709,0
861878,369.30,864,724,0
861888,343.62,864,707,0
861898,322.52,864,724,0
861908,306.17,864,709,0
861918,294.37,864,724,0
861928,287.15,864,708,0
861938,283.89,864,724,0
861948,284.26,864,709,0
861958,287.61,864,724,0
861968,293.56,864,708,0
861978,301.15,864,724,0
861988,310.36,864,709,0
861998,320.28,864,724,0
862008,330.57,864,708,0
862018,340.34,864,724,0
862028,349.75,864,709,0
862039,358.06,864,724,0
862049,365.54,864,711,0
862059,371.12,864,723,0
862069,375.54,864,712,0
862080,377.95,864,723,0
862089,379.34,864,711,0
862099,378.81,864,723,0
862109,377.54,864,712,0
862119,374.72,864,723,0
862129,371.55,864,711,0
862139,367.27,864,723,0
862149,363.33,864,712,0
862159,358.52,864,723,0
862169,354.33,864,711,0
862179,349.56,864,723,0
862189,345.71,864,712,0
862199,341.64,864,723,0
862209,338.53,864,711,0
862219,335.42,864,723,0
862229,333.66,864,712,0
862239,331.66,864,723,0
862249,331.08,864,713,0
862259,330.24,864,723,0
862269,330.60,864,712,0
862279,330.76,864,723,0
862289,331.90,864,713,0
862299,332.79,864,723,0
862309,334.74,864,712,0
862319,336.02,864,723,0
862329,338.28,864,713,0
862339,340.08,864,723,0
862349,342.54,864,712,0
862359,344.14,864,723,0
862369,346.11,864,713,0
862380,347.11,864,722,0
862390,348.79,864,714,0
862400,349.32,864,722,0
862410,350.51,864,713,0
862420,350.62,864,722,0
862430,351.67,864,714,0
862440,352.16,864,722,0
862450,354.55,864,714,0
862460,357.47,864,722,0
862470,363.97,864,714,0
862480,372.94,864,722,0
862490,387.66,864,714,0
862500,407.13,864,723,0
862519,433.62,913,721,0
862522,465.02,913,723,0
862531,501.40,913,714,0
862541,538.87,913,722,0
862551,576.23,913,714,0
862561,610.45,913,722,0
862571,640.66,913,714,0
862581,664.89,913,722,0
862592,683.39,913,714,0
862601,696.30,913,722,0
862611,705.38,913,714,0
862621,711.70,913,722,0
862631,716.16,913,714,0
862641,716.84,913,722,0
862651,713.63,913,714,0
862661,704.31,913,722,0
862671,689.48,913,714,0
862681,667.90,913,722,0
862691,640.59,913,713,0
862701,606.90,913,722,0
862711,570.80,913,714,0
862721,532.29,913,722,0
862731,495.22,913,714,0
862741,458.85,913,722,0
862751,426.07,913,714,0
862761,395.58,913,722,0
862771,369.77,913,714,0
862781,346.74,913,722,0
862791,328.78,913,714,0
862801,314.06,913,722,0
862811,304.61,913,714,0
862821,298.04,913,722,0
862831,296.27,913,714,0
862841,296.75,913,722,0
862851,301.32,913,714,0
862861,307.27,913,722,0
862871,316.15,913,714,0
862881,324.97,913,722,0
862892,335.57,913,714,0
862902,345.25,913,722,0
862912,355.72,913,714,0
862922,364.20,913,722,0
862932,372.59,913,716,0
862942,378.41,913,722,0
862952,383.77,913,714,0
862962,386.54,913,722,0
862972,388.56,913,716,0
862982,388.05,913,722,0
862992,387.31,913,715,0
863002,384.52,913,722,0
863012,381.83,913,716,0
863022,377.55,913,721,0
863032,373.96,913,714,0
863042,369.21,913,722,0
863052,365.51,913,716,0
863063,360.68,913,716,0
863073,356.79,913,722,0
863083,352.10,913,711,0
863093,348.73,913,721,0
863104,344.69,913,707,0
863113,342.26,913,722,0
863123,339.31,913,711,0
863133,338.10,913,721,0
863143,336.57,913,707,0
863153,336.70,913,722,0
863163,336.32,913,712,0
863173,337.25,913,721,0
863183,337.73,913,707,0
863193,339.31,913,722,0
863203,340.16,913,712,0
863213,342.00,913,721,0
863223,343.11,913,707,0
863233,345.14,913,722,0
863243,346.30,913,711,0
863253,348.14,913,721,0
863263,349.04,913,707,0
863273,350.70,913,720,0
863283,351.56,913,712,0
863293,353.41,913,721,0
863303,355.04,913,708,0
863313,358.63,913,720,0
863323,363.11,913,711,0
863333,371.22,913,721,0
863343,382.38,913,708,0
863353,399.33,913,720,0
863363,420.83,913,712,0
863382,448.99,863,709,0
863385,481.70,863,710,0
863394,518.22,863,724,0
863404,555.14,863,707,0
863414,591.01,863,722,0
863424,623.11,863,700,0
863434,651.02,863,724,0
863444,672.83,863,704,0
863454,689.04,863,722,0
863464,700.34,863,701,0
863474,708.25,863,724,0
863484,712.25,863,704,0
863494,712.30,863,722,0
863504,706.60,863,701,0
863514,695.36,863,724,0
863524,677.55,863,704,0
863534,654.03,863,722,0
863544,624.28,863,700,0
863554,590.72,863,723,0
863564,553.86,863,704,0
863575,516.92,863,724,0
863585,480.13,863,709,0
863595,445.68,863,724,0
863605,413.46,863,709,0
863616,384.78,863,725,0
863625,359.43,863,709,0
863635,338.64,863,724,0
863645,322.04,863,709,0
863655,310.11,863,725,0
863665,302.41,863,709,0
863675,299.03,863,724,0
863685,299.58,863,709,0
863695,303.65,863,725,0
863705,310.31,863,709,0
863715,319.13,863,724,0
863725,329.29,863,709,0
863735,340.30,863,725,0
863745,351.10,863,709,0
863755,361.48,863,724,0
863765,370.81,863,709,0
863775,378.88,863,725,0
863785,385.47,863,709,0
863795,390.47,863,724,0
863805,393.59,863,709,0
863815,395.17,863,725,0
863825,395.20,863,709,0
863835,393.86,863,724,0
863845,391.33,863,709,0
863855,387.76,863,725,0
863865,383.89,863,709,0
863875,379.72,863,724,0
863885,375.26,863,709,0
863895,370.56,863,725,0
863905,366.27,863,709,0
863916,362.21,863,724,0
863926,358.84,863,711,0
863936,355.51,863,723,0
863946,353.13,863,712,0
863956,351.12,863,723,0
863966,349.92,863,711,0
863976,348.83,863,724,0
863986,348.75,863,712,0
863996,348.40,863,723,0
864006,348.71,863,711,0
864016,348.67,863,724,0
864026,349.58,863,712,0
864036,350.22,863,723,0
864046,351.57,863,711,0
864056,352.26,863,723,0
864066,353.85,863,712,0
864076,354.84,863,723,0
864087,356.69,863,713,0
864097,357.98,863,723,0
864107,360.94,863,714,0
864117,364.35,863,722,0
864128,370.63,863,714,0
864137,378.75,863,723,0
864147,391.56,863,714,0
864157,408.45,863,722,0
864167,432.23,863,714,0
864177,460.92,863,723,0
864196,495.18,814,722,0
864199,531.30,814,723,0
864208,568.20,814,714,0
864218,602.89,814,723,0
864228,634.34,814,714,0
864238,660.00,814,722,0
864248,679.97,814,714,0
864258,693.91,814,722,0
864268,703.71,814,714,0
864278,710.52,814,722,0
864288,715.34,814,714,0
864299,718.66,814,722,0
864308,719.92,814,714,0
864318,716.47,814,722,0
864328,708.40,814,714,0
864338,693.80,814,722,0
864348,673.71,814,714,0
864358,646.71,814,722,0
864368,614.23,814,714,0
864378,576.45,814,722,0
864388,538.04,814,714,0
864398,498.60,814,722,0
864408,462.08,814,714,0
864418,427.00,814,723,0
864428,396.65,814,714,0
864438,369.24,814,722,0
864448,347.53,814,714,0
864458,329.20,814,723,0
864468,316.67,814,714,0
864478,307.34,814,723,0
864488,303.34,814,714,0
864498,301.99,814,722,0
864508,305.34,814,715,0
864518,310.34,814,722,0
864528,318.81,814,714,0
864538,327.69,814,723,0
864548,338.59,814,714,0
864558,348.52,814,722,0
864568,359.42,814,714,0
864578,368.30,814,723,0
864588,377.16,814,714,0
864599,383.29,814,722,0
864609,388.77,814,714,0
864619,391.15,814,722,0
864629,392.78,814,714,0
864640,391.60,814,721,0
864649,390.14,814,714,0
864659,386.41,814,722,0
864669,383.03,814,715,0
864679,378.01,814,721,0
864689,374.02,814,714,0
864699,369.13,814,722,0
864709,365.75,814,715,0
864719,361.62,814,721,0
864729,359.12,814,715,0
864739,355.87,814,722,0
864749,354.45,814,715,0
864759,352.30,814,721,0
864769,351.65,814,715,0
864779,350.00,814,722,0
864789,349.70,814,715,0
864799,348.42,814,721,0
864809,348.46,814,714,0
864819,347.38,814,722,0
864829,347.65,814,715,0
864839,347.11,814,721,0
864849,347.77,814,715,0
864859,347.36,814,722,0
864869,348.24,814,715,0
864879,348.21,814,721,0
864889,349.31,814,714,0
864899,349.00,814,722,0
864909,349.69,814,714,0
864919,349.78,814,721,0
864929,352.12,814,714,0
864940,355.34,814,719,0
864950,362.69,814,720,0
864960,373.24,814,712,0
864970,390.83,814,722,0
864980,414.15,814,708,0
864990,445.22,814,720,0
865009,481.28,813,721,0
865012,520.54,813,725,0
865021,559.42,813,702,0
865031,596.84,813,720,0
865041,629.67,813,706,0
865051,657.33,813,719,0
865061,678.06,813,702,0
865071,692.65,813,720,0
865081,702.83,813,706,0
865091,709.95,813,719,0
865101,714.90,813,702,0
865111,718.40,813,720,0
865121,720.81,813,706,0
865131,720.91,813,719,0
865141,716.31,813,702,0
865152,706.70,813,722,0
865161,690.68,813,706,0
865171,668.70,813,719,0
865181,639.91,813,702,0
865191,605.31,813,722,0
865201,566.26,813,706,0
865211,526.54,813,719,0
865221,486.39,813,702,0
865231,448.64,813,722,0
865241,412.97,813,706,0
865251,381.56,813,719,0
865261,353.54,813,702,0
865271,330.45,813,722,0
865281,311.24,813,706,0
865291,297.63,813,719,0
865301,288.10,813,703,0
865311,283.61,813,722,0
865321,282.66,813,701,0
865331,285.93,813,719,0
865341,291.57,813,703,0
865351,300.18,813,722,0
865361,309.56,813,701,0
865371,320.40,813,719,0
865381,330.78,813,703,0
865391,341.39,813,722,0
865401,350.62,813,701,0
865411,359.52,813,719,0
865421,366.35,813,702,0
865431,372.33,813,722,0
865441,376.09,813,701,0
865452,378.89,813,723,0
865462,379.74,813,707,0
865472,379.64,813,724,0
865482,377.87,813,709,0
865492,375.42,813,724,0
865502,371.87,813,707,0
865512,368.18,813,724,0
865522,363.84,813,709,0
865532,359.39,813,723,0
865542,354.69,813,707,0
865552,350.41,813,724,0
865562,346.21,813,710,0
865572,342.42,813,724,0
865582,338.65,813,707,0
865592,335.59,813,724,0
865602,333.01,813,710,0
865612,331.12,813,724,0
865623,329.63,813,708,0
865633,328.75,813,724,0
865643,328.40,813,709,0
865653,328.54,813,723,0
865664,329.19,813,711,0
865673,330.16,813,724,0
865683,331.66,813,710,0
865693,332.96,813,723,0
865703,334.81,813,711,0
865713,336.46,813,724,0
865723,338.50,813,709,0
865733,339.94,813,723,0
865743,341.76,813,711,0
865753,342.90,813,724,0
865763,344.39,813,709,0
865773,345.04,813,723,0
865783,346.06,813,711,0
865793,346.51,813,724,0
865803,347.47,813,709,0
865813,348.10,813,723,0
865823,350.21,813,711,0
865833,353.58,813,723,0
865843,360.09,813,709,0
865853,369.92,813,723,0
865863,385.29,813,711,0
865873,406.33,813,723,0
865892,434.26,883,723,0
865895,467.40,883,723,0
865904,504.78,883,713,0
865914,543.24,883,722,0
865924,580.84,883,712,0
865934,615.00,883,722,0
865944,644.53,883,713,0
865954,667.94,883,723,0
865964,685.57,883,713,0
865974,697.87,883,723,0
865984,706.53,883,713,0
865994,712.54,883,723,0
866004,716.79,883,714,0
866014,719.13,883,723,0
866024,718.53,883,713,0
866034,712.76,883,722,0
866044,701.77,883,714,0
866054,684.44,883,722,0
866064,661.25,883,713,0
866074,631.43,883,722,0
866084,596.89,883,714,0
866094,558.74,883,722,0
866104,520.54,883,713,0
866114,482.20,883,722,0
866124,446.61,883,714,0
866135,413.00,883,722,0
866145,383.86,883,714,0
866155,357.58,883,722,0
866165,336.41,883,714,0
866176,318.54,883,722,0
866185,306.29,883,714,0
866195,297.21,883,722,0
866205,293.29,883,714,0
866215,291.83,883,722,0
866225,294.58,883,714,0
866235,299.08,883,723,0
866245,307.20,883,714,0
866255,315.80,883,723,0
866265,326.44,883,714,0
866275,336.12,883,723,0
866285,346.67,883,714,0
866295,355.39,883,722,0
866305,363.67,883,714,0
866315,369.04,883,723,0
866325,373.74,883,714,0
866335,375.58,883,723,0
866345,377.03,883,714,0
866355,376.08,883,723,0
866365,375.24,883,714,0
866375,372.30,883,723,0
866385,369.72,883,714,0
866395,365.35,883,723,0
866405,361.73,883,714,0
866415,356.67,883,723,0
866425,352.57,883,714,0
866435,347.34,883,723,0
866445,343.51,883,714,0
866455,338.86,883,723,0
866465,335.69,883,714,0
866476,331.75,883,723,0
866486,329.47,883,715,0
866496,326.59,883,722,0
866506,325.12,883,715,0
866516,322.99,883,721,0
866526,322.35,883,715,0
866536,321.04,883,722,0
866546,321.33,883,714,0
866556,320.89,883,721,0
866566,321.99,883,715,0
866576,322.30,883,722,0
866586,323.96,883,715,0
866596,324.66,883,721,0
866606,326.73,883,715,0
866616,327.71,883,722,0
866626,329.90,883,714,0
866636,330.83,883,722,0
866647,332.81,883,715,0
866657,333.60,883,720,0
866667,335.47,883,715,0
866677,336.02,883,716,0
866688,337.51,883,723,0
866697,337.70,883,721,0
866707,338.78,883,715,0
866717,338.84,883,716,0
866727,340.00,883,722,0
866737,340.65,883,721,0
866747,343.50,883,715,0
866757,347.20,883,717,0
866767,354.69,883,722,0
866777,364.85,883,722,0
866787,380.50,883,715,0
866806,400.45,914,719,0
866809,426.80,914,723,0
866818,458.14,914,712,0
866828,494.53,914,721,0
866838,532.09,914,708,0
866848,569.65,914,720,0
866859,604.29,914,708,0
866868,635.49,914,721,0
866878,661.14,914,709,0
866888,680.82,914,720,0
866898,694.59,914,708,0
866908,704.27,914,721,0
866918,710.83,914,710,0
866928,714.05,914,720,0
866938,712.54,914,708,0
866948,706.63,914,722,0
866958,694.96,914,711,0
866968,678.00,914,721,0
866978,655.03,914,709,0
866988,627.16,914,722,0
866998,595.10,914,711,0
867008,562.03,914,721,0
867018,527.60,914,709,0
867028,494.64,914,723,0
867038,462.60,914,712,0
867048,433.62,914,721,0
867058,406.56,914,710,0
867068,383.12,914,724,0
867078,361.92,914,712,0
867088,344.71,914,722,0
867098,330.18,914,711,0
867108,319.59,914,724,0
867118,311.48,914,713,0
867128,307.18,914,722,0
867138,305.11,914,711,0
867148,306.24,914,725,0
867159,308.82,914,706,0
867169,313.59,914,726,0
867179,319.20,914,705,0
867189,326.04,914,724,0
867200,332.80,914,708,0
867209,340.14,914,726,0
867219,346.66,914,706,0
867229,353.02,914,724,0
867239,358.24,914,708,0
867249,362.84,914,726,0
867259,366.10,914,706,0
867269,368.60,914,725,0
867279,369.62,914,708,0
867289,370.21,914,726,0
867299,369.67,914,707,0
867309,368.61,914,725,0
867319,366.89,914,709,0
867329,364.99,914,726,0
867339,362.34,914,708,0
867349,359.54,914,725,0
867359,356.08,914,709,0
867369,352.58,914,724,0
867379,348.94,914,708,0
867389,345.44,914,725,0
867399,341.92,914,710,0
867409,339.03,914,724,0
867419,336.41,914,709,0
867429,334.61,914,725,0
867439,333.27,914,710,0
867449,332.59,914,724,0
867459,331.90,914,709,0
867469,332.02,914,725,0
867479,332.22,914,710,0
867489,332.89,914,724,0
867500,333.69,914,711,0
867510,334.73,914,725,0
867520,335.75,914,709,0
867530,337.07,914,724,0
867540,338.25,914,710,0
867550,339.63,914,724,0
867560,341.11,914,709,0
867570,342.15,914,724,0
867580,343.35,914,711,0
867590,344.40,914,724,0
867600,345.65,914,710,0
867610,346.44,914,724,0
867620,347.25,914,711,0
867630,347.82,914,725,0
867640,348.90,914,710,0
867650,350.22,914,724,0
867660,352.89,914,711,0
867671,356.91,914,723,0
867681,363.88,914,712,0
867691,373.86,914,723,0
867701,388.30,914,713,0
867721,407.54,914,713,0
867724,432.11,914,717,0
867733,460.87,914,722,0
867743,494.21,914,715,0
867753,529.46,914,723,0
867763,565.07,914,715,0
867773,598.60,914,722,0
867783,628.77,914,715,0
867793,654.25,914,722,0
867803,675.05,914,715,0
867813,689.39,914,723,0
867823,698.40,914,716,0
867833,701.28,914,722,0
867843,699.27,914,715,0
867853,691.47,914,722,0
867863,678.99,914,716,0
867873,660.73,914,722,0
867884,638.79,914,716,0
867894,612.41,914,722,0
867904,584.90,914,717,0
867914,555.36,914,722,0
867924,526.66,914,718,0
867934,497.58,914,722,0
867944,470.88,914,717,0
867954,444.81,914,722,0
867964,421.94,914,718,0
867974,400.19,914,722,0
867984,381.75,914,717,0
867994,364.89,914,722,0
868004,351.60,914,718,0
868014,339.93,914,722,0
868024,331.77,914,718,0
868034,325.15,914,722,0
868044,321.93,914,718,0
868055,320.24,914,722,0
868065,321.45,914,719,0
868075,322.90,914,721,0
868085,326.06,914,723,0
868096,329.34,914,716,0
868105,334.13,914,719,0
868115,338.55,914,721,0
868125,343.82,914,723,0
868135,348.12,914,715,0
868145,353.53,914,719,0
868155,358.04,914,721,0
868165,363.04,914,723,0
868175,366.67,914,715,0
868185,370.46,914,719,0
868195,372.51,914,721,0
868205,374.45,914,723,0
868215,374.79,914,716,0
868225,376.01,914,719,0
868235,376.05,914,722,0
868245,376.38,914,723,0
868255,375.11,914,716,0
868265,373.36,914,726,0
868275,369.70,914,721,0
868285,366.02,914,723,0
868295,360.27,914,716,0
868305,354.66,914,726,0
868315,348.20,914,721,0
868325,342.87,914,722,0
868335,337.98,914,716,0
868345,335.24,914,726,0
868355,332.77,914,721,0
868365,332.24,914,722,0
868375,331.82,914,716,0
868385,332.86,914,726,0
868396,333.68,914,714,0
868406,335.70,914,725,0
868416,337.16,914,716,0
868426,339.56,914,725,0
868436,341.15,914,717,0
868446,343.46,914,725,0
868456,344.95,914,716,0
868466,346.89,914,725,0
868476,348.08,914,717,0
868486,349.69,914,725,0
868496,350.64,914,716,0
868506,352.12,914,725,0
868516,353.20,914,717,0
868526,355.32,914,725,0
868536,357.88,914,715,0
868546,362.68,914,724,0
868556,369.42,914,718,0
868567,379.88,914,725,0
868577,393.67,914,714,0
868587,412.24,914,725,0
868597,434.88,914,713,0
868617,461.92,896,712,0
868620,491.51,896,713,0
868629,523.37,896,723,0
868639,555.49,896,712,0
868649,586.41,896,722,0
868659,614.23,896,711,0
868669,637.73,896,723,0
868679,655.94,896,712,0
868689,667.96,896,722,0
868699,673.71,896,711,0
868709,672.90,896,723,0
868719,666.80,896,712,0
868729,654.82,896,722,0
868739,638.37,896,710,0
868749,617.86,896,723,0
868759,595.10,896,711,0
868769,569.96,896,722,0
868780,544.38,896,712,0
868790,518.00,896,722,0
868800,493.06,896,713,0
868810,468.74,896,721,0
868820,446.53,896,714,0
868830,425.63,896,722,0
868840,407.44,896,713,0
868850,390.51,896,721,0
868860,377.16,896,714,0
868870,365.41,896,722,0
868880,357.31,896,713,0
868890,351.05,896,722,0
868900,348.12,896,714,0
868910,346.97,896,722,0
868920,348.65,896,713,0
868930,351.16,896,722,0
868940,355.69,896,714,0
868951,360.16,896,722,0
868961,365.90,896,714,0
868971,370.98,896,721,0
868981,376.73,896,714,0
868992,381.48,896,722,0
869001,386.18,896,714,0
869011,389.56,896,721,0
869021,393.12,896,714,0
869031,395.10,896,722,0
869041,397.17,896,714,0
869051,397.37,896,722,0
869061,397.69,896,714,0
869071,396.24,896,722,0
869081,394.97,896,714,0
869091,392.11,896,721,0
869101,389.76,896,714,0
869111,386.02,896,722,0
869121,383.01,896,714,0
869131,379.15,896,722,0
869141,376.49,896,714,0
869151,373.43,896,722,0
869161,371.72,896,715,0
869171,369.36,896,722,0
869181,368.26,896,714,0
869191,366.69,896,722,0
869201,366.27,896,715,0
869211,365.29,896,722,0
869221,365.37,896,714,0
869231,364.53,896,723,0
869241,364.80,896,715,0
869251,364.26,896,723,0
869261,364.74,896,714,0
869271,364.13,896,723,0
869281,364.18,896,715,0
869292,362.97,896,722,0
869302,362.72,896,715,0
869312,361.69,896,722,0
869322,362.34,896,716,0
869332,362.92,896,721,0
869342,365.95,896,715,0
869352,370.38,896,722,0
869362,379.09,896,715,0
869372,391.02,896,721,0
869382,408.50,896,714,0
869392,429.91,896,722,0
869402,457.15,896,715,0
869422,487.83,805,715,0
869425,522.30,805,726,0
869434,557.01,805,715,0
869444,590.86,805,725,0
869454,621.38,805,715,0
869464,648.22,805,723,0
869474,669.75,805,715,0
869484,686.76,805,725,0
869494,698.10,805,715,0
869505,704.76,805,727,0
869515,706.16,805,717,0
869525,702.55,805,726,0
869535,693.13,805,712,0
869545,678.35,805,726,0
869555,657.84,805,717,0
869565,632.90,805,726,0
869575,603.83,805,711,0
869585,573.15,805,727,0
869595,541.27,805,716,0
869605,510.46,805,726,0
869615,480.58,805,711,0
869625,453.23,805,727,0
869635,427.92,805,716,0
869645,406.26,805,726,0
869655,387.37,805,711,0
869665,372.51,805,727,0
869676,360.70,805,708,0
869686,352.91,805,725,0
869696,348.09,805,709,0
869706,346.69,805,724,0
869716,347.51,805,710,0
869726,350.92,805,725,0
869736,355.61,805,709,0
869746,361.69,805,724,0
869756,368.17,805,710,0
869766,375.02,805,725,0
869776,381.57,805,709,0
869786,387.74,805,724,0
869796,392.92,805,710,0
869806,397.36,805,725,0
869816,400.55,805,709,0
869826,402.74,805,723,0
869836,403.72,805,710,0
869847,403.76,805,724,0
869857,402.85,805,708,0
869867,401.14,805,724,0
869877,398.74,805,709,0
869888,395.82,805,723,0
869897,392.66,805,708,0
869907,389.50,805,724,0
869917,386.48,805,709,0
869927,383.38,805,723,0
869937,380.48,805,708,0
869947,377.55,805,724,0
869957,375.33,805,709,0
869967,373.04,805,723,0
869977,371.10,805,708,0
869987,369.14,805,724,0
869997,367.81,805,709,0
870007,366.54,805,723,0
870017,365.82,805,708,0
870027,365.10,805,724,0
870037,364.94,805,709,0
870047,364.75,805,723,0
870057,365.08,805,711,0
870067,365.40,805,724,0
870077,366.44,805,709,0
870087,367.81,805,723,0
870097,370.48,805,711,0
870107,374.88,805,724,0
870117,381.86,805,709,0
870127,391.59,805,723,0
870137,405.72,805,711,0
870147,424.45,805,724,0
870157,448.87,805,709,0
870176,478.22,755,709,0
870179,511.59,755,714,0
870188,546.55,755,722,0
870198,581.40,755,712,0
870208,613.72,755,723,0
870218,642.48,755,713,0
870228,666.08,755,722,0
870238,684.18,755,712,0
870248,696.86,755,723,0
870258,705.77,755,713,0
870268,711.97,755,722,0
870278,716.35,755,712,0
870288,718.64,755,723,0
870298,718.02,755,713,0
870308,712.83,755,722,0
870318,703.07,755,712,0
870328,687.58,755,723,0
870338,666.62,755,712,0
870348,639.43,755,722,0
870359,607.85,755,713,0
870369,572.53,755,722,0
870379,536.72,755,714,0
870389,500.16,755,721,0
870400,465.61,755,713,0
870409,432.81,755,722,0
870419,404.03,755,714,0
870429,377.96,755,722,0
870439,356.97,755,714,0
870449,339.37,755,722,0
870459,327.00,755,714,0
870469,317.96,755,722,0
870479,313.77,755,714,0
870489,312.12,755,722,0
870499,314.27,755,714,0
870509,317.75,755,722,0
870519,323.91,755,713,0
870529,330.49,755,722,0
870539,338.53,755,714,0
870549,345.70,755,722,0
870559,353.59,755,713,0
870569,360.14,755,722,0
870579,366.79,755,714,0
870589,371.44,755,722,0
870599,375.93,755,713,0
870609,378.61,755,722,0
870619,381.17,755,714,0
870629,381.89,755,722,0
870639,382.65,755,713,0
870649,381.68,755,722,0
870659,380.92,755,714,0
870669,378.50,755,722,0
870679,376.17,755,713,0
870689,372.56,755,722,0
870700,369.35,755,714,0
870710,364.96,755,722,0
870720,361.37,755,714,0
870730,356.97,755,722,0
870740,353.72,755,715,0
870750,350.16,755,722,0
870760,347.72,755,714,0
870770,344.80,755,722,0
870780,343.19,755,714,0
870790,341.25,755,722,0
870800,340.74,755,714,0
870810,339.71,755,722,0
870820,339.97,755,714,0
870830,339.72,755,722,0
870840,340.87,755,714,0
870850,341.43,755,722,0
870860,343.31,755,715,0
870871,344.59,755,722,0
870881,347.54,755,714,0
870891,350.47,755,722,0
870901,355.94,755,715,0
870912,362.77,755,718,0
870921,373.85,755,715,0
870931,388.26,755,722,0
870941,408.45,755,715,0
870951,433.39,755,720,0
870961,464.38,755,714,0
870980,499.11,804,714,0
870983,536.24,804,726,0
870992,572.51,804,714,0
871002,606.77,804,721,0
871012,636.80,804,715,0
871022,661.89,804,723,0
871032,680.99,804,715,0
871042,694.67,804,721,0
871052,704.19,804,715,0
871062,710.91,804,723,0
871072,714.75,804,715,0
871083,715.51,804,723,0
871092,711.54,804,715,0
871102,702.98,804,722,0
871112,688.41,804,714,0
871122,668.49,804,723,0
871132,642.37,804,714,0
871142,611.96,804,722,0
871152,577.73,804,714,0
871162,542.71,804,723,0
871172,506.93,804,715,0
871182,473.18,804,723,0
871192,440.81,804,715,0
871202,411.85,804,723,0
871212,385.24,804,715,0
871222,362.80,804,723,0
871232,343.19,804,715,0
871242,327.96,804,723,0
871252,315.71,804,712,0
871262,307.79,804,723,0
871272,302.45,804,715,0
871282,301.03,804,722,0
871292,301.58,804,712,0
871302,305.30,804,723,0
871312,310.18,804,715,0
871322,317.11,804,722,0
871332,324.24,804,711,0
871342,332.82,804,723,0
871352,340.59,804,715,0
871362,348.64,804,722,0
871372,355.26,804,712,0
871383,361.61,804,724,0
871393,366.19,804,708,0
871403,370.12,804,727,0
871413,372.10,804,704,0
871424,373.48,804,725,0
871433,373.25,804,708,0
871443,372.70,804,726,0
871453,370.69,804,704,0
871463,368.43,804,725,0
871473,365.09,804,708,0
871483,361.85,804,726,0
871493,357.99,804,703,0
871503,354.52,804,725,0
871513,350.51,804,708,0
871523,347.27,804,726,0
871533,343.85,804,703,0
871543,341.24,804,725,0
871553,338.46,804,708,0
871563,336.57,804,726,0
871573,334.60,804,703,0
871583,333.56,804,726,0
871593,332.58,804,707,0
871603,332.62,804,726,0
871613,332.65,804,703,0
871623,333.57,804,726,0
871633,334.47,804,707,0
871643,336.09,804,726,0
871653,337.43,804,703,0
871663,339.23,804,726,0
871673,340.62,804,707,0
871683,342.58,804,726,0
871693,344.07,804,703,0
871703,346.02,804,726,0
871713,347.95,804,707,0
871724,351.05,804,723,0
871734,355.06,804,709,0
871744,361.43,804,724,0
871754,370.47,804,708,0
871764,383.74,804,724,0
871774,401.26,804,709,0
871784,424.41,804,724,0
871803,452.88,823,723,0
871806,486.00,823,722,0
871815,522.00,823,709,0
871825,558.43,823,724,0
871835,593.23,823,711,0
871845,624.96,823,723,0
871855,651.93,823,708,0
871865,673.29,823,724,0
871875,689.28,823,711,0
871885,700.42,823,723,0
871895,708.27,823,708,0
871905,713.07,823,724,0
871915,714.21,823,711,0
871925,710.37,823,723,0
871936,701.52,823,712,0
871945,687.01,823,724,0
871955,666.90,823,711,0
871965,640.88,823,723,0
871975,610.36,823,712,0
871985,576.69,823,724,0
871995,542.41,823,710,0
872005,507.75,823,723,0
872015,474.57,823,712,0
872025,443.20,823,724,0
872035,414.85,823,710,0
872045,388.75,823,723,0
872055,366.11,823,712,0
872065,346.19,823,724,0
872075,330.28,823,710,0
872085,317.34,823,723,0
872095,308.15,823,711,0
872105,301.63,823,723,0
872115,298.96,823,710,0
872125,298.71,823,723,0
872135,301.50,823,711,0
872145,305.89,823,723,0
872155,312.22,823,710,0
872165,319.23,823,723,0
872175,327.60,823,711,0
872185,335.52,823,723,0
872195,343.64,823,710,0
872205,350.65,823,723,0
872215,357.39,823,711,0
872225,362.59,823,723,0
872236,367.21,823,712,0
872246,369.89,823,722,0
872256,372.15,823,713,0
872266,372.58,823,722,0
872276,372.83,823,714,0
872286,371.43,823,723,0
872296,370.23,823,713,0
872306,367.50,823,722,0
872316,365.17,823,714,0
872326,361.56,823,722,0
872336,358.56,823,713,0
872346,354.49,823,722,0
872356,351.30,823,714,0
872366,347.31,823,723,0
872376,344.48,823,713,0
872386,341.16,823,722,0
872396,339.14,823,714,0
872407,336.83,823,722,0
872417,335.94,823,713,0
872427,334.76,823,722,0
872437,335.00,823,714,0
872448,334.87,823,722,0
872457,336.11,823,714,0
872467,336.93,823,722,0
872477,339.14,823,714,0
872487,340.55,823,722,0
872497,343.05,823,713,0
872507,344.57,823,722,0
872517,347.15,823,714,0
872527,348.47,823,722,0
872537,350.52,823,713,0
872547,351.26,823,723,0
872557,352.77,823,714,0
872567,352.97,823,722,0
872577,354.01,823,713,0
872587,354.05,823,722,0
872597,355.58,823,714,0
872607,356.99,823,722,0
872617,361.02,823,713,0
872627,366.41,823,723,0
872637,376.15,823,714,0
872647,389.00,823,722,0
872657,407.82,823,714,0
872676,430.89,873,713,0
872679,460.11,873,715,0
872688,493.20,873,722,0
872698,529.36,873,714,0
872708,565.08,873,723,0
872718,599.55,873,715,0
872728,629.95,873,722,0
872738,656.23,873,714,0
872748,676.69,873,722,0
872758,691.66,873,714,0
872768,702.09,873,722,0
872778,709.39,873,714,0
872788,712.87,873,722,0
872798,713.04,873,714,0
872808,708.66,873,722,0
872818,700.06,873,714,0
872828,685.56,873,722,0
872838,666.02,873,714,0
872848,640.38,873,722,0
872858,611.55,873,714,0
872868,579.07,873,722,0
872878,546.05,873,714,0
872888,511.92,873,722,0
872898,479.97,873,714,0
872908,449.00,873,722,0
872919,421.74,873,715,0
872929,396.45,873,722,0
872939,375.36,873,717,0
872949,356.52,873,717,0
872960,342.01,873,723,0
872969,329.88,873,722,0
872979,322.24,873,717,0
872989,316.86,873,717,0
872999,315.31,873,722,0
873009,315.26,873,722,0
873019,318.35,873,716,0
873029,322.41,873,717,0
873039,328.84,873,722,0
873049,335.06,873,722,0
873059,342.41,873,716,0
873069,348.89,873,717,0
873079,355.91,873,722,0
873089,361.38,873,722,0
873099,366.88,873,716,0
873109,370.39,873,718,0
873119,373.70,873,722,0
873129,375.16,873,714,0
873139,376.53,873,716,0
873149,376.11,873,718,0
873159,375.78,873,722,0
873169,373.70,873,714,0
873179,372.03,873,716,0
873189,368.94,873,718,0
873199,366.26,873,722,0
873209,362.45,873,714,0
873219,359.44,873,716,0
873229,355.54,873,718,0
873239,352.63,873,722,0
873249,348.97,873,715,0
873260,346.50,873,722,0
873270,343.69,873,710,0
873280,341.98,873,722,0
873290,340.02,873,709,0
873300,339.24,873,724,0
873310,338.18,873,711,0
873320,338.26,873,722,0
873330,338.05,873,709,0
873340,338.89,873,724,0
873350,339.44,873,711,0
873360,340.98,873,722,0
873370,342.14,873,709,0
873380,344.07,873,724,0
873390,345.42,873,711,0
873400,347.52,873,722,0
873410,348.95,873,709,0
873420,350.94,873,724,0
873431,352.11,873,702,0
873441,353.71,873,726,0
873451,354.74,873,704,0
873461,356.49,873,724,0
873472,358.18,873,708,0
873481,361.34,873,726,0
873491,365.65,873,703,0
873501,372.79,873,725,0
873511,382.71,873,708,0
873521,396.85,873,726,0
873531,415.03,873,703,0
873550,438.20,874,706,0
873553,465.79,874,712,0
873562,497.31,874,724,0
873572,531.07,874,709,0
873582,565.29,874,725,0
873592,597.91,874,708,0
873602,627.72,874,724,0
873612,653.18,874,710,0
873622,673.74,874,725,0
873632,688.47,874,708,0
873643,696.69,874,724,0
873652,698.75,874,709,0
873662,695.10,874,724,0
873672,685.81,874,708,0
873682,670.95,874,724,0
873692,650.74,874,709,0
873702,626.26,874,724,0
873712,599.01,874,708,0
873722,569.91,874,724,0
873732,539.98,874,709,0
873742,510.28,874,724,0
873752,481.61,874,708,0
873762,454.22,874,724,0
873772,428.74,874,710,0
873782,405.50,874,724,0
873792,384.91,874,708,0
873802,366.94,874,724,0
873812,351.83,874,709,0
873822,339.54,874,724,0
873832,330.42,874,708,0
873842,324.08,874,724,0
873852,320.71,874,709,0
873862,319.90,874,724,0
873872,321.56,874,708,0
873882,325.03,874,724,0
873892,330.51,874,709,0
873902,337.13,874,724,0
873912,344.72,874,708,0
873922,352.30,874,724,0
873932,360.18,874,709,0
873943,367.33,874,723,0
873953,374.13,874,711,0
873963,379.41,874,723,0
873973,384.13,874,712,0
873984,387.22,874,723,0
873993,389.64,874,711,0
874003,390.39,874,723,0
874013,390.92,874,712,0
874023,389.96,874,723,0
874033,388.90,874,711,0
874043,386.49,874,723,0
874053,384.24,874,712,0
874063,380.78,874,723,0
874073,377.89,874,711,0
874083,374.19,874,724,0
874093,371.26,874,713,0
874103,367.71,874,723,0
874113,364.93,874,711,0
874123,361.86,874,724,0
874133,359.98,874,713,0
874143,357.54,874,723,0
874153,356.01,874,713,0
874163,354.03,874,724,0
874173,353.17,874,712,0
874183,351.96,874,723,0
874193,351.80,874,713,0
874203,351.22,874,723,0
874213,351.58,874,712,0
874223,351.41,874,723,0
874233,352.18,874,713,0
874243,352.47,874,724,0
874253,353.74,874,713,0
874263,354.46,874,723,0
874273,356.38,874,713,0
874284,358.32,874,723,0
874294,362.47,874,714,0
874304,367.64,874,722,0
874314,376.19,874,714,0
874324,387.06,874,723,0
874334,402.52,874,714,0
874344,421.30,874,722,0
874354,445.38,874,715,0
874374,472.35,823,713,0
874377,503.32,823,715,0
874386,535.20,823,722,0
874396,567.92,823,714,0
874406,598.29,823,722,0
874416,626.44,823,714,0
874426,648.90,823,722,0
874436,666.63,823,715,0
874446,676.68,823,722,0
874456,680.89,823,714,0
874466,677.80,823,722,0
874476,669.59,823,714,0
874486,654.88,823,722,0
874497,636.57,823,714,0
874507,613.47,823,722,0
874517,588.82,823,714,0
874527,561.53,823,720,0
874537,534.54,823,721,0
874547,506.65,823,722,0
874557,480.48,823,714,0
874567,454.54,823,721,0
874577,431.15,823,721,0
874587,408.82,823,722,0
874597,389.50,823,714,0
874607,371.65,823,721,0
874617,357.27,823,721,0
874627,344.72,823,722,0
874637,336.02,823,714,0
874647,329.28,823,721,0
874657,326.24,823,720,0
874668,324.88,823,715,0
874678,326.63,823,721,0
874688,329.44,823,711,0
874698,334.67,823,721,0
874708,340.12,823,708,0
874718,347.07,823,722,0
874728,353.35,823,711,0
874738,360.36,823,721,0
874748,366.21,823,708,0
874758,372.27,823,722,0
874768,376.74,823,711,0
874778,380.89,823,721,0
874788,383.28,823,708,0
874798,385.51,823,722,0
874808,385.87,823,712,0
874818,386.08,823,721,0
874828,384.69,823,708,0
874839,383.19,823,721,0
874849,380.48,823,705,0
874859,377.98,823,725,0
874869,374.60,823,701,0
874880,371.59,823,725,0
874889,367.73,823,705,0
874899,364.55,823,724,0
874909,361.04,823,702,0
874919,358.37,823,725,0
874929,355.65,823,705,0
874939,354.00,823,725,0
874949,352.67,823,701,0
874959,352.51,823,725,0
874969,352.27,823,706,0
874979,352.92,823,725,0
874989,353.46,823,701,0
874999,354.61,823,725,0
875009,355.11,823,706,0
875019,356.06,823,725,0
875029,356.69,823,701,0
875039,358.07,823,725,0
875049,359.68,823,706,0
875059,362.77,823,725,0
875069,367.04,823,701,0
875079,374.19,823,725,0
875089,384.12,823,705,0
875099,398.40,823,724,0
875109,416.62,823,701,0
875119,439.92,823,725,0
875139,467.29,765,724,0
875142,498.44,765,725,0
875151,532.12,765,709,0
875161,566.24,765,724,0
875171,598.57,765,710,0
875181,628.10,765,725,0
875191,653.23,765,709,0
875201,673.73,765,724,0
875211,689.58,765,710,0
875222,699.61,765,723,0
875231,704.53,765,709,0
875241,704.15,765,724,0
875251,698.75,765,710,0
875261,687.73,765,723,0
875271,671.52,765,709,0
875281,649.85,765,724,0
875291,624.22,765,710,0
875301,595.19,765,723,0
875311,564.79,765,708,0
875321,533.44,765,724,0
875331,503.01,765,710,0
875341,473.22,765,723,0
875351,445.47,765,709,0
875361,419.66,765,724,0
875371,396.92,765,710,0
875381,376.46,765,723,0
875392,359.43,765,712,0
875401,345.07,765,724,0
875411,334.47,765,710,0
875421,326.74,765,723,0
875431,322.49,765,712,0
875441,320.67,765,724,0
875451,321.88,765,709,0
875461,324.70,765,723,0
875471,329.81,765,712,0
875481,335.74,765,724,0
875491,342.76,765,709,0
875501,349.52,765,723,0
875511,356.86,765,712,0
875521,363.37,765,724,0
875531,369.73,765,709,0
875541,374.53,765,723,0
875551,378.83,765,712,0
875561,381.58,765,723,0
875571,383.85,765,709,0
875581,384.49,765,723,0
875591,384.77,765,711,0
875601,383.73,765,723,0
875611,382.52,765,709,0
875621,380.18,765,723,0
875631,377.98,765,711,0
875641,374.82,765,723,0
875651,371.79,765,709,0
875661,367.95,765,724,0
875671,364.67,765,712,0
875681,360.87,765,723,0
875692,357.95,765,712,0
875702,354.54,765,723,0
875712,352.32,765,713,0
875722,349.78,765,722,0
875732,348.47,765,714,0
875742,346.87,765,723,0
875752,346.48,765,713,0
875762,345.57,765,722,0
875772,346.00,765,713,0
875782,345.83,765,723,0
875792,346.91,765,713,0
875802,347.19,765,723,0
875812,348.46,765,714,0
875822,349.01,765,723,0
875832,350.59,765,713,0
875842,351.40,765,722,0
875852,353.51,765,713,0
875863,355.33,765,722,0
875873,359.34,765,714,0
875883,364.30,765,723,0
875893,372.99,765,713,0
875904,384.27,765,722,0
875913,400.73,765,714,0
875923,421.08,765,723,0
875933,447.59,765,714,0
875953,477.80,814,713,0
875956,512.40,814,718,0
875965,547.64,814,723,0
875975,582.55,814,714,0
875985,614.44,814,723,0
875995,642.89,814,715,0
876005,665.85,814,722,0
876015,683.98,814,714,0
876025,696.67,814,723,0
876035,705.60,814,715,0
876045,709.79,814,722,0
876055,709.77,814,715,0
876065,704.05,814,723,0
876076,693.41,814,715,0
876086,676.49,814,719,0
876096,654.31,814,722,0
876106,626.06,814,712,0
876116,595.14,814,721,0
876126,561.33,814,718,0
876136,527.93,814,722,0
876146,494.22,814,712,0
876156,463.00,814,722,0
876166,433.21,814,719,0
876176,407.13,814,722,0
876186,383.14,814,713,0
876196,363.04,814,722,0
876206,345.24,814,719,0
876216,331.67,814,721,0
876226,320.54,814,713,0
876236,313.44,814,722,0
876247,308.46,814,709,0
876257,307.12,814,721,0
876267,307.60,814,707,0
876277,311.06,814,722,0
876288,315.37,814,702,0
876297,321.78,814,721,0
876307,328.14,814,707,0
876317,335.64,814,722,0
876327,342.39,814,702,0
876337,349.52,814,721,0
876347,355.23,814,707,0
876357,360.69,814,721,0
876367,364.47,814,702,0
876377,367.93,814,721,0
876387,369.58,814,707,0
876397,370.78,814,721,0
876407,370.33,814,703,0
876417,369.76,814,721,0
876427,367.77,814,707,0
876437,365.83,814,721,0
876447,362.71,814,703,0
876457,359.88,814,724,0
876467,356.19,814,707,0
876477,353.05,814,721,0
876487,349.26,814,703,0
876497,346.35,814,724,0
876507,342.99,814,707,0
876517,340.59,814,721,0
876527,337.97,814,704,0
876537,336.40,814,724,0
876547,334.52,814,707,0
876557,333.76,814,721,0
876567,332.81,814,705,0
876577,332.95,814,724,0
876588,332.96,814,701,0
876598,333.96,814,725,0
876608,334.92,814,707,0
876618,336.74,814,724,0
876628,338.32,814,710,0
876638,340.54,814,725,0
876648,342.39,814,707,0
876658,344.54,814,724,0
876668,346.22,814,710,0
876678,348.04,814,725,0
876688,349.32,814,706,0
876698,350.76,814,724,0
876708,351.86,814,709,0
876718,353.66,814,725,0
876728,356.03,814,705,0
876738,360.22,814,724,0
876748,366.63,814,709,0
876759,376.68,814,724,0
876769,390.84,814,709,0
876779,410.30,814,725,0
876798,435.15,846,723,0
876802,464.98,846,723,0
876811,499.44,846,713,0
876821,535.91,846,723,0
876831,571.98,846,714,0
876841,605.80,846,722,0
876851,635.77,846,713,0
876861,660.61,846,723,0
876871,680.40,846,714,0
876881,694.21,846,722,0
876891,703.92,846,713,0
876901,710.67,846,723,0
876911,715.10,846,713,0
876921,715.20,846,722,0
876931,711.50,846,713,0
876941,702.26,846,723,0
876951,688.04,846,713,0
876961,667.54,846,722,0
876972,641.92,846,714,0
876982,610.62,846,723,0
876992,577.73,846,714,0
877002,542.41,846,723,0
877012,508.35,846,714,0
877022,474.73,846,722,0
877032,444.47,846,714,0
877042,416.04,846,723,0
877052,392.03,846,714,0
877062,370.33,846,722,0
877072,353.52,846,714,0
877082,339.22,846,723,0
877092,329.51,846,714,0
877102,322.29,846,722,0
877112,319.37,846,714,0
877122,318.23,846,723,0
877132,320.86,846,714,0
877143,324.38,846,723,0
877153,330.65,846,714,0
877163,336.84,846,723,0
877173,344.60,846,715,0
877184,351.32,846,722,0
877193,358.94,846,714,0
877203,364.70,846,722,0
877213,370.75,846,715,0
877223,374.51,846,722,0
877233,378.34,846,714,0
877243,379.91,846,722,0
877253,381.57,846,715,0
877263,381.05,846,722,0
877273,380.82,846,714,0
877283,378.69,846,723,0
877293,377.11,846,715,0
877303,373.82,846,722,0
877313,371.30,846,714,0
877323,367.44,846,722,0
877333,364.65,846,715,0
877343,360.77,846,723,0
877353,358.14,846,714,0
877363,354.75,846,723,0
877373,352.94,846,715,0
877383,350.35,846,722,0
877393,349.26,846,714,0
877403,347.42,846,723,0
877413,347.12,846,715,0
877423,346.02,846,722,0
877433,346.31,846,714,0
877443,345.79,846,723,0
877453,346.75,846,715,0
877463,346.91,846,722,0
877473,348.40,846,714,0
877484,349.01,846,722,0
877494,350.98,846,715,0
877504,351.97,846,721,0
877514,354.08,846,717,0
877524,355.08,846,715,0
877534,357.12,846,715,0
877544,358.07,846,721,0
877554,359.85,846,716,0
877564,360.45,846,716,0
877574,361.99,846,715,0
877584,362.50,846,721,0
877594,364.32,846,715,0
877604,365.81,846,716,0
877614,369.55,846,715,0
877624,374.27,846,721,0
877634,382.89,846,715,0
877644,394.24,846,717,0
877655,411.27,846,722,0
877674,432.53,876,721,0
877677,459.71,876,724,0
877686,491.09,876,701,0
877697,526.07,876,724,0
877707,561.19,876,703,0
877717,595.42,876,724,0
877727,626.02,876,709,0
877737,652.72,876,724,0
877747,674.02,876,703,0
877757,689.78,876,724,0
877767,700.78,876,709,0
877777,708.47,876,724,0
877787,712.06,876,702,0
877797,711.36,876,725,0
877807,705.46,876,708,0
877817,694.31,876,724,0
877827,677.55,876,702,0
877837,655.48,876,725,0
877847,627.74,876,708,0
877857,596.79,876,724,0
877868,563.72,876,710,0
877878,530.29,876,724,0
877888,497.59,876,709,0
877898,466.38,876,724,0
877908,437.60,876,710,0
877918,411.66,876,724,0
877928,388.75,876,709,0
877938,369.02,876,725,0
877948,352.95,876,710,0
877958,340.45,876,725,0
877968,331.44,876,709,0
877978,325.05,876,724,0
877988,321.99,876,710,0
877998,321.40,876,724,0
878008,323.38,876,709,0
878018,326.95,876,724,0
878028,332.06,876,710,0
878039,338.09,876,723,0
878049,345.35,876,711,0
878059,352.40,876,723,0
878069,360.04,876,713,0
878080,366.58,876,723,0
878089,372.97,876,712,0
878099,377.78,876,723,0
878109,382.13,876,713,0
878119,384.53,876,723,0
878129,386.47,876,711,0
878139,386.46,876,723,0
878149,386.45,876,713,0
878159,384.73,876,723,0
878169,382.97,876,711,0
878179,379.89,876,723,0
878189,377.18,876,713,0
878199,373.53,876,723,0
878209,370.28,876,711,0
878219,366.26,876,723,0
878229,363.18,876,713,0
878239,359.44,876,723,0
878249,356.95,876,713,0
878259,353.97,876,723,0
878269,352.22,876,713,0
878279,350.05,876,723,0
878289,348.97,876,713,0
878299,347.48,876,723,0
878309,347.25,876,713,0
878319,346.32,876,723,0
878329,346.82,876,713,0
878339,346.70,876,723,0
878349,347.86,876,713,0
878359,348.50,876,723,0
878369,350.15,876,713,0
878380,351.01,876,723,0
878390,352.81,876,714,0
878400,353.68,876,722,0
878410,355.36,876,715,0
878420,356.15,876,723,0
878430,358.16,876,714,0
878440,359.87,876,722,0
878450,363.90,876,714,0
878460,368.94,876,723,0
878470,377.49,876,714,0
878480,388.61,876,722,0
878490,405.31,876,714,0
878500,425.88,876,722,0
878510,452.27,876,714,0
878529,481.89,855,714,0
878532,515.69,855,715,0
878541,550.33,855,723,0
878551,584.69,855,715,0
878561,615.81,855,723,0
878571,643.51,855,714,0
878581,665.86,855,723,0
878592,683.34,855,715,0
878601,693.10,855,723,0
878611,696.80,855,714,0
878621,693.60,855,723,0
878631,684.85,855,715,0
878641,669.64,855,723,0
878651,649.39,855,714,0
878661,623.30,855,723,0
878671,595.01,855,715,0
878681,563.76,855,723,0
878691,532.94,855,714,0
878701,501.20,855,723,0
878711,471.61,855,714,0
878721,442.67,855,723,0
878731,417.31,855,714,0
878741,393.48,855,723,0
878751,373.62,855,715,0
878761,355.65,855,723,0
878771,342.21,855,714,0
878781,331.26,855,723,0
878791,324.71,855,714,0
878801,320.13,855,723,0
878811,319.57,855,714,0
878821,320.47,855,723,0
878831,324.92,855,714,0
878841,330.08,855,723,0
878851,337.47,855,714,0
878861,344.70,855,723,0
878871,353.58,855,714,0
878881,361.38,855,723,0
878892,369.96,855,714,0
878902,376.66,855,723,0
878912,383.45,855,715,0
878922,388.24,855,722,0
878932,393.10,855,714,0
878942,395.51,855,723,0
878952,398.06,855,715,0
878962,398.04,855,722,0
878972,397.90,855,714,0
878982,395.62,855,723,0
878992,393.42,855,715,0
879002,389.35,855,722,0
879012,386.16,855,714,0
879022,381.48,855,723,0
879032,378.08,855,715,0
879042,373.64,855,722,0
879052,370.54,855,714,0
879063,366.60,855,721,0
879073,364.02,855,715,0
879083,360.80,855,717,0
879093,358.85,855,721,0
879104,356.32,855,710,0
879113,355.32,855,715,0
879123,353.98,855,717,0
879133,353.86,855,721,0
879143,353.17,855,710,0
879153,353.59,855,715,0
879163,353.12,855,717,0
879173,353.81,855,721,0
879183,353.82,855,710,0
879193,355.08,855,715,0
879203,356.38,855,718,0
879213,360.12,855,721,0
879223,365.14,855,711,0
879233,374.44,855,715,0
879243,386.74,855,718,0
879253,404.90,855,721,0
879263,427.43,855,711,0
879273,456.19,855,722,0
879292,488.57,763,715,0
879295,524.27,763,724,0
879304,559.98,763,705,0
879314,594.61,763,720,0
879324,625.46,763,707,0
879334,652.23,763,721,0
879344,673.25,763,704,0
879354,689.20,763,720,0
879364,699.77,763,708,0
879374,705.84,763,721,0
879384,706.32,763,705,0
879394,701.98,763,720,0
879404,691.66,763,708,0
879414,676.16,763,721,0
879424,654.43,763,705,0
879434,628.37,763,720,0
879444,597.87,763,705,0
879454,566.28,763,721,0
879464,533.03,763,704,0
879474,500.88,763,720,0
879484,469.20,763,705,0
879494,440.55,763,721,0
879504,413.52,763,704,0
879514,390.22,763,720,0
879524,369.28,763,706,0
879534,352.61,763,722,0
879544,338.76,763,704,0
879554,329.23,763,720,0
879564,322.47,763,706,0
879575,319.85,763,722,0
879585,319.59,763,699,0
879595,322.67,763,723,0
879605,327.40,763,703,0
879616,334.48,763,724,0
879625,342.09,763,699,0
879635,350.89,763,723,0
879645,359.28,763,703,0
879655,367.90,763,724,0
879665,375.34,763,700,0
879675,382.31,763,723,0
879685,387.79,763,703,0
879695,392.52,763,724,0
879705,395.58,763,700,0
879715,397.85,763,723,0
879725,398.49,763,702,0
879735,398.35,763,724,0
879745,396.66,763,700,0
879755,394.57,763,723,0
879765,391.57,763,702,0
879775,388.27,763,724,0
879785,384.08,763,708,0
879795,380.07,763,723,0
879805,375.50,763,701,0
879815,371.41,763,724,0
879825,366.96,763,708,0
879835,363.16,763,723,0
879845,359.38,763,701,0
879855,356.52,763,724,0
879865,353.80,763,707,0
879875,352.19,763,723,0
879885,350.76,763,701,0
879895,349.97,763,724,0
879905,349.04,763,707,0
879916,348.86,763,724,0
879926,348.98,763,710,0
879936,350.10,763,725,0
879946,352.47,763,709,0
879956,357.00,763,724,0
879966,364.29,763,710,0
879976,375.56,763,725,0
879986,391.55,763,708,0
879996,412.85,763,724,0
880006,439.51,763,710,0
880025,471.59,733,709,0
880028,507.45,733,714,0
880037,544.65,733,723,0
880047,580.92,733,710,0
880057,614.29,733,724,0
880067,643.43,733,711,0
880077,667.47,733,724,0
880087,685.37,733,710,0
880097,697.95,733,724,0
880107,706.83,733,711,0
880117,712.97,733,724,0
880128,715.81,733,713,0
880137,714.11,733,724,0
880147,707.60,733,711,0
880157,695.08,733,723,0
880167,676.97,733,713,0
880177,652.72,733,724,0
880187,623.15,733,711,0
880197,589.29,733,723,0
880207,554.06,733,713,0
880217,517.91,733,724,0
880227,483.31,733,711,0
880237,450.00,733,723,0
880247,419.96,733,713,0
880257,392.50,733,724,0
880267,369.25,733,711,0
880277,348.99,733,723,0
880287,333.26,733,713,0
880297,320.80,733,723,0
880307,312.85,733,711,0
880317,307.79,733,723,0
880327,306.78,733,712,0
880337,307.96,733,723,0
880347,312.30,733,710,0
880357,317.95,733,724,0
880367,325.98,733,712,0
880377,334.17,733,723,0
880387,343.46,733,710,0
880397,352.11,733,724,0
880407,361.03,733,712,0
880417,368.52,733,723,0
880428,376.25,733,714,0
880438,381.66,733,723,0
880448,386.74,733,714,0
880458,389.34,733,722,0
880468,391.30,733,714,0
880478,390.95,733,723,0
880488,390.02,733,714,0
880498,386.46,733,722,0
880508,383.11,733,714,0
880518,378.19,733,723,0
880528,374.19,733,714,0
880538,368.99,733,722,0
880548,365.18,733,714,0
880558,360.97,733,723,0
880568,358.36,733,713,0
880578,355.17,733,723,0
880588,353.36,733,714,0
880599,350.85,733,722,0
880609,349.87,733,714,0
880619,347.98,733,723,0
880629,347.56,733,714,0
880640,346.10,733,723,0
880649,346.33,733,715,0
880659,345.76,733,723,0
880669,346.99,733,714,0
880679,347.68,733,723,0
880689,350.56,733,715,0
880699,353.74,733,723,0
880709,360.24,733,714,0
880719,368.57,733,722,0
880729,381.77,733,714,0
880739,398.30,733,723,0
880749,421.31,733,714,0
880759,448.77,733,723,0
880778,482.23,753,721,0
880781,518.24,753,720,0
880790,555.29,753,715,0
880800,590.47,753,722,0
880811,623.12,753,715,0
880820,650.60,753,723,0
880830,673.05,753,715,0
880840,689.06,753,721,0
880850,700.36,753,715,0
880860,708.22,753,723,0
880870,713.43,753,715,0
880880,713.56,753,722,0
880890,709.10,753,715,0
880900,698.53,753,723,0
880910,682.64,753,714,0
880920,660.12,753,722,0
880930,632.14,753,715,0
880940,598.50,753,722,0
880950,563.81,753,714,0
880960,527.26,753,721,0
880970,492.47,753,715,0
880980,458.17,753,720,0
880990,427.48,753,714,0
881000,398.58,753,721,0
881010,373.89,753,715,0
881020,351.34,753,720,0
881030,333.92,753,715,0
881040,318.95,753,722,0
881050,308.89,753,715,0
881060,301.21,753,720,0
881070,298.36,753,714,0
881080,297.44,753,721,0
881090,300.35,753,715,0
881100,303.97,753,720,0
881111,310.45,753,715,0
881121,317.00,753,719,0
881131,325.44,753,715,0
881141,332.98,753,718,0
881152,341.52,753,719,0
881161,348.60,753,719,0
881171,356.05,753,715,0
881181,361.48,753,718,0
881191,366.74,753,719,0
881201,369.73,753,719,0
881211,372.60,753,715,0
881221,373.32,753,718,0
881231,374.16,753,718,0
881241,372.96,753,719,0
881251,371.99,753,714,0
881261,369.25,753,718,0
881271,367.03,753,717,0
881281,363.21,753,719,0
881291,360.27,753,715,0
881301,355.95,753,718,0
881311,352.96,753,717,0
881321,349.20,753,712,0
881331,346.91,753,715,0
881341,344.03,753,718,0
881351,342.47,753,717,0
881361,340.28,753,712,0
881371,339.51,753,715,0
881381,337.94,753,718,0
881391,337.53,753,716,0
881401,336.30,753,713,0
881411,336.51,753,715,0
881421,336.14,753,719,0
881431,336.96,753,715,0
881441,336.97,753,713,0
881452,338.26,753,722,0
881462,338.74,753,707,0
881472,340.36,753,722,0
881482,340.98,753,703,0
881492,342.92,753,720,0
881502,344.57,753,708,0
881512,348.43,753,722,0
881522,353.01,753,704,0
881532,361.24,753,720,0
881542,371.92,753,708,0
881552,387.89,753,722,0
881562,408.15,753,704,0
881572,434.55,753,720,0
881591,464.90,813,721,0
881594,499.69,813,722,0
881603,535.82,813,701,0
881613,572.13,813,722,0
881623,605.61,813,704,0
881633,635.51,813,719,0
881643,660.00,813,702,0
881653,679.54,813,723,0
881664,693.65,813,701,0
881673,703.57,813,719,0
881683,708.41,813,702,0
881693,708.76,813,722,0
881703,703.22,813,701,0
881713,692.78,813,719,0
881723,676.05,813,703,0
881733,653.70,813,722,0
881743,625.34,813,700,0
881753,594.46,813,719,0
881763,560.85,813,703,0
881773,527.47,813,722,0
881783,493.77,813,700,0
881793,462.60,813,719,0
881803,433.23,813,704,0
881813,407.36,813,722,0
881823,383.64,813,700,0
881833,363.69,813,722,0
881843,346.51,813,704,0
881853,333.20,813,722,0
881863,322.43,813,700,0
881873,315.31,813,723,0
881883,310.46,813,705,0
881893,308.78,813,722,0
881903,308.89,813,700,0
881913,311.62,813,723,0
881923,315.42,813,705,0
881933,321.04,813,721,0
881943,327.11,813,699,0
881953,334.32,813,722,0
881964,341.25,813,704,0
881974,348.51,813,723,0
881984,354.83,813,710,0
881994,360.79,813,724,0
882004,365.74,813,709,0
882014,369.98,813,723,0
882024,372.73,813,709,0
882034,374.61,813,724,0
882044,375.41,813,710,0
882054,375.50,813,723,0
882064,374.79,813,709,0
882074,373.27,813,724,0
882084,371.39,813,710,0
882094,369.39,813,723,0
882104,366.61,813,709,0
882114,363.69,813,724,0
882124,360.39,813,710,0
882135,356.89,813,725,0
882145,353.62,813,709,0
882155,350.09,813,724,0
882165,346.98,813,710,0
882176,344.33,813,723,0
882185,342.13,813,709,0
882195,340.68,813,724,0
882205,340.17,813,710,0
882215,339.95,813,723,0
882225,340.69,813,709,0
882235,341.30,813,724,0
882245,343.05,813,710,0
882255,344.54,813,724,0
882265,346.60,813,709,0
882275,348.18,813,724,0
882285,350.35,813,710,0
882295,351.71,813,724,0
882305,353.29,813,709,0
882315,354.06,813,724,0
882325,355.29,813,710,0
882335,355.67,813,723,0
882345,356.71,813,712,0
882355,357.36,813,724,0
882365,359.44,813,710,0
882375,362.86,813,723,0
882385,369.07,813,712,0
882395,377.88,813,724,0
882405,390.86,813,710,0
882415,407.92,813,723,0
882425,430.57,813,712,0
882444,457.66,853,708,0
882447,489.43,853,715,0
882456,523.84,853,723,0
882466,559.12,853,713,0
882476,592.98,853,723,0
882486,624.10,853,713,0
882496,650.60,853,723,0
882506,672.49,853,714,0
882516,688.76,853,723,0
882526,700.15,853,713,0
882536,706.06,853,723,0
882546,707.07,853,713,0
882556,702.25,853,723,0
882566,692.45,853,713,0
882576,677.01,853,722,0
882586,656.52,853,713,0
882596,630.27,853,723,0
882606,601.56,853,713,0
882616,570.40,853,722,0
882626,539.55,853,713,0
882636,508.32,853,723,0
882647,478.95,853,714,0
882657,450.59,853,722,0
882667,425.60,853,714,0
882677,402.15,853,722,0
882688,382.39,853,714,0
882697,364.66,853,722,0
882707,351.00,853,714,0
882717,339.30,853,722,0
882727,331.71,853,714,0
882737,325.88,853,722,0
882747,324.03,853,715,0
882757,323.38,853,722,0
882767,325.88,853,714,0
882777,328.96,853,722,0
882787,334.11,853,714,0
882797,339.01,853,722,0
882807,345.31,853,714,0
882817,350.57,853,722,0
882827,356.96,853,714,0
882837,361.56,853,722,0
882847,366.70,853,714,0
882857,370.35,853,722,0
882867,374.44,853,714,0
882877,376.63,853,722,0
882887,378.88,853,714,0
882897,378.96,853,722,0
882907,379.74,853,714,0
882917,378.49,853,722,0
882927,377.83,853,714,0
882937,375.35,853,722,0
882947,373.79,853,714,0
882957,371.07,853,722,0
882967,369.20,853,714,0
882977,366.01,853,722,0
882988,363.74,853,714,0
882998,360.30,853,723,0
883008,357.94,853,714,0
883018,354.53,853,722,0
883028,352.23,853,714,0
883038,349.59,853,723,0
883048,348.21,853,714,0
883058,346.56,853,722,0
883068,346.27,853,714,0
883078,345.54,853,723,0
883088,346.28,853,714,0
883098,346.15,853,722,0
883108,347.22,853,714,0
883118,347.46,853,722,0
883128,348.86,853,714,0
883138,349.20,853,722,0
883148,350.47,853,714,0
883159,350.67,853,722,0
883169,352.18,853,715,0
883179,352.39,853,722,0
883189,353.73,853,714,0
883200,353.98,853,722,0
883209,356.04,853,715,0
883219,358.13,853,722,0
883229,362.46,853,715,0
883239,367.60,853,722,0
883249,376.42,853,714,0
883259,387.82,853,722,0
883269,404.42,853,714,0
883279,424.82,853,722,0
883298,450.55,854,721,0
883301,479.57,854,717,0
883310,513.04,854,721,0
883320,547.61,854,715,0
883330,581.93,854,715,0
883340,613.37,854,722,0
883350,641.24,854,721,0
883360,664.18,854,716,0
883371,682.81,854,723,0
883380,694.23,854,722,0
883390,700.07,854,720,0
883400,699.45,854,716,0
883410,693.57,854,723,0
883420,681.36,854,722,0
883430,663.94,854,720,0
883440,640.47,854,716,0
883450,613.76,854,723,0
883460,583.74,854,722,0
883470,553.44,854,719,0
883480,522.19,854,717,0
883490,492.52,854,723,0
883500,463.48,854,722,0
883510,437.49,854,719,0
883520,413.47,854,717,0
883530,392.80,854,724,0
883540,374.30,854,715,0
883550,359.56,854,718,0
883560,347.05,854,718,0
883570,338.42,854,724,0
883580,331.82,854,714,0
883590,328.87,854,718,0
883600,327.67,854,718,0
883610,329.61,854,724,0
883620,332.51,854,714,0
883630,338.06,854,717,0
883640,344.00,854,718,0
883650,351.37,854,724,0
883660,358.12,854,715,0
883671,365.28,854,726,0
883681,371.20,854,716,0
883691,377.10,854,726,0
883701,381.10,854,718,0
883712,384.58,854,726,0
883721,386.51,854,715,0
883731,388.07,854,726,0
883741,388.48,854,719,0
883751,388.68,854,725,0
883761,387.75,854,715,0
883771,386.96,854,726,0
883781,385.13,854,718,0
883791,383.68,854,725,0
883801,381.07,854,715,0
883811,378.57,854,726,0
883821,374.97,854,718,0
883831,371.76,854,725,0
883841,367.85,854,715,0
883851,364.85,854,726,0
883861,361.21,854,718,0
883871,358.58,854,725,0
883881,355.66,854,715,0
883891,353.92,854,726,0
883901,352.01,854,718,0
883911,351.20,854,725,0
883921,350.28,854,716,0
883931,350.24,854,726,0
883941,349.82,854,717,0
883951,350.39,854,725,0
883961,350.49,854,717,0
883971,351.24,854,726,0
883981,351.47,854,717,0
883991,352.14,854,725,0
884001,352.40,854,717,0
884012,353.82,854,727,0
884022,355.12,854,713,0
884032,357.83,854,725,0
884042,361.69,854,713,0
884052,368.30,854,724,0
884062,377.42,854,714,0
884072,390.93,854,725,0
884082,408.39,854,713,0
884092,431.16,854,724,0
884102,458.28,854,714,0
884121,489.83,823,712,0
884124,524.08,823,712,0
884133,559.20,823,724,0
884143,592.78,823,714,0
884153,623.40,823,724,0
884163,649.60,823,712,0
884173,671.19,823,724,0
884183,686.56,823,714,0
884193,695.31,823,723,0
884203,697.70,823,712,0
884213,693.93,823,724,0
884224,684.31,823,711,0
884233,669.05,823,723,0
884243,648.16,823,712,0
884253,622.74,823,724,0
884263,594.19,823,711,0
884273,563.92,823,723,0
884283,533.00,823,712,0
884293,502.27,823,724,0
884303,472.66,823,711,0
884313,444.73,823,723,0
884323,419.01,823,712,0
884333,395.65,823,724,0
884343,375.06,823,711,0
884353,357.55,823,723,0
884363,343.37,823,712,0
884373,332.29,823,724,0
884383,324.70,823,711,0
884393,320.29,823,724,0
884403,319.13,823,713,0
884413,320.59,823,724,0
884423,324.40,823,711,0
884433,329.89,823,724,0
884443,336.78,823,713,0
884453,344.39,823,724,0
884463,352.67,823,711,0
884473,360.74,823,724,0
884483,368.41,823,712,0
884493,375.27,823,724,0
884503,381.40,823,711,0
884513,386.34,823,724,0
884524,390.57,823,711,0
884534,393.10,823,723,0
884544,394.95,823,712,0
884554,395.35,823,723,0
884564,395.16,823,713,0
884574,393.66,823,723,0
884584,391.70,823,712,0
884594,388.32,823,723,0
884604,385.05,823,713,0
884614,380.88,823,723,0
884624,377.19,823,712,0
884634,372.89,823,723,0
884644,369.28,823,713,0
884654,365.51,823,724,0
884664,362.61,823,711,0
884674,359.86,823,723,0
884684,357.97,823,712,0
884695,356.18,823,723,0
884705,355.23,823,713,0
884715,354.22,823,722,0
884725,354.11,823,713,0
884736,353.69,823,722,0
884745,354.00,823,713,0
884755,354.13,823,722,0
884765,355.46,823,713,0
884775,356.91,823,722,0
884785,359.98,823,713,0
884795,364.06,823,722,0
884805,371.67,823,713,0
884815,381.71,823,722,0
884825,396.41,823,713,0
884835,415.02,823,722,0
884845,439.61,823,713,0
884865,468.83,743,713,0
884868,502.99,743,716,0
884877,538.44,743,722,0
884887,574.09,743,715,0
884897,607.32,743,722,0
884908,637.18,743,716,0
884918,661.81,743,722,0
884928,681.20,743,716,0
884938,694.77,743,722,0
884948,704.31,743,717,0
884958,709.70,743,722,0
884968,711.25,743,716,0
884978,707.40,743,722,0
884988,698.58,743,717,0
884998,683.79,743,722,0
885008,663.76,743,716,0
885018,637.51,743,722,0
885028,607.62,743,716,0
885038,574.22,743,722,0
885048,540.68,743,715,0
885058,506.75,743,722,0
885068,474.72,743,716,0
885079,443.86,743,722,0
885089,416.60,743,719,0
885099,391.61,743,717,0
885109,370.73,743,724,0
885120,352.25,743,714,0
885129,337.90,743,718,0
885139,326.32,743,717,0
885149,319.07,743,724,0
885159,314.25,743,714,0
885169,313.19,743,717,0
885179,313.82,743,718,0
885189,317.64,743,723,0
885199,322.59,743,714,0
885209,329.70,743,716,0
885219,336.69,743,718,0
885229,344.84,743,723,0
885239,352.09,743,714,0
885249,359.69,743,715,0
885259,365.74,743,719,0
885269,371.56,743,723,0
885279,375.46,743,714,0
885289,379.10,743,724,0
885299,380.70,743,719,0
885309,381.99,743,723,0
885319,381.48,743,714,0
885329,380.78,743,723,0
885339,378.40,743,720,0
885349,376.31,743,722,0
885359,372.87,743,714,0
885369,370.25,743,723,0
885379,366.54,743,721,0
885389,363.55,743,722,0
885399,359.78,743,715,0
885409,356.89,743,723,0
885420,353.28,743,715,0
885430,350.62,743,725,0
885440,347.22,743,716,0
885450,344.88,743,725,0
885460,342.39,743,711,0
885470,341.07,743,725,0
885480,339.55,743,715,0
885490,339.04,743,725,0
885500,338.39,743,711,0
885510,338.66,743,725,0
885520,338.63,743,715,0
885530,339.56,743,724,0
885540,340.12,743,712,0
885550,341.71,743,724,0
885560,343.38,743,715,0
885570,347.04,743,724,0
885580,352.04,743,712,0
885591,360.56,743,726,0
885601,371.96,743,707,0
885611,388.69,743,725,0
885621,410.47,743,707,0
885632,438.83,743,724,0
885650,471.75,786,725,0
885653,508.60,786,723,0
885662,546.09,786,709,0
885672,582.79,786,724,0
885682,616.24,786,709,0
885692,645.27,786,723,0
885702,668.29,786,709,0
885712,685.60,786,724,0
885722,697.81,786,709,0
885732,706.35,786,724,0
885742,712.37,786,709,0
885752,715.22,786,724,0
885762,714.12,786,709,0
885772,708.39,786,723,0
885782,696.87,786,709,0
885792,679.47,786,724,0
885803,655.84,786,708,0
885812,626.53,786,723,0
885822,592.99,786,709,0
885832,557.08,786,724,0
885842,520.28,786,708,0
885852,484.84,786,724,0
885862,451.33,786,709,0
885872,420.89,786,724,0
885882,393.58,786,708,0
885892,369.92,786,723,0
885902,350.02,786,709,0
885912,333.68,786,724,0
885922,320.96,786,708,0
885932,311.72,786,723,0
885942,305.89,786,709,0
885952,303.22,786,724,0
885962,303.58,786,708,0
885972,306.15,786,724,0
885982,310.82,786,709,0
885992,316.75,786,724,0
886002,323.76,786,708,0
886012,331.34,786,724,0
886022,338.91,786,709,0
886032,346.09,786,724,0
886042,353.01,786,708,0
886052,359.35,786,724,0
886062,364.90,786,709,0
886072,369.30,786,724,0
886082,372.55,786,708,0
886092,374.53,786,724,0
886103,375.53,786,708,0
886113,375.11,786,723,0
886123,374.05,786,710,0
886133,371.81,786,723,0
886144,369.42,786,711,0
886153,366.25,786,723,0
886163,363.31,786,710,0
886173,359.57,786,723,0
886183,356.19,786,711,0
886193,352.27,786,724,0
886203,348.98,786,710,0
886213,345.34,786,723,0
886223,342.50,786,712,0
886233,339.52,786,724,0
886243,337.43,786,710,0
886253,335.55,786,723,0
886263,334.57,786,711,0
886273,334.01,786,724,0
886283,334.31,786,710,0
886293,334.56,786,723,0
886303,335.63,786,711,0
886313,336.56,786,723,0
886323,338.19,786,710,0
886333,339.42,786,723,0
886343,341.14,786,711,0
886353,342.30,786,723,0
886363,344.05,786,710,0
886373,345.58,786,723,0
886383,348.45,786,711,0
886393,352.13,786,723,0
886403,358.47,786,709,0
886413,367.33,786,723,0
886423,381.03,786,711,0
886433,399.58,786,723,0
886444,424.61,786,712,0
886454,455.20,786,723,0
886473,490.92,823,721,0
886476,528.70,823,723,0
886486,566.55,823,714,0
886495,602.00,823,722,0
886505,633.67,823,713,0
886515,659.66,823,722,0
886525,679.69,823,714,0
886535,693.71,823,722,0
886545,703.57,823,713,0
886555,710.43,823,723,0
886565,715.27,823,714,0
886575,717.33,823,722,0
886585,716.12,823,713,0
886595,709.48,823,722,0
886605,697.72,823,714,0
886615,679.59,823,722,0
886625,655.71,823,713,0
886635,625.29,823,722,0
886645,591.00,823,713,0
886656,553.16,823,722,0
886665,515.78,823,713,0
886675,478.48,823,722,0
886685,444.05,823,713,0
886695,411.68,823,722,0
886705,383.83,823,714,0
886715,358.85,823,722,0
886725,338.97,823,714,0
886735,322.26,823,722,0
886745,310.57,823,713,0
886755,301.83,823,722,0
886765,297.81,823,714,0
886775,296.15,823,722,0
886785,298.33,823,714,0
886795,302.13,823,722,0
886805,309.08,823,714,0
886815,316.43,823,722,0
886825,326.07,823,713,0
886835,335.14,823,722,0
886845,344.91,823,714,0
886855,353.08,823,722,0
886865,361.16,823,713,0
886875,366.85,823,722,0
886885,372.17,823,713,0
886895,375.20,823,722,0
886905,377.67,823,713,0
886915,377.94,823,722,0
886925,378.60,823,714,0
886935,377.31,823,722,0
886945,376.31,823,713,0
886956,373.69,823,722,0
886966,371.13,823,714,0
886976,367.27,823,722,0
886986,364.32,823,714,0
886996,359.85,823,722,0
887006,356.98,823,714,0
887016,353.05,823,722,0
887026,350.46,823,714,0
887036,347.06,823,722,0
887046,345.46,823,714,0
887056,343.22,823,722,0
887066,342.43,823,714,0
887076,340.71,823,722,0
887086,340.46,823,714,0
887096,339.51,823,722,0
887106,340.04,823,714,0
887116,339.60,823,722,0
887127,340.53,823,714,0
887137,340.80,823,722,0
887147,342.19,823,714,0
887157,342.95,823,722,0
887168,344.76,823,716,0
887177,345.82,823,722,0
887187,348.06,823,714,0
887197,349.24,823,722,0
887207,352.00,823,715,0
887217,354.31,823,722,0
887227,358.93,823,714,0
887237,364.65,823,722,0
887247,374.31,823,715,0
887257,386.61,823,722,0
887267,404.98,823,714,0
887277,427.74,823,722,0
887297,457.52,823,721,0
887300,491.61,823,702,0
887309,528.67,823,721,0
887319,565.20,823,710,0
887329,600.58,823,723,0
887340,631.82,823,705,0
887350,658.49,823,726,0
887360,678.66,823,702,0
887370,692.95,823,725,0
887380,702.95,823,708,0
887390,709.95,823,726,0
887400,714.81,823,702,0
887410,717.48,823,725,0
887420,716.18,823,707,0
887430,710.42,823,726,0
887440,698.81,823,702,0
887450,681.30,823,725,0
887460,657.38,823,707,0
887470,627.78,823,725,0
887480,593.00,823,701,0
887490,556.06,823,725,0
887500,517.90,823,707,0
887511,480.94,823,724,0
887521,445.82,823,709,0
887531,414.16,823,724,0
887541,385.78,823,708,0
887552,361.59,823,724,0
887561,341.36,823,709,0
887571,325.78,823,724,0
887581,314.19,823,709,0
887591,306.89,823,724,0
887601,302.85,823,709,0
887611,302.12,823,724,0
887621,304.19,823,709,0
887631,308.67,823,724,0
887641,314.81,823,709,0
887651,322.37,823,724,0
887661,330.74,823,709,0
887671,339.44,823,724,0
887681,347.75,823,709,0
887691,355.58,823,724,0
887701,362.56,823,709,0
887711,368.35,823,724,0
887721,373.30,823,708,0
887731,376.77,823,724,0
887741,378.98,823,709,0
887751,380.10,823,724,0
887761,380.16,823,708,0
887771,379.47,823,724,0
887781,377.83,823,709,0
887791,375.01,823,724,0
887801,371.66,823,708,0
887811,368.12,823,724,0
887821,364.40,823,709,0
887831,360.59,823,724,0
887841,356.73,823,708,0
887852,353.13,823,724,0
887862,350.30,823,710,0
887872,347.60,823,723,0
887882,345.53,823,711,0
887892,343.53,823,723,0
887902,342.34,823,710,0
887912,341.13,823,723,0
887922,340.83,823,711,0
887932,340.02,823,723,0
887942,340.19,823,710,0
887952,340.13,823,723,0
887962,340.82,823,711,0
887972,340.92,823,723,0
887982,341.71,823,709,0
887992,342.06,823,723,0
888002,343.20,823,711,0
888012,343.74,823,723,0
888023,345.06,823,712,0
888033,346.41,823,723,0
888043,349.16,823,713,0
888053,352.54,823,722,0
888064,358.34,823,714,0
888073,366.21,823,722,0
888083,378.40,823,712,0
888093,394.35,823,722,0
888103,416.53,823,714,0
888113,443.46,823,723,0
888132,476.45,836,721,0
888135,512.31,836,723,0
888144,549.63,836,714,0
888154,585.44,836,722,0
888164,618.78,836,714,0
888174,646.92,836,722,0
888184,670.09,836,714,0
888194,686.82,836,722,0
888204,698.74,836,714,0
888214,707.05,836,722,0
888224,712.22,836,714,0
888235,712.28,836,722,0
888244,707.78,836,714,0
888254,697.13,836,722,0
888264,680.72,836,714,0
888274,657.62,836,722,0
888284,629.06,836,713,0
888294,595.02,836,722,0
888304,559.74,836,714,0
888314,522.66,836,722,0
888324,487.28,836,714,0
888334,452.78,836,722,0
888344,422.07,836,714,0
888354,393.47,836,722,0
888364,369.54,836,713,0
888374,348.51,836,722,0
888384,332.63,836,714,0
888394,319.84,836,722,0
888404,312.47,836,713,0
888414,307.79,836,722,0
888424,307.72,836,714,0
888434,309.65,836,722,0
888444,315.11,836,714,0
888454,321.76,836,722,0
888464,330.79,836,714,0
888474,339.68,836,722,0
888484,349.98,836,713,0
888494,359.46,836,722,0
888504,369.48,836,714,0
888514,377.39,836,722,0
888524,384.82,836,713,0
888535,389.76,836,722,0
888545,394.29,836,714,0
888555,396.30,836,722,0
888565,397.58,836,714,0
888576,396.34,836,722,0
888585,395.34,836,714,0
888595,392.28,836,722,0
888605,389.67,836,714,0
888615,385.22,836,722,0
888625,381.60,836,714,0
888635,376.88,836,722,0
888645,373.44,836,714,0
888655,369.07,836,722,0
888665,366.09,836,714,0
888675,362.42,836,722,0
888685,360.15,836,714,0
888695,357.02,836,722,0
888705,355.26,836,714,0
888715,352.78,836,722,0
888725,351.52,836,714,0
888735,349.48,836,722,0
888745,348.69,836,714,0
888755,347.20,836,722,0
888765,347.18,836,714,0
888775,346.36,836,722,0
888785,346.98,836,714,0
888795,346.98,836,722,0
888805,348.92,836,714,0
888815,350.96,836,722,0
888825,355.90,836,714,0
888835,362.40,836,722,0
888845,373.77,836,714,0
888855,388.62,836,722,0
888865,409.99,836,714,0
888876,436.05,836,722,0
888886,468.78,836,714,0
888905,504.85,773,713,0
888908,542.82,773,720,0
888918,579.30,773,710,0
888927,613.50,773,719,0
888937,642.75,773,716,0
888947,667.04,773,722,0
888957,684.73,773,711,0
888967,697.19,773,719,0
888977,705.32,773,716,0
888987,709.38,773,722,0
888997,707.85,773,711,0
889007,701.34,773,718,0
889017,688.25,773,716,0
889027,669.32,773,722,0
889037,643.55,773,711,0
889047,613.09,773,717,0
889057,578.09,773,716,0
889067,542.19,773,722,0
889077,505.11,773,711,0
889088,470.27,773,721,0
889097,436.76,773,717,0
889107,407.22,773,722,0
889117,380.07,773,712,0
889127,357.55,773,721,0
889137,338.27,773,717,0
889147,323.87,773,722,0
889157,312.81,773,712,0
889167,306.91,773,721,0
889177,304.11,773,718,0
889187,305.79,773,722,0
889197,309.62,773,712,0
889207,316.94,773,722,0
889217,325.14,773,718,0
889227,335.56,773,721,0
889237,345.42,773,713,0
889247,356.05,773,721,0
889257,365.25,773,708,0
889267,374.77,773,721,0
889277,382.21,773,713,0
889287,389.14,773,722,0
889297,393.29,773,708,0
889307,396.98,773,721,0
889317,398.53,773,713,0
889327,399.53,773,722,0
889337,398.21,773,708,0
889347,396.56,773,721,0
889357,393.35,773,713,0
889367,390.72,773,722,0
889377,386.64,773,708,0
889388,383.11,773,721,0
889398,378.62,773,707,0
889408,375.13,773,720,0
889418,371.06,773,702,0
889428,368.17,773,724,0
889438,364.52,773,707,0
889448,362.39,773,720,0
889458,359.79,773,703,0
889468,358.57,773,724,0
889478,356.77,773,707,0
889488,355.98,773,720,0
889498,354.92,773,704,0
889508,354.90,773,723,0
889518,354.54,773,707,0
889528,355.45,773,720,0
889538,356.73,773,705,0
889548,360.15,773,723,0
889559,365.29,773,700,0
889569,374.08,773,725,0
889579,386.70,773,705,0
889589,405.00,773,724,0
889600,429.13,773,710,0
889609,459.56,773,725,0
889628,494.67,723,723,0
889631,532.27,723,725,0
889640,569.60,723,709,0
889650,604.95,723,724,0
889660,636.08,723,709,0
889670,661.73,723,725,0
889680,681.18,723,709,0
889690,694.88,723,724,0
889700,704.48,723,709,0
889710,711.15,723,724,0
889720,715.86,723,709,0
889730,719.16,723,724,0
889740,718.77,723,709,0
889750,713.87,723,724,0
889760,703.41,723,709,0
889771,686.70,723,724,0
889780,663.56,723,709,0
889790,634.08,723,724,0
889800,598.83,723,709,0
889810,560.65,723,724,0
889820,521.28,723,709,0
889830,482.58,723,724,0
889840,446.11,723,709,0
889850,412.52,723,724,0
889860,382.53,723,710,0
889870,356.53,723,724,0
889880,335.20,723,708,0
889890,318.55,723,724,0
889900,306.26,723,710,0
889910,298.55,723,724,0
889920,295.34,723,708,0
889930,296.01,723,724,0
889940,300.21,723,709,0
889950,306.87,723,724,0
889960,315.48,723,709,0
889970,325.20,723,724,0
889980,335.64,723,709,0
889990,345.77,723,724,0
890000,355.53,723,709,0
890010,363.90,723,724,0
890020,371.51,723,709,0
890030,377.45,723,724,0
890040,382.20,723,708,0
890050,385.05,723,724,0
890060,386.79,723,709,0
890071,387.07,723,723,0
890081,386.62,723,711,0
890091,384.42,723,723,0
890101,381.85,723,712,0
890112,378.34,723,723,0
890121,374.81,723,711,0
890131,370.67,723,723,0
890141,366.91,723,712,0
890151,362.78,723,723,0
890161,359.55,723,711,0
890171,356.00,723,723,0
890181,353.64,723,712,0
890191,350.96,723,723,0
890201,349.52,723,711,0
890211,347.73,723,723,0
890221,347.21,723,712,0
890231,346.21,723,723,0
890241,346.36,723,711,0
890251,345.99,723,723,0
890261,346.55,723,712,0
890271,346.52,723,723,0
890281,347.56,723,713,0
890291,348.29,723,723,0
890301,350.90,723,712,0
890311,354.45,723,723,0
890321,361.60,723,713,0
890331,371.92,723,723,0
890341,387.76,723,712,0
890351,408.62,723,723,0
890361,436.55,723,713,0
890380,469.94,752,711,0
890383,507.46,752,715,0
890392,545.59,752,722,0
890402,583.00,752,714,0
890412,616.94,752,723,0
890422,646.62,752,713,0
890432,669.83,752,722,0
890442,686.94,752,714,0
890452,698.87,752,722,0
890462,707.31,752,714,0
890472,713.17,752,722,0
890482,717.36,752,714,0
890492,718.33,752,722,0
890502,715.87,752,713,0
890512,707.68,752,722,0
890522,693.85,752,714,0
890532,673.19,752,722,0
890542,646.56,752,713,0
890552,613.48,752,722,0
890562,577.12,752,714,0
890572,537.79,752,722,0
890583,499.54,752,714,0
890593,461.79,752,722,0
890603,427.74,752,714,0
890613,396.06,752,722,0
890624,369.04,752,714,0
890633,345.07,752,722,0
890643,326.32,752,714,0
890653,310.41,752,722,0
890663,299.87,752,714,0
890673,291.94,752,722,0
890683,289.04,752,714,0
890693,288.56,752,722,0
890703,292.29,752,714,0
890713,297.39,752,722,0
890723,305.50,752,714,0
890733,313.88,752,722,0
890743,324.16,752,714,0
890753,333.54,752,722,0
890763,343.58,752,714,0
890773,351.68,752,722,0
890783,359.74,752,714,0
890793,365.56,752,722,0
890803,371.14,752,714,0
890813,374.31,752,722,0
890823,377.17,752,714,0
890833,377.55,752,721,0
890843,377.90,752,714,0
890853,376.04,752,722,0
890863,374.45,752,714,0
890873,370.88,752,722,0
890883,367.92,752,714,0
890893,363.44,752,722,0
890903,359.97,752,714,0
890913,355.13,752,722,0
890924,351.49,752,714,0
890934,347.10,752,722,0
890944,344.16,752,715,0
890954,340.42,752,721,0
890964,338.15,752,714,0
890974,335.45,752,722,0
890984,334.42,752,714,0
890994,332.71,752,722,0
891004,332.45,752,714,0
891014,331.59,752,722,0
891024,332.31,752,714,0
891034,332.35,752,722,0
891044,333.61,752,714,0
891054,334.12,752,722,0
891064,336.05,752,714,0
891074,336.98,752,722,0
891084,339.13,752,714,0
891095,340.20,752,721,0
891105,342.41,752,714,0
891115,343.70,752,719,0
891125,346.62,752,719,0
891136,349.65,752,713,0
891145,355.71,752,714,0
891155,363.51,752,719,0
891165,376.30,752,718,0
891175,393.18,752,713,0
