Time,PPG,IBI,GSR,GSR_Event
188437,372.05,722,754,0
188447,362.99,722,756,0
188457,353.31,722,755,0
188467,343.40,722,756,0
188477,334.02,722,754,0
188487,325.15,722,756,0
188497,317.52,722,755,0
188507,312.69,722,756,0
188517,310.21,722,755,0
188527,309.38,722,756,0
188537,310.04,722,755,0
188547,311.57,722,756,0
188557,314.10,722,755,0
188567,316.81,722,756,0
188577,319.91,722,755,0
188588,322.85,722,755,0
188598,325.98,722,755,0
188608,329.12,722,755,0
188618,333.07,722,755,0
188628,338.19,722,755,0
188638,345.80,722,755,0
188648,356.92,722,755,0
188658,373.44,722,755,0
188668,396.54,722,755,0
188678,427.36,722,755,0
188688,466.13,722,756,0
188698,509.80,722,755,0
188708,555.29,722,755,0
188727,600.07,763,755,0
188729,641.45,763,756,0
188739,677.32,763,756,0
188749,706.02,763,755,0
188759,726.42,763,756,0
188769,740.69,763,755,0
188779,750.73,763,756,0
188789,757.75,763,755,0
188800,762.71,763,756,0
188809,766.18,763,755,0
188819,768.61,763,756,0
188829,770.27,763,755,0
188839,771.43,763,756,0
188849,772.25,763,755,0
188859,771.14,763,756,0
188869,764.59,763,755,0
188879,750.70,763,756,0
188889,728.12,763,755,0
188899,696.32,763,756,0
188909,654.91,763,755,0
188919,604.50,763,756,0
188929,547.48,763,755,0
188939,488.92,763,756,0
188949,431.64,763,755,0
188959,378.91,763,756,0
188969,332.26,763,755,0
188979,294.00,763,756,0
188989,264.30,763,755,0
188999,243.85,763,756,0
189009,231.68,763,755,0
189019,227.83,763,756,0
189029,230.50,763,755,0
189039,239.22,763,756,0
189049,251.84,763,755,0
189059,267.75,763,756,0
189069,284.96,763,755,0
189079,302.93,763,756,0
189089,320.05,763,755,0
189100,336.19,763,757,0
189110,350.06,763,755,0
189120,361.87,763,756,0
189130,370.83,763,755,0
189140,377.44,763,757,0
189150,381.16,763,755,0
189160,382.83,763,756,0
189170,381.98,763,755,0
189180,379.59,763,757,0
189190,375.30,763,755,0
189200,370.06,763,756,0
189210,363.66,763,755,0
189220,357.03,763,757,0
189230,349.78,763,755,0
189240,342.90,763,757,0
189250,336.03,763,755,0
189260,330.07,763,757,0
189271,324.52,763,755,0
189281,320.12,763,757,0
189291,316.44,763,754,0
189301,314.17,763,757,0
189312,312.70,763,754,0
189321,312.53,763,757,0
189331,313.06,763,754,0
189341,314.63,763,757,0
189351,316.58,763,754,0
189361,319.02,763,757,0
189371,321.29,763,754,0
189381,323.77,763,757,0
189391,325.90,763,754,0
189401,328.20,763,757,0
189411,330.24,763,754,0
189421,332.87,763,757,0
189431,336.38,763,754,0
189441,342.05,763,757,0
189451,350.48,763,754,0
189461,363.49,763,757,0
189471,381.99,763,754,0
189481,408.01,763,757,0
189491,441.60,763,754,0
189501,482.35,763,757,0
189520,526.73,793,756,0
189523,572.15,793,758,0
189532,615.74,793,754,0
189542,655.33,793,757,0
189552,688.53,793,754,0
189562,714.21,793,757,0
189572,732.24,793,754,0
189582,744.85,793,757,0
189592,753.64,793,754,0
189602,759.79,793,757,0
189612,764.10,793,754,0
189622,767.11,793,757,0
189632,769.22,793,754,0
189642,770.65,793,757,0
189652,771.66,793,754,0
189662,771.85,793,757,0
189672,767.69,793,754,0
189682,756.94,793,757,0
189692,737.76,793,754,0
189702,709.67,793,757,0
189712,672.23,793,754,0
189722,625.75,793,757,0
189732,571.27,793,754,0
189742,513.67,793,757,0
189752,456.30,793,754,0
189762,402.47,793,757,0
189772,353.90,793,754,0
189783,312.57,793,757,0
189793,279.36,793,754,0
189803,254.78,793,757,0
189813,238.47,793,754,0
189824,230.19,793,757,0
189833,228.93,793,754,0
189843,233.97,793,757,0
189853,243.83,793,754,0
189863,257.38,793,757,0
189873,273.38,793,754,0
189883,290.71,793,757,0
189893,308.15,793,754,0
189903,324.91,793,757,0
189913,339.94,793,754,0
189923,352.73,793,757,0
189933,362.88,793,754,0
189943,370.24,793,757,0
189953,374.80,793,754,0
189963,376.87,793,757,0
189973,376.57,793,754,0
189983,374.34,793,757,0
189993,370.60,793,754,0
190003,365.75,793,757,0
190013,359.99,793,754,0
190023,353.65,793,757,0
190033,346.90,793,754,0
190043,340.33,793,757,0
190053,333.93,793,754,0
190063,327.91,793,757,0
190073,322.36,793,754,0
190083,317.54,793,757,0
190093,313.61,793,754,0
190103,310.51,793,757,0
190113,308.13,793,754,0
190124,306.63,793,756,0
190134,306.10,793,754,0
190144,306.33,793,756,0
190154,307.43,793,755,0
190164,308.97,793,756,0
190174,311.29,793,754,0
190184,313.82,793,756,0
190194,316.66,793,755,0
190204,319.33,793,756,0
190214,322.02,793,755,0
190224,324.37,793,756,0
190234,326.66,793,755,0
190244,328.48,793,756,0
190254,330.30,793,754,0
190264,332.14,793,756,0
190274,334.76,793,755,0
190284,338.64,793,756,0
190295,345.14,793,755,0
190305,355.17,793,756,0
190315,370.46,793,755,0
190325,392.35,793,756,0
190336,422.12,793,755,0
190345,459.75,793,756,0
190364,502.90,844,755,0
190367,548.27,844,755,0
190376,593.32,844,756,0
190386,635.35,844,756,0
190396,672.19,844,755,0
190406,701.88,844,755,0
190416,723.56,844,756,0
190426,738.73,844,755,0
190436,749.31,844,755,0
190446,756.72,844,755,0
190456,761.90,844,755,0
190466,765.53,844,755,0
190476,768.07,844,755,0
190486,769.85,844,755,0
190496,769.42,844,755,0
190507,763.90,844,755,0
190516,751.88,844,755,0
190526,731.69,844,755,0
190536,702.81,844,755,0
190546,664.77,844,755,0
190556,618.42,844,755,0
190566,565.63,844,755,0
190576,510.67,844,755,0
190586,455.78,844,754,0
190596,404.38,844,755,0
190606,357.89,844,755,0
190616,318.45,844,755,0
190626,286.05,844,754,0
190636,261.82,844,755,0
190646,245.16,844,755,0
190656,236.41,844,755,0
190666,234.23,844,754,0
190676,238.45,844,756,0
190686,247.31,844,755,0
190696,260.25,844,755,0
190706,275.60,844,755,0
190716,292.69,844,756,0
190726,309.80,844,755,0
190736,326.70,844,755,0
190746,341.83,844,755,0
190756,355.34,844,756,0
190766,366.25,844,755,0
190776,374.96,844,755,0
190786,380.85,844,755,0
190796,384.62,844,756,0
190807,385.59,844,754,0
190817,384.81,844,756,0
190827,381.83,844,754,0
190837,377.68,844,756,0
190848,371.90,844,754,0
190857,365.80,844,756,0
190867,358.88,844,754,0
190877,352.23,844,756,0
190887,345.43,844,754,0
190897,339.39,844,756,0
190907,333.66,844,754,0
190917,329.00,844,756,0
190927,324.59,844,754,0
190937,321.20,844,756,0
190947,318.18,844,754,0
190957,316.20,844,756,0
190967,314.60,844,754,0
190977,313.90,844,756,0
190987,313.50,844,754,0
190997,314.00,844,756,0
191007,314.64,844,754,0
191017,315.99,844,756,0
191027,317.28,844,754,0
191037,319.17,844,756,0
191047,320.79,844,754,0
191057,322.95,844,756,0
191067,324.94,844,754,0
191077,327.74,844,756,0
191087,331.21,844,754,0
191097,336.59,844,756,0
191107,344.04,844,754,0
191117,355.43,844,756,0
191127,371.28,844,754,0
191137,393.61,844,756,0
191148,422.57,844,754,0
191158,459.00,844,756,0
191168,500.87,844,754,0
191187,545.35,823,753,0
191191,589.48,823,755,0
191199,631.08,823,756,0
191209,667.74,823,754,0
191219,698.16,823,757,0
191229,720.91,823,754,0
191239,736.84,823,756,0
191249,747.99,823,754,0
191259,755.79,823,757,0
191269,761.25,823,754,0
191279,763.83,823,756,0
191289,761.36,823,754,0
191299,752.68,823,757,0
191309,736.53,823,754,0
191319,712.80,823,756,0
191329,680.97,823,754,0
191339,641.30,823,756,0
191349,595.14,823,754,0
191360,545.94,823,756,0
191369,495.99,823,754,0
191379,447.82,823,756,0
191389,402.53,823,754,0
191399,361.96,823,756,0
191409,326.78,823,754,0
191419,298.13,823,756,0
191429,276.02,823,754,0
191439,260.76,823,756,0
191449,251.70,823,754,0
191459,248.88,823,757,0
191469,251.27,823,754,0
191479,258.43,823,756,0
191489,268.93,823,754,0
191499,282.19,823,756,0
191509,296.71,823,754,0
191519,312.05,823,757,0
191529,326.91,823,754,0
191539,340.95,823,757,0
191549,353.22,823,754,0
191559,363.83,823,756,0
191569,372.15,823,754,0
191579,378.53,823,757,0
191589,382.62,823,754,0
191599,384.75,823,757,0
191609,384.74,823,753,0
191619,383.23,823,756,0
191629,379.99,823,754,0
191639,375.62,823,757,0
191649,370.03,823,753,0
191660,363.85,823,757,0
191670,357.21,823,754,0
191680,350.68,823,756,0
191690,344.22,823,754,0
191700,338.49,823,756,0
191710,333.33,823,753,0
191720,329.12,823,757,0
191730,325.65,823,754,0
191740,323.14,823,756,0
191750,321.34,823,753,0
191760,320.38,823,757,0
191770,320.01,823,753,0
191780,320.44,823,756,0
191790,321.63,823,753,0
191800,324.14,823,757,0
191810,328.43,823,753,0
191820,335.59,823,756,0
191831,346.72,823,754,0
191841,363.35,823,756,0
191851,386.95,823,754,0
191861,418.72,823,756,0
191872,458.92,823,754,0
191890,504.03,703,753,0
191893,550.95,703,756,0
191902,596.99,703,756,0
191912,639.64,703,755,0
191922,676.52,703,756,0
191932,705.76,703,754,0
191942,726.23,703,756,0
191952,740.56,703,754,0
191962,750.59,703,756,0
191972,757.62,703,754,0
191982,762.53,703,756,0
191992,765.97,703,754,0
192002,768.38,703,756,0
192012,770.07,703,754,0
192022,771.25,703,756,0
192032,770.83,703,754,0
192043,765.70,703,755,0
192052,754.26,703,754,0
192062,734.89,703,755,0
192072,706.94,703,754,0
192082,670.06,703,755,0
192092,624.96,703,753,0
192102,573.28,703,755,0
192112,519.37,703,754,0
192122,465.82,703,755,0
192132,415.77,703,753,0
192142,371.05,703,755,0
192152,333.45,703,754,0
192162,303.27,703,755,0
192172,281.21,703,753,0
192182,266.87,703,755,0
192192,260.18,703,753,0
192202,259.96,703,755,0
192212,265.58,703,753,0
192222,275.44,703,755,0
192232,288.63,703,753,0
192242,303.62,703,755,0
192252,319.55,703,753,0
192262,334.98,703,755,0
192272,349.34,703,753,0
192282,361.58,703,755,0
192292,371.57,703,753,0
192302,378.68,703,755,0
192312,383.23,703,753,0
192322,384.88,703,754,0
192332,384.27,703,753,0
192343,381.45,703,754,0
192353,377.11,703,753,0
192363,371.34,703,754,0
192373,364.98,703,753,0
192384,358.04,703,753,0
192393,351.34,703,753,0
192403,344.73,703,754,0
192413,338.81,703,753,0
192423,333.25,703,753,0
192433,328.68,703,753,0
192443,324.44,703,753,0
192453,321.05,703,753,0
192463,317.95,703,753,0
192473,315.61,703,753,0
192483,313.46,703,753,0
192493,311.99,703,753,0
192503,310.66,703,753,0
192513,310.12,703,752,0
192523,309.91,703,753,0
192533,310.84,703,752,0
192543,312.73,703,753,0
192553,316.84,703,753,0
192563,323.40,703,753,0
192573,334.08,703,752,0
192583,349.61,703,753,0
192593,371.93,703,753,0
192603,401.14,703,753,0
192613,438.30,703,752,0
192623,481.62,703,752,0
192643,528.11,752,752,0
192646,574.62,752,752,0
192655,618.79,752,753,0
192665,657.98,752,751,0
192675,690.90,752,753,0
192685,715.87,752,751,0
192695,733.35,752,753,0
192705,745.59,752,751,0
192715,754.11,752,753,0
192726,760.08,752,751,0
192735,764.26,752,753,0
192745,767.18,752,751,0
192755,769.23,752,753,0
192765,768.30,752,751,0
192775,762.72,752,753,0
192785,750.29,752,750,0
192795,730.11,752,753,0
192805,701.19,752,750,0
192815,663.93,752,753,0
192825,618.18,752,750,0
192835,567.08,752,752,0
192845,512.97,752,750,0
192855,459.54,752,752,0
192865,408.55,752,750,0
192875,362.57,752,752,0
192885,322.11,752,750,0
192896,288.86,752,753,0
192905,262.81,752,750,0
192915,244.69,752,752,0
192925,233.64,752,750,0
192935,229.81,752,752,0
192945,231.58,752,750,0
192955,238.65,752,752,0
192965,249.21,752,750,0
192975,262.78,752,752,0
192985,277.54,752,750,0
192995,293.15,752,752,0
193005,308.02,752,750,0
193015,322.20,752,752,0
193025,334.48,752,750,0
193035,345.14,752,752,0
193045,353.24,752,750,0
193055,359.47,752,752,0
193065,363.14,752,749,0
193075,365.03,752,752,0
193085,364.72,752,750,0
193095,363.09,752,752,0
193105,359.81,752,749,0
193115,355.92,752,752,0
193125,351.14,752,749,0
193135,346.30,752,752,0
193145,340.98,752,749,0
193155,336.06,752,752,0
193165,331.07,752,749,0
193175,326.76,752,752,0
193185,322.51,752,749,0
193196,318.88,752,752,0
193206,315.45,752,749,0
193216,312.83,752,752,0
193226,310.39,752,749,0
193236,308.69,752,752,0
193246,307.11,752,749,0
193256,306.22,752,752,0
193266,305.47,752,749,0
193276,305.37,752,752,0
193286,305.60,752,749,0
193296,306.96,752,752,0
193306,309.46,752,748,0
193316,314.42,752,752,0
193326,322.14,752,749,0
193336,334.23,752,752,0
193346,351.47,752,749,0
193356,375.37,752,752,0
193367,406.12,752,749,0
193377,444.31,752,752,0
193396,488.10,754,751,0
193399,534.57,754,752,0
193409,580.56,754,748,0
193419,623.80,754,752,0
193429,662.01,754,748,0
193439,693.80,754,752,0
193449,717.91,754,749,0
193459,734.78,754,752,0
193469,746.54,754,748,0
193479,754.78,754,751,0
193489,760.55,754,749,0
193499,764.58,754,752,0
193509,767.41,754,748,0
193519,769.39,754,751,0
193529,767.86,754,749,0
193539,760.91,754,752,0
193549,746.80,754,748,0
193559,724.23,754,751,0
193569,692.66,754,749,0
193580,652.01,754,751,0
193590,602.80,754,749,0
193600,548.56,754,751,0
193610,492.59,754,749,0
193620,437.77,754,751,0
193630,386.97,754,749,0
193640,341.94,754,750,0
193650,304.20,754,749,0
193660,274.22,754,751,0
193670,252.51,754,749,0
193680,238.56,754,750,0
193690,232.09,754,749,0
193700,231.98,754,751,0
193710,237.43,754,748,0
193720,247.11,754,750,0
193730,260.24,754,749,0
193740,275.51,754,751,0
193751,292.11,754,749,0
193761,308.84,754,750,0
193771,325.21,754,749,0
193781,340.19,754,750,0
193792,353.59,754,749,0
193801,364.60,754,750,0
193811,373.33,754,749,0
193821,379.32,754,750,0
193831,383.08,754,749,0
193841,384.26,754,750,0
193851,383.62,754,749,0
193861,380.91,754,750,0
193871,376.91,754,749,0
193881,371.36,754,750,0
193891,365.08,754,749,0
193901,357.90,754,750,0
193911,350.52,754,749,0
193921,342.86,754,750,0
193931,335.49,754,749,0
193941,328.10,754,750,0
193951,321.51,754,749,0
193961,315.32,754,749,0
193971,310.21,754,749,0
193981,305.99,754,750,0
193991,303.51,754,749,0
194001,302.75,754,750,0
194011,304.80,754,749,0
194021,309.87,754,750,0
194031,319.43,754,749,0
194041,333.61,754,750,0
194051,353.49,754,749,0
194061,378.80,754,750,0
194071,410.14,754,749,0
194081,446.44,754,750,0
194092,486.98,754,750,0
194102,529.63,754,749,0
194121,572.47,725,748,0
194124,613.00,725,748,0
194134,649.64,725,751,0
194143,680.95,725,749,0
194153,706.08,725,751,0
194163,723.24,725,749,0
194173,732.34,725,751,0
194183,733.35,725,749,0
194193,727.08,725,751,0
194203,713.60,725,748,0
194213,693.40,725,751,0
194223,667.01,725,749,0
194233,636.32,725,751,0
194243,601.98,725,748,0
194253,565.77,725,751,0
194263,528.21,725,749,0
194273,490.86,725,751,0
194283,453.96,725,749,0
194293,418.83,725,751,0
194304,385.80,725,748,0
194313,356.16,725,751,0
194323,329.71,725,749,0
194333,307.55,725,751,0
194343,289.30,725,748,0
194353,275.80,725,751,0
194363,266.22,725,748,0
194373,260.88,725,751,0
194383,258.82,725,748,0
194393,259.99,725,751,0
194403,263.29,725,748,0
194413,268.90,725,751,0
194423,275.57,725,748,0
194433,283.42,725,751,0
194443,291.35,725,749,0
194453,299.64,725,751,0
194463,307.38,725,749,0
194473,314.72,725,751,0
194483,320.68,725,749,0
194493,325.66,725,751,0
194503,329.19,725,749,0
194513,331.66,725,751,0
194523,332.45,725,749,0
194533,332.27,725,751,0
194543,330.65,725,749,0
194553,328.40,725,751,0
194563,325.19,725,749,0
194573,321.66,725,751,0
194583,317.39,725,748,0
194593,312.99,725,751,0
194604,308.19,725,748,0
194614,303.72,725,751,0
194624,299.00,725,748,0
194634,294.80,725,751,0
194644,290.62,725,748,0
194654,287.13,725,751,0
194664,283.88,725,748,0
194674,281.34,725,751,0
194684,279.10,725,748,0
194694,277.74,725,751,0
194704,276.79,725,748,0
194714,276.94,725,752,0
194724,278.07,725,748,0
194734,281.14,725,751,0
194744,286.07,725,748,0
194754,294.02,725,751,0
194764,305.16,725,748,0
194775,320.32,725,751,0
194785,339.43,725,748,0
194795,362.57,725,752,0
194805,388.97,725,748,0
194825,418.21,703,746,0
194828,448.83,703,748,0
194837,479.87,703,751,0
194847,509.52,703,748,0
194857,536.45,703,751,0
194867,559.50,703,748,0
194877,577.74,703,751,0
194887,590.46,703,748,0
194897,597.22,703,751,0
194907,598.14,703,747,0
194917,593.56,703,751,0
194927,584.05,703,748,0
194937,570.15,703,750,0
194947,552.92,703,747,0
194957,533.10,703,751,0
194967,511.47,703,747,0
194977,488.40,703,750,0
194988,464.71,703,748,0
194998,440.97,703,750,0
195008,417.79,703,748,0
195018,395.35,703,750,0
195028,374.25,703,748,0
195038,354.89,703,750,0
195048,337.82,703,748,0
195058,323.05,703,749,0
195068,310.95,703,748,0
195078,301.45,703,750,0
195088,294.71,703,747,0
195098,290.30,703,750,0
195108,288.20,703,747,0
195118,287.88,703,750,0
195128,289.33,703,747,0
195138,291.85,703,750,0
195148,295.49,703,747,0
195159,299.46,703,749,0
195169,304.04,703,748,0
195179,308.40,703,749,0
195189,312.82,703,748,0
195200,316.69,703,749,0
195209,320.34,703,747,0
195219,323.15,703,749,0
195229,325.59,703,747,0
195239,327.04,703,749,0
195249,328.19,703,747,0
195259,328.47,703,749,0
195269,328.50,703,747,0
195279,327.84,703,749,0
195289,326.94,703,747,0
195299,325.50,703,749,0
195309,324.02,703,747,0
195319,322.09,703,749,0
195329,320.22,703,747,0
195339,318.01,703,749,0
195349,315.91,703,747,0
195359,313.49,703,748,0
195369,311.42,703,748,0
195379,309.11,703,749,0
195389,307.15,703,747,0
195399,305.13,703,748,0
195409,303.51,703,748,0
195419,301.98,703,749,0
195429,301.04,703,747,0
195439,300.22,703,749,0
195449,300.15,703,747,0
195459,300.41,703,749,0
195469,301.70,703,747,0
195479,303.85,703,748,0
195489,307.66,703,748,0
195500,312.99,703,748,0
195510,320.54,703,747,0
195520,330.19,703,748,0
195530,342.69,703,748,0
195540,357.31,703,747,0
195559,374.45,735,747,0
195562,393.17,735,747,0
195571,413.65,735,749,0
195581,434.50,735,747,0
195591,455.35,735,748,0
195601,474.79,735,747,0
195611,492.72,735,749,0
195621,507.85,735,747,0
195631,520.28,735,749,0
195641,528.85,735,747,0
195651,534.17,735,749,0
195661,535.62,735,747,0
195671,533.93,735,748,0
195681,528.77,735,747,0
195691,520.99,735,749,0
195701,510.32,735,747,0
195712,497.80,735,749,0
195721,483.42,735,747,0
195731,468.25,735,749,0
195741,452.10,735,747,0
195751,436.04,735,749,0
195761,420.09,735,747,0
195771,405.15,735,749,0
195781,391.13,735,747,0
195791,378.79,735,749,0
195801,367.80,735,747,0
195811,359.03,735,749,0
195821,352.03,735,747,0
195831,347.35,735,749,0
195841,344.25,735,747,0
195851,343.19,735,749,0
195861,343.39,735,747,0
195871,345.29,735,749,0
195881,347.94,735,747,0
195891,351.56,735,749,0
195901,355.21,735,747,0
195911,359.26,735,749,0
195921,363.00,735,747,0
195931,366.60,735,749,0
195941,369.25,735,747,0
195951,371.57,735,749,0
195961,372.77,735,746,0
195971,373.70,735,749,0
195981,373.75,735,747,0
195991,373.39,735,749,0
196001,372.42,735,746,0
196012,371.44,735,750,0
196022,369.76,735,746,0
196032,368.33,735,750,0
196042,366.35,735,746,0
196052,364.53,735,749,0
196062,362.40,735,746,0
196072,360.52,735,750,0
196082,358.57,735,746,0
196092,357.11,735,750,0
196102,355.71,735,746,0
196112,354.81,735,750,0
196122,353.97,735,746,0
196132,353.50,735,750,0
196142,352.92,735,746,0
196152,352.69,735,750,0
196162,352.23,735,746,0
196172,351.99,735,750,0
196183,351.78,735,746,0
196193,352.19,735,750,0
196203,353.24,735,746,0
196213,355.79,735,750,0
196224,359.62,735,746,0
196233,365.78,735,750,0
196243,374.03,735,746,0
196253,385.08,735,750,0
196263,398.55,735,746,0
196282,414.67,723,745,0
196285,432.81,723,745,0
196294,452.97,723,750,0
196304,474.02,723,746,0
196314,495.62,723,750,0
196324,516.56,723,745,0
196334,536.32,723,750,0
196344,554.01,723,746,0
196354,569.09,723,750,0
196364,580.85,723,745,0
196374,589.25,723,750,0
196384,594.06,723,746,0
196395,595.42,723,750,0
196404,593.49,723,746,0
196414,588.59,723,750,0
196424,580.82,723,746,0
196434,570.68,723,750,0
196444,558.43,723,745,0
196454,544.59,723,750,0
196464,529.50,723,746,0
196474,513.58,723,750,0
196484,497.16,723,746,0
196494,480.91,723,750,0
196504,465.17,723,746,0
196514,450.42,723,750,0
196524,436.88,723,746,0
196534,424.96,723,750,0
196544,414.77,723,746,0
196554,406.61,723,750,0
196564,400.38,723,746,0
196574,396.03,723,750,0
196584,393.36,723,746,0
196594,392.31,723,750,0
196604,392.52,723,746,0
196614,393.86,723,750,0
196624,395.92,723,746,0
196634,398.51,723,750,0
196644,401.40,723,746,0
196654,404.45,723,750,0
196664,407.27,723,746,0
196674,409.89,723,750,0
196684,412.07,723,746,0
196695,413.80,723,750,0
196705,414.93,723,746,0
196715,415.38,723,750,0
196725,415.10,723,746,0
196736,414.21,723,749,0
196745,412.78,723,746,0
196755,410.74,723,750,0
196765,408.33,723,746,0
196775,405.49,723,749,0
196785,402.60,723,746,0
196795,399.63,723,750,0
196805,396.74,723,746,0
196815,393.82,723,750,0
196825,391.13,723,746,0
196835,388.61,723,750,0
196845,386.50,723,747,0
196855,384.50,723,749,0
196865,382.81,723,746,0
196875,381.28,723,750,0
196885,380.13,723,747,0
196895,379.19,723,749,0
196905,378.40,723,747,0
196915,377.72,723,750,0
196925,377.25,723,747,0
196935,376.88,723,749,0
196945,376.87,723,747,0
196955,377.08,723,750,0
196965,377.78,723,747,0
196975,379.01,723,750,0
196985,381.28,723,747,0
196995,384.75,723,750,0
197005,389.97,723,747,0
197015,397.13,723,749,0
197025,406.82,723,747,0
197036,419.22,723,750,0
197046,434.80,723,747,0
197056,453.11,723,749,0
197066,474.38,723,748,0
197086,497.79,803,747,0
197089,523.06,803,750,0
197098,548.97,803,748,0
197108,574.86,803,749,0
197118,599.33,803,748,0
197128,621.90,803,749,0
197138,641.18,803,748,0
197148,657.07,803,749,0
197158,668.49,803,748,0
197168,675.89,803,749,0
197178,678.71,803,748,0
197188,677.55,803,749,0
197198,672.24,803,748,0
197208,663.73,803,749,0
197218,651.77,803,748,0
197228,637.44,803,749,0
197238,620.51,803,748,0
197249,602.10,803,750,0
197259,582.22,803,748,0
197269,562.01,803,750,0
197279,541.48,803,748,0
197289,521.79,803,750,0
197299,502.91,803,748,0
197309,485.92,803,750,0
197319,470.52,803,748,0
197329,457.63,803,750,0
197339,446.60,803,747,0
197349,438.11,803,750,0
197359,431.52,803,748,0
197369,427.29,803,750,0
197379,424.63,803,748,0
197389,423.80,803,750,0
197399,424.03,803,748,0
197409,425.65,803,750,0
197420,427.73,803,748,0
197430,430.47,803,750,0
197440,433.03,803,747,0
197450,435.72,803,751,0
197460,437.86,803,747,0
197470,439.74,803,750,0
197480,440.76,803,747,0
197490,441.35,803,751,0
197500,440.99,803,747,0
197510,440.18,803,751,0
197520,438.24,803,748,0
197530,435.85,803,751,0
197540,432.51,803,747,0
197550,428.97,803,751,0
197560,424.82,803,748,0
197570,420.76,803,751,0
197580,416.29,803,747,0
197591,412.22,803,751,0
197601,408.12,803,748,0
197611,404.57,803,751,0
197621,400.93,803,747,0
197632,397.82,803,751,0
197641,394.70,803,748,0
197651,392.22,803,751,0
197661,389.93,803,747,0
197671,388.06,803,751,0
197681,386.29,803,748,0
197691,385.04,803,751,0
197701,383.87,803,747,0
197711,383.27,803,752,0
197721,382.67,803,748,0
197731,382.39,803,751,0
197741,382.10,803,748,0
197751,382.07,803,752,0
197761,381.96,803,748,0
197771,382.15,803,751,0
197781,382.14,803,748,0
197791,382.40,803,751,0
197801,382.84,803,748,0
197811,384.04,803,752,0
197821,385.92,803,748,0
197831,389.24,803,752,0
197841,394.14,803,748,0
197851,401.43,803,752,0
197861,411.28,803,748,0
197871,424.44,803,752,0
197881,440.94,803,748,0
197891,461.06,803,752,0
197901,484.23,803,748,0
197920,510.26,835,747,0
197923,538.38,835,748,0
197932,567.71,835,752,0
197942,596.72,835,748,0
197952,624.49,835,752,0
197962,649.85,835,748,0
197972,672.01,835,752,0
197982,690.09,835,748,0
197992,703.52,835,752,0
198002,712.06,835,748,0
198012,715.82,835,752,0
198022,714.76,835,748,0
198032,709.30,835,752,0
198042,699.61,835,748,0
198052,686.06,835,752,0
198062,669.11,835,748,0
198072,649.41,835,752,0
198082,627.60,835,748,0
198092,604.19,835,752,0
198103,579.83,835,748,0
198113,555.33,835,752,0
198123,531.44,835,748,0
198133,508.68,835,752,0
198144,487.65,835,749,0
198153,468.68,835,752,0
198163,452.28,835,748,0
198173,438.52,835,752,0
198183,427.57,835,749,0
198193,419.25,835,752,0
198203,413.56,835,748,0
198213,410.14,835,752,0
198223,408.85,835,749,0
198233,409.28,835,752,0
198243,411.13,835,748,0
198253,413.87,835,752,0
198263,417.30,835,749,0
198273,421.07,835,752,0
198283,424.86,835,748,0
198293,428.20,835,752,0
198303,430.97,835,749,0
198313,432.91,835,751,0
198323,434.09,835,748,0
198333,434.28,835,752,0
198343,433.55,835,749,0
198353,431.76,835,751,0
198363,429.17,835,748,0
198373,425.74,835,752,0
198383,421.70,835,749,0
198393,416.99,835,752,0
198403,411.89,835,748,0
198413,406.48,835,752,0
198423,401.11,835,749,0
198433,395.68,835,752,0
198444,390.54,835,749,0
198454,385.67,835,751,0
198464,381.31,835,749,0
198474,377.27,835,751,0
198484,373.76,835,749,0
198494,370.62,835,751,0
198504,368.08,835,749,0
198514,365.74,835,751,0
198524,363.76,835,749,0
198534,361.86,835,751,0
198544,360.40,835,749,0
198554,359.04,835,751,0
198564,358.13,835,750,0
198574,357.27,835,751,0
198584,356.85,835,749,0
198594,356.77,835,751,0
198604,357.44,835,749,0
198615,358.63,835,751,0
198625,361.02,835,750,0
198635,364.52,835,751,0
198645,370.15,835,750,0
198656,378.04,835,751,0
198665,388.78,835,750,0
198675,402.39,835,751,0
198685,419.50,835,750,0
198695,439.49,835,751,0
198705,462.27,835,750,0
198715,486.62,835,751,0
198725,512.06,835,750,0
198745,537.12,824,750,0
198748,561.00,824,752,0
198757,582.13,824,750,0
198767,600.04,824,752,0
198777,613.57,824,750,0
198787,622.79,824,752,0
198797,626.84,824,750,0
198807,626.37,824,751,0
198817,621.12,824,750,0
198828,611.95,824,752,0
198838,598.77,824,749,0
198848,582.77,824,752,0
198858,564.02,824,749,0
198868,543.83,824,752,0
198878,522.28,824,750,0
198888,500.47,824,752,0
198898,478.43,824,749,0
198908,457.39,824,752,0
198918,437.34,824,749,0
198928,419.28,824,752,0
198938,403.04,824,749,0
198948,389.31,824,752,0
198958,377.82,824,750,0
198968,369.13,824,752,0
198978,362.66,824,749,0
198988,358.78,824,752,0
198999,356.70,824,749,0
199009,356.62,824,752,0
199019,357.85,824,749,0
199029,360.55,824,752,0
199040,363.81,824,749,0
199049,367.86,824,752,0
199059,371.84,824,749,0
199069,375.96,824,753,0
199079,379.53,824,749,0
199089,382.71,824,752,0
199099,384.99,824,749,0
199109,386.70,824,753,0
199119,387.35,824,749,0
199129,387.46,824,752,0
199139,386.59,824,749,0
199149,385.34,824,753,0
199159,383.31,824,749,0
199169,381.08,824,752,0
199179,378.35,824,749,0
199189,375.59,824,753,0
199199,372.41,824,749,0
199209,369.33,824,752,0
199219,365.98,824,749,0
199229,362.94,824,753,0
199239,359.79,824,749,0
199249,356.98,824,753,0
199259,354.20,824,749,0
199269,351.87,824,753,0
199279,349.68,824,749,0
199289,347.98,824,753,0
199299,346.31,824,749,0
199309,345.15,824,753,0
199319,344.07,824,749,0
199329,343.49,824,753,0
199340,343.13,824,749,0
199350,343.44,824,753,0
199360,344.25,824,749,0
199370,346.14,824,753,0
199380,349.19,824,749,0
199390,354.02,824,753,0
199400,360.78,824,749,0
199410,370.19,824,753,0
199420,382.26,824,749,0
199430,397.36,824,753,0
199440,415.21,824,749,0
199450,435.80,824,753,0
199460,458.49,824,749,0
199479,482.60,735,749,0
199482,507.06,735,750,0
199491,531.00,735,753,0
199501,553.33,735,749,0
199511,573.20,735,753,0
199521,589.51,735,750,0
199531,601.83,735,753,0
199541,609.77,735,749,0
199552,613.18,735,753,0
199561,612.27,735,749,0
199571,607.26,735,753,0
199581,598.57,735,749,0
199591,586.70,735,753,0
199601,572.22,735,750,0
199611,555.78,735,753,0
199621,537.89,735,749,0
199631,518.94,735,753,0
199641,499.63,735,750,0
199651,480.37,735,753,0
199661,461.74,735,749,0
199671,444.03,735,753,0
199681,427.61,735,750,0
199691,412.94,735,753,0
199701,400.27,735,749,0
199711,389.65,735,753,0
199721,381.31,735,750,0
199731,375.17,735,753,0
199741,371.22,735,749,0
199751,369.31,735,753,0
199761,369.18,735,750,0
199771,370.45,735,753,0
199781,372.84,735,749,0
199791,375.98,735,753,0
199801,379.63,735,750,0
199811,383.51,735,753,0
199821,387.34,735,749,0
199831,390.84,735,753,0
199841,394.06,735,750,0
199852,396.74,735,753,0
199862,398.83,735,750,0
199872,400.08,735,752,0
199882,400.62,735,751,0
199892,400.26,735,752,0
199902,399.24,735,750,0
199912,397.37,735,752,0
199922,395.03,735,750,0
199932,392.06,735,752,0
199942,388.96,735,750,0
199952,385.59,735,753,0
199962,382.32,735,751,0
199972,378.97,735,752,0
199982,375.94,735,750,0
199992,372.96,735,752,0
200002,370.40,735,751,0
200012,367.92,735,752,0
200023,365.84,735,751,0
200033,363.92,735,752,0
200043,362.44,735,751,0
200053,361.02,735,752,0
200064,360.07,735,751,0
200073,359.24,735,752,0
200083,358.95,735,751,0
200093,358.80,735,752,0
200103,359.29,735,751,0
200113,360.23,735,752,0
200123,362.43,735,751,0
200133,365.86,735,752,0
200143,371.52,735,751,0
200153,379.25,735,752,0
200163,390.19,735,751,0
200173,404.23,735,752,0
200183,422.12,735,751,0
200193,443.08,735,752,0
200203,467.27,735,751,0
200222,493.63,743,750,0
200225,521.94,743,753,0
200235,550.50,743,751,0
200244,578.55,743,752,0
200254,604.32,743,752,0
200264,627.41,743,752,0
200274,646.40,743,751,0
200284,661.15,743,752,0
200294,670.79,743,752,0
200304,675.70,743,752,0
200314,675.40,743,751,0
200324,670.95,743,752,0
200334,662.18,743,752,0
200344,650.08,743,752,0
200354,634.46,743,751,0
200364,616.54,743,752,0
200374,596.32,743,752,0
200384,575.01,743,752,0
200394,552.51,743,751,0
200404,529.98,743,752,0
200414,507.53,743,752,0
200424,486.33,743,752,0
200434,466.13,743,751,0
200444,448.05,743,752,0
200454,431.92,743,752,0
200464,418.53,743,752,0
200474,407.36,743,751,0
200484,399.11,743,752,0
200494,393.12,743,752,0
200504,389.83,743,752,0
200514,388.33,743,751,0
200524,389.01,743,752,0
200535,390.76,743,751,0
200545,393.96,743,753,0
200555,397.40,743,751,0
200565,401.44,743,753,0
200576,405.16,743,751,0
200585,408.97,743,753,0
200595,411.98,743,751,0
200605,414.64,743,753,0
200615,416.25,743,751,0
200625,417.46,743,753,0
200635,417.62,743,751,0
200645,417.22,743,753,0
200655,415.70,743,751,0
200665,413.65,743,753,0
200675,410.62,743,750,0
200685,407.39,743,753,0
200695,403.42,743,751,0
200705,399.39,743,753,0
200715,394.99,743,751,0
200725,390.96,743,753,0
200735,386.82,743,751,0
200745,383.27,743,753,0
200755,379.72,743,751,0
200765,376.89,743,753,0
200775,374.35,743,751,0
200785,372.53,743,753,0
200795,370.74,743,751,0
200805,369.62,743,753,0
200815,368.53,743,751,0
200825,368.03,743,753,0
200835,367.42,743,751,0
200845,367.17,743,753,0
200855,366.73,743,751,0
200865,366.68,743,753,0
200876,366.35,743,750,0
200886,366.37,743,753,0
200896,366.35,743,750,0
200906,366.80,743,753,0
200916,367.42,743,750,0
200926,369.18,743,753,0
200936,371.87,743,750,0
200946,376.71,743,754,0
200956,383.61,743,750,0
200966,393.41,743,753,0
200976,406.27,743,750,0
200986,422.95,743,754,0
200996,442.94,743,750,0
201006,466.40,743,753,0
201016,492.12,743,750,0
201035,519.86,813,749,0
201038,548.27,813,751,0
201047,576.60,813,753,0
201057,602.99,813,750,0
201067,626.82,813,754,0
201077,646.85,813,750,0
201088,662.75,813,754,0
201097,673.75,813,750,0
201107,679.91,813,754,0
201117,680.80,813,750,0
201127,677.13,813,753,0
201137,668.90,813,750,0
201147,657.02,813,754,0
201157,641.63,813,750,0
201167,623.53,813,754,0
201177,603.10,813,750,0
201187,581.34,813,753,0
201197,558.52,813,750,0
201207,535.48,813,753,0
201217,512.41,813,750,0
201227,490.34,813,753,0
201237,469.33,813,750,0
201247,450.03,813,753,0
201257,432.49,813,750,0
201267,417.39,813,753,0
201277,404.58,813,750,0
201287,394.47,813,753,0
201297,386.70,813,750,0
201307,381.56,813,753,0
201317,378.52,813,750,0
201327,377.68,813,753,0
201337,378.38,813,750,0
201347,380.62,813,754,0
201357,383.69,813,750,0
201367,387.47,813,753,0
201377,391.40,813,750,0
201388,395.52,813,754,0
201398,399.22,813,750,0
201408,402.50,813,753,0
201418,404.88,813,750,0
201428,406.54,813,754,0
201438,407.19,813,750,0
201448,406.96,813,753,0
201458,405.73,813,750,0
201468,403.71,813,754,0
201478,400.93,813,750,0
201488,397.65,813,753,0
201498,393.90,813,750,0
201508,389.90,813,754,0
201518,385.69,813,750,0
201528,381.45,813,754,0
201538,377.25,813,750,0
201548,373.23,813,754,0
201559,369.43,813,750,0
201569,365.87,813,753,0
201579,362.74,813,750,0
201589,360.03,813,753,0
201600,357.75,813,751,0
201609,355.90,813,754,0
201619,354.34,813,750,0
201629,353.08,813,753,0
201639,352.20,813,751,0
201649,351.50,813,753,0
201659,351.09,813,750,0
201669,350.85,813,753,0
201679,350.81,813,750,0
201689,351.04,813,754,0
201699,351.63,813,750,0
201709,352.55,813,754,0
201719,354.10,813,751,0
201729,356.34,813,754,0
201739,359.80,813,750,0
201749,364.79,813,754,0
201759,371.84,813,751,0
201769,381.14,813,753,0
201779,393.01,813,750,0
201789,407.45,813,754,0
201799,424.50,813,751,0
201809,443.55,813,753,0
201819,464.09,813,750,0
201829,485.15,813,754,0
201848,506.06,813,753,0
201851,525.71,813,753,0
201860,543.50,813,751,0
201870,558.48,813,753,0
201880,570.25,813,751,0
201890,578.27,813,753,0
201900,582.61,813,751,0
201910,582.98,813,753,0
201920,579.94,813,751,0
201930,573.36,813,753,0
201940,563.91,813,751,0
201950,551.89,813,753,0
201960,538.08,813,751,0
201970,522.63,813,753,0
201980,506.33,813,751,0
201990,489.43,813,753,0
202000,472.67,813,751,0
202010,456.10,813,753,0
202020,440.34,813,751,0
202030,425.45,813,753,0
202040,411.95,813,751,0
202050,399.79,813,753,0
202060,389.48,813,751,0
202071,380.81,813,753,0
202081,374.31,813,752,0
202091,369.54,813,752,0
202101,366.81,813,751,0
202112,365.62,813,752,0
202121,366.17,813,751,0
202131,367.66,813,753,0
202141,370.25,813,751,0
202151,373.13,813,752,0
202161,376.52,813,751,0
202171,379.66,813,752,0
202181,382.85,813,751,0
202191,385.34,813,752,0
202201,387.51,813,752,0
202211,388.81,813,753,0
202221,389.68,813,751,0
202231,389.56,813,752,0
202241,389.01,813,752,0
202251,387.55,813,753,0
202261,385.84,813,752,0
202271,383.45,813,752,0
202281,380.96,813,752,0
202291,377.97,813,753,0
202301,375.11,813,752,0
202311,371.90,813,752,0
202321,369.02,813,752,0
202331,365.93,813,753,0
202341,363.25,813,752,0
202351,360.47,813,752,0
202361,358.23,813,752,0
202371,355.98,813,753,0
202381,354.27,813,752,0
202391,352.56,813,752,0
202401,351.45,813,752,0
202412,350.41,813,752,0
202422,350.08,813,752,0
202432,349.84,813,752,0
202442,350.53,813,753,0
202452,351.79,813,751,0
202462,354.38,813,752,0
202472,358.04,813,752,0
202482,363.60,813,753,0
202492,370.79,813,751,0
202502,380.37,813,752,0
202512,391.74,813,752,0
202522,405.45,813,753,0
202532,420.66,813,751,0
202542,437.43,813,752,0
202552,454.66,813,752,0
202571,472.25,723,751,0
202574,488.97,723,751,0
202583,504.84,723,753,0
202593,518.43,723,751,0
202603,529.87,723,753,0
202613,538.22,723,751,0
202624,543.86,723,754,0
202633,546.13,723,751,0
202643,545.75,723,753,0
202653,542.14,723,751,0
202663,536.31,723,754,0
202673,528.03,723,751,0
202683,518.25,723,753,0
202693,506.73,723,751,0
202703,494.38,723,753,0
202713,480.98,723,751,0
202723,467.53,723,753,0
202733,453.70,723,751,0
202743,440.46,723,753,0
202753,427.55,723,751,0
202763,415.90,723,754,0
202773,405.13,723,751,0
202783,396.01,723,753,0
202793,388.03,723,751,0
202803,382.02,723,753,0
202813,377.26,723,751,0
202823,374.35,723,753,0
202833,372.49,723,751,0
202843,372.17,723,753,0
202853,372.51,723,751,0
202863,373.98,723,754,0
202873,375.70,723,751,0
202883,378.06,723,753,0
202893,380.23,723,751,0
202903,382.65,723,753,0
202913,384.55,723,751,0
202924,386.44,723,754,0
202934,387.60,723,751,0
202944,388.53,723,754,0
202954,388.67,723,750,0
202964,388.47,723,754,0
202974,387.47,723,751,0
202984,386.22,723,754,0
202994,384.31,723,750,0
203004,382.33,723,754,0
203014,379.92,723,751,0
203024,377.67,723,754,0
203034,375.16,723,750,0
203044,372.97,723,754,0
203054,370.70,723,751,0
203064,368.78,723,754,0
203074,366.79,723,751,0
203084,365.18,723,754,0
203095,363.50,723,751,0
203105,362.36,723,754,0
203115,361.27,723,750,0
203125,360.59,723,754,0
203136,360.03,723,750,0
203145,359.93,723,754,0
203155,359.87,723,750,0
203165,360.08,723,754,0
203175,360.27,723,750,0
203185,360.62,723,754,0
203195,360.82,723,751,0
203205,361.22,723,754,0
203215,361.54,723,750,0
203225,362.32,723,754,0
203235,363.47,723,750,0
203245,365.47,723,754,0
203255,368.50,723,750,0
203265,373.11,723,754,0
203275,379.29,723,750,0
203285,387.60,723,754,0
203295,397.84,723,750,0
203305,410.31,723,754,0
203315,424.49,723,751,0
203334,440.33,763,750,0
203337,457.37,763,751,0
203346,475.13,763,754,0
203356,492.62,763,751,0
203366,509.45,763,754,0
203376,524.79,763,751,0
203386,538.31,763,754,0
203396,549.40,763,750,0
203406,557.77,763,754,0
203416,563.19,763,751,0
203426,565.88,763,754,0
203436,565.79,763,750,0
203446,563.24,763,754,0
203456,558.37,763,751,0
203466,551.44,763,754,0
203476,542.69,763,751,0
203486,532.59,763,754,0
203496,521.31,763,751,0
203506,509.22,763,754,0
203516,496.51,763,751,0
203526,483.63,763,754,0
203536,470.84,763,751,0
203546,458.50,763,754,0
203556,446.82,763,751,0
203566,436.20,763,754,0
203576,426.80,763,751,0
203586,418.93,763,754,0
203596,412.61,763,751,0
203607,407.88,763,754,0
203617,404.62,763,751,0
203627,402.68,763,754,0
203637,401.96,763,751,0
203648,402.14,763,753,0
203657,403.00,763,751,0
203667,404.29,763,754,0
203677,405.87,763,751,0
203687,407.54,763,753,0
203697,409.22,763,751,0
203707,410.65,763,754,0
203717,411.91,763,751,0
203727,412.63,763,753,0
203737,412.91,763,751,0
203747,412.64,763,754,0
203757,411.97,763,751,0
203767,410.78,763,753,0
203777,409.26,763,751,0
203787,407.25,763,754,0
203797,405.16,763,751,0
203807,402.71,763,753,0
203817,400.19,763,751,0
203827,397.43,763,754,0
203837,394.73,763,751,0
203847,391.90,763,753,0
203857,389.27,763,751,0
203867,386.66,763,754,0
203877,384.41,763,751,0
203887,382.27,763,754,0
203897,380.47,763,751,0
203907,378.83,763,754,0
203917,377.55,763,751,0
203927,376.32,763,754,0
203937,375.36,763,751,0
203948,374.53,763,753,0
203958,374.03,763,751,0
203968,373.55,763,753,0
203978,373.43,763,751,0
203988,373.21,763,753,0
203998,373.41,763,752,0
204008,373.50,763,753,0
204018,373.78,763,752,0
204028,373.80,763,753,0
204038,374.03,763,752,0
204048,374.02,763,753,0
204058,374.36,763,752,0
204068,374.68,763,753,0
204078,375.59,763,752,0
204088,376.91,763,753,0
204098,379.34,763,752,0
204108,382.84,763,753,0
204119,388.16,763,752,0
204129,395.18,763,753,0
204139,404.60,763,752,0
204149,416.20,763,753,0
204160,430.33,763,752,0
204178,446.43,844,751,0
204181,464.47,844,754,0
204190,483.49,844,752,0
204200,503.27,844,753,0
204210,522.47,844,753,0
204220,540.93,844,753,0
204230,557.50,844,752,0
204240,572.13,844,753,0
204250,583.88,844,753,0
204260,592.96,844,753,0
204270,598.67,844,752,0
204280,601.73,844,753,0
204290,601.55,844,753,0
204300,598.94,844,753,0
204310,593.52,844,752,0
204320,586.21,844,753,0
204331,576.54,844,752,0
204340,565.58,844,752,0
204350,552.89,844,752,0
204360,539.51,844,753,0
204370,525.21,844,752,0
204380,511.05,844,752,0
204390,496.89,844,752,0
204400,483.68,844,753,0
204410,471.09,844,752,0
204420,460.05,844,752,0
204430,450.18,844,752,0
204440,442.11,844,753,0
204450,435.31,844,752,0
204460,430.24,844,752,0
204470,426.44,844,752,0
204480,424.34,844,753,0
204490,423.21,844,752,0
204500,423.36,844,753,0
204510,424.02,844,752,0
204520,425.52,844,753,0
204530,427.03,844,752,0
204540,428.95,844,753,0
204550,430.55,844,752,0
204560,432.27,844,753,0
204570,433.43,844,752,0
204580,434.46,844,753,0
204590,434.84,844,753,0
204600,435.01,844,753,0
204610,434.32,844,752,0
204620,433.33,844,754,0
204631,431.39,844,752,0
204641,429.21,844,754,0
204651,426.41,844,752,0
204661,423.54,844,754,0
204672,420.08,844,751,0
204681,416.88,844,754,0
204691,413.36,844,752,0
204701,410.30,844,754,0
204711,406.99,844,751,0
204721,404.21,844,754,0
204731,401.28,844,752,0
204741,398.92,844,754,0
204751,396.46,844,751,0
204761,394.61,844,754,0
204771,392.80,844,752,0
204781,391.61,844,754,0
204791,390.36,844,751,0
204801,389.69,844,754,0
204811,388.97,844,752,0
204821,388.81,844,754,0
204831,388.48,844,751,0
204841,388.55,844,754,0
204851,388.39,844,752,0
204861,388.61,844,754,0
204871,388.56,844,751,0
204881,388.90,844,754,0
204891,389.06,844,752,0
204901,389.81,844,754,0
204911,390.68,844,752,0
204921,392.71,844,754,0
204931,395.45,844,752,0
204941,399.95,844,754,0
204951,406.00,844,752,0
204961,414.53,844,754,0
204972,425.34,844,751,0
204982,438.95,844,754,0
204992,454.70,844,751,0
205002,472.87,844,754,0
205022,492.58,843,754,0
205025,513.54,843,755,0
205034,534.59,843,751,0
205044,555.11,843,755,0
205054,574.06,843,751,0
205064,591.06,843,755,0
205074,605.14,843,751,0
205084,616.11,843,755,0
205094,623.54,843,751,0
205104,627.62,843,755,0
205114,628.20,843,751,0
205124,625.70,843,755,0
205134,620.18,843,751,0
205144,612.24,843,755,0
205154,602.05,843,751,0
205164,590.12,843,754,0
205174,576.67,843,751,0
205185,562.24,843,754,0
205195,547.21,843,751,0
205205,532.06,843,754,0
205215,517.13,843,751,0
205225,502.86,843,754,0
205235,489.57,843,751,0
205245,477.62,843,754,0
205255,467.23,843,751,0
205265,458.46,843,754,0
205275,451.47,843,751,0
205285,446.18,843,754,0
205295,442.57,843,751,0
205305,440.43,843,754,0
205315,439.57,843,751,0
205325,439.79,843,754,0
205335,440.88,843,751,0
205345,442.50,843,754,0
205356,444.49,843,751,0
205366,446.57,843,754,0
205376,448.72,843,752,0
205386,450.56,843,754,0
205396,452.11,843,751,0
205406,453.06,843,754,0
205416,453.51,843,752,0
205426,453.19,843,754,0
205436,452.32,843,751,0
205446,450.68,843,754,0
205456,448.55,843,752,0
205466,445.68,843,753,0
205476,442.48,843,751,0
205486,438.82,843,754,0
205496,434.97,843,752,0
205506,430.78,843,753,0
205516,426.56,843,751,0
205527,422.19,843,753,0
205537,418.15,843,752,0
205547,414.16,843,753,0
205557,410.64,843,752,0
205568,407.36,843,753,0
205577,404.77,843,752,0
205587,402.48,843,753,0
205597,400.88,843,752,0
205607,399.46,843,753,0
205617,398.68,843,752,0
205627,397.96,843,753,0
205637,397.72,843,752,0
205647,397.29,843,753,0
205657,397.16,843,752,0
205667,396.85,843,753,0
205677,396.85,843,752,0
205687,396.64,843,753,0
205697,396.79,843,752,0
205707,397.15,843,753,0
205717,398.57,843,752,0
205727,400.92,843,753,0
205737,405.23,843,752,0
205747,411.42,843,753,0
205757,420.42,843,752,0
205767,432.30,843,753,0
205777,447.72,843,752,0
205787,466.10,843,753,0
205797,487.59,843,752,0
205807,511.20,843,753,0
205827,536.81,805,752,0
205830,563.14,805,751,0
205839,589.63,805,753,0
205849,614.51,805,751,0
205859,637.46,805,753,0
205869,657.16,805,752,0
205879,673.31,805,753,0
205889,684.92,805,751,0
205899,692.19,805,753,0
205910,694.49,805,751,0
205919,692.80,805,753,0
205929,686.82,805,751,0
205939,677.49,805,753,0
205949,664.65,805,751,0
205959,649.50,805,753,0
205969,631.91,805,751,0
205979,612.99,805,753,0
205989,592.55,805,751,0
205999,571.81,805,753,0
206009,550.70,805,751,0
206019,530.52,805,753,0
206029,511.03,805,751,0
206039,493.45,805,753,0
206049,477.50,805,751,0
206059,464.19,805,753,0
206069,452.86,805,751,0
206080,444.25,805,753,0
206089,437.62,805,751,0
206099,433.40,805,753,0
206109,430.84,805,751,0
206119,430.24,805,753,0
206129,430.51,805,751,0
206139,432.16,805,753,0
206149,434.17,805,751,0
206159,436.90,805,753,0
206169,439.59,805,751,0
206179,442.41,805,753,0
206189,444.60,805,751,0
206199,446.69,805,753,0
206209,447.73,805,751,0
206219,448.41,805,753,0
206229,447.94,805,751,0
206239,446.89,805,753,0
206249,444.61,805,751,0
206259,441.90,805,753,0
206269,438.11,805,751,0
206279,434.05,805,753,0
206289,429.02,805,750,0
206299,423.92,805,753,0
206309,418.33,805,751,0
206319,413.09,805,753,0
206329,407.57,805,751,0
206339,402.73,805,753,0
206349,398.05,805,751,0
206359,394.31,805,753,0
206369,390.87,805,751,0
206380,388.34,805,753,0
206390,386.05,805,751,0
206400,384.58,805,753,0
206410,383.16,805,750,0
206420,382.47,805,753,0
206430,381.73,805,751,0
206440,381.55,805,753,0
206450,381.17,805,750,0
206460,381.25,805,753,0
206470,381.09,805,751,0
206480,381.28,805,753,0
206490,381.15,805,750,0
206500,381.36,805,753,0
206510,381.43,805,751,0
206520,382.15,805,753,0
206530,383.18,805,750,0
206540,385.53,805,753,0
206551,389.18,805,750,0
206561,395.21,805,753,0
206571,403.85,805,750,0
206581,416.15,805,753,0
206592,432.09,805,750,0
206601,452.21,805,753,0
206611,475.97,805,750,0
206621,503.41,805,753,0
206641,533.37,814,753,0
206644,565.23,814,754,0
206653,597.31,814,750,0
206663,628.41,814,753,0
206673,657.09,814,750,0
206683,682.43,814,754,0
206693,703.13,814,750,0
206703,718.74,814,753,0
206713,728.59,814,750,0
206723,732.91,814,754,0
206733,731.74,814,750,0
206743,725.64,814,753,0
206753,714.95,814,750,0
206764,700.39,814,753,0
206774,682.53,814,750,0
206784,662.06,814,753,0
206794,639.37,814,750,0
206804,615.13,814,753,0
206814,589.98,814,750,0
206824,564.70,814,753,0
206834,539.80,814,750,0
206844,515.78,814,753,0
206854,493.26,814,750,0
206864,472.61,814,753,0
206874,454.38,814,750,0
206884,438.58,814,753,0
206894,425.42,814,750,0
206904,414.88,814,753,0
206914,406.99,814,750,0
206924,401.46,814,753,0
206935,398.32,814,751,0
206945,396.98,814,752,0
206955,397.46,814,751,0
206965,398.95,814,753,0
206976,401.49,814,751,0
206985,404.47,814,752,0
206995,407.67,814,751,0
207005,410.60,814,753,0
207015,413.34,814,751,0
207025,415.38,814,753,0
207035,416.94,814,751,0
207045,417.38,814,753,0
207055,417.10,814,751,0
207065,415.78,814,753,0
207075,413.75,814,751,0
207085,410.82,814,753,0
207095,407.40,814,751,0
207105,403.34,814,753,0
207115,399.17,814,751,0
207125,394.70,814,753,0
207135,390.38,814,751,0
207145,385.85,814,752,0
207155,381.61,814,751,0
207165,377.40,814,753,0
207175,373.68,814,751,0
207185,370.17,814,752,0
207195,367.25,814,751,0
207205,364.60,814,753,0
207215,362.71,814,751,0
207225,361.08,814,753,0
207235,360.03,814,751,0
207245,359.08,814,753,0
207255,358.50,814,751,0
207265,357.88,814,753,0
207276,357.61,814,751,0
207286,357.26,814,753,0
207296,357.22,814,752,0
207306,357.03,814,752,0
207316,357.11,814,752,0
207326,357.07,814,753,0
207336,357.44,814,752,0
207346,357.69,814,752,0
207356,358.56,814,752,0
207366,359.72,814,753,0
207376,361.99,814,752,0
207386,365.42,814,752,0
207396,371.08,814,752,0
207406,378.98,814,753,0
207416,390.30,814,752,0
207426,405.08,814,752,0
207436,424.30,814,752,0
207447,447.57,814,752,0
207457,475.13,814,752,0
207476,505.77,836,752,0
207479,539.27,836,754,0
207489,573.86,836,751,0
207499,608.32,836,753,0
207509,640.49,836,751,0
207519,669.45,836,754,0
207529,693.31,836,751,0
207539,711.86,836,753,0
207549,723.77,836,751,0
207559,729.37,836,754,0
207569,728.32,836,751,0
207579,721.75,836,753,0
207589,709.65,836,751,0
207599,693.30,836,754,0
207609,672.81,836,751,0
207619,649.68,836,754,0
207629,623.98,836,751,0
207639,597.03,836,753,0
207649,568.86,836,751,0
207660,540.79,836,754,0
207670,512.87,836,751,0
207680,486.21,836,754,0
207690,460.73,836,751,0
207700,437.63,836,754,0
207710,416.82,836,751,0
207720,399.18,836,754,0
207730,384.38,836,751,0
207740,373.12,836,754,0
207750,364.86,836,751,0
207760,359.93,836,754,0
207770,357.59,836,751,0
207780,357.97,836,754,0
207790,360.12,836,751,0
207800,364.12,836,754,0
207810,369.01,836,751,0
207820,374.88,836,754,0
207831,380.83,836,751,0
207841,386.88,836,754,0
207851,392.27,836,750,0
207861,397.08,836,754,0
207872,400.70,836,750,0
207881,403.36,836,754,0
207891,404.54,836,750,0
207901,404.55,836,754,0
207911,403.14,836,750,0
207921,400.78,836,754,0
207931,397.33,836,750,0
207941,393.25,836,754,0
207951,388.42,836,750,0
207961,383.36,836,754,0
207971,377.98,836,751,0
207981,372.76,836,754,0
207991,367.56,836,750,0
208001,362.85,836,754,0
208011,358.44,836,750,0
208021,354.71,836,754,0
208031,351.41,836,750,0
208041,348.84,836,754,0
208051,346.75,836,751,0
208061,345.28,836,754,0
208071,344.12,836,751,0
208081,343.40,836,754,0
208091,342.81,836,751,0
208101,342.61,836,754,0
208111,342.47,836,750,0
208121,342.59,836,754,0
208131,342.84,836,750,0
208141,343.70,836,754,0
208151,345.38,836,750,0
208161,348.35,836,754,0
208172,352.92,836,751,0
208182,360.01,836,754,0
208192,370.21,836,751,0
208202,384.29,836,754,0
208212,402.63,836,751,0
208222,425.37,836,754,0
208232,452.22,836,751,0
208242,482.79,836,754,0
208252,515.98,836,751,0
208271,550.40,795,750,0
208274,584.48,795,752,0
208283,616.52,795,754,0
208293,645.08,795,751,0
208303,668.89,795,754,0
208313,686.75,795,751,0
208323,698.01,795,754,0
208333,702.51,795,751,0
208343,700.43,795,754,0
208353,692.11,795,751,0
208363,678.11,795,754,0
208373,659.26,795,751,0
208384,636.47,795,754,0
208393,610.83,795,751,0
208403,583.11,795,754,0
208413,554.10,795,751,0
208423,524.50,795,754,0
208433,495.38,795,751,0
208443,467.24,795,754,0
208453,440.89,795,751,0
208463,416.71,795,754,0
208473,395.33,795,751,0
208483,377.10,795,754,0
208493,362.54,795,751,0
208503,351.41,795,754,0
208513,343.87,795,751,0
208523,339.54,795,754,0
208533,338.31,795,751,0
208543,339.63,795,754,0
208553,343.13,795,752,0
208563,348.02,795,754,0
208573,354.05,795,751,0
208583,360.72,795,754,0
208593,367.71,795,752,0
208603,374.44,795,754,0
208613,380.69,795,751,0
208623,386.06,795,754,0
208633,390.67,795,752,0
208643,394.15,795,754,0
208653,396.59,795,751,0
208663,397.74,795,754,0
208673,397.86,795,752,0
208684,396.75,795,753,0
208694,394.72,795,751,0
208704,391.63,795,753,0
208714,387.97,795,752,0
208724,383.52,795,753,0
208734,378.91,795,751,0
208744,373.92,795,753,0
208754,369.15,795,752,0
208764,364.34,795,753,0
208774,360.00,795,751,0
208784,355.88,795,753,0
208794,352.45,795,752,0
208804,349.31,795,753,0
208814,346.86,795,752,0
208824,344.76,795,753,0
208834,343.42,795,752,0
208844,342.39,795,753,0
208855,342.02,795,752,0
208865,341.76,795,753,0
208875,341.96,795,752,0
208885,342.18,795,753,0
208896,342.90,795,752,0
208905,343.74,795,753,0
208915,345.45,795,752,0
208925,347.80,795,753,0
208935,352.02,795,752,0
208945,358.06,795,753,0
208955,367.25,795,752,0
208965,379.95,795,753,0
208975,397.36,795,753,0
208985,419.24,795,753,0
208995,446.34,795,752,0
209005,477.91,795,753,0
209025,513.89,753,752,0
209028,552.54,753,751,0
209037,591.46,753,754,0
209047,628.27,753,752,0
209057,661.79,753,754,0
209068,690.61,753,752,0
209078,714.17,753,754,0
209088,731.99,753,752,0
209098,744.51,753,754,0
209108,752.07,753,751,0
209118,754.96,753,754,0
209128,752.57,753,752,0
209138,744.86,753,754,0
209148,731.36,753,751,0
209158,712.39,753,754,0
209168,687.59,753,751,0
209178,658.44,753,754,0
209188,625.78,753,751,0
209198,591.73,753,754,0
209208,556.80,753,751,0
209218,522.66,753,754,0
209228,489.55,753,751,0
209239,459.00,753,754,0
209249,431.27,753,751,0
209259,407.36,753,754,0
209269,387.07,753,751,0
209280,371.23,753,755,0
209289,359.25,753,751,0
209299,351.50,753,754,0
209309,347.15,753,751,0
209319,346.29,753,755,0
209329,347.92,753,751,0
209339,351.89,753,755,0
209349,357.23,753,751,0
209359,363.89,753,754,0
209369,370.87,753,751,0
209379,378.11,753,754,0
209389,384.72,753,751,0
209399,390.89,753,754,0
209409,395.85,753,751,0
209419,399.84,753,755,0
209429,402.33,753,751,0
209439,403.73,753,754,0
209449,403.60,753,751,0
209459,402.39,753,754,0
209469,399.83,753,751,0
209479,396.50,753,754,0
209489,392.10,753,751,0
209499,387.32,753,755,0
209509,381.82,753,751,0
209519,376.30,753,754,0
209529,370.56,753,751,0
209539,365.12,753,754,0
209549,359.72,753,751,0
209559,354.96,753,754,0
209569,350.56,753,751,0
209580,347.01,753,755,0
209590,343.96,753,751,0
209600,341.79,753,755,0
209610,340.09,753,751,0
209620,339.21,753,755,0
209630,338.67,753,751,0
209640,338.69,753,755,0
209650,338.95,753,751,0
209660,339.57,753,755,0
209670,340.25,753,751,0
209680,341.29,753,755,0
209690,342.49,753,751,0
209700,344.40,753,755,0
209710,347.07,753,751,0
209720,351.33,753,755,0
209730,357.79,753,751,0
209740,367.50,753,755,0
209751,381.15,753,751,0
209761,399.83,753,755,0
209771,423.92,753,751,0
209781,453.78,753,755,0
209792,488.64,753,751,0
209801,527.62,753,755,0
209820,568.11,796,754,0
209823,607.76,796,754,0
209832,644.48,796,752,0
209842,676.73,796,754,0
209852,703.47,796,752,0
209862,724.29,796,754,0
209872,739.20,796,752,0
209882,749.64,796,754,0
209892,756.95,796,752,0
209902,761.08,796,754,0
209912,761.18,796,752,0
209922,756.71,796,755,0
209932,747.07,796,752,0
209942,731.75,796,754,0
209952,710.52,796,752,0
209963,683.24,796,754,0
209972,651.20,796,752,0
209982,616.04,796,754,0
209992,579.21,796,752,0
210002,541.95,796,754,0
210012,505.75,796,751,0
210022,471.50,796,754,0
210032,440.23,796,752,0
210042,412.26,796,754,0
210052,388.36,796,752,0
210062,368.58,796,754,0
210072,353.32,796,752,0
210082,342.21,796,754,0
210092,335.25,796,751,0
210102,331.96,796,754,0
210112,332.14,796,752,0
210122,334.97,796,754,0
210132,340.17,796,752,0
210142,346.84,796,754,0
210152,354.69,796,752,0
210162,363.01,796,754,0
210172,371.32,796,752,0
210182,379.03,796,754,0
210192,385.83,796,752,0
210202,391.20,796,754,0
210212,395.30,796,752,0
210222,397.78,796,754,0
210232,398.74,796,752,0
210242,398.09,796,754,0
210252,396.14,796,752,0
210263,392.88,796,754,0
210273,388.89,796,752,0
210283,383.99,796,754,0
210293,378.68,796,752,0
210304,372.86,796,754,0
210313,367.16,796,752,0
210323,361.37,796,753,0
210333,356.07,796,752,0
210343,350.78,796,753,0
210353,346.05,796,752,0
210363,341.62,796,753,0
210373,338.00,796,752,0
210383,334.75,796,753,0
210393,332.25,796,752,0
210403,330.08,796,753,0
210413,328.81,796,752,0
210423,327.97,796,754,0
210433,328.02,796,752,0
210443,328.57,796,753,0
210453,330.41,796,752,0
210463,333.46,796,753,0
210473,338.68,796,753,0
210483,346.15,796,753,0
210493,356.99,796,752,0
210503,371.44,796,754,0
210513,390.59,796,753,0
210523,413.94,796,754,0
210533,441.86,796,752,0
210543,473.36,796,754,0
210553,507.88,796,753,0
210572,543.57,752,751,0
210575,579.14,752,753,0
210584,612.53,752,753,0
210594,642.63,752,753,0
210604,667.60,752,753,0
210614,686.62,752,753,0
210624,698.56,752,753,0
210634,703.66,752,753,0
210644,701.54,752,753,0
210654,693.19,752,753,0
210664,678.78,752,753,0
210674,659.64,752,753,0
210684,636.26,752,753,0
210694,610.34,752,753,0
210704,582.25,752,753,0
210714,553.33,752,753,0
210724,523.58,752,753,0
210734,494.39,752,753,0
210744,465.73,752,753,0
210754,438.81,752,753,0
210764,413.50,752,753,0
210775,390.85,752,753,0
210785,370.84,752,753,0
210795,354.34,752,754,0
210805,340.91,752,752,0
210816,331.34,752,754,0
210825,324.89,752,753,0
210835,321.97,752,754,0
210845,321.59,752,752,0
210855,323.99,752,754,0
210865,327.93,752,753,0
210875,333.61,752,754,0
210885,339.81,752,752,0
210895,346.81,752,754,0
210905,353.47,752,753,0
210915,360.14,752,754,0
210925,365.93,752,752,0
210935,371.31,752,754,0
210945,375.50,752,753,0
210955,378.99,752,754,0
210965,381.10,752,752,0
210975,382.40,752,754,0
210985,382.32,752,752,0
210995,381.45,752,754,0
211005,379.30,752,752,0
211015,376.60,752,754,0
211025,372.82,752,752,0
211035,368.76,752,754,0
211045,364.03,752,752,0
211055,359.39,752,754,0
211065,354.39,752,752,0
211075,349.82,752,754,0
211085,345.20,752,752,0
211095,341.33,752,754,0
211105,337.54,752,752,0
211116,334.59,752,754,0
211126,331.84,752,752,0
211136,330.05,752,754,0
211146,328.71,752,752,0
211156,328.71,752,754,0
211166,329.87,752,752,0
211176,333.38,752,754,0
211186,339.22,752,752,0
211196,348.54,752,754,0
211206,361.11,752,752,0
211216,378.00,752,754,0
211226,398.75,752,752,0
211236,423.68,752,755,0
211255,451.42,683,754,0
211258,481.64,683,755,0
211267,512.86,683,752,0
211277,544.27,683,755,0
211287,573.81,683,752,0
211297,600.48,683,754,0
211307,622.62,683,752,0
211317,640.09,683,755,0
211328,651.59,683,752,0
211337,657.41,683,754,0
211347,657.12,683,752,0
211357,651.55,683,755,0
211367,640.85,683,752,0
211377,626.28,683,754,0
211387,607.98,683,752,0
211397,587.07,683,755,0
211407,563.69,683,751,0
211417,539.31,683,754,0
211427,514.02,683,751,0
211437,489.03,683,755,0
211447,464.21,683,752,0
211457,440.74,683,754,0
211467,418.88,683,752,0
211477,399.50,683,755,0
211487,382.25,683,752,0
211497,367.99,683,755,0
211507,356.21,683,751,0
211517,347.66,683,755,0
211527,341.63,683,752,0
211537,338.44,683,755,0
211547,337.28,683,752,0
211557,338.40,683,755,0
211567,340.89,683,752,0
211577,344.91,683,755,0
211587,349.39,683,752,0
211597,354.59,683,755,0
211607,359.60,683,752,0
211617,364.60,683,755,0
211628,368.92,683,751,0
211638,372.80,683,755,0
211648,375.73,683,751,0
211658,378.04,683,755,0
211668,379.27,683,751,0
211678,379.96,683,755,0
211688,379.67,683,751,0
211698,378.83,683,755,0
211708,377.12,683,751,0
211718,375.03,683,755,0
211728,372.32,683,751,0
211738,369.40,683,755,0
211748,365.98,683,751,0
211758,362.64,683,755,0
211768,359.11,683,751,0
211778,355.82,683,755,0
211788,352.49,683,751,0
211799,349.51,683,755,0
211809,346.66,683,751,0
211819,344.28,683,755,0
211829,342.09,683,751,0
211840,340.39,683,755,0
211849,339.12,683,751,0
211859,338.70,683,755,0
211869,339.17,683,751,0
211879,341.05,683,755,0
211889,344.59,683,751,0
211899,350.50,683,755,0
211909,359.26,683,751,0
211919,371.44,683,755,0
211929,387.12,683,751,0
211939,406.63,683,755,0
211958,429.71,703,754,0
211961,456.11,703,754,0
211970,484.75,703,752,0
211980,514.48,703,755,0
211990,543.87,703,751,0
212000,571.81,703,755,0
212011,596.94,703,752,0
212020,618.30,703,755,0
212030,634.79,703,751,0
212040,646.00,703,755,0
212050,651.83,703,752,0
212060,652.57,703,755,0
212070,648.37,703,751,0
212080,639.69,703,755,0
212090,627.05,703,752,0
212100,611.26,703,755,0
212110,593.01,703,751,0
212120,572.82,703,755,0
212130,551.32,703,752,0
212140,529.15,703,755,0
212150,506.82,703,751,0
212160,484.80,703,755,0
212170,463.52,703,752,0
212180,443.31,703,754,0
212190,424.74,703,751,0
212200,408.02,703,755,0
212210,393.44,703,752,0
212220,381.18,703,754,0
212230,371.31,703,752,0
212240,363.76,703,755,0
212250,358.69,703,752,0
212260,355.61,703,755,0
212270,354.44,703,752,0
212280,354.82,703,755,0
212290,356.59,703,752,0
212300,359.50,703,755,0
212311,363.34,703,752,0
212321,367.56,703,754,0
212331,372.28,703,753,0
212341,376.91,703,754,0
212352,381.44,703,752,0
212361,385.33,703,754,0
212371,388.49,703,752,0
212381,390.62,703,754,0
212391,391.89,703,752,0
212401,392.05,703,754,0
212411,391.35,703,752,0
212421,389.57,703,754,0
212431,387.22,703,752,0
212441,384.15,703,754,0
212451,380.81,703,752,0
212461,377.01,703,754,0
212471,373.19,703,752,0
212481,369.23,703,754,0
212491,365.61,703,752,0
212501,362.04,703,754,0
212511,358.86,703,752,0
212521,355.81,703,754,0
212531,353.34,703,752,0
212541,351.10,703,754,0
212551,349.44,703,753,0
212561,347.94,703,754,0
212571,346.97,703,752,0
212581,346.25,703,754,0
212591,346.09,703,752,0
212601,346.11,703,754,0
212611,346.63,703,752,0
212621,347.56,703,754,0
212631,349.53,703,752,0
212641,352.59,703,754,0
212652,357.47,703,753,0
212662,364.36,703,754,0
212672,374.19,703,753,0
212682,387.03,703,754,0
212692,403.52,703,753,0
212702,423.12,703,754,0
212712,446.02,703,753,0
212722,471.34,703,753,0
212742,498.75,783,753,0
212745,526.81,783,754,0
212754,554.81,783,754,0
212764,581.01,783,752,0
212774,604.88,783,755,0
212784,624.97,783,753,0
212794,641.05,783,754,0
212804,651.97,783,752,0
212814,658.15,783,754,0
212824,658.96,783,753,0
212834,655.29,783,754,0
212844,647.01,783,752,0
212854,635.22,783,754,0
212865,619.86,783,752,0
212875,602.24,783,755,0
212885,582.16,783,752,0
212895,561.02,783,755,0
212905,538.73,783,752,0
212915,516.44,783,754,0
212925,494.02,783,752,0
212935,472.63,783,755,0
212945,452.08,783,752,0
212955,433.50,783,754,0
212965,416.59,783,752,0
212975,402.36,783,755,0
212985,390.38,783,752,0
212995,381.31,783,754,0
213005,374.53,783,752,0
213015,370.56,783,755,0
213025,368.55,783,752,0
213036,368.85,783,755,0
213046,370.48,783,752,0
213056,373.60,783,755,0
213066,377.36,783,752,0
213076,382.01,783,755,0
213086,386.55,783,752,0
213096,391.27,783,755,0
213106,395.30,783,752,0
213116,399.07,783,755,0
213126,401.92,783,752,0
213136,404.22,783,755,0
213146,405.35,783,752,0
213156,405.85,783,755,0
213166,405.21,783,752,0
213176,404.07,783,755,0
213186,401.95,783,752,0
213196,399.48,783,755,0
213207,396.25,783,752,0
213217,392.88,783,755,0
213227,389.10,783,752,0
213237,385.38,783,755,0
213248,381.41,783,751,0
213257,377.77,783,755,0
213267,374.11,783,752,0
213277,370.86,783,755,0
213287,367.69,783,751,0
213297,365.00,783,755,0
213307,362.56,783,752,0
213317,360.76,783,755,0
213327,359.29,783,752,0
213337,358.52,783,755,0
213347,358.19,783,752,0
213357,358.78,783,755,0
213367,360.13,783,752,0
213377,362.88,783,755,0
213387,366.98,783,752,0
213397,373.25,783,755,0
213407,381.92,783,752,0
213417,393.86,783,755,0
213427,408.90,783,752,0
213437,427.49,783,755,0
213447,449.07,783,752,0
213467,473.52,725,751,0
213470,499.89,725,754,0
213479,527.18,725,755,0
213489,553.91,725,752,0
213499,579.14,725,755,0
213509,601.60,725,752,0
213519,620.45,725,755,0
213529,634.76,725,752,0
213539,644.04,725,755,0
213549,648.23,725,752,0
213559,647.52,725,755,0
213569,642.18,725,752,0
213579,632.48,725,755,0
213590,619.05,725,752,0
213599,602.58,725,755,0
213609,583.72,725,752,0
213619,562.97,725,755,0
213629,541.08,725,752,0
213639,518.60,725,755,0
213649,496.26,725,752,0
213659,474.54,725,755,0
213669,453.98,725,752,0
213679,435.00,725,755,0
213689,418.03,725,752,0
213699,403.28,725,755,0
213709,391.15,725,752,0
213719,381.63,725,755,0
213729,374.76,725,752,0
213739,370.37,725,755,0
213749,368.38,725,752,0
213760,368.43,725,755,0
213769,370.28,725,752,0
213779,373.41,725,755,0
213789,377.57,725,752,0
213799,382.33,725,755,0
213809,387.33,725,752,0
213819,392.20,725,755,0
213829,396.81,725,752,0
213839,400.81,725,755,0
213849,404.08,725,752,0
213859,406.37,725,755,0
213869,407.76,725,752,0
213879,408.18,725,755,0
213889,407.65,725,752,0
213899,406.26,725,755,0
213909,404.16,725,752,0
213919,401.33,725,755,0
213929,398.15,725,752,0
213939,394.59,725,755,0
213949,390.85,725,752,0
213959,387.00,725,755,0
213969,383.10,725,752,0
213979,379.21,725,755,0
213989,375.55,725,752,0
213999,372.00,725,755,0
214009,368.83,725,752,0
214019,366.01,725,755,0
214029,363.69,725,752,0
214039,361.90,725,755,0
214049,360.86,725,752,0
214060,360.64,725,755,0
214070,361.69,725,753,0
214080,364.23,725,755,0
214090,368.92,725,753,0
214100,376.06,725,754,0
214110,386.28,725,753,0
214120,399.87,725,755,0
214130,417.39,725,753,0
214140,438.58,725,754,0
214159,463.22,693,754,0
214162,490.62,693,754,0
214171,520.22,693,753,0
214181,550.41,693,754,0
214191,580.12,693,753,0
214201,607.64,693,754,0
214211,632.18,693,753,0
214221,652.39,693,754,0
214231,667.79,693,753,0
214241,677.54,693,754,0
214251,682.09,693,753,0
214261,681.12,693,754,0
214272,675.38,693,753,0
214281,665.03,693,754,0
214291,651.09,693,753,0
214301,633.62,693,754,0
214311,613.59,693,753,0
214321,591.30,693,754,0
214331,567.94,693,753,0
214341,543.61,693,754,0
214351,519.34,693,753,0
214361,495.37,693,754,0
214371,472.59,693,753,0
214381,451.20,693,754,0
214391,431.98,693,753,0
214401,414.80,693,754,0
214411,400.37,693,753,0
214421,388.31,693,754,0
214431,379.09,693,753,0
214441,372.33,693,754,0
214451,368.29,693,753,0
214461,366.27,693,754,0
214471,366.49,693,753,0
214481,368.19,693,754,0
214491,371.43,693,753,0
214501,375.37,693,754,0
214511,380.19,693,753,0
214521,385.06,693,754,0
214531,390.06,693,753,0
214541,394.37,693,754,0
214551,398.20,693,753,0
214561,400.97,693,754,0
214572,402.95,693,753,0
214582,403.44,693,754,0
214592,403.01,693,753,0
214602,401.33,693,753,0
214612,399.09,693,754,0
214622,395.93,693,754,0
214632,392.48,693,753,0
214642,388.52,693,753,0
214652,384.77,693,754,0
214662,380.81,693,754,0
214672,377.14,693,753,0
214682,373.28,693,754,0
214692,369.90,693,754,0
214702,366.50,693,754,0
214712,363.61,693,753,0
214722,360.68,693,754,0
214732,358.33,693,754,0
214743,356.09,693,753,0
214753,354.56,693,754,0
214763,353.11,693,753,0
214773,352.43,693,755,0
214784,351.79,693,753,0
214793,352.07,693,754,0
214803,352.69,693,753,0
214813,354.54,693,755,0
214823,357.38,693,753,0
214833,362.19,693,754,0
214843,368.91,693,753,0
214853,378.83,693,755,0
214863,391.87,693,753,0
214873,408.84,693,754,0
214883,429.37,693,753,0
214893,453.86,693,755,0
214903,481.33,693,753,0
214922,511.40,763,752,0
214925,542.44,763,753,0
214934,573.72,763,755,0
214944,603.38,763,753,0
214955,630.56,763,755,0
214964,653.58,763,753,0
214974,672.18,763,755,0
214984,685.02,763,753,0
214994,692.52,763,755,0
215004,693.90,763,753,0
215014,690.12,763,755,0
215024,681.08,763,753,0
215034,667.90,763,755,0
215044,650.75,763,753,0
215054,630.94,763,755,0
215064,608.46,763,753,0
215074,584.49,763,755,0
215084,559.31,763,753,0
215094,534.11,763,755,0
215104,508.75,763,752,0
215114,484.22,763,755,0
215124,460.63,763,752,0
215134,439.05,763,755,0
215144,419.37,763,753,0
215154,402.37,763,755,0
215164,387.69,763,752,0
215174,376.17,763,755,0
215184,367.20,763,753,0
215194,361.27,763,755,0
215204,357.50,763,752,0
215214,356.37,763,755,0
215224,356.77,763,753,0
215234,358.94,763,755,0
215244,361.96,763,752,0
215255,366.04,763,755,0
215265,370.32,763,752,0
215275,375.02,763,755,0
215285,379.13,763,752,0
215296,383.12,763,755,0
215305,386.25,763,752,0
215315,388.84,763,755,0
215325,390.21,763,752,0
215335,390.75,763,755,0
215345,389.97,763,752,0
215355,388.48,763,755,0
215365,385.76,763,752,0
215375,382.49,763,755,0
215385,378.32,763,752,0
215395,373.98,763,755,0
215405,369.10,763,752,0
215415,364.35,763,755,0
215425,359.49,763,752,0
215435,355.23,763,755,0
215445,351.09,763,752,0
215455,347.76,763,755,0
215465,344.75,763,752,0
215475,342.60,763,755,0
215485,340.79,763,752,0
215495,339.78,763,755,0
215505,338.95,763,752,0
215515,338.75,763,755,0
215525,338.48,763,752,0
215535,338.55,763,755,0
215545,338.51,763,752,0
215555,338.79,763,755,0
215565,338.89,763,752,0
215575,339.48,763,755,0
215585,340.20,763,752,0
215596,341.89,763,756,0
215606,344.50,763,752,0
215616,348.98,763,755,0
215626,355.54,763,752,0
215636,365.11,763,756,0
215646,377.59,763,752,0
215656,393.87,763,756,0
215666,413.62,763,752,0
215676,436.96,763,756,0
215686,462.73,763,752,0
215705,490.46,783,751,0
215708,518.95,783,752,0
215717,547.25,783,755,0
215727,573.75,783,752,0
215737,597.48,783,756,0
215747,617.26,783,752,0
215757,632.78,783,755,0
215767,643.39,783,752,0
215777,648.85,783,755,0
215787,649.06,783,752,0
215797,644.54,783,755,0
215808,635.60,783,752,0
215817,623.03,783,755,0
215827,607.21,783,752,0
215837,588.80,783,755,0
215847,568.38,783,752,0
215857,546.88,783,756,0
215867,524.63,783,752,0
215877,502.28,783,755,0
215887,480.13,783,752,0
215897,458.92,783,755,0
215907,438.88,783,752,0
215917,420.62,783,755,0
215927,404.19,783,752,0
215937,390.08,783,755,0
215947,378.35,783,752,0
215957,369.20,783,756,0
215967,362.46,783,752,0
215977,358.16,783,755,0
215987,355.97,783,752,0
215997,355.81,783,755,0
216007,357.24,783,752,0
216017,359.99,783,755,0
216027,363.60,783,752,0
216037,367.87,783,756,0
216047,372.41,783,752,0
216057,376.92,783,755,0
216067,381.01,783,752,0
216077,384.61,783,756,0
216087,387.47,783,752,0
216097,389.51,783,755,0
216108,390.60,783,752,0
216118,390.72,783,755,0
216128,390.08,783,752,0
216138,388.60,783,755,0
216148,386.45,783,753,0
216158,383.74,783,755,0
216168,380.65,783,752,0
216178,377.20,783,755,0
216188,373.67,783,753,0
216198,369.99,783,755,0
216208,366.40,783,752,0
216218,362.76,783,755,0
216228,359.32,783,753,0
216238,356.05,783,755,0
216248,353.12,783,752,0
216258,350.43,783,755,0
216268,348.11,783,753,0
216279,346.15,783,755,0
216289,344.78,783,753,0
216299,343.90,783,754,0
216309,343.85,783,753,0
216320,344.49,783,755,0
216329,346.19,783,753,0
216339,349.13,783,754,0
216349,354.02,783,753,0
216359,361.09,783,755,0
216369,370.83,783,753,0
216379,383.35,783,755,0
216389,399.23,783,753,0
216399,418.15,783,755,0
216409,439.88,783,753,0
216428,463.31,723,752,0
216431,487.95,723,754,0
216440,512.52,723,754,0
216450,536.19,723,753,0
216460,557.44,723,754,0
216470,575.73,723,753,0
216480,590.04,723,754,0
216491,600.31,723,754,0
216500,605.96,723,754,0
216510,607.26,723,753,0
216520,604.01,723,754,0
216530,597.02,723,754,0
216540,586.39,723,755,0
216550,573.03,723,753,0
216560,556.95,723,754,0
216570,539.18,723,754,0
216580,520.01,723,755,0
216590,500.42,723,753,0
216600,480.41,723,754,0
216610,460.96,723,753,0
216620,442.16,723,755,0
216630,425.10,723,753,0
216640,409.60,723,754,0
216650,396.39,723,753,0
216660,385.30,723,754,0
216670,376.94,723,753,0
216680,370.79,723,754,0
216690,367.21,723,753,0
216700,365.52,723,754,0
216710,365.79,723,753,0
216720,367.31,723,754,0
216730,370.22,723,753,0
216740,373.71,723,754,0
216750,377.95,723,753,0
216760,382.08,723,754,0
216770,386.39,723,754,0
216780,390.17,723,754,0
216791,393.72,723,753,0
216801,396.25,723,754,0
216811,398.36,723,754,0
216821,399.28,723,754,0
216832,399.80,723,754,0
216841,399.21,723,754,0
216851,398.21,723,754,0
216861,396.26,723,754,0
216871,394.08,723,754,0
216881,391.19,723,754,0
216891,388.30,723,754,0
216901,384.78,723,754,0
216911,381.46,723,754,0
216921,377.89,723,754,0
216931,374.71,723,754,0
216941,371.41,723,754,0
216951,368.50,723,754,0
216961,365.57,723,754,0
216971,363.25,723,754,0
216981,360.99,723,754,0
216991,359.41,723,754,0
217001,357.91,723,753,0
217011,357.34,723,754,0
217021,357.32,723,754,0
217031,358.68,723,754,0
217041,361.22,723,753,0
217051,365.83,723,754,0
217061,372.31,723,754,0
217071,381.77,723,754,0
217081,393.97,723,754,0
217091,409.49,723,754,0
217101,427.73,723,754,0
217120,449.03,692,753,0
217123,472.42,692,754,0
217132,497.62,692,755,0
217142,523.06,692,753,0
217152,548.20,692,755,0
217162,571.58,692,753,0
217172,592.75,692,755,0
217182,610.27,692,753,0
217192,624.03,692,755,0
217202,633.06,692,753,0
217212,637.93,692,755,0
217222,638.12,692,753,0
217232,634.44,692,755,0
217242,626.68,692,753,0
217252,615.85,692,755,0
217262,601.88,692,753,0
217272,585.93,692,755,0
217282,567.82,692,753,0
217292,548.72,692,755,0
217303,528.53,692,753,0
217313,508.40,692,755,0
217323,488.22,692,753,0
217333,469.04,692,755,0
217344,450.73,692,753,0
217353,434.31,692,755,0
217363,419.47,692,753,0
217373,407.12,692,755,0
217383,396.80,692,753,0
217393,389.23,692,755,0
217403,383.63,692,753,0
217413,380.61,692,755,0
217423,379.32,692,752,0
217433,380.04,692,755,0
217443,381.78,692,752,0
217453,384.80,692,755,0
217463,388.03,692,753,0
217473,391.88,692,755,0
217483,395.30,692,753,0
217493,398.77,692,755,0
217503,401.45,692,753,0
217513,403.85,692,755,0
217523,405.22,692,752,0
217533,406.14,692,755,0
217543,406.01,692,753,0
217553,405.45,692,755,0
217563,403.86,692,752,0
217573,401.89,692,755,0
217583,398.96,692,753,0
217593,395.85,692,755,0
217603,392.16,692,752,0
217613,388.60,692,755,0
217623,384.78,692,753,0
217633,381.37,692,755,0
217644,378.00,692,752,0
217654,375.35,692,756,0
217664,372.84,692,752,0
217674,371.00,692,756,0
217684,369.16,692,752,0
217694,367.87,692,756,0
217704,366.45,692,752,0
217714,365.29,692,756,0
217724,363.96,692,752,0
217734,362.98,692,755,0
217744,361.96,692,752,0
217754,361.59,692,756,0
217764,361.58,692,752,0
217774,362.95,692,755,0
217784,365.71,692,752,0
217794,370.90,692,756,0
217804,378.73,692,752,0
217815,389.99,692,756,0
217825,404.78,692,752,0
217835,423.53,692,756,0
217845,445.74,692,752,0
217856,471.28,692,756,0
217874,498.79,754,755,0
217877,527.70,754,756,0
217886,556.85,754,752,0
217896,585.14,754,756,0
217906,611.24,754,752,0
217916,634.35,754,756,0
217926,653.40,754,752,0
217936,668.11,754,756,0
217946,677.85,754,752,0
217956,682.48,754,756,0
217966,681.99,754,752,0
217976,676.77,754,755,0
217986,667.15,754,752,0
217996,653.91,754,756,0
218006,637.52,754,752,0
218016,618.55,754,756,0
218027,597.60,754,753,0
218036,575.43,754,756,0
218046,552.67,754,752,0
218056,529.80,754,756,0
218066,507.19,754,752,0
218076,485.58,754,756,0
218086,465.30,754,752,0
218096,446.83,754,756,0
218106,430.42,754,752,0
218116,416.32,754,756,0
218126,404.70,754,752,0
218136,395.75,754,756,0
218146,389.14,754,752,0
218156,385.02,754,756,0
218166,382.96,754,752,0
218176,382.71,754,756,0
218186,383.96,754,752,0
218196,386.37,754,756,0
218206,389.60,754,752,0
218216,393.36,754,755,0
218226,397.28,754,752,0
218236,401.10,754,756,0
218246,404.58,754,752,0
218256,407.58,754,756,0
218266,409.76,754,752,0
218276,411.08,754,756,0
218286,411.44,754,752,0
218296,410.96,754,755,0
218306,409.65,754,752,0
218316,407.57,754,756,0
218327,404.74,754,752,0
218337,401.52,754,755,0
218347,397.89,754,753,0
218357,394.11,754,755,0
218368,390.09,754,753,0
218377,386.12,754,755,0
218387,382.23,754,752,0
218397,378.47,754,755,0
218407,374.99,754,753,0
218417,371.86,754,755,0
218427,369.12,754,752,0
218437,366.73,754,756,0
218447,364.75,754,753,0
218457,363.11,754,755,0
218467,361.88,754,752,0
218477,360.89,754,756,0
218487,360.23,754,753,0
218497,359.91,754,755,0
218507,360.23,754,752,0
218517,361.41,754,756,0
218527,364.03,754,753,0
218537,368.48,754,755,0
218547,375.32,754,752,0
218557,385.08,754,756,0
218567,398.34,754,753,0
218577,415.34,754,755,0
218587,436.07,754,752,0
218597,460.13,754,756,0
218607,487.05,754,753,0
218627,515.92,752,752,0
218630,545.94,752,754,0
218639,575.62,752,755,0
218649,603.72,752,754,0
218659,628.83,752,754,0
218669,650.18,752,754,0
218679,666.71,752,755,0
218689,678.11,752,754,0
218699,683.57,752,754,0
218710,683.61,752,754,0
218719,678.28,752,755,0
218729,668.51,752,754,0
218739,654.30,752,754,0
218749,636.81,752,754,0
218759,616.38,752,755,0
218769,594.11,752,754,0
218779,570.16,752,754,0
218789,545.69,752,754,0
218799,520.92,752,755,0
218809,497.03,752,754,0
218819,474.01,752,754,0
218829,452.79,752,754,0
218839,433.48,752,755,0
218849,416.92,752,754,0
218859,402.80,752,754,0
218869,391.76,752,754,0
218880,383.35,752,754,0
218889,377.97,752,753,0
218899,375.02,752,755,0
218909,374.72,752,754,0
218919,376.13,752,754,0
218929,379.39,752,754,0
218939,383.52,752,755,0
218949,388.55,752,754,0
218959,393.61,752,754,0
218969,398.83,752,754,0
218979,403.25,752,755,0
218989,407.25,752,753,0
218999,410.09,752,754,0
219009,412.16,752,754,0
219019,412.97,752,755,0
219029,413.11,752,753,0
219039,411.96,752,754,0
219049,410.30,752,754,0
219059,407.68,752,755,0
219069,404.69,752,753,0
219079,400.97,752,754,0
219089,397.16,752,754,0
219099,392.79,752,755,0
219109,388.52,752,753,0
219119,383.91,752,754,0
219129,379.61,752,754,0
219139,375.27,752,755,0
219149,371.42,752,753,0
219159,367.61,752,754,0
219169,364.42,752,754,0
219180,361.51,752,754,0
219190,359.51,752,754,0
219200,357.99,752,754,0
219210,357.82,752,754,0
219220,358.90,752,754,0
219230,362.10,752,754,0
219240,367.52,752,754,0
219250,376.28,752,754,0
219260,388.36,752,754,0
219270,404.67,752,754,0
219280,424.78,752,754,0
219290,449.28,752,754,0
219310,477.14,683,754,0
219313,508.21,683,755,0
219322,540.72,683,753,0
219332,573.72,683,755,0
219342,605.30,683,753,0
219352,634.57,683,755,0
219362,659.43,683,753,0
219372,679.57,683,756,0
219382,693.41,683,753,0
219393,701.22,683,755,0
219403,702.35,683,753,0
219413,697.62,683,756,0
219423,686.89,683,753,0
219433,671.45,683,755,0
219443,651.60,683,753,0
219453,628.75,683,756,0
219463,602.98,683,752,0
219473,575.77,683,756,0
219483,547.47,683,753,0
219493,519.34,683,756,0
219503,491.60,683,752,0
219513,465.19,683,756,0
219523,440.45,683,753,0
219533,418.50,683,756,0
219543,399.28,683,753,0
219553,383.47,683,756,0
219564,370.77,683,753,0
219574,361.71,683,756,0
219584,355.80,683,752,0
219594,353.07,683,756,0
219604,352.92,683,752,0
219614,355.30,683,756,0
219624,359.28,683,753,0
219634,364.77,683,756,0
219644,370.88,683,752,0
219654,377.60,683,756,0
219664,384.06,683,753,0
219674,390.09,683,756,0
219684,395.12,683,752,0
219694,399.45,683,756,0
219704,402.53,683,753,0
219714,404.60,683,756,0
219724,405.28,683,752,0
219735,404.98,683,756,0
219745,403.61,683,752,0
219755,401.46,683,756,0
219765,398.32,683,752,0
219776,394.67,683,756,0
219785,390.48,683,752,0
219795,386.09,683,756,0
219805,381.44,683,752,0
219815,376.72,683,756,0
219825,372.00,683,752,0
219835,367.55,683,756,0
219845,363.31,683,752,0
219855,359.49,683,756,0
219865,355.96,683,752,0
219875,353.01,683,756,0
219885,350.61,683,752,0
219895,348.97,683,756,0
219905,348.16,683,752,0
219915,348.63,683,756,0
219925,350.63,683,752,0
219935,354.85,683,756,0
219945,361.88,683,753,0
219955,372.46,683,756,0
219965,387.11,683,752,0
219975,406.53,683,756,0
219985,430.72,683,753,0
219995,459.52,683,756,0
220014,492.19,705,755,0
220017,527.92,705,755,0
220026,565.31,705,753,0
220036,602.42,705,756,0
220046,637.18,705,752,0
220056,668.33,705,756,0
220066,694.59,705,753,0
220076,715.02,705,756,0
220086,728.43,705,752,0
220096,734.56,705,756,0
220106,733.79,705,753,0
220116,726.61,705,756,0
220126,713.57,705,752,0
220136,695.27,705,756,0
220146,672.52,705,753,0
220156,646.31,705,756,0
220166,617.71,705,752,0
220176,587.59,705,756,0
220186,556.85,705,753,0
220196,525.91,705,756,0
220206,495.68,705,753,0
220216,466.72,705,756,0
220226,439.76,705,753,0
220236,415.15,705,756,0
220247,393.46,705,753,0
220257,374.89,705,755,0
220267,359.97,705,753,0
220277,348.45,705,755,0
220288,340.56,705,753,0
220297,336.02,705,755,0
220307,334.68,705,753,0
220317,335.94,705,755,0
220327,339.51,705,753,0
220337,344.72,705,755,0
220347,351.19,705,753,0
220357,358.12,705,755,0
220367,365.28,705,753,0
220377,372.10,705,755,0
220387,378.37,705,753,0
220397,383.53,705,755,0
220407,387.61,705,753,0
220417,390.30,705,755,0
220427,391.84,705,753,0
220437,391.89,705,755,0
220447,390.72,705,753,0
220457,388.32,705,755,0
220467,385.22,705,753,0
220477,381.26,705,755,0
220487,376.94,705,753,0
220497,372.07,705,755,0
220507,367.29,705,753,0
220517,362.45,705,755,0
220527,357.94,705,753,0
220537,353.50,705,755,0
220547,349.58,705,753,0
220557,345.98,705,755,0
220567,343.16,705,753,0
220577,340.71,705,755,0
220588,338.91,705,754,0
220598,337.39,705,755,0
220608,336.46,705,754,0
220618,335.68,705,755,0
220628,335.43,705,754,0
220638,335.26,705,755,0
220648,335.74,705,754,0
220658,336.63,705,755,0
220668,338.84,705,754,0
220678,342.32,705,755,0
220688,348.18,705,754,0
220698,356.61,705,755,0
220708,368.94,705,754,0
220718,385.07,705,755,0
220728,406.01,705,754,0
220738,431.33,705,754,0
220748,461.28,705,754,0
220759,494.49,705,755,0
220778,530.22,764,754,0
220781,566.37,764,753,0
220790,601.96,764,755,0
220801,634.58,764,754,0
220811,663.08,764,756,0
220821,685.56,764,753,0
220831,701.67,764,756,0
220841,710.43,764,753,0
220851,712.40,764,756,0
220861,707.22,764,753,0
220871,696.18,764,756,0
220881,679.50,764,753,0
220891,658.91,764,755,0
220901,634.68,764,753,0
220911,608.33,764,755,0
220921,580.08,764,753,0
220931,551.47,764,755,0
220941,522.57,764,753,0
220951,494.63,764,755,0
220961,467.40,764,753,0
220972,442.08,764,756,0
220982,418.53,764,752,0
220992,397.71,764,756,0
221002,379.28,764,753,0
221012,364.16,764,756,0
221022,351.85,764,752,0
221032,343.15,764,756,0
221042,337.32,764,753,0
221052,334.78,764,756,0
221062,334.59,764,753,0
221072,336.98,764,756,0
221082,340.98,764,753,0
221092,346.64,764,756,0
221102,352.83,764,753,0
221112,359.74,764,756,0
221122,366.42,764,753,0
221132,373.06,764,756,0
221143,378.66,764,752,0
221153,383.48,764,756,0
221163,386.89,764,753,0
221173,389.28,764,756,0
221184,390.22,764,752,0
221193,390.24,764,756,0
221203,388.88,764,753,0
221213,386.82,764,756,0
221223,383.66,764,752,0
221233,380.08,764,756,0
221243,375.81,764,753,0
221253,371.32,764,756,0
221263,366.34,764,752,0
221273,361.52,764,756,0
221283,356.61,764,753,0
221293,352.18,764,756,0
221303,347.89,764,752,0
221313,344.28,764,756,0
221323,341.02,764,753,0
221333,338.53,764,756,0
221343,336.36,764,752,0
221353,334.92,764,756,0
221363,333.83,764,753,0
221373,333.41,764,756,0
221383,333.12,764,752,0
221393,333.42,764,756,0
221403,334.07,764,753,0
221413,335.72,764,756,0
221423,338.33,764,752,0
221433,342.73,764,756,0
221443,348.98,764,753,0
221453,358.29,764,756,0
221463,370.89,764,753,0
221473,387.64,764,756,0
221484,408.40,764,753,0
221494,433.40,764,756,0
221504,461.78,764,753,0
221514,493.09,764,756,0
221534,525.68,755,755,0
221537,558.13,755,756,0
221546,588.82,755,753,0
221556,616.22,755,755,0
221566,638.95,755,754,0
221576,656.11,755,756,0
221586,666.96,755,753,0
221596,671.26,755,755,0
221606,669.34,755,754,0
221616,661.52,755,756,0
221626,648.64,755,753,0
221636,631.22,755,755,0
221646,610.28,755,753,0
221656,586.71,755,756,0
221666,561.55,755,753,0
221676,535.33,755,755,0
221686,508.87,755,753,0
221697,482.68,755,755,0
221707,457.79,755,753,0
221717,434.41,755,755,0
221727,413.25,755,754,0
221737,394.44,755,755,0
221747,378.58,755,753,0
221757,365.59,755,755,0
221767,355.94,755,754,0
221777,349.10,755,755,0
221787,345.43,755,754,0
221797,344.27,755,755,0
221807,345.65,755,754,0
221817,348.84,755,755,0
221827,353.73,755,754,0
221837,359.43,755,755,0
221847,365.98,755,754,0
221857,372.50,755,755,0
221868,378.99,755,754,0
221878,384.74,755,754,0
221888,389.92,755,754,0
221898,393.84,755,754,0
221908,396.93,755,754,0
221918,398.58,755,754,0
221928,399.18,755,754,0
221938,398.31,755,754,0
221948,396.63,755,754,0
221958,393.79,755,754,0
221968,390.51,755,754,0
221978,386.33,755,754,0
221988,382.03,755,754,0
221998,377.31,755,754,0
222008,372.84,755,753,0
222018,368.18,755,754,0
222028,363.92,755,754,0
222039,359.53,755,753,0
222049,355.73,755,754,0
222059,352.00,755,753,0
222069,349.00,755,755,0
222080,346.26,755,753,0
222089,344.38,755,754,0
222099,342.94,755,754,0
222109,342.83,755,754,0
222119,343.69,755,753,0
222129,346.49,755,754,0
222139,351.14,755,753,0
222149,358.85,755,754,0
222159,369.70,755,753,0
222169,384.66,755,754,0
222179,403.58,755,753,0
222189,427.19,755,754,0
222199,454.60,755,753,0
222218,485.62,685,753,0
222221,518.74,685,753,0
222230,553.10,685,755,0
222240,586.54,685,752,0
222251,617.97,685,755,0
222260,645.23,685,752,0
222270,667.71,685,754,0
222280,683.87,685,752,0
222290,693.63,685,754,0
222300,696.49,685,752,0
222310,693.38,685,754,0
222320,684.14,685,752,0
222330,670.00,685,754,0
222340,651.31,685,752,0
222350,629.66,685,754,0
222360,605.12,685,752,0
222370,579.07,685,754,0
222380,551.71,685,752,0
222390,524.41,685,754,0
222400,497.20,685,752,0
222410,471.13,685,754,0
222420,446.10,685,752,0
222430,423.40,685,754,0
222440,402.75,685,751,0
222450,385.08,685,754,0
222460,370.06,685,751,0
222470,358.51,685,754,0
222480,349.87,685,751,0
222490,344.68,685,754,0
222500,342.08,685,751,0
222510,342.35,685,754,0
222520,344.52,685,751,0
222530,348.74,685,753,0
222540,353.96,685,751,0
222551,360.40,685,754,0
222561,366.88,685,751,0
222571,373.60,685,754,0
222581,379.64,685,751,0
222592,385.23,685,754,0
222601,389.58,685,751,0
222611,393.05,685,753,0
222621,394.92,685,751,0
222631,395.84,685,754,0
222641,395.33,685,751,0
222651,394.03,685,753,0
222661,391.49,685,750,0
222671,388.47,685,754,0
222681,384.65,685,751,0
222691,380.77,685,753,0
222701,376.47,685,750,0
222711,372.47,685,753,0
222721,368.34,685,750,0
222731,364.81,685,753,0
222741,361.35,685,750,0
222751,358.55,685,754,0
222761,355.77,685,750,0
222771,353.65,685,753,0
222781,351.57,685,750,0
222791,350.11,685,753,0
222801,348.75,685,750,0
222811,348.05,685,753,0
222821,347.61,685,750,0
222831,348.33,685,753,0
222841,349.99,685,750,0
222851,353.59,685,753,0
222861,359.24,685,750,0
222871,368.38,685,753,0
222881,381.25,685,750,0
222892,399.09,685,753,0
222902,421.74,685,750,0
222912,449.67,685,753,0
222931,482.17,713,753,0
222935,518.72,713,753,0
222943,557.29,713,749,0
222953,595.95,713,754,0
222963,632.26,713,750,0
222973,664.97,713,753,0
222983,692.88,713,749,0
222993,715.54,713,754,0
223003,731.84,713,750,0
223013,741.44,713,753,0
223023,744.74,713,750,0
223033,742.25,713,753,0
223043,733.94,713,749,0
223053,719.95,713,753,0
223063,700.29,713,749,0
223073,676.08,713,753,0
223083,648.20,713,749,0
223093,617.75,713,753,0
223104,585.64,713,749,0
223113,553.18,713,753,0
223123,520.98,713,749,0
223133,490.00,713,753,0
223143,460.69,713,749,0
223153,433.95,713,753,0
223163,410.09,713,749,0
223173,389.62,713,753,0
223183,372.55,713,749,0
223193,359.23,713,753,0
223203,349.43,713,749,0
223213,343.30,713,753,0
223223,340.30,713,749,0
223233,340.34,713,753,0
223243,342.81,713,749,0
223253,347.36,713,753,0
223263,353.34,713,749,0
223273,360.44,713,753,0
223283,367.94,713,749,0
223293,375.58,713,753,0
223303,382.74,713,749,0
223313,389.16,713,753,0
223323,394.55,713,749,0
223333,398.93,713,753,0
223343,401.91,713,749,0
223353,403.65,713,753,0
223363,403.88,713,749,0
223373,403.02,713,753,0
223383,400.91,713,749,0
223393,397.68,713,753,0
223404,393.41,713,749,0
223414,388.44,713,753,0
223424,382.87,713,749,0
223434,377.16,713,753,0
223444,371.29,713,750,0
223454,365.67,713,753,0
223464,360.41,713,749,0
223474,355.62,713,753,0
223484,351.45,713,750,0
223494,347.93,713,753,0
223504,344.95,713,749,0
223514,342.52,713,753,0
223524,340.61,713,750,0
223534,339.18,713,753,0
223544,338.18,713,749,0
223554,337.62,713,753,0
223564,337.56,713,750,0
223575,338.25,713,753,0
223585,340.10,713,750,0
223595,343.50,713,753,0
223605,349.31,713,750,0
223616,358.26,713,752,0
223625,370.95,713,750,0
223635,388.20,713,753,0
223645,410.59,713,750,0
223655,438.14,713,753,0
223665,470.42,713,750,0
223675,506.46,713,753,0
223694,545.11,763,752,0
223697,584.33,763,752,0
223706,621.82,763,750,0
223716,655.82,763,752,0
223726,685.19,763,751,0
223736,709.13,763,752,0
223746,726.66,763,750,0
223756,736.88,763,752,0
223766,740.13,763,751,0
223776,736.75,763,752,0
223787,727.18,763,751,0
223796,711.61,763,752,0
223806,690.69,763,751,0
223816,665.07,763,752,0
223826,636.25,763,751,0
223836,605.23,763,752,0
223846,573.32,763,751,0
223856,541.04,763,752,0
223866,509.35,763,751,0
223876,478.69,763,752,0
223886,450.03,763,751,0
223896,423.62,763,752,0
223906,400.12,763,751,0
223916,379.68,763,752,0
223926,362.94,763,751,0
223936,349.75,763,752,0
223946,340.44,763,751,0
223956,334.65,763,752,0
223966,332.44,763,751,0
223976,333.08,763,752,0
223986,336.49,763,751,0
223996,341.74,763,752,0
224006,348.63,763,751,0
224016,356.24,763,752,0
224026,364.36,763,751,0
224036,372.13,763,752,0
224046,379.51,763,751,0
224056,385.74,763,753,0
224066,391.05,763,751,0
224076,394.85,763,752,0
224087,397.51,763,751,0
224097,398.51,763,752,0
224107,398.40,763,751,0
224117,396.87,763,752,0
224128,394.46,763,752,0
224137,390.90,763,752,0
224147,386.81,763,751,0
224157,381.85,763,752,0
224167,376.84,763,752,0
224177,371.32,763,752,0
224187,366.04,763,751,0
224197,360.58,763,752,0
224207,355.65,763,752,0
224217,350.78,763,752,0
224227,346.56,763,751,0
224237,342.54,763,752,0
224247,339.33,763,752,0
224257,336.40,763,752,0
224267,334.44,763,751,0
224277,332.98,763,752,0
224287,332.94,763,752,0
224297,334.29,763,752,0
224307,337.97,763,751,0
224317,344.20,763,752,0
224327,354.21,763,752,0
224337,368.12,763,752,0
224347,386.81,763,751,0
224357,409.97,763,752,0
224367,437.96,763,752,0
224377,469.56,763,752,0
224396,504.02,702,752,0
224399,539.41,702,751,0
224408,574.82,702,753,0
224418,608.00,702,751,0
224428,637.74,702,752,0
224438,662.12,702,752,0
224448,680.68,702,752,0
224458,692.35,702,751,0
224468,697.43,702,753,0
224478,695.46,702,752,0
224488,687.56,702,752,0
224498,673.94,702,751,0
224508,655.78,702,753,0
224518,633.65,702,752,0
224528,608.98,702,752,0
224538,581.99,702,751,0
224548,553.96,702,753,0
224558,525.09,702,752,0
224568,496.60,702,752,0
224578,468.65,702,751,0
224588,442.31,702,753,0
224599,417.58,702,751,0
224609,395.55,702,753,0
224619,376.05,702,751,0
224629,360.05,702,753,0
224640,347.09,702,750,0
224649,337.98,702,753,0
224659,331.94,702,751,0
224669,329.43,702,753,0
224679,329.52,702,750,0
224689,332.32,702,753,0
224699,336.68,702,751,0
224709,342.73,702,753,0
224719,349.24,702,751,0
224729,356.37,702,753,0
224739,363.07,702,751,0
224749,369.57,702,753,0
224759,374.92,702,751,0
224769,379.62,702,753,0
224779,382.90,702,751,0
224789,385.42,702,753,0
224799,386.49,702,751,0
224809,386.69,702,753,0
224819,385.58,702,751,0
224829,383.91,702,753,0
224839,381.11,702,751,0
224849,377.90,702,753,0
224859,373.77,702,751,0
224869,369.60,702,753,0
224879,364.92,702,751,0
224889,360.44,702,753,0
224899,355.72,702,751,0
224909,351.52,702,753,0
224919,347.42,702,751,0
224929,344.00,702,753,0
224940,340.70,702,751,0
224950,338.17,702,753,0
224960,335.89,702,750,0
224970,334.60,702,754,0
224980,333.90,702,750,0
224990,334.58,702,754,0
225000,336.59,702,750,0
225010,341.04,702,754,0
225020,348.06,702,751,0
225030,358.71,702,754,0
225040,372.94,702,751,0
225050,391.77,702,754,0
225060,414.77,702,750,0
225070,442.05,702,754,0
225089,472.38,693,753,0
225092,505.27,693,754,0
225101,539.04,693,750,0
225111,572.59,693,754,0
225121,603.70,693,751,0
225131,631.39,693,754,0
225141,654.07,693,750,0
225152,671.24,693,754,0
225161,681.92,693,751,0
225171,686.32,693,754,0
225181,684.29,693,751,0
225191,676.62,693,754,0
225201,663.79,693,751,0
225211,646.84,693,754,0
225221,626.27,693,750,0
225231,603.22,693,754,0
225241,578.25,693,751,0
225251,552.46,693,754,0
225261,526.27,693,751,0
225271,500.47,693,754,0
225281,475.35,693,751,0
225291,451.76,693,754,0
225301,429.80,693,751,0
225311,409.97,693,754,0
225321,392.33,693,750,0
225331,377.40,693,754,0
225341,364.81,693,750,0
225351,355.09,693,754,0
225361,347.82,693,750,0
225371,343.25,693,754,0
225381,340.86,693,751,0
225391,340.82,693,754,0
225401,342.33,693,750,0
225411,345.57,693,754,0
225421,349.69,693,750,0
225431,354.67,693,754,0
225441,359.69,693,750,0
225452,364.89,693,754,0
225462,369.42,693,750,0
225472,373.49,693,754,0
225482,376.60,693,750,0
225492,378.95,693,754,0
225502,380.21,693,750,0
225512,380.70,693,754,0
225522,380.11,693,751,0
225532,378.83,693,754,0
225542,376.78,693,750,0
225552,374.19,693,754,0
225562,370.96,693,751,0
225572,367.37,693,754,0
225582,363.49,693,750,0
225592,359.61,693,754,0
225602,355.70,693,751,0
225612,352.02,693,754,0
225623,348.50,693,751,0
225633,345.39,693,754,0
225643,342.70,693,751,0
225653,340.35,693,754,0
225664,338.32,693,751,0
225673,336.68,693,754,0
225683,335.23,693,751,0
225693,334.13,693,754,0
225703,333.49,693,751,0
225713,333.47,693,754,0
225723,334.36,693,751,0
225733,336.52,693,754,0
225743,340.57,693,751,0
225753,347.08,693,754,0
225763,356.74,693,751,0
225773,369.93,693,754,0
225783,387.10,693,751,0
225793,408.15,693,754,0
225803,432.96,693,751,0
225822,460.70,733,750,0
225825,490.75,733,752,0
225835,521.68,733,754,0
225844,552.21,733,752,0
225854,580.64,733,754,0
225864,606.08,733,752,0
225874,627.14,733,754,0
225884,643.34,733,752,0
225894,653.87,733,754,0
225904,658.75,733,751,0
225914,657.97,733,754,0
225924,652.23,733,752,0
225934,642.01,733,754,0
225944,628.08,733,751,0
225954,610.78,733,754,0
225964,591.26,733,751,0
225974,570.01,733,754,0
225984,548.02,733,752,0
225994,525.52,733,754,0
226004,503.12,733,752,0
226014,481.23,733,754,0
226024,460.50,733,752,0
226034,440.85,733,754,0
226044,422.98,733,752,0
226054,406.79,733,754,0
226064,392.75,733,752,0
226074,380.78,733,754,0
226084,371.29,733,752,0
226094,364.00,733,754,0
226104,359.16,733,752,0
226114,356.20,733,754,0
226124,355.28,733,752,0
226135,355.93,733,754,0
226145,358.13,733,752,0
226155,361.22,733,754,0
226165,365.27,733,752,0
226176,369.60,733,753,0
226185,374.35,733,752,0
226195,378.83,733,754,0
226205,383.17,733,753,0
226215,386.72,733,754,0
226225,389.72,733,752,0
226235,391.56,733,754,0
226245,392.68,733,753,0
226255,392.56,733,754,0
226265,391.75,733,752,0
226275,389.85,733,754,0
226285,387.45,733,753,0
226295,384.23,733,754,0
226305,380.82,733,752,0
226315,376.89,733,754,0
226325,373.06,733,753,0
226335,368.89,733,754,0
226345,365.02,733,753,0
226355,361.07,733,754,0
226365,357.58,733,753,0
226375,354.15,733,754,0
226385,351.32,733,753,0
226395,348.69,733,754,0
226405,346.81,733,753,0
226415,345.20,733,754,0
226425,344.45,733,753,0
226435,344.27,733,754,0
226445,345.39,733,753,0
226455,347.67,733,754,0
226465,352.06,733,753,0
226476,358.55,733,753,0
226486,368.29,733,753,0
226496,381.19,733,754,0
226506,398.10,733,753,0
226516,418.56,733,753,0
226526,442.65,733,753,0
226545,469.28,723,753,0
226548,498.13,723,756,0
226557,527.32,723,753,0
226567,556.11,723,755,0
226577,582.39,723,754,0
226587,605.54,723,755,0
226597,624.11,723,753,0
226607,637.88,723,755,0
226617,645.84,723,754,0
226627,648.55,723,755,0
226637,645.55,723,753,0
226647,638.15,723,755,0
226657,626.19,723,754,0
226667,610.96,723,755,0
226677,592.50,723,753,0
226688,572.12,723,756,0
226697,550.06,723,754,0
226707,527.58,723,755,0
226717,504.61,723,753,0
226727,482.40,723,755,0
226737,460.85,723,754,0
226747,441.05,723,756,0
226757,422.78,723,753,0
226767,406.90,723,755,0
226777,393.05,723,754,0
226787,382.02,723,755,0
226797,373.23,723,753,0
226807,367.24,723,755,0
226817,363.40,723,754,0
226827,362.17,723,755,0
226837,362.50,723,752,0
226847,364.75,723,754,0
226857,367.91,723,752,0
226867,372.22,723,753,0
226877,376.70,723,752,0
226887,381.63,723,754,0
226897,386.07,723,752,0
226907,390.51,723,754,0
226917,394.04,723,752,0
226927,397.11,723,754,0
226937,399.05,723,752,0
226947,400.49,723,753,0
226957,400.73,723,752,0
226967,400.43,723,754,0
226977,398.97,723,752,0
226988,397.14,723,754,0
226998,394.44,723,752,0
227008,391.52,723,754,0
227018,387.89,723,752,0
227028,384.28,723,754,0
227038,380.17,723,752,0
227048,376.30,723,754,0
227058,372.18,723,752,0
227068,368.53,723,754,0
227078,364.94,723,752,0
227088,362.09,723,754,0
227098,359.62,723,752,0
227108,358.45,723,754,0
227118,358.27,723,752,0
227128,360.16,723,754,0
227138,364.01,723,752,0
227148,371.08,723,754,0
227159,381.38,723,752,0
227169,396.01,723,754,0
227179,414.65,723,751,0
227189,437.90,723,755,0
227200,464.80,723,751,0
227218,495.07,673,751,0
227221,527.11,673,752,0
227230,560.16,673,755,0
227240,592.09,673,751,0
227250,621.85,673,755,0
227260,647.56,673,751,0
227270,668.57,673,755,0
227280,683.74,673,751,0
227290,693.03,673,754,0
227300,695.85,673,751,0
227310,692.81,673,755,0
227320,684.04,673,751,0
227330,670.61,673,754,0
227340,652.81,673,751,0
227350,631.83,673,755,0
227360,607.88,673,751,0
227371,582.16,673,755,0
227380,555.33,673,751,0
227390,528.40,673,755,0
227400,501.71,673,751,0
227410,476.30,673,755,0
227420,452.34,673,752,0
227430,430.89,673,755,0
227440,411.94,673,751,0
227450,396.01,673,755,0
227460,382.98,673,751,0
227470,373.26,673,755,0
227480,366.41,673,751,0
227490,362.64,673,755,0
227500,361.34,673,751,0
227510,362.56,673,755,0
227520,365.61,673,751,0
227530,370.31,673,755,0
227540,375.96,673,751,0
227550,382.44,673,755,0
227560,388.91,673,751,0
227570,395.28,673,755,0
227580,400.90,673,751,0
227590,405.77,673,755,0
227600,409.40,673,751,0
227610,411.89,673,755,0
227620,413.00,673,751,0
227630,413.13,673,755,0
227640,411.97,673,751,0
227650,409.88,673,755,0
227660,406.75,673,751,0
227671,403.05,673,755,0
227681,398.66,673,751,0
227691,394.01,673,755,0
227701,388.99,673,751,0
227712,384.02,673,755,0
227721,379.09,673,751,0
227731,374.48,673,755,0
227741,370.13,673,751,0
227751,366.32,673,755,0
227761,362.97,673,751,0
227771,360.49,673,755,0
227781,358.89,673,751,0
227791,358.71,673,755,0
227801,360.17,673,751,0
227811,363.97,673,755,0
227821,370.75,673,751,0
227831,381.41,673,755,0
227841,396.20,673,751,0
227851,415.99,673,755,0
227861,440.72,673,751,0
227871,470.33,673,755,0
227891,503.87,672,754,0
227894,540.26,672,755,0
227903,577.81,672,752,0
227913,614.51,672,754,0
227923,648.43,672,752,0
227933,678.26,672,754,0
227943,702.61,672,752,0
227953,720.38,672,754,0
227963,730.98,672,753,0
227973,734.24,672,754,0
227983,730.91,672,752,0
227993,721.30,672,754,0
228003,705.91,672,752,0
228013,685.54,672,754,0
228023,661.37,672,752,0
228033,634.13,672,754,0
228043,604.82,672,752,0
228054,574.19,672,754,0
228063,543.40,672,752,0
228073,512.90,672,754,0
228083,483.49,672,752,0
228093,455.61,672,754,0
228103,430.18,672,752,0
228113,407.42,672,754,0
228123,387.92,672,752,0
228133,371.57,672,754,0
228143,358.80,672,752,0
228153,349.39,672,754,0
228163,343.53,672,752,0
228173,340.58,672,754,0
228183,340.50,672,752,0
228193,342.58,672,754,0
228203,346.65,672,752,0
228213,351.89,672,754,0
228224,358.14,672,752,0
228233,364.57,672,754,0
228243,371.13,672,752,0
228253,377.17,672,754,0
228263,382.65,672,752,0
228273,387.04,672,754,0
228283,390.54,672,752,0
228293,392.74,672,754,0
228303,393.89,672,752,0
228313,393.75,672,754,0
228323,392.62,672,752,0
228333,390.34,672,754,0
228343,387.32,672,752,0
228353,383.41,672,754,0
228363,379.09,672,752,0
228373,374.22,672,754,0
228383,369.27,672,752,0
228393,364.13,672,754,0
228403,359.25,672,752,0
228413,354.46,672,754,0
228423,350.16,672,752,0
228433,346.17,672,754,0
228443,342.91,672,752,0
228453,340.28,672,754,0
228463,338.82,672,752,0
228473,338.58,672,754,0
228483,340.33,672,752,0
228493,344.43,672,754,0
228503,351.89,672,752,0
228513,363.02,672,754,0
228524,378.79,672,753,0
228534,399.29,672,754,0
228544,425.01,672,753,0
228554,455.09,672,754,0
228574,489.09,683,753,0
228577,525.28,683,754,0
228586,562.57,683,754,0
228596,598.48,683,752,0
228606,631.64,683,755,0
228616,659.90,683,753,0
228626,682.56,683,754,0
228636,698.16,683,752,0
228646,706.77,683,755,0
228656,707.91,683,753,0
228666,702.58,683,754,0
228676,690.92,683,752,0
228686,674.36,683,754,0
228696,653.29,683,753,0
228706,629.16,683,754,0
228716,602.37,683,753,0
228726,574.27,683,754,0
228737,545.05,683,752,0
228747,516.02,683,754,0
228757,487.13,683,752,0
228767,459.49,683,755,0
228777,433.20,683,752,0
228787,409.31,683,754,0
228797,387.62,683,752,0
228807,369.13,683,755,0
228817,353.41,683,752,0
228827,341.24,683,755,0
228837,331.96,683,752,0
228847,326.01,683,755,0
228857,322.62,683,752,0
228867,322.14,683,754,0
228877,323.51,683,752,0
228887,327.09,683,755,0
228897,331.77,683,752,0
228908,337.84,683,755,0
228918,344.23,683,752,0
228928,351.06,683,755,0
228938,357.34,683,752,0
228948,363.41,683,755,0
228958,368.26,683,752,0
228968,372.21,683,755,0
228978,374.63,683,752,0
228988,375.99,683,755,0
228998,375.99,683,752,0
229008,375.22,683,755,0
229018,373.36,683,752,0
229028,371.02,683,755,0
229038,367.97,683,752,0
229048,364.77,683,755,0
229058,361.02,683,752,0
229068,357.24,683,755,0
229079,353.06,683,751,0
229089,349.01,683,755,0
229099,344.81,683,752,0
229109,340.97,683,755,0
229120,337.20,683,751,0
229129,334.19,683,755,0
229139,331.47,683,752,0
229149,329.70,683,755,0
229159,328.68,683,751,0
229169,329.07,683,755,0
229179,330.94,683,752,0
229189,335.11,683,755,0
229199,341.81,683,751,0
229209,351.81,683,755,0
229219,365.24,683,752,0
229229,382.69,683,755,0
229239,403.96,683,751,0
229249,428.91,683,755,0
229268,456.50,695,754,0
229271,486.05,695,755,0
229280,516.25,695,751,0
229291,545.74,695,755,0
229300,572.86,695,752,0
229310,596.56,695,755,0
229320,615.59,695,752,0
229330,629.52,695,755,0
229340,637.63,695,752,0
229350,640.01,695,755,0
229360,636.84,695,752,0
229370,628.70,695,755,0
229380,616.11,695,752,0
229390,600.04,695,755,0
229400,581.05,695,752,0
229410,559.95,695,755,0
229420,537.42,695,752,0
229430,514.28,695,755,0
229440,490.97,695,752,0
229450,468.01,695,755,0
229460,445.80,695,752,0
229470,424.95,695,756,0
229480,405.64,695,752,0
229490,388.22,695,755,0
229500,372.89,695,752,0
229510,360.11,695,755,0
229520,349.88,695,752,0
229530,342.24,695,755,0
229540,337.03,695,752,0
229550,334.28,695,755,0
229560,333.59,695,752,0
229570,334.83,695,755,0
229580,337.50,695,752,0
229591,341.42,695,755,0
229601,346.09,695,752,0
229611,351.21,695,755,0
229621,356.42,695,752,0
229632,361.48,695,755,0
229641,366.05,695,752,0
229651,369.93,695,755,0
229661,372.95,695,752,0
229671,374.94,695,755,0
229681,375.94,695,752,0
229691,375.87,695,755,0
229701,374.88,695,752,0
229711,372.99,695,755,0
229721,370.38,695,752,0
229731,367.09,695,755,0
229741,363.42,695,752,0
229751,359.40,695,755,0
229761,355.29,695,752,0
229771,351.18,695,755,0
229781,347.22,695,752,0
229791,343.51,695,755,0
229801,340.19,695,752,0
229811,337.30,695,755,0
229821,335.11,695,752,0
229831,333.71,695,755,0
229841,333.49,695,752,0
229851,334.72,695,755,0
229861,337.80,695,752,0
229871,343.13,695,755,0
229881,351.32,695,752,0
229891,362.41,695,755,0
229901,376.64,695,752,0
229911,393.81,695,755,0
229921,413.67,695,752,0
229932,435.54,695,754,0
229951,458.73,683,754,0
229954,481.91,683,754,0
229963,504.48,683,753,0
229974,524.95,683,754,0
229983,542.71,683,753,0
229993,556.73,683,754,0
230003,566.71,683,753,0
230013,572.07,683,754,0
230023,573.29,683,753,0
230033,570.12,683,754,0
230043,563.48,683,753,0
230053,553.22,683,754,0
230063,540.51,683,753,0
230073,525.49,683,754,0
230083,509.14,683,753,0
230093,491.40,683,754,0
230103,473.28,683,753,0
230113,454.81,683,754,0
230123,437.04,683,753,0
230133,419.71,683,754,0
230144,403.81,683,753,0
230153,389.21,683,754,0
230163,376.76,683,753,0
230173,366.08,683,754,0
230183,357.78,683,753,0
230193,351.38,683,754,0
230203,347.32,683,753,0
230213,344.95,683,754,0
230223,344.58,683,753,0
230233,345.44,683,754,0
230243,347.79,683,753,0
230253,350.72,683,754,0
230263,354.58,683,753,0
230273,358.61,683,754,0
230283,362.92,683,753,0
230293,366.76,683,754,0
230303,370.39,683,753,0
230313,373.10,683,754,0
230323,375.47,683,753,0
230333,376.83,683,754,0
230343,377.65,683,753,0
230353,377.46,683,754,0
230363,376.85,683,753,0
230373,375.39,683,754,0
230383,373.69,683,753,0
230393,371.25,683,754,0
230403,368.69,683,753,0
230413,365.57,683,754,0
230423,362.53,683,753,0
230433,359.11,683,754,0
230444,356.04,683,753,0
230454,352.77,683,754,0
230464,350.05,683,754,0
230474,347.38,683,753,0
230484,345.55,683,754,0
230494,344.19,683,754,0
230504,344.13,683,753,0
230514,345.12,683,754,0
230524,348.26,683,754,0
230534,353.15,683,754,0
230544,360.91,683,753,0
230554,371.18,683,754,0
230564,384.84,683,754,0
230574,401.00,683,754,0
230584,419.94,683,753,0
230603,440.62,652,753,0
230606,462.93,652,756,0
230615,485.41,652,753,0
230625,507.57,652,754,0
230635,527.76,652,753,0
230645,545.92,652,755,0
230656,560.68,652,753,0
230665,572.05,652,754,0
230675,579.19,652,753,0
230685,582.48,652,755,0
230695,581.48,652,753,0
230705,577.18,652,754,0
230715,569.28,652,753,0
230725,558.83,652,755,0
230735,545.59,652,752,0
230745,530.84,652,754,0
230755,514.48,652,753,0
230765,497.58,652,755,0
230775,479.79,652,753,0
230785,462.28,652,754,0
230795,444.93,652,753,0
230805,428.75,652,755,0
230815,413.39,652,753,0
230825,399.82,652,755,0
230835,387.62,652,753,0
230845,377.75,652,755,0
230855,369.64,652,753,0
230865,363.87,652,755,0
230875,359.84,652,753,0
230885,357.92,652,755,0
230895,357.34,652,753,0
230905,358.52,652,755,0
230915,360.47,652,753,0
230925,363.54,652,755,0
230935,366.76,652,753,0
230945,370.52,652,755,0
230956,373.92,652,753,0
230966,377.37,652,755,0
230976,380.05,652,752,0
230986,382.43,652,755,0
230996,383.85,652,752,0
231006,384.92,652,755,0
231016,384.99,652,752,0
231026,384.73,652,755,0
231036,383.57,652,752,0
231046,382.24,652,755,0
231056,380.24,652,752,0
231066,378.20,652,755,0
231076,375.61,652,752,0
231086,373.16,652,755,0
231096,370.28,652,752,0
231106,367.71,652,755,0
231116,364.84,652,752,0
231127,362.36,652,755,0
231137,359.68,652,752,0
231147,357.50,652,755,0
231157,355.42,652,752,0
231168,354.10,652,755,0
231177,353.13,652,752,0
231187,353.34,652,755,0
231197,354.57,652,752,0
231207,357.74,652,755,0
231217,362.62,652,752,0
231227,370.15,652,755,0
231237,380.22,652,752,0
231247,393.57,652,755,0
231257,409.60,652,752,0
231267,428.62,652,755,0
231286,449.73,683,754,0
231289,472.91,683,756,0
231298,496.81,683,752,0
231308,520.82,683,755,0
231318,543.46,683,752,0
231328,564.32,683,756,0
231339,582.06,683,752,0
231348,596.44,683,755,0
231358,606.51,683,752,0
231368,612.35,683,756,0
231378,613.71,683,752,0
231388,611.18,683,755,0
231398,604.70,683,752,0
231408,595.10,683,756,0
231418,582.43,683,752,0
231428,567.73,683,755,0
231438,551.10,683,752,0
231448,533.41,683,756,0
231458,514.77,683,752,0
231468,496.11,683,755,0
231478,477.44,683,752,0
231488,459.61,683,755,0
231498,442.58,683,752,0
231508,427.11,683,756,0
231518,413.15,683,752,0
231528,401.27,683,755,0
231538,391.29,683,752,0
231548,383.62,683,756,0
231558,377.82,683,752,0
231568,374.14,683,755,0
231578,372.22,683,752,0
231588,372.11,683,756,0
231598,373.15,683,752,0
231608,375.37,683,755,0
231618,378.26,683,752,0
231628,382.00,683,756,0
231639,385.90,683,752,0
231649,389.83,683,755,0
231659,393.39,683,752,0
231669,396.58,683,755,0
231680,399.02,683,752,0
231689,400.77,683,755,0
231699,401.48,683,752,0
231709,401.34,683,755,0
231719,400.29,683,752,0
231729,398.49,683,756,0
231739,396.07,683,752,0
231749,393.14,683,755,0
231759,389.75,683,752,0
231769,386.23,683,755,0
231779,382.60,683,752,0
231789,379.12,683,755,0
231799,375.70,683,752,0
231809,372.49,683,756,0
231819,369.56,683,752,0
231829,367.03,683,755,0
231839,364.75,683,752,0
231849,362.85,683,755,0
231859,361.23,683,752,0
231869,360.04,683,755,0
231879,359.22,683,752,0
231889,358.89,683,755,0
231899,359.14,683,752,0
231909,360.34,683,755,0
231919,362.77,683,752,0
231929,366.91,683,755,0
231939,373.19,683,752,0
231949,382.18,683,755,0
231959,394.25,683,752,0
231969,409.82,683,755,0
231980,428.90,683,752,0
231990,451.35,683,755,0
232009,476.61,723,754,0
232012,503.99,723,754,0
232022,532.62,723,753,0
232031,561.02,723,755,0
232041,588.01,723,753,0
232051,612.27,723,754,0
232061,633.02,723,753,0
232071,649.51,723,755,0
232081,661.31,723,753,0
232091,667.95,723,754,0
232101,669.94,723,753,0
232111,667.43,723,755,0
232121,661.00,723,753,0
232131,650.67,723,754,0
232141,637.18,723,753,0
232151,620.89,723,755,0
232161,602.45,723,753,0
232171,582.13,723,754,0
232181,560.62,723,753,0
232192,538.32,723,754,0
232201,516.24,723,753,0
232211,494.57,723,754,0
232221,474.12,723,753,0
232231,455.19,723,754,0
232241,438.50,723,753,0
232251,424.08,723,754,0
232261,412.48,723,753,0
232271,403.43,723,755,0
232281,397.21,723,753,0
232291,393.38,723,754,0
232301,392.06,723,753,0
232311,392.64,723,754,0
232321,394.98,723,753,0
232331,398.41,723,755,0
232341,402.88,723,753,0
232351,407.63,723,755,0
232361,412.67,723,753,0
232371,417.27,723,755,0
232381,421.52,723,753,0
232391,424.88,723,754,0
232401,427.48,723,753,0
232411,428.88,723,754,0
232421,429.43,723,753,0
232431,428.70,723,754,0
232441,427.16,723,753,0
232451,424.54,723,755,0
232461,421.29,723,753,0
232471,417.18,723,755,0
232481,412.75,723,753,0
232492,407.77,723,754,0
232502,402.82,723,753,0
232512,397.65,723,754,0
232522,392.78,723,753,0
232532,388.00,723,754,0
232542,383.93,723,753,0
232552,380.18,723,754,0
232562,377.38,723,754,0
232572,375.30,723,754,0
232582,374.74,723,753,0
232592,375.54,723,754,0
232602,378.81,723,753,0
232612,384.52,723,754,0
232622,393.80,723,753,0
232632,406.67,723,754,0
232642,424.08,723,754,0
232652,445.62,723,754,0
232663,471.79,723,754,0
232682,501.51,673,753,0
232685,534.53,673,756,0
232694,569.04,673,753,0
232705,603.91,673,755,0
232715,636.98,673,753,0
232725,667.20,673,755,0
232735,692.98,673,753,0
232745,713.77,673,755,0
232755,728.16,673,753,0
232765,736.34,673,755,0
232775,737.87,673,753,0
232785,733.58,673,755,0
232795,723.59,673,753,0
232805,708.58,673,755,0
232815,688.65,673,753,0
232825,665.14,673,755,0
232835,638.44,673,753,0
232845,610.02,673,755,0
232855,580.19,673,753,0
232865,550.17,673,755,0
232876,520.34,673,752,0
232886,492.08,673,755,0
232896,465.61,673,752,0
232906,442.03,673,755,0
232916,421.19,673,752,0
232926,404.03,673,755,0
232936,390.22,673,752,0
232946,380.43,673,755,0
232956,373.96,673,752,0
232966,371.01,673,755,0
232976,370.67,673,752,0
232986,373.04,673,755,0
232996,377.10,673,752,0
233006,382.73,673,755,0
233016,388.81,673,752,0
233026,395.42,673,755,0
233036,401.60,673,752,0
233047,407.50,673,756,0
233057,412.41,673,752,0
233067,416.44,673,755,0
233077,419.18,673,752,0
233088,420.88,673,756,0
233097,421.18,673,752,0
233107,420.52,673,755,0
233117,418.52,673,752,0
233127,415.67,673,756,0
233137,411.91,673,752,0
233147,407.61,673,755,0
233157,402.67,673,752,0
233167,397.54,673,756,0
233177,392.06,673,752,0
233187,386.82,673,755,0
233197,381.60,673,752,0
233207,376.75,673,756,0
233217,372.11,673,752,0
233227,368.13,673,755,0
233237,364.62,673,752,0
233247,361.99,673,756,0
233257,360.24,673,752,0
233267,360.04,673,755,0
233277,361.66,673,752,0
233287,366.17,673,756,0
233297,374.05,673,752,0
233307,386.16,673,755,0
233317,403.04,673,752,0
233327,425.40,673,756,0
233337,453.01,673,752,0
233347,485.49,673,756,0
233366,521.64,684,755,0
233369,560.24,684,756,0
233378,598.65,684,752,0
233388,634.93,684,756,0
233398,667.31,684,752,0
233408,694.86,684,756,0
233418,717.10,684,752,0
233428,733.96,684,755,0
233438,744.77,684,752,0
233448,750.02,684,756,0
233458,749.67,684,752,0
233468,743.64,684,756,0
233478,731.88,684,752,0
233488,714.26,684,756,0
233498,690.65,684,752,0
233508,662.09,684,755,0
233518,630.00,684,752,0
233528,595.76,684,756,0
233538,560.35,684,752,0
233548,524.88,684,755,0
233559,490.25,684,752,0
233569,457.52,684,755,0
233579,427.40,684,752,0
233589,400.37,684,755,0
233600,376.90,684,752,0
233609,357.47,684,755,0
233619,342.16,684,752,0
233629,331.14,684,755,0
233639,324.24,684,753,0
233649,321.13,684,755,0
233659,321.47,684,752,0
233669,324.76,684,755,0
233679,330.45,684,752,0
233689,337.90,684,756,0
233699,346.41,684,752,0
233709,355.38,684,755,0
233719,364.26,684,753,0
233729,372.50,684,755,0
233739,379.76,684,752,0
233749,385.71,684,755,0
233759,390.21,684,752,0
233769,393.10,684,755,0
233779,394.44,684,752,0
233789,394.31,684,755,0
233799,392.85,684,752,0
233809,390.11,684,755,0
233819,386.43,684,752,0
233829,381.93,684,755,0
233839,376.98,684,752,0
233849,371.63,684,755,0
233859,366.21,684,752,0
233869,360.83,684,755,0
233879,355.78,684,752,0
233889,351.01,684,755,0
233900,346.80,684,753,0
233910,342.96,684,755,0
233920,339.80,684,753,0
233930,337.03,684,755,0
233940,335.01,684,753,0
233950,333.55,684,755,0
233960,333.17,684,753,0
233970,333.93,684,755,0
233980,336.78,684,753,0
233990,341.95,684,755,0
234000,350.53,684,753,0
234010,362.97,684,755,0
234020,380.34,684,753,0
234030,402.48,684,755,0
234040,429.76,684,753,0
234050,461.38,684,755,0
234070,496.84,703,754,0
234073,534.60,703,754,0
234082,573.16,703,753,0
234092,610.14,703,754,0
234102,644.26,703,754,0
234113,673.37,703,754,0
234123,696.57,703,754,0
234133,712.30,703,753,0
234143,720.48,703,755,0
234153,720.68,703,753,0
234163,714.00,703,754,0
234173,700.63,703,753,0
234183,681.93,703,755,0
234193,658.25,703,753,0
234203,631.52,703,754,0
234213,602.05,703,753,0
234223,571.30,703,755,0
234233,539.37,703,753,0
234243,507.72,703,754,0
234253,476.47,703,753,0
234263,446.93,703,754,0
234273,419.01,703,753,0
234284,393.76,703,755,0
234294,371.12,703,753,0
234304,352.10,703,755,0
234314,336.17,703,753,0
234324,324.25,703,755,0
234334,315.69,703,753,0
234344,310.85,703,755,0
234354,309.01,703,752,0
234364,310.38,703,755,0
234374,313.87,703,753,0
234384,319.69,703,755,0
234394,326.60,703,753,0
234404,334.73,703,755,0
234414,343.04,703,753,0
234424,351.64,703,755,0
234434,359.55,703,753,0
234444,367.10,703,755,0
234455,373.28,703,752,0
234465,378.47,703,755,0
234475,381.97,703,752,0
234485,384.25,703,755,0
234496,384.82,703,752,0
234505,384.27,703,755,0
234515,382.13,703,752,0
234525,379.27,703,755,0
234535,375.24,703,752,0
234545,370.84,703,755,0
234555,365.75,703,752,0
234565,360.64,703,755,0
234575,355.13,703,752,0
234585,349.95,703,755,0
234595,344.74,703,752,0
234605,340.19,703,755,0
234615,335.93,703,752,0
234625,332.57,703,755,0
234635,329.70,703,752,0
234645,327.94,703,755,0
234655,326.93,703,752,0
234665,327.34,703,755,0
234675,328.99,703,752,0
234685,332.85,703,755,0
234695,339.11,703,752,0
234705,348.85,703,755,0
234715,362.18,703,752,0
234725,380.17,703,755,0
234735,402.53,703,752,0
234745,429.72,703,755,0
234755,460.36,703,752,0
234774,493.94,705,752,0
234777,528.80,705,752,0
234786,563.79,705,755,0
234796,596.55,705,752,0
234806,625.96,705,755,0
234816,650.01,705,752,0
234826,668.27,705,755,0
234836,679.59,705,752,0
234846,684.12,705,755,0
234856,681.69,705,752,0
234866,673.21,705,755,0
234876,659.00,705,752,0
234886,640.45,705,755,0
234896,618.07,705,752,0
234906,593.11,705,755,0
234916,565.95,705,752,0
234926,537.93,705,755,0
234936,509.32,705,752,0
234946,481.11,705,755,0
234956,453.52,705,752,0
234967,427.57,705,755,0
234977,403.57,705,751,0
234987,382.27,705,755,0
234997,363.67,705,752,0
235008,348.51,705,755,0
235017,336.66,705,751,0
235027,328.45,705,755,0
235037,323.56,705,752,0
235047,321.89,705,755,0
235057,322.87,705,751,0
235067,326.33,705,755,0
235077,331.68,705,752,0
235087,338.59,705,755,0
235097,346.25,705,752,0
235107,354.36,705,755,0
235117,362.31,705,752,0
235127,369.89,705,755,0
235137,376.52,705,752,0
235147,382.15,705,755,0
235157,386.39,705,752,0
235167,389.40,705,755,0
235177,390.91,705,752,0
235187,391.19,705,755,0
235197,390.15,705,752,0
235207,388.09,705,755,0
235217,384.98,705,752,0
235227,381.17,705,755,0
235237,376.70,705,752,0
235247,371.95,705,755,0
235257,366.91,705,752,0
235267,362.01,705,755,0
235277,357.21,705,752,0
235287,352.82,705,755,0
235297,348.88,705,752,0
235308,345.66,705,755,0
235318,343.36,705,752,0
235328,342.27,705,755,0
235338,342.75,705,752,0
235348,345.39,705,755,0
235358,350.59,705,752,0
235368,359.03,705,755,0
235378,371.28,705,752,0
235388,387.65,705,755,0
235398,408.16,705,752,0
235408,432.62,705,755,0
235418,460.46,705,752,0
235428,490.80,705,755,0
235447,522.27,673,755,0
235450,553.43,673,755,0
235459,583.00,673,753,0
235469,609.53,673,754,0
235479,631.79,673,752,0
235489,648.78,673,755,0
235499,659.99,673,753,0
235509,665.13,673,754,0
235520,664.45,673,753,0
235529,658.02,673,755,0
235539,646.70,673,753,0
235549,630.93,673,754,0
235559,611.58,673,753,0
235569,589.42,673,755,0
235579,565.42,673,753,0
235589,540.05,673,754,0
235599,514.11,673,753,0
235609,488.15,673,755,0
235619,462.99,673,753,0
235629,438.99,673,754,0
235639,416.84,673,753,0
235649,396.79,673,755,0
235659,379.49,673,752,0
235669,365.03,673,754,0
235679,353.75,673,753,0
235689,345.47,673,754,0
235699,340.40,673,752,0
235709,338.05,673,754,0
235719,338.38,673,753,0
235729,340.71,673,754,0
235739,344.87,673,752,0
235749,350.05,673,754,0
235759,356.16,673,753,0
235769,362.46,673,754,0
235779,368.79,673,752,0
235789,374.60,673,755,0
235799,379.86,673,753,0
235809,384.15,673,754,0
235820,387.66,673,753,0
235830,389.86,673,754,0
235840,391.19,673,753,0
235850,391.26,673,754,0
235860,390.54,673,753,0
235870,388.79,673,754,0
235880,386.50,673,753,0
235890,383.31,673,754,0
235900,379.87,673,753,0
235910,375.88,673,754,0
235920,371.97,673,753,0
235930,367.74,673,754,0
235940,363.75,673,753,0
235950,359.62,673,754,0
235960,356.14,673,753,0
235970,352.97,673,754,0
235980,350.83,673,753,0
235991,349.73,673,754,0
236001,350.54,673,753,0
236011,353.33,673,754,0
236021,359.32,673,754,0
236032,368.44,673,753,0
236041,381.68,673,753,0
236051,398.75,673,754,0
236061,420.12,673,754,0
236071,444.99,673,754,0
236081,473.06,673,753,0
236100,502.79,653,753,0
236103,533.66,653,755,0
236112,563.77,653,753,0
236122,592.25,653,754,0
236132,617.20,653,753,0
236142,638.19,653,754,0
236152,653.86,653,753,0
236162,664.40,653,754,0
236172,668.91,653,753,0
236182,668.08,653,754,0
236192,661.76,653,753,0
236203,650.99,653,754,0
236212,635.90,653,753,0
236222,617.85,653,754,0
236232,596.72,653,753,0
236242,573.88,653,754,0
236252,549.53,653,753,0
236262,524.86,653,754,0
236272,499.96,653,753,0
236282,475.80,653,754,0
236292,452.42,653,753,0
236302,430.95,653,754,0
236312,411.16,653,753,0
236322,393.93,653,754,0
236332,378.95,653,753,0
236342,367.01,653,754,0
236352,357.66,653,753,0
236362,351.51,653,754,0
236372,347.71,653,753,0
236382,346.64,653,754,0
236392,347.43,653,753,0
236402,350.26,653,754,0
236412,354.13,653,753,0
236422,359.19,653,754,0
236432,364.36,653,753,0
236442,369.95,653,754,0
236452,375.02,653,753,0
236462,379.86,653,754,0
236472,383.63,653,753,0
236482,386.78,653,754,0
236492,388.61,653,753,0
236503,389.67,653,755,0
236513,389.38,653,753,0
236523,388.54,653,754,0
236533,386.58,653,752,0
236544,384.22,653,755,0
236553,381.07,653,753,0
236563,377.83,653,755,0
236573,374.03,653,752,0
236583,370.42,653,755,0
236593,366.44,653,753,0
236603,362.83,653,754,0
236613,359.15,653,752,0
236623,355.94,653,755,0
236633,352.66,653,753,0
236643,349.93,653,755,0
236653,347.25,653,752,0
236663,345.42,653,755,0
236673,343.92,653,753,0
236683,343.69,653,755,0
236693,344.51,653,753,0
236703,347.61,653,755,0
236713,352.96,653,752,0
236723,361.54,653,755,0
236733,373.21,653,753,0
236743,389.05,653,755,0
236753,408.57,653,752,0
236763,432.10,653,755,0
236782,458.47,682,754,0
236785,487.69,682,756,0
236794,518.17,682,752,0
236804,549.10,682,755,0
236814,578.43,682,752,0
236824,605.30,682,755,0
236834,628.14,682,752,0
236844,646.65,682,755,0
236854,659.36,682,752,0
236864,666.62,682,755,0
236874,667.89,682,752,0
236884,664.11,682,755,0
236894,655.33,682,752,0
236904,642.63,682,755,0
236914,625.99,682,752,0
236924,606.75,682,755,0
236934,585.05,682,752,0
236944,562.24,682,755,0
236954,538.34,682,752,0
236964,514.41,682,755,0
236974,490.50,682,752,0
236984,467.72,682,755,0
236994,445.95,682,752,0
237004,426.12,682,755,0
237015,407.96,682,752,0
237025,392.33,682,755,0
237035,378.99,682,752,0
237045,368.58,682,755,0
237056,360.69,682,752,0
237065,355.77,682,755,0
237075,353.18,682,752,0
237085,353.21,682,755,0
237095,355.08,682,752,0
237105,358.78,682,755,0
237115,363.52,682,752,0
237125,369.23,682,755,0
237135,375.12,682,752,0
237145,381.17,682,755,0
237155,386.65,682,752,0
237165,391.64,682,755,0
237175,395.56,682,752,0
237185,398.61,682,755,0
237195,400.31,682,752,0
237205,401.07,682,755,0
237215,400.50,682,752,0
237225,399.06,682,755,0
237235,396.51,682,752,0
237245,393.36,682,755,0
237255,389.44,682,752,0
237265,385.23,682,755,0
237275,380.54,682,752,0
237285,375.92,682,755,0
237295,371.10,682,752,0
237305,366.57,682,755,0
237315,362.11,682,752,0
237325,358.18,682,755,0
237335,354.57,682,752,0
237345,351.78,682,755,0
237356,349.75,682,752,0
237366,349.18,682,755,0
237376,350.20,682,752,0
237386,353.61,682,755,0
237396,359.68,682,752,0
237406,369.04,682,756,0
237416,381.80,682,752,0
237426,398.49,682,755,0
237436,418.83,682,752,0
237446,442.58,682,756,0
237456,468.76,682,752,0
237475,496.65,693,751,0
237478,525.17,693,753,0
237487,553.15,693,755,0
237497,578.99,693,752,0
237507,601.62,693,755,0
237517,620.08,693,752,0
237527,633.90,693,755,0
237537,642.37,693,752,0
237547,645.39,693,755,0
237557,643.17,693,752,0
237568,636.13,693,755,0
237577,624.91,693,752,0
237587,610.06,693,755,0
237597,592.09,693,752,0
237607,571.66,693,755,0
237617,549.69,693,752,0
237627,526.68,693,755,0
237637,503.34,693,752,0
237647,480.05,693,755,0
237657,457.49,693,752,0
237667,436.26,693,755,0
237677,417.02,693,752,0
237687,399.87,693,755,0
237697,385.25,693,752,0
237707,373.39,693,755,0
237717,364.49,693,752,0
237727,358.39,693,755,0
237737,355.06,693,752,0
237747,354.10,693,755,0
237757,355.27,693,752,0
237767,358.10,693,755,0
237777,362.27,693,752,0
237787,367.20,693,755,0
237797,372.59,693,752,0
237807,377.90,693,755,0
237817,382.94,693,752,0
237827,387.42,693,755,0
237837,391.19,693,752,0
237847,394.05,693,755,0
237857,396.09,693,752,0
237868,397.09,693,755,0
237878,397.32,693,753,0
237888,396.63,693,755,0
237898,395.19,693,753,0
237908,392.91,693,754,0
237918,390.06,693,753,0
237928,386.57,693,755,0
237938,382.89,693,753,0
237948,378.72,693,754,0
237958,374.56,693,753,0
237968,370.32,693,755,0
237978,366.45,693,753,0
237988,362.67,693,754,0
237998,359.43,693,753,0
238008,356.64,693,755,0
238018,354.91,693,753,0
238028,354.21,693,754,0
238039,355.34,693,753,0
238049,358.50,693,754,0
238059,364.73,693,753,0
238069,374.11,693,754,0
238080,387.41,693,754,0
238089,404.47,693,755,0
238099,425.76,693,753,0
238109,450.47,693,754,0
238129,478.40,653,754,0
238132,508.15,653,753,0
238141,539.09,653,754,0
238151,569.19,653,753,0
238161,597.68,653,755,0
238171,622.72,653,754,0
238181,643.67,653,755,0
238191,659.20,653,753,0
238201,669.21,653,755,0
238211,673.05,653,754,0
238221,671.62,653,754,0
238231,664.58,653,753,0
238241,653.09,653,755,0
238252,637.25,653,753,0
238262,618.32,653,755,0
238272,596.41,653,753,0
238282,572.84,653,755,0
238292,547.69,653,753,0
238302,522.45,653,755,0
238312,497.03,653,753,0
238322,472.77,653,755,0
238332,449.61,653,753,0
238342,428.73,653,755,0
238352,409.86,653,753,0
238362,393.96,653,755,0
238372,380.52,653,753,0
238382,370.33,653,755,0
238392,362.69,653,753,0
238402,358.11,653,755,0
238412,355.76,653,753,0
238423,356.01,653,755,0
238433,357.85,653,752,0
238443,361.49,653,755,0
238453,365.97,653,752,0
238464,371.42,653,755,0
238473,376.87,653,753,0
238483,382.52,653,755,0
238493,387.38,653,752,0
238503,391.81,653,755,0
238513,395.04,653,752,0
238523,397.43,653,755,0
238533,398.41,653,752,0
238543,398.59,653,755,0
238553,397.43,653,752,0
238563,395.67,653,755,0
238573,392.90,653,752,0
238583,389.89,653,755,0
238593,386.28,653,753,0
238603,382.77,653,755,0
238613,378.94,653,752,0
238623,375.48,653,755,0
238633,371.95,653,752,0
238643,368.92,653,755,0
