Time,PPG,IBI,GSR,GSR_Event
5796,375.37,844,756,0
5806,377.49,844,755,0
5816,376.48,844,756,0
5826,373.34,844,757,0
5836,368.27,844,757,0
5847,362.14,844,757,0
5857,355.16,844,757,0
5867,348.55,844,757,0
5877,343.63,844,756,0
5888,339.93,844,757,0
5897,336.99,844,757,0
5907,334.94,844,757,0
5917,333.28,844,757,0
5927,332.17,844,757,0
5937,331.09,844,757,0
5947,330.38,844,757,0
5957,329.66,844,757,0
5967,329.29,844,757,0
5977,328.91,844,757,0
5987,328.85,844,757,0
5997,328.77,844,757,0
6007,329.05,844,756,0
6017,329.33,844,757,0
6027,329.96,844,757,0
6037,330.49,844,756,0
6047,331.24,844,756,0
6057,331.86,844,756,0
6067,332.67,844,757,0
6077,333.24,844,756,0
6087,333.94,844,756,0
6097,334.43,844,756,0
6107,335.16,844,756,0
6117,336.01,844,756,0
6127,337.72,844,756,0
6137,340.51,844,756,0
6147,345.50,844,757,0
6157,353.45,844,756,0
6167,365.91,844,756,0
6177,383.77,844,756,0
6188,408.57,844,756,0
6207,440.71,843,756,0
6209,480.35,843,756,0
6219,524.01,843,756,0
6230,568.83,843,757,0
6239,612.13,843,756,0
6249,651.86,843,756,0
6259,685.80,843,756,0
6269,712.56,843,757,0
6279,731.29,843,756,0
6289,744.40,843,756,0
6299,753.58,843,756,0
6309,760.01,843,757,0
6319,764.51,843,756,0
6329,767.65,843,756,0
6339,769.86,843,756,0
6349,768.61,843,757,0
6359,761.70,843,756,0
6369,747.52,843,756,0
6379,724.74,843,756,0
6389,693.06,843,757,0
6400,652.37,843,756,0
6409,603.62,843,756,0
6419,550.20,843,757,0
6429,495.76,843,757,0
6439,443.03,843,757,0
6449,394.85,843,756,0
6459,352.68,843,757,0
6469,318.10,843,757,0
6479,291.07,843,757,0
6489,272.02,843,756,0
6499,260.40,843,756,0
6509,255.91,843,757,0
6519,257.44,843,756,0
6529,264.21,843,756,0
6539,274.64,843,757,0
6549,287.99,843,757,0
6559,302.91,843,757,0
6569,318.62,843,757,0
6579,333.95,843,757,0
6589,348.41,843,757,0
6599,361.14,843,757,0
6609,372.16,843,757,0
6619,380.90,843,757,0
6629,387.57,843,757,0
6639,391.94,843,757,0
6649,394.40,843,757,0
6659,394.92,843,756,0
6669,394.13,843,757,0
6679,391.91,843,757,0
6689,388.81,843,757,0
6700,384.75,843,756,0
6710,380.33,843,757,0
6720,375.47,843,757,0
6730,370.62,843,757,0
6740,365.59,843,756,0
6750,360.87,843,757,0
6760,356.28,843,757,0
6770,352.21,843,757,0
6780,348.38,843,757,0
6790,345.18,843,757,0
6800,342.12,843,757,0
6810,339.56,843,757,0
6820,337.33,843,756,0
6830,335.65,843,756,0
6840,334.21,843,756,0
6850,333.42,843,757,0
6860,332.99,843,756,0
6871,333.55,843,757,0
6881,335.10,843,756,0
6891,338.20,843,757,0
6901,343.50,843,756,0
6912,352.13,843,757,0
6921,364.74,843,757,0
6931,382.86,843,757,0
6941,407.42,843,757,0
6951,439.48,843,757,0
6961,478.72,843,757,0
6980,522.05,773,756,0
6982,566.52,773,757,0
6992,609.86,773,757,0
7002,649.63,773,757,0
7012,683.94,773,757,0
7022,711.00,773,756,0
7032,730.20,773,757,0
7042,743.64,773,757,0
7052,753.05,773,757,0
7062,759.63,773,756,0
7072,764.24,773,757,0
7083,767.47,773,757,0
7092,769.73,773,757,0
7102,771.31,773,756,0
7112,769.37,773,757,0
7122,761.42,773,757,0
7132,746.04,773,757,0
7142,721.98,773,756,0
7152,688.77,773,757,0
7162,646.54,773,756,0
7172,596.06,773,757,0
7182,541.15,773,756,0
7192,485.56,773,757,0
7202,432.12,773,757,0
7212,383.48,773,756,0
7222,341.42,773,756,0
7232,307.10,773,757,0
7242,280.84,773,757,0
7252,262.76,773,756,0
7262,252.37,773,757,0
7272,248.96,773,757,0
7282,251.54,773,757,0
7292,259.01,773,757,0
7302,270.11,773,757,0
7312,283.70,773,757,0
7322,298.75,773,757,0
7332,314.25,773,758,0
7342,329.31,773,757,0
7352,343.27,773,758,0
7362,355.66,773,758,0
7372,366.18,773,758,0
7383,374.57,773,758,0
7393,380.74,773,757,0
7403,384.85,773,758,0
7413,386.95,773,757,0
7424,387.22,773,757,0
7433,385.91,773,758,0
7443,383.24,773,758,0
7453,379.44,773,758,0
7463,374.85,773,758,0
7473,369.62,773,758,0
7483,364.16,773,758,0
7493,358.59,773,758,0
7503,353.18,773,758,0
7513,348.03,773,758,0
7523,343.39,773,758,0
7533,339.29,773,758,0
7543,335.99,773,757,0
7553,333.38,773,757,0
7563,331.64,773,757,0
7573,330.54,773,757,0
7583,330.25,773,757,0
7593,330.43,773,757,0
7603,331.16,773,757,0
7613,332.10,773,757,0
7623,333.31,773,757,0
7633,334.46,773,757,0
7643,335.69,773,757,0
7653,336.77,773,757,0
7663,338.00,773,757,0
7673,339.41,773,757,0
7683,341.60,773,757,0
7693,345.06,773,757,0
7703,350.96,773,757,0
7713,360.27,773,757,0
7724,374.55,773,757,0
7734,395.08,773,757,0
7744,423.34,773,757,0
7754,459.97,773,757,0
7764,502.28,773,757,0
7783,547.11,803,756,0
7785,591.86,803,758,0
7795,634.03,803,757,0
7805,671.39,803,758,0
7815,701.79,803,758,0
7825,723.75,803,757,0
7835,739.13,803,757,0
7845,749.89,803,757,0
7855,757.42,803,757,0
7865,762.70,803,757,0
7875,766.39,803,757,0
7885,768.97,803,757,0
7895,770.78,803,757,0
7905,772.05,803,757,0
7915,772.93,803,757,0
7925,773.55,803,757,0
7936,772.44,803,757,0
7945,766.61,803,757,0
7955,753.23,803,757,0
7965,730.83,803,757,0
7975,698.48,803,757,0
7985,656.68,803,757,0
7995,605.73,803,757,0
8005,548.30,803,757,0
8015,488.59,803,757,0
8025,431.03,803,757,0
8035,378.44,803,757,0
8045,333.35,803,757,0
8055,296.43,803,757,0
8065,268.70,803,757,0
8075,249.89,803,757,0
8085,239.77,803,757,0
8095,237.09,803,757,0
8105,241.09,803,758,0
8115,249.98,803,757,0
8125,262.76,803,757,0
8135,277.79,803,757,0
8145,294.18,803,758,0
8155,310.37,803,757,0
8165,325.94,803,757,0
8175,339.76,803,757,0
8185,351.88,803,757,0
8195,361.68,803,757,0
8205,369.36,803,757,0
8215,374.57,803,757,0
8225,377.78,803,757,0
8236,378.75,803,758,0
8246,378.05,803,758,0
8256,375.55,803,757,0
8266,371.87,803,758,0
8276,366.94,803,757,0
8286,361.43,803,758,0
8296,355.34,803,757,0
8306,349.28,803,758,0
8316,343.24,803,757,0
8326,337.81,803,757,0
8336,332.77,803,757,0
8346,328.68,803,758,0
8356,325.22,803,758,0
8366,322.84,803,758,0
8376,321.17,803,758,0
8386,320.48,803,758,0
8396,320.29,803,758,0
8407,320.89,803,758,0
8417,321.69,803,758,0
8427,323.03,803,758,0
8437,324.35,803,757,0
8448,326.00,803,757,0
8457,327.54,803,757,0
8467,329.31,803,758,0
8477,330.89,803,758,0
8487,332.64,803,757,0
8497,334.16,803,757,0
8507,335.95,803,758,0
8517,337.77,803,757,0
8527,340.37,803,757,0
8537,343.94,803,758,0
8547,349.70,803,757,0
8557,358.41,803,757,0
8567,371.70,803,757,0
8577,390.30,803,757,0
8587,416.06,803,758,0
8597,449.51,803,758,0
8616,489.81,833,756,0
8619,533.50,833,758,0
8628,577.96,833,758,0
8638,620.49,833,758,0
8648,659.26,833,757,0
8658,691.88,833,757,0
8668,716.82,833,758,0
8678,734.27,833,757,0
8688,746.49,833,757,0
8698,755.04,833,758,0
8708,761.03,833,758,0
8718,765.22,833,758,0
8728,768.15,833,758,0
8738,770.21,833,758,0
8748,771.65,833,758,0
8758,772.65,833,758,0
8768,773.36,833,757,0
8778,770.64,833,757,0
8788,761.70,833,757,0
8798,744.82,833,757,0
8808,718.82,833,758,0
8818,683.17,833,758,0
8828,638.21,833,758,0
8838,584.62,833,758,0
8848,526.83,833,758,0
8858,468.72,833,758,0
8868,413.65,833,758,0
8878,363.96,833,758,0
8888,321.71,833,758,0
8898,287.73,833,758,0
8908,262.57,833,758,0
8919,245.81,833,758,0
8929,237.30,833,758,0
8939,235.84,833,758,0
8949,240.68,833,759,0
8960,250.34,833,758,0
8969,263.65,833,759,0
8979,279.23,833,758,0
8989,296.13,833,758,0
8999,313.15,833,758,0
9009,329.60,833,758,0
9019,344.51,833,758,0
9029,357.47,833,758,0
9039,368.04,833,758,0
9049,376.26,833,758,0
9059,381.88,833,758,0
9069,385.13,833,759,0
9079,386.03,833,758,0
9089,385.21,833,758,0
9099,382.79,833,758,0
9109,379.30,833,758,0
9119,374.79,833,758,0
9129,369.71,833,758,0
9139,364.14,833,758,0
9149,358.53,833,758,0
9159,352.80,833,758,0
9169,347.42,833,759,0
9179,342.36,833,758,0
9189,337.88,833,758,0
9199,333.97,833,758,0
9209,330.81,833,758,0
9219,328.25,833,758,0
9229,326.55,833,758,0
9239,325.40,833,758,0
9249,324.94,833,758,0
9260,324.91,833,758,0
9270,325.32,833,758,0
9280,325.91,833,758,0
9290,326.71,833,758,0
9300,327.48,833,758,0
9310,328.41,833,758,0
9320,329.32,833,758,0
9330,330.33,833,758,0
9340,331.65,833,758,0
9350,333.68,833,758,0
9360,336.82,833,758,0
9370,341.85,833,758,0
9380,349.52,833,758,0
9390,360.89,833,758,0
9400,377.17,833,758,0
9410,399.53,833,758,0
9420,428.90,833,758,0
9431,465.74,833,758,0
9450,507.74,834,757,0
9452,551.87,834,758,0
9462,595.62,834,758,0
9473,636.67,834,758,0
9483,672.85,834,758,0
9493,702.47,834,758,0
9503,724.23,834,758,0
9513,739.46,834,759,0
9523,750.12,834,760,0
9533,757.58,834,760,0
9543,762.81,834,760,0
9553,766.47,834,760,0
9563,768.04,834,760,0
9573,764.99,834,759,0
9583,755.60,834,759,0
9593,738.45,834,759,0
9603,713.16,834,758,0
9613,679.25,834,758,0
9623,637.01,834,758,0
9633,587.72,834,758,0
9644,535.22,834,758,0
9654,482.31,834,758,0
9664,431.99,834,758,0
9674,385.79,834,758,0
9684,345.74,834,758,0
9694,312.52,834,758,0
9704,287.03,834,758,0
9714,269.11,834,758,0
9724,258.83,834,758,0
9734,255.07,834,758,0
9744,257.28,834,758,0
9754,264.05,834,759,0
9764,274.71,834,759,0
9774,287.78,834,759,0
9784,302.50,834,759,0
9794,317.57,834,758,0
9804,332.57,834,759,0
9815,346.50,834,758,0
9825,359.08,834,758,0
9835,369.68,834,758,0
9845,378.48,834,759,0
9856,384.93,834,758,0
9865,389.41,834,758,0
9875,391.69,834,758,0
9885,392.34,834,758,0
9895,391.34,834,758,0
9905,389.26,834,758,0
9915,385.93,834,758,0
9925,382.14,834,759,0
9935,377.64,834,759,0
9945,373.07,834,759,0
9955,368.17,834,759,0
9965,363.45,834,759,0
9975,358.55,834,759,0
9985,354.10,834,759,0
9995,349.70,834,759,0
10005,345.80,834,759,0
10015,342.05,834,759,0
10025,338.95,834,759,0
10035,336.09,834,759,0
10045,333.92,834,759,0
10055,331.97,834,759,0
10065,330.70,834,759,0
10075,329.84,834,759,0
10085,329.98,834,759,0
10095,330.93,834,758,0
10105,333.61,834,759,0
10115,338.22,834,758,0
10125,346.17,834,759,0
10135,358.21,834,758,0
10145,376.06,834,759,0
10156,400.38,834,758,0
10166,432.50,834,758,0
10185,472.12,735,758,0
10188,516.27,735,758,0
10198,561.75,735,758,0
10207,606.14,735,758,0
10217,646.81,735,758,0
10227,682.01,735,758,0
10237,709.82,735,758,0
10247,729.42,735,758,0
10257,743.09,735,758,0
10267,752.66,735,758,0
10277,759.37,735,758,0
10287,764.06,735,758,0
10297,767.34,735,758,0
10307,769.64,735,758,0
10317,770.13,735,758,0
10327,766.58,735,759,0
10337,756.63,735,758,0
10347,738.96,735,759,0
10357,712.53,735,758,0
10368,677.31,735,758,0
10377,633.59,735,758,0
10387,583.23,735,758,0
10397,529.24,735,758,0
10407,475.34,735,758,0
10417,424.11,735,758,0
10427,378.01,735,758,0
10437,338.19,735,758,0
10447,305.78,735,758,0
10457,280.86,735,759,0
10467,263.93,735,759,0
10477,254.26,735,758,0
10487,251.44,735,758,0
10497,254.14,735,759,0
10507,261.73,735,759,0
10517,272.69,735,759,0
10527,286.16,735,759,0
10537,300.68,735,759,0
10547,315.73,735,759,0
10557,330.09,735,759,0
10567,343.47,735,759,0
10577,355.03,735,758,0
10587,364.67,735,759,0
10597,372.09,735,758,0
10607,377.64,735,759,0
10617,380.96,735,758,0
10627,382.64,735,759,0
10637,382.62,735,758,0
10647,381.32,735,758,0
10657,378.74,735,758,0
10668,375.39,735,758,0
10678,371.24,735,758,0
10688,366.80,735,758,0
10698,362.02,735,758,0
10708,357.34,735,759,0
10718,352.78,735,758,0
10728,348.82,735,758,0
10738,345.23,735,758,0
10748,342.29,735,759,0
10758,339.85,735,758,0
10768,338.05,735,758,0
10778,336.66,735,758,0
10788,335.78,735,758,0
10798,335.07,735,758,0
10808,334.71,735,758,0
10818,334.41,735,758,0
10828,334.37,735,758,0
10839,334.43,735,758,0
10849,334.99,735,758,0
10859,336.28,735,758,0
10869,339.15,735,758,0
10880,344.33,735,758,0
10889,352.89,735,758,0
10899,365.95,735,758,0
10909,385.12,735,758,0
10919,411.57,735,758,0
10929,445.90,735,758,0
10948,486.90,763,758,0
10950,531.29,763,759,0
10960,576.37,763,758,0
10970,619.68,763,758,0
10980,658.73,763,758,0
10990,691.47,763,758,0
11000,716.53,763,758,0
11010,734.07,763,758,0
11020,746.35,763,758,0
11030,754.94,763,758,0
11040,760.96,763,759,0
11051,765.17,763,758,0
11060,768.12,763,759,0
11070,770.18,763,759,0
11080,771.63,763,759,0
11090,772.64,763,758,0
11100,773.35,763,759,0
11110,770.33,763,759,0
11120,760.93,763,759,0
11130,743.29,763,758,0
11140,716.76,763,758,0
11150,680.96,763,758,0
11160,636.10,763,758,0
11170,582.76,763,758,0
11180,525.66,763,758,0
11190,468.68,763,758,0
11200,414.99,763,758,0
11210,366.69,763,758,0
11220,325.64,763,758,0
11230,292.75,763,759,0
11240,268.48,763,758,0
11250,252.52,763,758,0
11260,244.39,763,758,0
11270,243.20,763,759,0
11280,247.90,763,758,0
11290,257.02,763,759,0
11300,269.48,763,758,0
11310,284.00,763,759,0
11320,299.47,763,759,0
11330,314.88,763,758,0
11340,329.53,763,758,0
11351,342.66,763,758,0
11361,353.99,763,758,0
11371,363.08,763,758,0
11381,370.04,763,758,0
11392,374.70,763,758,0
11401,377.36,763,758,0
11411,378.07,763,758,0
11421,377.10,763,758,0
11431,374.59,763,758,0
11441,371.03,763,758,0
11451,366.52,763,758,0
11461,361.56,763,758,0
11471,356.17,763,758,0
11481,350.76,763,758,0
11491,345.56,763,758,0
11501,340.76,763,758,0
11511,336.29,763,758,0
11521,332.39,763,758,0
11531,328.97,763,758,0
11541,326.28,763,758,0
11551,324.18,763,758,0
11561,322.80,763,759,0
11571,322.05,763,758,0
11581,322.07,763,758,0
11591,322.61,763,758,0
11601,323.76,763,758,0
11611,325.20,763,758,0
11621,326.90,763,758,0
11631,328.56,763,758,0
11641,330.28,763,758,0
11651,331.78,763,758,0
11661,333.26,763,757,0
11671,334.55,763,758,0
11681,336.06,763,758,0
11692,338.10,763,758,0
11702,341.45,763,758,0
11712,346.80,763,758,0
11722,355.56,763,758,0
11732,368.81,763,758,0
11742,387.98,763,758,0
11752,414.26,763,758,0
11762,448.77,763,758,0
11782,489.81,833,757,0
11785,534.27,833,758,0
11794,579.14,833,758,0
11804,622.09,833,758,0
11814,660.85,833,758,0
11824,693.38,833,757,0
11834,717.86,833,758,0
11844,735.01,833,758,0
11854,747.00,833,757,0
11864,755.40,833,757,0
11874,761.28,833,758,0
11884,765.40,833,758,0
11894,768.28,833,758,0
11905,770.29,833,757,0
11915,771.71,833,758,0
11925,772.69,833,757,0
11935,771.24,833,757,0
11945,764.53,833,757,0
11955,750.57,833,757,0
11965,728.03,833,757,0
11975,696.09,833,757,0
11985,654.92,833,757,0
11995,605.10,833,757,0
12005,549.74,833,757,0
12015,492.65,833,757,0
12025,437.38,833,757,0
12035,386.48,833,757,0
12045,342.37,833,757,0
12055,305.96,833,757,0
12065,278.03,833,757,0
12076,258.39,833,757,0
12086,247.13,833,757,0
12096,243.19,833,757,0
12106,245.92,833,757,0
12116,253.70,833,757,0
12126,265.53,833,757,0
12136,279.77,833,757,0
12146,295.70,833,757,0
12156,311.90,833,757,0
12166,327.83,833,757,0
12176,342.41,833,757,0
12186,355.49,833,757,0
12196,366.48,833,757,0
12206,375.55,833,757,0
12216,382.16,833,757,0
12226,386.65,833,757,0
12236,388.77,833,756,0
12247,389.01,833,757,0
12257,387.38,833,756,0
12267,384.39,833,756,0
12277,380.08,833,756,0
12288,374.95,833,757,0
12297,369.14,833,756,0
12307,363.14,833,756,0
12317,357.10,833,756,0
12327,351.37,833,756,0
12337,345.94,833,756,0
12347,341.25,833,756,0
12357,337.23,833,756,0
12367,334.12,833,756,0
12377,331.68,833,756,0
12387,330.06,833,756,0
12397,329.02,833,756,0
12407,328.71,833,756,0
12417,328.75,833,756,0
12427,329.34,833,756,0
12437,330.05,833,756,0
12447,331.07,833,756,0
12457,332.08,833,756,0
12467,333.25,833,756,0
12477,334.42,833,756,0
12487,335.92,833,756,0
12497,337.79,833,756,0
12507,340.68,833,756,0
12517,345.06,833,756,0
12527,352.03,833,756,0
12537,362.65,833,756,0
12547,378.05,833,756,0
12557,399.38,833,756,0
12567,427.64,833,757,0
12577,463.10,833,757,0
12588,504.30,833,757,0
12607,548.01,826,756,0
12609,591.55,826,757,0
12619,632.66,826,757,0
12630,669.19,826,757,0
12639,699.39,826,756,0
12649,722.12,826,757,0
12659,738.02,826,757,0
12669,749.16,826,757,0
12679,756.91,826,756,0
12689,762.34,826,757,0
12699,766.14,826,758,0
12709,766.05,826,758,0
12719,760.64,826,757,0
12729,748.40,826,757,0
12739,728.40,826,757,0
12749,700.08,826,757,0
12759,663.71,826,757,0
12769,619.40,826,757,0
12779,570.42,826,757,0
12789,519.29,826,757,0
12800,468.68,826,757,0
12809,420.86,826,758,0
12819,377.57,826,758,0
12829,339.82,826,758,0
12839,308.59,826,757,0
12849,284.32,826,758,0
12859,267.26,826,757,0
12869,257.11,826,757,0
12879,253.39,826,757,0
12889,255.20,826,757,0
12899,261.70,826,757,0
12909,271.86,826,758,0
12919,284.67,826,757,0
12929,298.96,826,758,0
12939,313.84,826,758,0
12949,328.46,826,758,0
12959,342.29,826,758,0
12969,354.68,826,758,0
12979,365.32,826,758,0
12989,374.05,826,758,0
12999,380.81,826,757,0
13009,385.66,826,758,0
13019,388.64,826,758,0
13029,389.86,826,758,0
13039,389.60,826,758,0
13049,388.01,826,758,0
13059,385.35,826,758,0
13069,381.99,826,758,0
13079,378.05,826,758,0
13089,373.70,826,758,0
13100,369.29,826,757,0
13110,364.92,826,757,0
13120,360.83,826,757,0
13130,356.94,826,758,0
13140,353.44,826,758,0
13150,350.18,826,758,0
13160,347.38,826,758,0
13170,344.91,826,757,0
13180,342.84,826,757,0
13190,341.09,826,758,0
13200,339.77,826,758,0
13210,338.69,826,758,0
13220,338.05,826,758,0
13230,337.69,826,758,0
13240,337.79,826,758,0
13250,338.36,826,758,0
13260,340.10,826,758,0
13271,343.58,826,758,0
13281,349.92,826,757,0
13291,360.19,826,757,0
13301,375.86,826,757,0
13312,398.10,826,758,0
13321,427.81,826,757,0
13340,464.98,733,756,0
13343,507.50,733,757,0
13352,552.14,733,757,0
13362,596.28,733,757,0
13372,637.38,733,757,0
13382,673.40,733,757,0
13392,702.76,733,757,0
13402,724.43,733,757,0
13412,739.60,733,757,0
13422,750.22,733,757,0
13432,757.66,733,757,0
13442,762.86,733,758,0
13452,766.50,733,757,0
13462,769.05,733,758,0
13472,769.55,733,758,0
13483,765.57,733,758,0
13492,755.50,733,758,0
13502,737.99,733,758,0
13512,712.11,733,758,0
13522,677.75,733,758,0
13532,635.05,733,757,0
13542,585.92,733,758,0
13552,533.53,733,758,0
13562,480.83,733,758,0
13572,430.27,733,757,0
13582,384.07,733,757,0
13592,343.55,733,757,0
13602,309.91,733,758,0
13612,283.24,733,757,0
13622,264.14,733,758,0
13632,252.05,733,758,0
13642,246.85,733,758,0
13652,247.50,733,757,0
13662,253.18,733,758,0
13672,262.51,733,758,0
13682,274.96,733,758,0
13692,289.07,733,757,0
13702,304.22,733,758,0
13712,319.07,733,758,0
13722,333.28,733,758,0
13732,345.92,733,758,0
13742,357.00,733,758,0
13752,365.87,733,758,0
13762,372.81,733,758,0
13772,377.37,733,757,0
13783,380.04,733,757,0
13793,380.63,733,757,0
13803,379.88,733,758,0
13813,377.52,733,757,0
13824,374.32,733,758,0
13833,370.02,733,758,0
13843,365.30,733,758,0
13853,360.11,733,758,0
13863,355.02,733,758,0
13873,349.83,733,758,0
13883,345.25,733,758,0
13893,341.02,733,757,0
13903,337.67,733,758,0
13913,334.98,733,758,0
13923,333.19,733,758,0
13933,331.89,733,757,0
13943,331.41,733,757,0
13953,331.16,733,757,0
13963,331.37,733,758,0
13973,331.64,733,757,0
13983,332.26,733,758,0
13993,332.74,733,758,0
14003,333.42,733,758,0
14013,333.85,733,758,0
14023,334.50,733,758,0
14033,335.12,733,758,0
14043,336.41,733,758,0
14053,338.56,733,757,0
14063,342.76,733,758,0
14073,349.78,733,757,0
14083,360.99,733,757,0
14093,377.49,733,757,0
14103,401.04,733,758,0
14113,432.14,733,758,0
14124,471.32,733,758,0
14143,514.94,803,757,0
14146,560.17,803,758,0
14155,604.43,803,758,0
14166,645.45,803,758,0
14175,680.80,803,758,0
14185,709.02,803,757,0
14195,728.81,803,758,0
14205,742.67,803,758,0
14215,752.37,803,758,0
14225,759.16,803,758,0
14235,763.91,803,758,0
14245,767.24,803,758,0
14255,769.57,803,758,0
14265,771.20,803,758,0
14275,771.31,803,758,0
14285,767.23,803,758,0
14295,756.96,803,758,0
14305,739.10,803,758,0
14315,712.59,803,758,0
14325,677.35,803,758,0
14336,633.45,803,758,0
14345,582.78,803,757,0
14355,528.85,803,758,0
14365,474.85,803,758,0
14375,423.34,803,758,0
14385,376.69,803,757,0
14395,336.07,803,757,0
14405,302.88,803,758,0
14415,276.99,803,758,0
14425,258.82,803,758,0
14435,247.90,803,758,0
14445,243.82,803,758,0
14455,245.54,803,758,0
14465,252.15,803,758,0
14475,262.09,803,758,0
14485,274.75,803,758,0
14495,288.67,803,758,0
14505,303.08,803,758,0
14515,316.90,803,758,0
14525,329.79,803,758,0
14535,341.08,803,758,0
14545,350.78,803,758,0
14555,358.35,803,758,0
14565,364.07,803,758,0
14575,367.69,803,758,0
14585,369.71,803,757,0
14595,369.93,803,757,0
14605,369.01,803,758,0
14615,366.78,803,757,0
14625,363.93,803,758,0
14636,360.22,803,757,0
14646,356.26,803,757,0
14656,351.81,803,757,0
14666,347.32,803,757,0
14676,342.64,803,757,0
14686,338.33,803,757,0
14696,334.12,803,757,0
14706,330.53,803,757,0
14716,327.41,803,757,0
14726,325.06,803,757,0
14736,323.41,803,758,0
14746,322.52,803,758,0
14756,322.02,803,757,0
14766,322.14,803,757,0
14776,322.53,803,756,0
14786,323.27,803,757,0
14796,324.13,803,756,0
14807,325.08,803,757,0
14817,326.04,803,756,0
14827,327.19,803,757,0
14837,328.24,803,756,0
14848,329.46,803,757,0
14857,330.65,803,756,0
14867,332.00,803,757,0
14877,333.50,803,756,0
14887,335.62,803,757,0
14897,338.69,803,757,0
14907,343.67,803,757,0
14917,351.53,803,756,0
14927,363.58,803,758,0
14937,380.89,803,758,0
14947,404.93,803,758,0
14957,436.40,803,758,0
14977,475.67,833,758,0
14980,519.23,833,759,0
14989,564.11,833,759,0
14999,607.71,833,758,0
15009,647.95,833,758,0
15020,682.68,833,758,0
15030,710.29,833,758,0
15040,729.70,833,758,0
15050,743.29,833,758,0
15060,752.80,833,758,0
15070,759.46,833,758,0
15080,764.12,833,758,0
15090,767.39,833,758,0
15100,769.67,833,757,0
15110,771.27,833,758,0
15120,769.13,833,758,0
15130,760.99,833,758,0
15140,745.52,833,758,0
15150,721.97,833,758,0
15160,689.83,833,758,0
15170,649.08,833,758,0
15180,600.12,833,758,0
15191,546.77,833,758,0
15201,492.67,833,758,0
15211,440.27,833,758,0
15221,391.76,833,758,0
15232,348.80,833,758,0
15241,312.82,833,758,0
15251,284.37,833,758,0
15261,263.90,833,758,0
15271,250.82,833,758,0
15281,244.83,833,758,0
15291,244.88,833,758,0
15301,250.19,833,759,0
15311,259.22,833,759,0
15321,271.15,833,758,0
15331,284.74,833,758,0
15341,299.39,833,758,0
15351,313.93,833,758,0
15361,327.88,833,759,0
15371,340.47,833,759,0
15381,351.69,833,758,0
15391,360.95,833,758,0
15401,368.34,833,758,0
15411,373.51,833,759,0
15421,376.83,833,759,0
15431,378.12,833,758,0
15441,377.96,833,758,0
15451,376.21,833,758,0
15461,373.49,833,758,0
15471,369.79,833,758,0
15481,365.65,833,758,0
15491,361.00,833,758,0
15501,356.46,833,758,0
15511,351.69,833,758,0
15521,347.33,833,758,0
15532,343.07,833,758,0
15542,339.49,833,758,0
15552,336.22,833,758,0
15562,333.62,833,758,0
15572,331.29,833,758,0
15582,329.75,833,758,0
15592,328.62,833,758,0
15602,328.18,833,758,0
15612,327.91,833,758,0
15622,328.15,833,758,0
15632,328.49,833,758,0
15642,329.29,833,758,0
15652,329.93,833,758,0
15662,330.68,833,758,0
15672,331.29,833,758,0
15682,332.10,833,758,0
15692,332.93,833,758,0
15703,334.45,833,758,0
15713,336.63,833,758,0
15723,340.68,833,757,0
15733,346.99,833,757,0
15744,356.94,833,758,0
15753,371.06,833,757,0
15763,390.93,833,757,0
15773,417.09,833,757,0
15783,450.49,833,758,0
15802,490.03,826,757,0
15804,533.09,826,758,0
15814,576.65,826,757,0
15824,618.71,826,758,0
15834,656.81,826,758,0
15844,689.31,826,758,0
15854,714.68,826,758,0
15864,732.77,826,758,0
15874,745.44,826,758,0
15884,754.31,826,758,0
15894,760.52,826,757,0
15904,763.49,826,758,0
15915,761.41,826,757,0
15924,753.49,826,758,0
15934,738.43,826,757,0
15944,715.76,826,758,0
15954,685.02,826,757,0
15964,646.70,826,757,0
15974,602.34,826,757,0
15984,555.06,826,758,0
15994,506.52,826,757,0
16004,459.44,826,757,0
16014,415.34,826,757,0
16024,376.02,826,757,0
16034,341.90,826,757,0
16044,313.99,826,757,0
16054,292.39,826,757,0
16064,277.49,826,758,0
16074,268.73,826,757,0
16084,265.89,826,758,0
16094,267.85,826,757,0
16104,274.11,826,757,0
16114,283.42,826,757,0
16124,295.08,826,758,0
16134,307.83,826,757,0
16144,321.17,826,758,0
16154,334.06,826,757,0
16164,346.34,826,757,0
16174,357.30,826,757,0
16184,366.89,826,758,0
16194,374.68,826,758,0
16204,381.08,826,758,0
16215,385.60,826,757,0
16225,388.63,826,758,0
16235,389.94,826,757,0
16245,389.92,826,757,0
16256,388.48,826,757,0
16265,386.15,826,757,0
16275,382.72,826,757,0
16285,378.78,826,758,0
16295,374.22,826,757,0
16305,369.56,826,758,0
16315,364.81,826,758,0
16325,360.41,826,758,0
16335,356.17,826,757,0
16345,352.48,826,758,0
16355,349.08,826,758,0
16365,346.27,826,758,0
16375,343.79,826,758,0
16385,341.88,826,758,0
16395,340.16,826,758,0
16405,338.87,826,758,0
16415,337.75,826,758,0
16425,337.10,826,758,0
16435,336.73,826,758,0
16445,337.11,826,758,0
16455,338.32,826,758,0
16465,341.14,826,758,0
16475,345.85,826,758,0
16485,353.70,826,758,0
16495,365.66,826,757,0
16505,383.20,826,758,0
16515,406.89,826,758,0
16525,437.73,826,758,0
16544,475.66,742,757,0
16546,518.27,742,758,0
16556,562.46,742,758,0
16566,605.65,742,758,0
16576,645.40,742,758,0
16586,680.08,742,757,0
16596,707.91,742,758,0
16606,728.04,742,758,0
16616,742.13,742,758,0
16626,751.99,742,758,0
16636,758.89,742,759,0
16646,763.72,742,758,0
16656,767.11,742,758,0
16666,769.43,742,758,0
16676,767.89,742,758,0
16686,761.02,742,758,0
16696,747.26,742,758,0
16706,725.67,742,758,0
16716,695.81,742,759,0
16727,657.72,742,758,0
16737,611.65,742,758,0
16747,561.40,742,758,0
16757,509.59,742,759,0
16768,458.93,742,758,0
16777,411.76,742,758,0
16787,369.75,742,758,0
16797,334.00,742,758,0
16807,305.33,742,759,0
16817,283.89,742,759,0
16827,269.48,742,758,0
16837,261.83,742,758,0
16847,260.08,742,759,0
16857,263.40,742,759,0
16867,270.78,742,759,0
16877,281.26,742,759,0
16887,293.91,742,759,0
16897,307.74,742,759,0
16907,321.75,742,759,0
16917,335.24,742,759,0
16927,347.47,742,759,0
16937,358.13,742,758,0
16947,366.87,742,758,0
16957,373.51,742,758,0
16967,378.12,742,758,0
16977,380.78,742,758,0
16987,381.66,742,758,0
16997,381.08,742,758,0
17007,379.17,742,759,0
17017,376.16,742,758,0
17027,372.38,742,758,0
17037,368.11,742,758,0
17047,363.54,742,758,0
17057,358.79,742,758,0
17068,354.14,742,758,0
17078,349.73,742,758,0
17088,345.74,742,758,0
17098,342.30,742,758,0
17108,339.30,742,757,0
17118,336.89,742,757,0
17128,335.00,742,758,0
17138,333.58,742,758,0
17148,332.51,742,758,0
17158,331.84,742,758,0
17168,331.33,742,758,0
17178,331.10,742,758,0
17188,330.90,742,758,0
17198,330.93,742,758,0
17208,331.04,742,758,0
17218,331.58,742,758,0
17228,332.65,742,758,0
17239,334.94,742,758,0
17249,338.94,742,758,0
17259,345.90,742,758,0
17269,356.78,742,758,0
17280,373.00,742,758,0
17289,395.37,742,758,0
17299,425.13,742,758,0
17309,462.46,742,758,0
17329,505.18,784,757,0
17332,550.00,784,757,0
17341,594.31,784,758,0
17351,635.66,784,758,0
17361,672.23,784,758,0
17371,702.04,784,758,0
17381,723.93,784,758,0
17391,739.25,784,758,0
17401,749.97,784,758,0
17411,757.48,784,758,0
17421,762.74,784,758,0
17431,766.42,784,758,0
17441,768.99,784,758,0
17452,770.79,784,758,0
17462,770.81,784,758,0
17472,766.20,784,758,0
17482,755.12,784,758,0
17492,736.02,784,758,0
17502,708.63,784,758,0
17512,672.44,784,757,0
17522,627.99,784,758,0
17532,576.87,784,757,0
17542,523.38,784,758,0
17552,470.21,784,758,0
17562,420.35,784,757,0
17572,375.11,784,757,0
17582,336.42,784,758,0
17592,304.67,784,758,0
17602,280.64,784,757,0
17612,263.69,784,758,0
17623,254.01,784,758,0
17633,250.54,784,757,0
17643,252.73,784,758,0
17653,259.24,784,758,0
17664,269.37,784,758,0
17673,281.73,784,758,0
17683,295.65,784,758,0
17693,309.77,784,758,0
17703,323.73,784,758,0
17713,336.49,784,758,0
17723,348.00,784,757,0
17733,357.52,784,757,0
17743,365.20,784,757,0
17753,370.67,784,757,0
17763,374.37,784,757,0
17773,376.06,784,757,0
17783,376.30,784,757,0
17793,374.92,784,757,0
17803,372.55,784,757,0
17813,369.13,784,756,0
17823,365.23,784,757,0
17833,360.75,784,757,0
17843,356.15,784,756,0
17853,351.39,784,757,0
17863,346.95,784,757,0
17873,342.85,784,757,0
17883,339.38,784,757,0
17893,336.31,784,757,0
17903,334.07,784,758,0
17913,332.38,784,758,0
17923,331.49,784,758,0
17933,330.96,784,757,0
17943,330.80,784,758,0
17953,330.82,784,758,0
17964,331.26,784,758,0
17974,331.65,784,757,0
17984,332.23,784,757,0
17994,332.67,784,757,0
18004,333.24,784,758,0
18014,333.60,784,758,0
18024,333.98,784,758,0
18034,334.11,784,758,0
18044,334.42,784,758,0
18054,335.02,784,758,0
18064,336.64,784,758,0
18074,339.84,784,758,0
18084,345.84,784,758,0
18094,355.36,784,758,0
18104,369.95,784,758,0
18114,390.67,784,758,0
18124,418.80,784,758,0
18135,454.47,784,758,0
18154,496.20,826,758,0
18156,540.63,826,759,0
18166,585.27,826,759,0
18177,627.53,826,758,0
18187,665.30,826,759,0
18197,696.54,826,758,0
18207,720.08,826,759,0
18217,736.55,826,758,0
18227,748.09,826,758,0
18237,756.16,826,758,0
18247,761.81,826,758,0
18257,765.77,826,758,0
18267,768.54,826,758,0
18277,770.48,826,758,0
18287,770.68,826,758,0
18297,766.53,826,758,0
18307,756.34,826,758,0
18317,738.58,826,758,0
18327,712.27,826,758,0
18337,677.26,826,759,0
18348,633.72,826,758,0
18358,583.53,826,758,0
18368,530.19,826,758,0
18378,476.69,826,757,0
18388,425.74,826,758,0
18398,379.70,826,758,0
18408,339.76,826,758,0
18418,307.05,826,757,0
18428,281.75,826,758,0
18438,264.08,826,758,0
18448,253.47,826,757,0
18458,249.39,826,757,0
18468,250.81,826,757,0
18478,256.91,826,757,0
18488,266.37,826,757,0
18498,278.34,826,757,0
18508,291.65,826,758,0
18519,305.56,826,758,0
18529,319.23,826,758,0
18539,332.28,826,758,0
18549,343.98,826,758,0
18560,354.23,826,758,0
18569,362.56,826,758,0
18579,369.21,826,758,0
18589,373.94,826,758,0
18599,377.05,826,758,0
18609,378.28,826,758,0
18619,378.15,826,757,0
18629,376.61,826,758,0
18639,374.28,826,758,0
18649,370.90,826,758,0
18659,367.07,826,757,0
18669,362.68,826,758,0
18679,358.32,826,758,0
18689,353.89,826,758,0
18699,349.85,826,757,0
18709,345.83,826,757,0
18719,342.41,826,758,0
18729,339.24,826,758,0
18739,336.68,826,757,0
18749,334.38,826,757,0
18759,332.68,826,757,0
18769,331.36,826,757,0
18779,330.65,826,757,0
18789,330.07,826,757,0
18799,329.84,826,757,0
18809,329.58,826,757,0
18819,329.75,826,758,0
18829,329.83,826,758,0
18839,330.09,826,758,0
18849,330.24,826,758,0
18860,330.72,826,758,0
18870,331.36,826,758,0
18880,332.84,826,758,0
18890,334.99,826,758,0
18900,338.93,826,758,0
18910,344.91,826,758,0
18920,354.41,826,758,0
18930,368.26,826,758,0
18940,387.94,826,757,0
18950,413.76,826,758,0
18960,446.53,826,757,0
18979,485.84,825,756,0
18982,529.00,825,757,0
18991,572.93,825,757,0
19001,615.25,825,757,0
19011,653.66,825,756,0
19021,686.68,825,757,0
19031,712.87,825,757,0
19041,731.51,825,757,0
19051,744.56,825,757,0
19061,753.69,825,757,0
19072,760.08,825,756,0
19081,764.56,825,757,0
19091,765.12,825,757,0
19101,760.50,825,757,0
19111,749.16,825,757,0
19121,730.69,825,757,0
19131,704.25,825,757,0
19141,669.98,825,757,0
19151,627.94,825,757,0
19161,581.46,825,757,0
19171,532.59,825,757,0
19181,484.24,825,757,0
19191,437.93,825,757,0
19201,395.73,825,757,0
19211,358.61,825,757,0
19221,327.74,825,757,0
19231,303.22,825,757,0
19241,285.75,825,757,0
19251,274.56,825,757,0
19261,269.55,825,757,0
19271,269.64,825,757,0
19281,274.33,825,757,0
19291,282.29,825,757,0
19301,292.87,825,757,0
19311,304.70,825,757,0
19321,317.52,825,757,0
19331,330.13,825,757,0
19341,342.39,825,757,0
19351,353.42,825,756,0
19361,363.28,825,757,0
19372,371.47,825,756,0
19382,378.14,825,757,0
19392,382.98,825,756,0
19402,386.33,825,757,0
19412,388.03,825,756,0
19422,388.49,825,756,0
19432,387.49,825,756,0
19442,385.63,825,757,0
19452,382.83,825,756,0
19462,379.62,825,757,0
19472,375.88,825,756,0
19482,372.10,825,756,0
19492,368.08,825,756,0
19502,364.42,825,756,0
19512,360.65,825,756,0
19522,357.24,825,757,0
19532,353.78,825,757,0
19543,350.72,825,757,0
19553,347.76,825,757,0
19563,345.35,825,757,0
19573,343.14,825,757,0
19584,341.51,825,757,0
19593,340.16,825,757,0
19603,339.55,825,757,0
19613,339.65,825,757,0
19623,340.99,825,757,0
19633,343.87,825,757,0
19643,349.31,825,757,0
19653,358.09,825,757,0
19663,371.73,825,757,0
19673,390.88,825,757,0
19683,416.72,825,757,0
19693,449.42,825,757,0
19713,489.06,733,756,0
19716,532.20,733,757,0
19725,576.11,733,757,0
19735,618.12,733,757,0
19745,656.40,733,757,0
19756,688.98,733,757,0
19766,714.74,733,757,0
19776,732.82,733,757,0
19786,745.47,733,757,0
19796,754.33,733,757,0
19806,760.53,733,757,0
19816,763.93,733,757,0
19826,762.84,733,757,0
19836,755.90,733,757,0
19846,742.47,733,757,0
19856,721.72,733,758,0
19866,693.26,733,757,0
19876,657.14,733,757,0
19886,614.75,733,757,0
19896,568.80,733,757,0
19906,521.59,733,757,0
19916,474.91,733,757,0
19927,430.75,733,757,0
19937,390.67,733,757,0
19947,355.54,733,758,0
19957,326.19,733,757,0
19968,302.99,733,757,0
19977,286.37,733,757,0
19987,276.01,733,758,0
19997,271.47,733,758,0
20007,271.93,733,758,0
20017,276.92,733,758,0
20027,285.17,733,758,0
20037,295.96,733,757,0
20047,308.06,733,758,0
20057,320.73,733,758,0
20067,333.15,733,758,0
20077,344.81,733,758,0
20087,355.15,733,758,0
20097,363.89,733,758,0
20107,370.74,733,757,0
20117,376.00,733,758,0
20127,379.43,733,758,0
20137,381.49,733,758,0
20147,382.24,733,758,0
20157,381.83,733,758,0
20167,380.38,733,757,0
20177,378.16,733,757,0
20187,375.16,733,758,0
20197,371.81,733,758,0
20207,368.10,733,757,0
20217,364.34,733,758,0
20227,360.59,733,758,0
20237,357.16,733,758,0
20247,353.94,733,757,0
20257,351.04,733,758,0
20268,348.42,733,758,0
20278,346.15,733,758,0
20288,344.13,733,757,0
20298,342.38,733,758,0
20308,340.72,733,758,0
20318,339.43,733,758,0
20328,338.36,733,757,0
20338,337.87,733,758,0
20348,337.95,733,757,0
20358,339.21,733,757,0
20368,342.19,733,756,0
20378,348.13,733,757,0
20388,357.82,733,757,0
20398,372.53,733,757,0
20408,393.24,733,757,0
20418,421.33,733,757,0
20438,456.89,725,756,0
20441,498.53,725,757,0
20450,542.77,725,757,0
20460,587.03,725,757,0
20470,628.93,725,757,0
20481,666.41,725,757,0
20491,697.36,725,757,0
20501,720.69,725,757,0
20511,736.99,725,757,0
20521,748.39,725,757,0
20531,756.37,725,757,0
20541,761.96,725,757,0
20551,765.87,725,757,0
20561,768.61,725,757,0
20571,769.80,725,757,0
20581,767.12,725,758,0
20591,758.42,725,757,0
20601,742.48,725,758,0
20611,718.60,725,757,0
20621,686.62,725,758,0
20631,646.27,725,757,0
20641,598.92,725,757,0
20652,547.73,725,757,0
20662,496.13,725,757,0
20672,446.42,725,757,0
20682,400.69,725,757,0
20692,360.20,725,757,0
20702,326.50,725,757,0
20712,299.82,725,757,0
20722,280.63,725,757,0
20732,268.31,725,757,0
20742,262.56,725,757,0
20752,262.35,725,757,0
20762,266.96,725,757,0
20772,275.07,725,757,0
20782,286.02,725,757,0
20792,298.44,725,757,0
20802,311.81,725,757,0
20812,325.07,725,757,0
20823,337.82,725,757,0
20833,349.36,725,757,0
20843,359.41,725,758,0
20853,367.60,725,757,0
20864,373.89,725,757,0
20873,378.25,725,757,0
20883,380.92,725,758,0
20893,381.67,725,757,0
20903,380.91,725,758,0
20913,378.93,725,758,0
20923,375.90,725,757,0
20933,372.12,725,757,0
20943,367.84,725,758,0
20953,363.22,725,758,0
20963,358.69,725,758,0
20973,354.29,725,758,0
20983,350.26,725,758,0
20993,346.49,725,758,0
21003,343.39,725,758,0
21013,340.74,725,758,0
21023,338.68,725,758,0
21033,337.10,725,758,0
21043,336.00,725,758,0
21053,335.23,725,758,0
21063,334.86,725,758,0
21073,334.60,725,758,0
21083,334.55,725,758,0
21093,334.51,725,758,0
21103,334.66,725,758,0
21113,335.15,725,758,0
21123,336.43,725,758,0
21133,339.00,725,758,0
21143,343.84,725,757,0
21153,351.86,725,758,0
21164,364.59,725,758,0
21174,383.14,725,760,0
21184,408.77,725,760,0
21194,441.97,725,761,0
21214,482.43,776,760,0
21217,526.62,776,761,0
21226,571.73,776,760,0
21236,615.10,776,761,0
21246,654.54,776,760,0
21256,688.02,776,760,0
21266,714.11,776,760,0
21276,732.38,776,761,0
21286,745.17,776,761,0
21296,754.12,776,760,0
21306,760.38,776,760,0
21316,764.77,776,761,0
21326,767.84,776,761,0
21336,769.99,776,760,0
21346,771.06,776,761,0
21356,768.34,776,755,0
21366,759.84,776,756,0
21377,744.12,776,756,0
21387,720.17,776,755,0
21397,687.76,776,755,0
21407,646.86,776,755,0
21417,598.65,776,755,0
21427,546.68,776,755,0
21437,494.28,776,755,0
21447,443.84,776,755,0
21457,397.73,776,755,0
21467,357.18,776,755,0
21477,323.66,776,755,0
21487,297.27,776,755,0
21497,278.38,776,755,0
21507,266.26,776,755,0
21517,260.74,776,755,0
21527,260.78,776,755,0
21537,265.69,776,755,0
21548,274.05,776,755,0
21558,285.01,776,755,0
21568,297.39,776,755,0
21578,310.65,776,755,0
21588,323.57,776,755,0
21598,335.82,776,755,0
21608,346.68,776,755,0
21618,356.12,776,755,0
21628,363.62,776,755,0
21638,369.52,776,756,0
21648,373.48,776,756,0
21658,376.04,776,755,0
21668,376.93,776,755,0
21678,376.69,776,756,0
21688,375.15,776,755,0
21698,372.97,776,756,0
21708,369.68,776,755,0
21719,365.92,776,756,0
21729,361.53,776,755,0
21739,357.17,776,756,0
21749,352.66,776,755,0
21760,348.39,776,755,0
21769,344.12,776,755,0
21779,340.48,776,755,0
21789,337.08,776,755,0
21799,334.31,776,756,0
21809,331.82,776,755,0
21819,329.99,776,755,0
21829,328.49,776,755,0
21839,327.74,776,755,0
21849,327.31,776,755,0
21859,327.60,776,755,0
21869,328.23,776,755,0
21879,329.41,776,755,0
21889,330.61,776,755,0
21899,332.27,776,755,0
21909,334.03,776,755,0
21919,336.34,776,755,0
21929,339.06,776,756,0
21939,342.99,776,755,0
21949,348.65,776,755,0
21959,357.41,776,755,0
21969,370.06,776,755,0
21979,387.91,776,755,0
21989,411.81,776,755,0
21999,443.07,776,755,0
22019,481.45,805,755,0
22022,524.04,805,756,0
22031,567.83,805,756,0
22041,610.44,805,756,0
22051,649.69,805,756,0
22061,683.77,805,756,0
22071,710.80,805,755,0
22081,730.06,805,756,0
22091,743.54,805,755,0
22102,752.98,805,756,0
22111,759.58,805,755,0
22121,764.21,805,756,0
22131,767.45,805,756,0
22141,769.71,805,756,0
22151,770.10,805,755,0
22161,766.30,805,755,0
22171,756.27,805,755,0
22181,738.87,805,756,0
22191,713.50,805,755,0
22201,680.00,805,755,0
22211,638.26,805,755,0
22221,590.10,805,755,0
22231,538.77,805,755,0
22241,487.58,805,755,0
22251,438.85,805,755,0
22261,394.49,805,756,0
22272,355.56,805,755,0
22281,323.42,805,755,0
22291,298.14,805,755,0
22301,280.01,805,756,0
22311,268.39,805,755,0
22321,262.83,805,755,0
22331,262.45,805,755,0
22341,266.65,805,755,0
22351,274.17,805,755,0
22361,284.40,805,755,0
22371,296.07,805,755,0
22381,308.73,805,756,0
22391,321.33,805,755,0
22401,333.36,805,755,0
22411,344.26,805,755,0
22421,353.87,805,755,0
22431,361.67,805,755,0
22441,367.77,805,755,0
22451,371.87,805,755,0
22461,374.43,805,755,0
22471,375.33,805,755,0
22481,375.06,805,755,0
22491,373.67,805,755,0
22501,371.50,805,756,0
22511,368.52,805,755,0
22521,365.11,805,755,0
22531,361.18,805,755,0
22541,357.18,805,756,0
22551,352.80,805,755,0
22561,348.44,805,755,0
22572,344.24,805,755,0
22582,340.61,805,755,0
22592,337.34,805,755,0
22602,334.75,805,755,0
22612,332.64,805,755,0
22622,331.33,805,756,0
22632,330.59,805,755,0
22642,330.50,805,755,0
22652,330.74,805,755,0
22662,331.50,805,756,0
22672,332.42,805,755,0
22682,333.75,805,756,0
22692,335.07,805,755,0
22702,336.51,805,756,0
22712,337.77,805,755,0
22722,339.00,805,755,0
22732,340.11,805,755,0
22743,341.66,805,756,0
22753,343.78,805,755,0
22763,347.49,805,756,0
22773,353.51,805,755,0
22784,363.22,805,756,0
22793,377.55,805,755,0
22803,398.04,805,756,0
22813,425.42,805,755,0
22823,460.35,805,756,0
22842,501.17,824,755,0
22845,544.75,824,756,0
22854,588.32,824,755,0
22864,629.76,824,756,0
22874,666.73,824,756,0
22884,697.54,824,756,0
22894,720.78,824,755,0
22904,737.04,824,756,0
22914,748.43,824,756,0
22924,756.40,824,756,0
22934,761.98,824,755,0
22944,765.89,824,756,0
22955,768.58,824,756,0
22964,767.80,824,756,0
22974,761.69,824,755,0
22984,748.97,824,756,0
22994,728.58,824,755,0
23004,700.33,824,756,0
23014,664.11,824,755,0
23024,620.10,824,756,0
23034,571.47,824,755,0
23044,521.40,824,756,0
23054,472.12,824,755,0
23064,425.84,824,755,0
23074,383.98,824,755,0
23084,347.68,824,756,0
23094,317.86,824,755,0
23104,294.93,824,756,0
23114,278.67,824,755,0
23124,268.82,824,756,0
23134,264.93,824,755,0
23144,266.11,824,756,0
23154,271.61,824,755,0
23164,280.47,824,755,0
23174,291.73,824,755,0
23184,304.49,824,756,0
23194,317.97,824,756,0
23204,331.40,824,756,0
23214,344.13,824,756,0
23224,355.67,824,756,0
23234,365.62,824,756,0
23244,373.71,824,756,0
23255,379.71,824,756,0
23265,383.61,824,756,0
23275,385.61,824,756,0
23285,385.86,824,756,0
23296,384.70,824,756,0
23305,382.35,824,756,0
23315,379.11,824,756,0
23325,375.18,824,756,0
23335,370.97,824,755,0
23345,366.61,824,755,0
23355,362.35,824,756,0
23365,358.18,824,756,0
23375,354.22,824,755,0
23385,350.56,824,756,0
23395,347.35,824,756,0
23405,344.46,824,755,0
23415,341.96,824,756,0
23425,339.75,824,756,0
23435,337.94,824,756,0
23445,336.41,824,756,0
23455,335.35,824,755,0
23465,334.64,824,755,0
23475,334.36,824,755,0
23485,334.38,824,755,0
23495,335.17,824,756,0
23505,336.70,824,755,0
23515,339.58,824,755,0
23525,344.25,824,755,0
23535,351.80,824,756,0
23545,363.18,824,755,0
23555,379.45,824,756,0
23565,401.52,824,756,0
23575,430.42,824,756,0
23595,466.08,752,755,0
23597,507.24,752,757,0
23607,550.63,752,756,0
23617,593.68,752,756,0
23627,634.19,752,755,0
23638,670.13,752,756,0
23647,699.79,752,756,0
23657,722.36,752,756,0
23667,738.15,752,755,0
23677,749.20,752,756,0
23687,756.94,752,756,0
23697,761.20,752,756,0
23707,760.37,752,755,0
23717,753.53,752,756,0
23727,739.79,752,756,0
23737,718.64,752,756,0
23747,689.56,752,755,0
23757,652.88,752,756,0
23767,610.01,752,756,0
23777,563.94,752,756,0
23787,516.64,752,755,0
23797,470.38,752,756,0
23808,426.64,752,756,0
23817,387.36,752,756,0
23827,353.18,752,755,0
23837,324.84,752,756,0
23847,302.56,752,756,0
23857,286.58,752,756,0
23867,276.50,752,756,0
23877,272.20,752,756,0
23887,272.57,752,756,0
23897,277.11,752,756,0
23907,284.71,752,756,0
23917,294.87,752,756,0
23927,306.31,752,756,0
23937,318.43,752,756,0
23947,330.30,752,756,0
23957,341.74,752,756,0
23967,351.89,752,756,0
23977,360.96,752,756,0
23987,368.18,752,756,0
23997,373.99,752,756,0
24007,378.15,752,756,0
24017,380.94,752,756,0
24027,382.03,752,756,0
24037,381.85,752,755,0
24047,380.22,752,755,0
24057,377.80,752,756,0
24067,374.43,752,756,0
24077,370.62,752,756,0
24087,366.19,752,756,0
24097,361.93,752,756,0
24108,357.84,752,756,0
24118,354.37,752,756,0
24128,351.17,752,756,0
24138,348.64,752,756,0
24148,346.26,752,756,0
24158,344.47,752,756,0
24168,342.61,752,756,0
24178,341.10,752,756,0
24188,339.44,752,756,0
24198,338.11,752,756,0
24208,336.71,752,756,0
24218,335.76,752,756,0
24228,335.02,752,755,0
24238,334.93,752,755,0
24248,335.29,752,756,0
24258,336.96,752,756,0
24268,340.23,752,755,0
24279,346.46,752,756,0
24289,356.35,752,756,0
24299,371.59,752,756,0
24309,393.10,752,756,0
24320,422.17,752,756,0
24338,458.50,744,755,0
24341,500.74,744,756,0
24350,545.35,744,756,0
24360,589.86,744,756,0
24370,631.56,744,756,0
24380,668.50,744,756,0
24390,698.74,744,756,0
24400,721.57,744,756,0
24410,737.52,744,756,0
24420,748.72,744,756,0
24430,756.56,744,756,0
24440,762.05,744,756,0
24450,765.89,744,756,0
24460,768.62,744,756,0
24470,770.54,744,756,0
24480,769.13,744,756,0
24491,762.19,744,756,0
24500,748.59,744,756,0
24510,727.03,744,756,0
24520,697.11,744,755,0
24530,658.76,744,756,0
24540,612.72,744,756,0
24550,562.15,744,756,0
24560,510.50,744,755,0
24570,459.82,744,756,0
24580,412.82,744,756,0
24590,370.96,744,756,0
24600,335.66,744,755,0
24610,306.96,744,756,0
24620,285.54,744,755,0
24630,270.89,744,756,0
24640,263.08,744,756,0
24650,261.00,744,756,0
24660,264.13,744,756,0
24670,271.03,744,756,0
24680,281.18,744,756,0
24690,293.13,744,756,0
24700,306.29,744,756,0
24710,319.49,744,756,0
24720,332.37,744,756,0
24730,344.04,744,756,0
24740,354.40,744,756,0
24750,362.77,744,756,0
24760,369.44,744,756,0
24770,374.02,744,756,0
24780,376.93,744,756,0
24791,377.94,744,756,0
24801,377.48,744,756,0
24811,375.62,744,756,0
24821,372.82,744,756,0
24832,369.02,744,756,0
24841,364.86,744,756,0
24851,360.23,744,756,0
24861,355.66,744,756,0
24871,351.05,744,755,0
24881,346.92,744,756,0
24891,343.26,744,756,0
24901,340.27,744,756,0
24911,337.74,744,756,0
24921,335.81,744,756,0
24931,334.24,744,756,0
24941,333.26,744,756,0
24951,332.46,744,756,0
24961,331.98,744,756,0
24971,331.68,744,755,0
24981,331.65,744,756,0
24991,331.76,744,756,0
25001,332.21,744,756,0
25011,332.84,744,756,0
25021,334.00,744,756,0
25031,335.80,744,756,0
25041,338.99,744,756,0
25051,343.92,744,756,0
25061,351.70,744,756,0
25071,363.19,744,756,0
25081,379.93,744,756,0
25091,402.67,744,756,0
25101,432.51,744,756,0
25120,469.56,782,755,0
25123,511.73,782,756,0
25132,555.83,782,756,0
25142,599.38,782,756,0
25152,639.85,782,756,0
25162,675.51,782,756,0
25172,704.50,782,756,0
25182,725.69,782,756,0
25192,740.49,782,756,0
25202,750.84,782,756,0
25212,758.09,782,756,0
25222,763.16,782,756,0
25232,766.71,782,756,0
25242,769.20,782,756,0
25252,770.94,782,756,0
25262,772.16,782,756,0
25272,769.71,782,756,0
25282,761.44,782,756,0
25292,745.71,782,756,0
25303,721.50,782,756,0
25313,688.52,782,756,0
25323,646.88,782,756,0
25333,597.16,782,755,0
25344,543.54,782,756,0
25353,489.38,782,756,0
25363,437.58,782,756,0
25373,390.52,782,755,0
25383,349.69,782,756,0
25393,316.18,782,756,0
25403,290.41,782,756,0
25413,272.29,782,756,0
25423,261.40,782,756,0
25433,257.00,782,756,0
25443,258.11,782,756,0
25453,263.78,782,756,0
25463,272.89,782,756,0
25473,284.36,782,756,0
25483,297.33,782,756,0
25493,310.86,782,756,0
25503,324.27,782,756,0
25513,336.92,782,756,0
25523,348.30,782,756,0
25533,357.98,782,756,0
25543,365.79,782,756,0
25553,371.51,782,756,0
25563,375.21,782,756,0
25573,376.91,782,756,0
25583,376.72,782,756,0
25593,374.96,782,756,0
25603,371.97,782,756,0
25613,368.04,782,756,0
25623,363.40,782,756,0
25633,358.35,782,756,0
25644,353.23,782,756,0
25654,348.36,782,756,0
25664,343.75,782,756,0
25674,339.63,782,756,0
25684,336.01,782,756,0
25694,333.18,782,756,0
25704,331.07,782,756,0
25714,329.72,782,756,0
25724,328.95,782,756,0
25734,328.79,782,756,0
25744,328.98,782,756,0
25754,329.59,782,756,0
25764,330.31,782,756,0
25774,331.50,782,756,0
25784,332.68,782,756,0
25794,334.06,782,756,0
25804,335.20,782,756,0
25815,336.38,782,756,0
25825,337.21,782,756,0
25835,338.22,782,756,0
25845,339.18,782,756,0
25856,341.10,782,756,0
25865,344.20,782,756,0
25875,349.88,782,756,0
25885,358.96,782,756,0
25895,373.16,782,756,0
25905,393.08,782,756,0
25915,420.01,782,756,0
25925,454.04,782,756,0
25945,494.57,824,755,0
25947,538.20,824,756,0
25957,582.24,824,756,0
25967,624.08,824,756,0
25977,661.86,824,756,0
25987,693.53,824,756,0
25997,717.97,824,756,0
26007,735.08,824,756,0
26017,747.06,824,756,0
26028,755.44,824,756,0
26038,761.31,824,756,0
26048,765.41,824,756,0
26058,768.29,824,756,0
26068,770.30,824,756,0
26078,769.14,824,756,0
26088,762.37,824,756,0
26098,748.63,824,756,0
26108,726.67,824,756,0
26118,696.43,824,756,0
26128,657.60,824,756,0
26138,610.75,824,756,0
26148,559.01,824,756,0
26158,506.29,824,756,0
26168,454.86,824,756,0
26178,407.37,824,756,0
26188,365.01,824,755,0
26199,329.39,824,756,0
26209,300.90,824,756,0
26219,280.06,824,756,0
26229,266.20,824,755,0
26240,259.28,824,756,0
26249,258.21,824,756,0
26259,262.43,824,756,0
26269,270.66,824,756,0
26279,281.99,824,756,0
26289,295.02,824,756,0
26299,309.12,824,756,0
26309,323.10,824,756,0
26319,336.61,824,756,0
26329,348.77,824,756,0
26339,359.42,824,756,0
26349,368.08,824,755,0
26359,374.96,824,756,0
26369,379.68,824,756,0
26379,382.69,824,756,0
26389,383.73,824,756,0
26399,383.25,824,756,0
26409,381.21,824,756,0
26419,378.19,824,756,0
26429,374.14,824,756,0
26439,369.69,824,756,0
26449,364.77,824,756,0
26459,359.99,824,756,0
26469,355.20,824,756,0
26479,350.85,824,756,0
26489,346.78,824,756,0
26499,343.42,824,756,0
26509,340.42,824,756,0
26519,337.98,824,756,0
26529,335.84,824,756,0
26540,334.26,824,756,0
26550,332.90,824,756,0
26560,332.03,824,756,0
26570,331.25,824,756,0
26580,330.87,824,756,0
26590,330.65,824,756,0
26600,330.80,824,756,0
26610,331.29,824,756,0
26620,332.45,824,756,0
26630,334.37,824,756,0
26640,337.82,824,756,0
26650,343.27,824,756,0
26660,351.80,824,756,0
26670,364.03,824,756,0
26680,381.25,824,756,0
26690,404.23,824,756,0
26700,433.69,824,756,0
26711,469.44,824,756,0
26730,510.32,786,755,0
26733,553.26,786,756,0
26742,595.91,786,756,0
26753,635.75,786,756,0
26763,671.05,786,756,0
26773,700.27,786,756,0
26783,722.60,786,756,0
26793,738.23,786,756,0
26803,749.18,786,756,0
26813,755.38,786,756,0
26823,755.95,786,756,0
26833,750.18,786,756,0
26843,737.66,786,756,0
26853,717.87,786,756,0
26863,690.65,786,756,0
26873,655.96,786,756,0
26883,615.60,786,756,0
26893,572.01,786,756,0
26903,527.05,786,756,0
26913,482.42,786,756,0
26924,439.74,786,756,0
26934,400.51,786,756,0
26944,365.99,786,756,0
26954,336.64,786,756,0
26964,312.83,786,756,0
26974,294.97,786,756,0
26984,282.81,786,756,0
26994,276.39,786,756,0
27004,274.86,786,756,0
27014,277.52,786,756,0
27024,283.58,786,756,0
27034,292.45,786,756,0
27044,303.11,786,756,0
27054,314.91,786,756,0
27064,326.59,786,756,0
27074,337.94,786,756,0
27084,348.20,786,756,0
27095,357.36,786,756,0
27105,364.84,786,756,0
27115,370.84,786,756,0
27125,375.35,786,756,0
27136,378.71,786,756,0
27145,380.86,786,756,0
27155,382.14,786,756,0
27165,382.19,786,756,0
27175,381.53,786,756,0
27185,379.96,786,756,0
27195,377.83,786,756,0
27205,375.09,786,756,0
27215,372.02,786,756,0
27225,368.54,786,756,0
27235,365.17,786,756,0
27245,361.60,786,756,0
27255,358.25,786,756,0
27265,354.79,786,756,0
27275,351.60,786,756,0
27285,348.42,786,756,0
27295,345.68,786,756,0
27305,342.99,786,756,0
27315,340.85,786,756,0
27325,339.22,786,756,0
27335,338.81,786,756,0
27345,339.81,786,756,0
27355,343.30,786,756,0
27365,349.85,786,756,0
27375,361.25,786,756,0
27385,378.36,786,756,0
27395,402.13,786,756,0
27405,432.90,786,756,0
27415,471.03,786,756,0
27435,513.88,704,756,0
27437,558.49,704,756,0
27447,601.97,704,756,0
27457,642.14,704,756,0
27467,677.15,704,756,0
27478,705.61,704,756,0
27487,726.34,704,756,0
27497,740.85,704,756,0
27507,751.01,704,756,0
27517,758.16,704,756,0
27527,763.13,704,756,0
27537,766.39,704,756,0
27547,765.67,704,756,0
27557,759.56,704,757,0
27567,746.66,704,756,0
27577,726.41,704,756,0
27587,698.04,704,756,0
27597,661.81,704,756,0
27607,618.16,704,756,0
27617,570.24,704,756,0
27627,520.58,704,756,0
27637,471.76,704,756,0
27648,425.38,704,756,0
27657,383.65,704,756,0
27667,347.28,704,756,0
27677,317.33,704,756,0
27687,294.09,704,756,0
27697,277.90,704,756,0
27707,268.16,704,756,0
27717,264.68,704,756,0
27727,266.41,704,756,0
27737,272.76,704,756,0
27747,282.22,704,756,0
27757,294.19,704,756,0
27767,307.12,704,756,0
27777,320.67,704,756,0
27787,333.67,704,756,0
27797,345.77,704,756,0
27807,356.21,704,756,0
27817,364.98,704,756,0
27827,371.67,704,756,0
27837,376.78,704,756,0
27847,379.89,704,756,0
27857,381.55,704,756,0
27867,381.43,704,756,0
27877,380.23,704,756,0
27887,377.93,704,756,0
27897,375.08,704,756,0
27907,371.50,704,756,0
27917,367.79,704,756,0
27927,363.74,704,756,0
27937,360.00,704,756,0
27948,356.27,704,756,0
27958,352.98,704,756,0
27968,349.68,704,756,0
27978,346.91,704,756,0
27988,344.28,704,756,0
27998,342.31,704,756,0
28008,340.54,704,756,0
28018,339.31,704,756,0
28028,338.57,704,756,0
28038,338.79,704,756,0
28048,339.88,704,756,0
28058,342.87,704,756,0
28068,348.14,704,756,0
28078,357.05,704,757,0
28088,370.62,704,756,0
28098,390.37,704,756,0
28108,417.38,704,756,0
28119,452.41,704,757,0
28138,493.65,704,756,0
28140,538.02,704,756,0
28150,582.72,704,756,0
28161,625.36,704,757,0
28171,663.52,704,756,0
28181,695.25,704,756,0
28191,719.18,704,756,0
28201,735.92,704,756,0
28211,747.65,704,756,0
28221,755.85,704,756,0
28231,761.60,704,756,0
28241,765.62,704,756,0
28251,768.43,704,756,0
28261,770.40,704,756,0
28271,770.50,704,756,0
28281,766.23,704,757,0
28291,755.92,704,756,0
28301,738.07,704,756,0
28311,711.78,704,756,0
28321,676.62,704,756,0
28332,632.80,704,756,0
28342,582.16,704,756,0
28352,528.33,704,756,0
28362,474.23,704,756,0
28372,422.82,704,756,0
28382,376.24,704,756,0
28392,336.31,704,756,0
28402,303.91,704,756,0
28412,279.59,704,756,0
28422,263.13,704,756,0
28432,254.09,704,756,0
28442,251.58,704,756,0
28452,254.79,704,756,0
28462,262.44,704,756,0
28472,273.41,704,756,0
28482,286.44,704,756,0
28492,300.67,704,756,0
28503,315.08,704,756,0
28513,328.99,704,756,0
28523,341.63,704,756,0
28533,352.67,704,756,0
28544,361.86,704,756,0
28553,369.06,704,756,0
28563,374.18,704,757,0
28573,377.47,704,756,0
28583,378.83,704,756,0
28593,378.71,704,756,0
28603,377.17,704,757,0
28613,374.55,704,756,0
28623,371.04,704,756,0
28633,367.04,704,756,0
28643,362.61,704,756,0
28653,358.27,704,756,0
28663,353.86,704,756,0
28673,349.83,704,756,0
28683,346.07,704,756,0
28693,342.83,704,757,0
28703,339.76,704,756,0
28713,337.09,704,756,0
28723,334.62,704,756,0
28733,332.63,704,756,0
28743,330.90,704,756,0
28753,329.73,704,756,0
28763,328.95,704,756,0
28773,329.18,704,756,0
28783,330.41,704,756,0
28793,333.46,704,756,0
28803,338.55,704,756,0
28813,346.66,704,756,0
28823,358.76,704,757,0
28833,376.36,704,756,0
28844,400.38,704,757,0
28854,431.85,704,757,0
28873,470.51,735,756,0
28875,513.81,735,757,0
28886,558.83,735,757,0
28895,602.94,735,757,0
28905,643.67,735,757,0
28915,679.04,735,756,0
28925,707.31,735,756,0
28935,727.62,735,757,0
28945,741.83,735,757,0
28955,751.78,735,756,0
28965,758.75,735,756,0
28975,763.62,735,757,0
28985,767.04,735,757,0
28995,769.43,735,756,0
29005,771.10,735,757,0
29015,770.25,735,757,0
29025,764.22,735,756,0
29035,751.43,735,757,0
29045,730.43,735,756,0
29056,700.73,735,757,0
29065,662.37,735,756,0
29075,615.80,735,756,0
29085,563.45,735,756,0
29095,509.35,735,756,0
29105,456.11,735,756,0
29115,406.57,735,756,0
29125,362.30,735,756,0
29135,324.71,735,756,0
29145,294.20,735,756,0
29155,271.60,735,756,0
29165,256.37,735,756,0
29175,248.46,735,756,0
29185,246.65,735,756,0
29195,250.40,735,756,0
29205,258.25,735,756,0
29215,269.45,735,756,0
29225,282.56,735,756,0
29235,296.79,735,757,0
29245,310.82,735,756,0
29255,324.38,735,757,0
29265,336.44,735,756,0
29275,346.98,735,756,0
29285,355.38,735,756,0
29295,361.83,735,757,0
29305,366.03,735,756,0
29315,368.51,735,756,0
29325,369.17,735,756,0
29335,368.56,735,757,0
29345,366.47,735,756,0
29356,363.63,735,757,0
29366,359.88,735,756,0
29376,355.76,735,757,0
29386,351.25,735,756,0
29396,346.76,735,757,0
29406,342.29,735,756,0
29416,338.34,735,757,0
29426,334.60,735,756,0
29436,331.50,735,756,0
29446,328.82,735,756,0
29456,326.95,735,757,0
29466,325.38,735,756,0
29476,324.49,735,757,0
29486,323.75,735,756,0
29496,323.52,735,757,0
29506,323.32,735,756,0
29516,323.48,735,756,0
29527,323.51,735,756,0
29537,323.91,735,757,0
29547,324.20,735,756,0
29557,325.08,735,757,0
29568,326.26,735,756,0
29577,328.49,735,756,0
29587,331.90,735,756,0
29597,337.50,735,756,0
29607,345.92,735,756,0
29617,358.38,735,757,0
29627,375.71,735,757,0
29637,399.54,735,757,0
29647,430.28,735,756,0
29666,468.25,793,756,0
29669,510.99,793,757,0
29678,555.52,793,757,0
29688,599.34,793,756,0
29698,640.16,793,757,0
29708,675.73,793,757,0
29718,704.61,793,757,0
29728,725.77,793,756,0
29739,740.54,793,757,0
29748,750.88,793,757,0
29758,758.11,793,757,0
29768,763.18,793,756,0
29778,766.73,793,757,0
29788,769.21,793,757,0
29798,770.95,793,757,0
29808,769.85,793,756,0
29818,763.64,793,757,0
29828,750.76,793,756,0
29838,730.13,793,757,0
29848,700.91,793,756,0
29858,663.22,793,757,0
29868,617.47,793,756,0
29878,566.67,793,757,0
29888,513.93,793,756,0
29898,462.09,793,756,0
29908,413.42,793,756,0
29918,370.18,793,756,0
29928,333.23,793,756,0
29938,303.42,793,756,0
29948,280.88,793,756,0
29958,265.79,793,756,0
29968,257.41,793,756,0
29978,255.27,793,757,0
29988,258.19,793,756,0
29998,265.38,793,757,0
30008,275.46,793,756,0
30018,287.71,793,756,0
30028,300.95,793,757,0
30039,314.60,793,757,0
30049,327.66,793,756,0
30059,339.72,793,757,0
30069,350.17,793,756,0
30080,358.95,793,757,0
30089,365.61,793,757,0
30099,370.31,793,756,0
30109,373.00,793,756,0
30119,373.90,793,757,0
30129,373.07,793,756,0
30139,371.04,793,756,0
30149,367.86,793,756,0
30159,363.91,793,757,0
30169,359.40,793,756,0
30179,354.65,793,756,0
30189,349.78,793,756,0
30199,345.13,793,757,0
30209,340.68,793,756,0
30219,336.75,793,756,0
30229,333.39,793,757,0
30239,330.70,793,757,0
30249,328.56,793,756,0
30259,327.11,793,756,0
30269,326.13,793,756,0
30279,325.75,793,757,0
30289,325.83,793,756,0
30299,326.35,793,756,0
30309,327.23,793,756,0
30319,328.45,793,757,0
30329,329.77,793,756,0
30339,331.34,793,756,0
30349,332.87,793,756,0
30359,334.41,793,757,0
30369,335.83,793,756,0
30380,337.16,793,756,0
30390,338.44,793,757,0
30400,339.98,793,757,0
30410,342.09,793,757,0
30420,345.32,793,756,0
30430,350.32,793,756,0
30440,358.15,793,757,0
30450,369.98,793,757,0
30460,387.13,793,756,0
30470,410.45,793,757,0
30480,440.78,793,757,0
30499,478.39,833,756,0
30501,520.53,833,756,0
30511,564.26,833,757,0
30521,606.99,833,757,0
30531,646.42,833,757,0
30541,680.84,833,756,0
30551,708.53,833,757,0
30561,728.47,833,757,0
30571,742.43,833,757,0
30581,752.20,833,757,0
30592,759.04,833,757,0
30601,763.83,833,757,0
30611,767.18,833,756,0
30621,769.53,833,757,0
30631,771.17,833,757,0
30641,772.32,833,757,0
30651,770.77,833,757,0
30661,763.85,833,756,0
30671,749.79,833,757,0
30681,727.74,833,756,0
30691,697.09,833,757,0
30701,657.76,833,756,0
30711,610.35,833,757,0
30721,558.04,833,757,0
30731,504.63,833,757,0
30741,453.01,833,756,0
30751,405.35,833,756,0
30761,363.46,833,756,0
30771,328.69,833,756,0
30781,301.40,833,757,0
30791,281.78,833,757,0
30801,269.37,833,757,0
30811,263.65,833,757,0
30821,263.67,833,757,0
30831,268.52,833,757,0
30841,276.94,833,757,0
30851,287.93,833,757,0
30861,300.29,833,757,0
30871,313.36,833,757,0
30881,326.24,833,757,0
30892,338.42,833,757,0
30902,349.18,833,757,0
30912,358.43,833,757,0
30922,365.71,833,757,0
30932,371.20,833,757,0
30942,374.65,833,757,0
30952,376.34,833,756,0
30962,376.20,833,757,0
30972,374.77,833,757,0
30982,371.97,833,757,0
30992,368.38,833,756,0
31002,363.89,833,757,0
31012,359.04,833,757,0
31022,354.01,833,757,0
31032,349.21,833,756,0
31042,344.47,833,757,0
31052,340.30,833,757,0
31063,336.53,833,757,0
31073,333.54,833,757,0
31083,331.11,833,757,0
31093,329.40,833,757,0
31104,328.17,833,757,0
31113,327.73,833,756,0
31123,327.68,833,757,0
31133,328.34,833,757,0
31143,329.22,833,757,0
31153,330.57,833,756,0
31163,331.94,833,757,0
31173,333.59,833,757,0
31183,335.04,833,757,0
31193,336.57,833,756,0
31203,337.81,833,757,0
31213,339.11,833,757,0
31223,340.11,833,757,0
31233,341.19,833,756,0
31243,342.42,833,757,0
31253,344.65,833,757,0
31263,348.18,833,757,0
31273,354.17,833,756,0
31283,363.16,833,757,0
31293,376.79,833,757,0
31303,396.05,833,757,0
31313,422.22,833,757,0
31323,455.15,833,757,0
31342,494.67,843,756,0
31345,537.37,843,757,0
31354,580.80,843,757,0
31364,622.39,843,757,0
31374,660.07,843,757,0
31384,691.81,843,757,0
31394,716.68,843,757,0
31404,734.13,843,757,0
31414,746.35,843,757,0
31424,754.94,843,757,0
31434,760.96,843,757,0
31444,765.17,843,757,0
31454,768.12,843,757,0
31464,770.18,843,757,0
31474,771.63,843,757,0
31484,769.68,843,756,0
31494,762.58,843,757,0
31504,748.26,843,757,0
31514,725.81,843,757,0
31524,694.67,843,757,0
31534,655.34,843,757,0
31544,607.92,843,757,0
31554,556.35,843,757,0
31564,503.23,843,756,0
31575,452.12,843,757,0
31585,404.98,843,756,0
31595,363.84,843,757,0
31605,329.18,843,756,0
31616,302.08,843,757,0
31625,282.30,843,757,0
31635,270.08,843,757,0
31645,264.36,843,756,0
31655,264.59,843,757,0
31665,269.47,843,757,0
31675,278.37,843,757,0
31685,289.79,843,757,0
31695,302.97,843,757,0
31705,316.56,843,757,0
31715,330.11,843,757,0
31725,342.68,843,756,0
31735,354.13,843,757,0
31745,363.56,843,757,0
31755,371.15,843,757,0
31765,376.51,843,756,0
31775,380.00,843,757,0
31785,381.50,843,757,0
31795,381.56,843,757,0
31805,379.94,843,756,0
31815,377.34,843,757,0
31825,373.72,843,757,0
31835,369.74,843,757,0
31845,365.19,843,756,0
31855,360.63,843,757,0
31865,355.90,843,757,0
31875,351.56,843,757,0
31885,347.28,843,756,0
31895,343.59,843,757,0
31905,340.16,843,757,0
31916,337.50,843,757,0
31926,335.25,843,756,0
31936,333.72,843,757,0
31946,332.52,843,757,0
31956,332.06,843,757,0
31966,331.83,843,756,0
31976,332.22,843,757,0
31986,332.63,843,757,0
31996,333.34,843,757,0
32006,333.97,843,756,0
32016,334.83,843,757,0
32026,335.53,843,757,0
32036,336.53,843,757,0
32046,337.40,843,756,0
32056,338.99,843,757,0
32066,341.31,843,757,0
32076,345.24,843,757,0
32087,351.30,843,756,0
32097,360.77,843,757,0
32107,374.38,843,757,0
32117,393.59,843,757,0
32128,418.83,843,757,0
32137,450.55,843,757,0
32156,488.36,814,756,0
32159,530.12,814,757,0
32168,572.81,814,756,0
32178,614.14,814,757,0
32188,651.90,814,757,0
32198,684.46,814,757,0
32208,710.63,814,757,0
32218,729.86,814,757,0
32228,743.32,814,757,0
32238,752.78,814,757,0
32248,759.40,814,757,0
32258,763.61,814,757,0
32268,763.73,814,757,0
32278,758.32,814,757,0
32288,746.23,814,757,0
32299,726.74,814,757,0
32308,699.69,814,757,0
32318,664.90,814,757,0
32328,622.97,814,756,0
32338,576.78,814,757,0
32348,529.06,814,757,0
32358,482.20,814,757,0
32368,438.04,814,757,0
32378,397.91,814,757,0
32388,363.05,814,757,0
32398,334.37,814,757,0
32408,312.18,814,757,0
32418,296.44,814,757,0
32428,286.67,814,757,0
32438,282.48,814,757,0
32448,283.11,814,757,0
32458,287.83,814,757,0
32468,295.68,814,757,0
32478,305.76,814,757,0
32488,317.06,814,757,0
32498,329.00,814,757,0
32508,340.74,814,757,0
32518,351.84,814,757,0
32528,361.74,814,757,0
32538,370.26,814,757,0
32548,377.17,814,757,0
32558,382.56,814,757,0
32568,386.29,814,757,0
32578,388.52,814,757,0
32588,389.35,814,757,0
32599,389.03,814,757,0
32609,387.65,814,757,0
32619,385.35,814,757,0
32629,382.33,814,757,0
32640,378.81,814,757,0
32649,375.05,814,757,0
32659,371.22,814,757,0
32669,367.47,814,757,0
32679,363.86,814,757,0
32689,360.51,814,757,0
32699,357.49,814,757,0
32709,354.86,814,757,0
32719,352.50,814,757,0
32729,350.38,814,757,0
32739,348.46,814,756,0
32749,346.78,814,757,0
32759,345.26,814,757,0
32769,343.94,814,757,0
32779,342.84,814,757,0
32789,342.08,814,757,0
32799,341.84,814,757,0
32809,342.44,814,757,0
32819,344.28,814,757,0
32829,348.06,814,757,0
32839,354.60,814,757,0
32849,365.00,814,757,0
32859,380.04,814,757,0
32869,400.90,814,757,0
32879,428.32,814,757,0
32899,462.68,742,756,0
32902,503.02,742,757,0
32911,546.04,742,757,0
32921,588.97,742,757,0
32931,629.78,742,757,0
32941,666.27,742,757,0
32951,696.84,742,757,0
32961,720.28,742,757,0
32971,736.66,742,757,0
32982,748.12,742,757,0
32991,756.14,742,757,0
33001,761.75,742,757,0
33011,765.73,742,757,0
33021,768.47,742,757,0
33031,768.24,742,757,0
33041,762.90,742,757,0
33051,751.06,742,757,0
33061,731.45,742,757,0
33071,703.93,742,757,0
33081,668.17,742,757,0
33091,624.53,742,757,0
33101,575.64,742,757,0
33111,524.92,742,757,0
33121,474.76,742,757,0
33131,427.77,742,757,0
33141,385.11,742,757,0
33152,348.35,742,757,0
33161,318.20,742,757,0
33171,295.26,742,757,0
33181,279.11,742,757,0
33191,269.65,742,757,0
33201,265.94,742,757,0
33211,267.50,742,757,0
33221,273.22,742,757,0
33231,282.37,742,757,0
33241,293.49,742,757,0
33251,305.86,742,757,0
33261,318.46,742,757,0
33271,330.79,742,757,0
33281,342.12,742,757,0
33291,352.29,742,757,0
33301,360.64,742,757,0
33311,367.39,742,757,0
33321,372.42,742,757,0
33331,375.98,742,757,0
33341,378.00,742,757,0
33351,378.77,742,757,0
33361,378.15,742,757,0
33371,376.61,742,757,0
33381,374.20,742,757,0
33391,371.22,742,757,0
33401,367.64,742,757,0
33411,363.94,742,757,0
33421,360.01,742,757,0
33431,356.32,742,757,0
33441,352.67,742,757,0
33452,349.38,742,757,0
33462,346.31,742,757,0
33472,343.73,742,757,0
33482,341.33,742,757,0
33492,339.51,742,757,0
33502,338.07,742,757,0
33512,337.19,742,757,0
33522,336.66,742,757,0
33532,336.64,742,757,0
33542,336.70,742,757,0
33552,337.18,742,757,0
33562,337.64,742,757,0
33572,338.39,742,757,0
33582,339.30,742,757,0
33592,340.80,742,757,0
33602,343.13,742,757,0
33612,347.50,742,757,0
33623,354.55,742,757,0
33633,365.57,742,757,0
33643,381.47,742,757,0
33653,404.00,742,757,0
33664,433.79,742,757,0
33682,471.35,784,756,0
33685,513.67,784,757,0
33694,557.91,784,757,0
33704,601.48,784,757,0
33714,642.18,784,757,0
33724,677.61,784,757,0
33734,706.23,784,757,0
33744,726.86,784,757,0
33754,741.30,784,757,0
33764,751.41,784,757,0
33774,758.49,784,757,0
33784,763.44,784,757,0
33794,766.91,784,757,0
33804,769.34,784,757,0
33814,771.04,784,757,0
33824,772.22,784,757,0
33835,772.03,784,757,0
33844,767.61,784,757,0
33854,756.88,784,757,0
33864,737.97,784,757,0
33874,710.25,784,757,0
33884,673.49,784,757,0
33894,628.22,784,757,0
33904,575.95,784,757,0
33914,520.81,784,757,0
33924,465.88,784,757,0
33934,414.49,784,757,0
33944,368.40,784,757,0
33954,329.41,784,757,0
33964,297.96,784,757,0
33974,274.74,784,757,0
33984,259.26,784,757,0
33994,251.38,784,757,0
34004,249.98,784,757,0
34014,254.27,784,757,0
34024,262.59,784,757,0
34034,274.20,784,757,0
34044,287.51,784,757,0
34054,302.02,784,757,0
34064,316.41,784,757,0
34074,330.30,784,757,0
34084,342.85,784,757,0
34094,354.04,784,757,0
34104,363.16,784,757,0
34114,370.44,784,757,0
34124,375.28,784,757,0
34135,378.24,784,757,0
34145,379.11,784,757,0
34155,378.43,784,757,0
34165,376.12,784,757,0
34176,372.83,784,757,0
34185,368.59,784,757,0
34195,364.09,784,757,0
34205,359.13,784,757,0
34215,354.33,784,757,0
34225,349.61,784,757,0
34235,345.44,784,757,0
34245,341.62,784,757,0
34255,338.43,784,757,0
34265,335.69,784,757,0
34275,333.77,784,758,0
34285,332.30,784,757,0
34295,331.52,784,757,0
34305,331.02,784,757,0
34315,330.93,784,757,0
34325,330.95,784,757,0
34335,331.22,784,757,0
34345,331.41,784,757,0
34355,331.76,784,757,0
34365,331.88,784,757,0
34375,332.17,784,757,0
34385,332.46,784,757,0
34395,333.27,784,757,0
34405,334.39,784,757,0
34415,336.33,784,757,0
34425,339.36,784,757,0
34435,344.44,784,757,0
34445,352.06,784,757,0
34455,363.62,784,757,0
34465,379.93,784,757,0
34476,402.71,784,757,0
34486,432.54,784,757,0
34496,470.09,784,758,0
34515,512.45,833,757,0
34519,556.84,833,758,0
34527,600.56,833,757,0
34537,641.41,833,758,0
34547,677.03,833,757,0
34557,705.91,833,757,0
34567,726.63,833,757,0
34577,741.14,833,758,0
34587,751.30,833,758,0
34597,758.41,833,757,0
34607,763.39,833,757,0
34617,766.87,833,757,0
34627,769.31,833,757,0
34637,771.02,833,757,0
34647,772.21,833,757,0
34657,770.09,833,757,0
34667,762.09,833,757,0
34677,746.55,833,757,0
34688,722.47,833,757,0
34697,689.80,833,757,0
34707,648.46,833,757,0
34717,599.12,833,757,0
34727,545.43,833,757,0
34737,491.21,833,757,0
34747,439.38,833,757,0
34757,392.17,833,758,0
34767,350.76,833,757,0
34777,316.42,833,757,0
34787,289.59,833,757,0
34797,270.39,833,757,0
34807,258.40,833,757,0
34817,252.92,833,757,0
34827,253.03,833,757,0
34837,257.99,833,757,0
34847,266.82,833,757,0
34857,278.28,833,757,0
34867,291.31,833,757,0
34877,304.97,833,757,0
34887,318.48,833,757,0
34897,331.32,833,757,0
34907,342.84,833,757,0
34917,352.70,833,757,0
34927,360.68,833,757,0
34937,366.86,833,757,0
34947,371.10,833,757,0
34957,373.69,833,758,0
34967,374.55,833,757,0
34977,373.96,833,757,0
34988,372.00,833,757,0
34998,369.13,833,757,0
35008,365.45,833,757,0
35018,361.24,833,757,0
35028,356.75,833,757,0
35038,352.29,833,757,0
35048,348.00,833,757,0
35058,343.93,833,757,0
35068,340.22,833,757,0
35078,336.85,833,757,0
35088,334.11,833,757,0
35098,331.72,833,757,0
35108,329.83,833,757,0
35118,328.34,833,757,0
35128,327.38,833,757,0
35138,326.75,833,757,0
35148,326.66,833,757,0
35159,326.89,833,757,0
35169,327.56,833,757,0
35179,328.47,833,757,0
35189,329.61,833,757,0
35200,330.80,833,757,0
35209,332.10,833,757,0
35219,333.31,833,757,0
35229,334.59,833,757,0
35239,335.87,833,757,0
35249,337.50,833,757,0
35259,339.70,833,757,0
35269,343.22,833,757,0
35279,348.68,833,757,0
35289,357.14,833,757,0
35299,369.57,833,757,0
35309,387.48,833,757,0
35319,411.94,833,757,0
35329,443.37,833,757,0
35348,481.96,833,756,0
35350,524.66,833,758,0
35360,568.65,833,757,0
35371,611.44,833,757,0
35380,650.61,833,757,0
35390,684.24,833,757,0
35400,711.17,833,757,0
35410,730.27,833,757,0
35420,743.65,833,757,0
35430,753.01,833,757,0
35440,759.57,833,757,0
35450,764.20,833,758,0
35460,767.44,833,757,0
35470,769.71,833,757,0
35480,770.99,833,758,0
35490,768.51,833,757,0
35500,760.30,833,757,0
35510,744.78,833,757,0
35520,720.85,833,757,0
35530,688.28,833,757,0
35540,647.01,833,757,0
35550,598.24,833,757,0
35560,545.54,833,757,0
35570,492.15,833,757,0
35580,440.76,833,757,0
35590,393.90,833,757,0
35600,352.75,833,757,0
35610,318.67,833,757,0
35620,291.72,833,757,0
35630,272.31,833,757,0
35640,259.91,833,757,0
35650,254.33,833,757,0
35660,254.36,833,757,0
35671,259.48,833,757,0
35681,268.29,833,757,0
35691,279.99,833,757,0
35701,293.32,833,757,0
35712,307.63,833,757,0
35721,321.67,833,757,0
35731,335.18,833,757,0
35741,347.38,833,757,0
35751,358.37,833,757,0
35761,367.47,833,757,0
35771,374.79,833,758,0
35781,379.82,833,757,0
35791,383.13,833,757,0
35801,384.72,833,758,0
35811,384.76,833,758,0
35821,383.03,833,757,0
35831,380.28,833,757,0
35841,376.43,833,757,0
35851,372.23,833,758,0
35861,367.40,833,757,0
35871,362.31,833,757,0
35881,357.03,833,757,0
35891,352.18,833,757,0
35901,347.50,833,757,0
35911,343.66,833,757,0
35921,340.33,833,758,0
35931,338.01,833,757,0
35941,336.16,833,757,0
35951,335.21,833,757,0
35961,334.68,833,757,0
35971,334.82,833,758,0
35981,335.09,833,757,0
35991,335.62,833,757,0
36001,336.08,833,757,0
36012,337.04,833,758,0
36022,338.27,833,757,0
36032,340.46,833,757,0
36042,343.71,833,757,0
36052,349.20,833,758,0
36062,357.45,833,757,0
36072,369.70,833,757,0
36082,386.76,833,757,0
36092,409.98,833,758,0
36102,439.21,833,757,0
36112,475.02,833,758,0
36131,515.60,783,757,0
36134,558.28,783,757,0
36143,600.37,783,758,0
36153,639.68,783,758,0
36163,674.15,783,758,0
36173,702.82,783,757,0
36183,724.47,783,757,0
36193,739.63,783,758,0
36203,750.24,783,757,0
36213,757.67,783,758,0
36224,761.80,783,757,0
36233,761.69,783,758,0
36243,755.87,783,757,0
36253,743.52,783,758,0
36263,723.69,783,757,0
36273,696.36,783,758,0
36283,661.24,783,757,0
36293,619.76,783,758,0
36303,573.89,783,757,0
36313,526.74,783,758,0
36323,479.93,783,757,0
36333,435.85,783,757,0
36343,395.44,783,757,0
36353,360.29,783,757,0
36363,330.93,783,757,0
36373,308.03,783,758,0
36383,291.09,783,757,0
36393,280.39,783,758,0
36403,275.00,783,757,0
36413,274.62,783,757,0
36423,278.07,783,757,0
36433,284.95,783,757,0
36443,294.01,783,757,0
36453,304.85,783,758,0
36463,316.38,783,757,0
36473,328.22,783,758,0
36483,339.56,783,757,0
36493,350.19,783,758,0
36503,359.35,783,757,0
36513,367.09,783,758,0
36524,372.76,783,757,0
36534,376.73,783,757,0
36544,378.91,783,758,0
36554,379.80,783,758,0
36564,379.34,783,757,0
36574,378.08,783,757,0
36584,376.04,783,757,0
36594,373.67,783,757,0
36604,370.86,783,757,0
36614,367.99,783,757,0
36624,364.86,783,757,0
36634,361.77,783,758,0
36644,358.54,783,757,0
36654,355.55,783,758,0
36664,352.64,783,757,0
36674,350.09,783,757,0
36684,347.62,783,757,0
36695,345.51,783,757,0
36705,343.60,783,757,0
36715,342.00,783,758,0
36725,340.50,783,757,0
36736,339.32,783,758,0
36745,338.45,783,758,0
36755,338.23,783,758,0
36765,338.72,783,757,0
36775,340.56,783,758,0
36785,344.21,783,758,0
36795,350.70,783,758,0
36805,360.82,783,757,0
36815,375.92,783,757,0
36825,396.73,783,758,0
36835,424.45,783,758,0
36854,459.37,723,757,0
36857,500.28,723,758,0
36866,543.86,723,758,0
36876,587.62,723,758,0
36886,628.88,723,757,0
36896,665.94,723,758,0
36907,696.82,723,758,0
36916,720.23,723,758,0
36926,736.62,723,758,0
36936,748.09,723,758,0
36946,756.12,723,757,0
36956,761.78,723,758,0
36966,765.75,723,757,0
36976,768.52,723,758,0
36986,770.47,723,758,0
36996,769.98,723,758,0
37006,764.46,723,758,0
37016,752.02,723,757,0
37026,731.40,723,757,0
37036,702.40,723,758,0
37046,664.82,723,757,0
37056,619.02,723,758,0
37066,567.58,723,757,0
37076,514.14,723,758,0
37086,461.85,723,757,0
37096,413.21,723,757,0
37106,369.65,723,757,0
37116,332.55,723,758,0
37126,302.60,723,757,0
37136,280.05,723,757,0
37146,264.82,723,757,0
37156,256.43,723,758,0
37166,254.07,723,757,0
37176,256.92,723,757,0
37186,264.02,723,757,0
37196,274.51,723,757,0
37207,287.17,723,757,0
37217,301.18,723,757,0
37227,315.52,723,758,0
37237,329.60,723,758,0
37248,342.75,723,757,0
37257,354.35,723,757,0
37267,364.02,723,758,0
37277,371.77,723,758,0
37287,377.37,723,757,0
37297,380.86,723,757,0
37307,382.31,723,758,0
37317,381.96,723,758,0
37327,380.22,723,758,0
37337,377.24,723,757,0
37347,373.31,723,757,0
37357,368.72,723,758,0
37367,363.83,723,758,0
37377,358.91,723,757,0
37387,354.18,723,757,0
37397,349.71,723,757,0
37407,345.77,723,757,0
37417,342.37,723,757,0
37427,339.64,723,757,0
37437,337.61,723,758,0
37447,336.31,723,757,0
37457,335.57,723,757,0
37467,335.27,723,757,0
37477,335.19,723,758,0
37487,335.35,723,757,0
37497,335.59,723,757,0
37507,335.92,723,757,0
37517,336.29,723,758,0
37527,336.85,723,757,0
37537,337.79,723,757,0
37548,339.83,723,758,0
37558,343.05,723,757,0
37568,348.52,723,757,0
37578,357.02,723,758,0
37588,369.96,723,758,0
37598,388.36,723,758,0
37608,413.45,723,758,0
37618,445.71,723,757,0
37638,485.27,783,757,0
37641,528.56,783,758,0
37650,572.88,783,758,0
37660,615.52,783,758,0
37670,654.49,783,758,0
37680,687.81,783,758,0
37690,713.93,783,758,0
37700,732.16,783,758,0
37710,744.93,783,758,0
37720,753.86,783,758,0
37730,760.16,783,758,0
37740,764.57,783,758,0
37750,767.66,783,758,0
37761,769.82,783,758,0
37771,771.37,783,758,0
37781,771.05,783,757,0
37791,766.15,783,758,0
37801,754.40,783,757,0
37811,735.00,783,758,0
37821,706.88,783,757,0
37831,670.10,783,757,0
37841,624.77,783,757,0
37851,573.33,783,758,0
37861,519.27,783,757,0
37871,466.18,783,757,0
37881,415.94,783,757,0
37891,371.08,783,758,0
37901,332.70,783,758,0
37911,301.98,783,758,0
37921,278.54,783,757,0
37932,262.74,783,758,0
37942,253.73,783,757,0
37952,251.20,783,757,0
37962,253.84,783,758,0
37972,260.87,783,758,0
37982,270.85,783,758,0
37992,283.20,783,757,0
38002,296.55,783,758,0
38012,310.49,783,758,0
38022,323.84,783,757,0
38032,336.32,783,757,0
38042,347.06,783,757,0
38052,356.35,783,758,0
38062,363.53,783,758,0
38072,368.94,783,757,0
38082,372.39,783,757,0
38092,374.41,783,758,0
38103,374.76,783,758,0
38113,374.10,783,757,0
38123,372.10,783,758,0
38133,369.54,783,758,0
38144,366.21,783,758,0
38153,362.55,783,757,0
38163,358.31,783,758,0
38173,353.97,783,758,0
38183,349.40,783,757,0
38193,345.08,783,757,0
38203,340.81,783,757,0
38213,337.14,783,758,0
38223,333.80,783,757,0
38233,331.16,783,757,0
38243,329.10,783,757,0
38253,327.87,783,758,0
38263,327.18,783,757,0
38273,327.17,783,757,0
38283,327.46,783,757,0
38293,328.31,783,758,0
38303,329.37,783,757,0
38313,330.80,783,757,0
38323,332.15,783,757,0
38333,333.60,783,758,0
38343,334.79,783,758,0
38353,336.01,783,757,0
38363,336.99,783,757,0
38373,338.24,783,758,0
38383,339.97,783,758,0
38393,343.11,783,757,0
38403,348.00,783,757,0
38413,356.10,783,758,0
38423,368.29,783,757,0
38433,386.29,783,758,0
38444,410.93,783,757,0
38454,443.26,783,758,0
38473,482.74,836,757,0
38476,526.28,836,758,0
38486,570.85,836,758,0
38495,614.10,836,758,0
38505,653.50,836,758,0
38515,687.25,836,758,0
38525,713.57,836,758,0
38535,732.00,836,758,0
38545,744.90,836,758,0
38555,753.93,836,758,0
38565,760.25,836,758,0
38575,764.68,836,758,0
38585,767.77,836,758,0
38595,769.94,836,758,0
38605,771.46,836,758,0
38615,771.36,836,758,0
38625,766.67,836,758,0
38635,755.28,836,758,0
38645,735.74,836,758,0
38656,707.28,836,758,0
38665,670.08,836,757,0
38675,624.41,836,758,0
38685,572.05,836,757,0
38695,517.05,836,758,0
38705,462.82,836,757,0
38715,412.17,836,757,0
38725,366.99,836,757,0
38735,328.47,836,758,0
38745,297.43,836,758,0
38755,274.24,836,758,0
38765,258.83,836,757,0
38775,250.56,836,758,0
38785,248.47,836,757,0
38795,251.88,836,758,0
38805,259.46,836,757,0
38815,270.25,836,758,0
38825,283.16,836,758,0
38835,297.13,836,758,0
38845,311.36,836,757,0
38855,325.18,836,758,0
38865,337.86,836,758,0
38875,349.13,836,758,0
38885,358.52,836,757,0
38895,365.91,836,757,0
38905,371.29,836,758,0
38915,374.72,836,758,0
38925,376.39,836,757,0
38935,376.57,836,758,0
38945,375.41,836,757,0
38956,373.19,836,758,0
38966,370.09,836,757,0
38976,366.29,836,757,0
38986,362.09,836,757,0
38996,357.78,836,758,0
39006,353.47,836,757,0
39016,349.30,836,758,0
39026,345.48,836,757,0
39036,342.21,836,758,0
39046,339.53,836,757,0
39056,337.36,836,758,0
39066,335.71,836,758,0
39076,334.47,836,757,0
39086,333.68,836,757,0
39096,333.26,836,758,0
39106,333.06,836,758,0
39116,333.08,836,758,0
39127,333.40,836,758,0
39137,333.75,836,757,0
39147,334.34,836,757,0
39157,335.01,836,758,0
39168,335.99,836,757,0
39177,337.41,836,758,0
39187,339.73,836,758,0
39197,343.37,836,758,0
39207,349.39,836,757,0
39217,358.44,836,758,0
39227,371.94,836,758,0
39237,390.68,836,757,0
39247,415.94,836,758,0
39257,447.63,836,758,0
39276,485.88,803,757,0
39279,528.00,803,758,0
39288,571.29,803,758,0
39298,613.12,803,757,0
39308,651.48,803,758,0
39318,684.38,803,757,0
39328,710.92,803,758,0
39339,730.15,803,758,0
39348,743.60,803,758,0
39358,753.02,803,758,0
39368,759.62,803,757,0
39378,763.72,803,757,0
39388,763.76,803,758,0
39398,758.09,803,758,0
39408,745.68,803,758,0
39418,725.63,803,757,0
39428,697.88,803,758,0
39438,662.30,803,757,0
39448,619.83,803,758,0
39458,572.99,803,757,0
39468,524.82,803,757,0
39478,477.31,803,757,0
39488,432.60,803,757,0
39498,391.83,803,757,0
39508,356.48,803,757,0
39518,326.94,803,757,0
39528,303.99,803,757,0
39538,287.19,803,757,0
39548,276.93,803,758,0
39558,272.07,803,757,0
39568,272.22,803,757,0
39578,276.35,803,757,0
39588,283.96,803,757,0
39598,293.92,803,758,0
39608,305.56,803,757,0
39618,317.52,803,757,0
39628,329.96,803,757,0
39639,341.76,803,757,0
39649,352.63,803,757,0
39659,361.91,803,757,0
39669,369.48,803,757,0
39680,375.08,803,757,0
39689,379.17,803,757,0
39699,381.39,803,757,0
39709,382.52,803,757,0
39719,382.19,803,757,0
39729,381.19,803,757,0
39739,379.33,803,757,0
39749,377.22,803,757,0
39759,374.58,803,757,0
39769,371.84,803,757,0
39779,368.76,803,757,0
39789,365.87,803,757,0
39799,362.82,803,757,0
39809,360.05,803,757,0
39819,357.16,803,757,0
39829,354.59,803,757,0
39839,351.97,803,757,0
39849,349.62,803,757,0
39859,347.29,803,757,0
39869,345.23,803,757,0
39879,343.32,803,757,0
39889,342.15,803,757,0
39899,341.46,803,757,0
39909,342.14,803,757,0
39919,344.28,803,757,0
39929,349.21,803,757,0
39939,357.25,803,757,0
39949,369.99,803,757,0
39959,388.21,803,757,0
39969,413.30,803,757,0
39980,445.48,803,757,0
39999,484.94,723,756,0
40002,527.98,723,757,0
40011,572.26,723,757,0
40022,614.91,723,757,0
40031,653.89,723,757,0
40041,687.18,723,757,0
40051,713.49,723,757,0
40061,731.94,723,757,0
40071,744.86,723,757,0
40081,753.90,723,757,0
40091,760.23,723,757,0
40101,764.62,723,757,0
40111,767.69,723,757,0
40121,767.65,723,757,0
40131,762.74,723,757,0
40141,751.21,723,757,0
40151,732.50,723,757,0
40161,705.78,723,757,0
40171,671.05,723,757,0
40181,628.35,723,757,0
40192,580.50,723,757,0
40201,530.29,723,757,0
40211,480.66,723,757,0
40221,433.19,723,757,0
40231,390.11,723,757,0
40241,352.45,723,757,0
40251,321.33,723,757,0
40261,296.84,723,757,0
40271,279.28,723,757,0
40281,268.14,723,757,0
40291,263.17,723,757,0
40301,263.20,723,757,0
40311,267.77,723,756,0
40321,275.51,723,756,0
40331,285.99,723,757,0
40341,297.86,723,757,0
40351,310.63,723,757,0
40361,323.30,723,757,0
40371,335.51,723,757,0
40381,346.37,723,757,0
40391,355.90,723,756,0
40401,363.39,723,757,0
40411,369.23,723,757,0
40421,373.02,723,757,0
40431,375.20,723,757,0
40441,375.65,723,757,0
40451,374.99,723,757,0
40461,373.19,723,757,0
40471,370.78,723,757,0
40481,367.59,723,757,0
40492,364.28,723,757,0
40502,360.64,723,757,0
40512,357.11,723,756,0
40522,353.43,723,757,0
40532,350.13,723,757,0
40542,347.09,723,757,0
40552,344.49,723,757,0
40562,342.03,723,757,0
40572,340.05,723,757,0
40582,338.41,723,757,0
40592,337.30,723,757,0
40602,336.14,723,757,0
40612,335.24,723,757,0
40622,334.40,723,757,0
40632,334.02,723,757,0
40642,333.97,723,757,0
40652,334.49,723,757,0
40663,335.97,723,757,0
40673,339.32,723,756,0
40683,345.14,723,757,0
40693,354.70,723,757,0
40704,368.85,723,757,0
40713,388.78,723,757,0
40723,415.63,723,757,0
40742,450.03,743,756,0
40745,490.90,743,757,0
40754,534.95,743,757,0
40764,579.36,743,757,0
40774,621.77,743,757,0
40784,660.07,743,757,0
40794,692.36,743,757,0
40804,717.11,743,757,0
40814,734.43,743,757,0
40824,746.60,743,757,0
40834,755.12,743,757,0
40844,761.09,743,757,0
40854,765.26,743,757,0
40864,768.18,743,757,0
40875,770.23,743,757,0
40884,771.66,743,757,0
40894,770.18,743,757,0
40904,763.22,743,757,0
40914,749.10,743,757,0
40924,726.91,743,757,0
40934,696.04,743,757,0
40944,656.38,743,757,0
40954,608.31,743,757,0
40964,555.33,743,757,0
40974,501.02,743,757,0
40984,448.26,743,757,0
40994,399.28,743,757,0
41004,355.95,743,757,0
41014,319.62,743,757,0
41024,290.98,743,757,0
41034,269.90,743,757,0
41044,256.22,743,756,0
41054,249.34,743,757,0
41064,248.38,743,757,0
41074,252.42,743,757,0
41084,260.40,743,756,0
41094,271.25,743,757,0
41104,283.95,743,757,0
41114,297.59,743,757,0
41124,311.43,743,756,0
41134,324.76,743,757,0
41144,336.96,743,757,0
41154,347.56,743,757,0
41164,356.35,743,756,0
41175,363.23,743,757,0
41185,368.17,743,757,0
41195,371.16,743,757,0
41205,372.44,743,756,0
41216,372.14,743,757,0
41225,370.60,743,757,0
41235,367.93,743,757,0
41245,364.48,743,757,0
41255,360.39,743,757,0
41265,356.03,743,757,0
41275,351.48,743,757,0
41285,347.05,743,757,0
41295,342.71,743,757,0
41305,338.72,743,757,0
41315,335.03,743,757,0
41325,331.90,743,756,0
41335,329.31,743,757,0
41345,327.42,743,757,0
41355,326.14,743,757,0
41365,325.54,743,757,0
41375,325.46,743,757,0
41385,326.01,743,757,0
41395,326.95,743,757,0
41405,328.21,743,757,0
41415,329.56,743,757,0
41425,331.06,743,757,0
41435,332.59,743,757,0
41445,334.17,743,757,0
41455,335.75,743,757,0
41465,337.75,743,757,0
41475,340.53,743,757,0
41485,344.78,743,757,0
41495,351.53,743,757,0
41505,362.00,743,757,0
41516,377.39,743,757,0
41526,399.09,743,757,0
41536,427.77,743,757,0
41546,464.14,743,757,0
41566,506.06,823,756,0
41569,550.27,823,757,0
41578,594.12,823,757,0
41588,635.31,823,757,0
41598,671.65,823,757,0
41608,701.54,823,757,0
41618,723.58,823,757,0
41628,739.00,823,757,0
41638,749.80,823,757,0
41648,757.36,823,757,0
41658,762.65,823,757,0
41668,766.36,823,757,0
41678,768.95,823,757,0
41688,770.77,823,757,0
41698,769.89,823,757,0
41708,764.10,823,758,0
41718,751.34,823,757,0
41729,730.62,823,757,0
41739,701.16,823,757,0
41749,663.14,823,757,0
41759,616.69,823,757,0
41769,564.84,823,757,0
41779,510.89,823,757,0
41789,458.25,823,757,0
41799,408.93,823,757,0
41809,365.15,823,757,0
41819,327.69,823,757,0
41829,297.74,823,757,0
41839,275.06,823,757,0
41849,259.79,823,757,0
41859,251.02,823,757,0
41869,248.53,823,758,0
41879,250.98,823,757,0
41889,257.85,823,757,0
41900,267.62,823,757,0
41910,279.78,823,757,0
41920,292.87,823,757,0
41930,306.50,823,757,0
41940,319.38,823,757,0
41950,331.43,823,757,0
41960,341.85,823,757,0
41970,350.72,823,757,0
41980,357.49,823,757,0
41990,362.70,823,757,0
42000,365.92,823,757,0
42010,367.79,823,757,0
42020,368.06,823,757,0
42030,367.27,823,757,0
42040,365.26,823,757,0
42050,362.66,823,757,0
42060,359.29,823,757,0
42071,355.73,823,757,0
42081,351.78,823,757,0
42091,347.90,823,758,0
42101,343.90,823,757,0
42112,340.25,823,757,0
42121,336.83,823,757,0
42131,333.97,823,757,0
42141,331.53,823,757,0
42151,329.83,823,757,0
42161,328.68,823,757,0
42171,328.39,823,757,0
42181,328.53,823,757,0
42191,329.23,823,758,0
42201,330.02,823,757,0
42211,331.04,823,758,0
42221,332.06,823,757,0
42231,332.98,823,757,0
42241,333.50,823,757,0
42251,334.04,823,757,0
42261,334.37,823,757,0
42271,334.94,823,757,0
42281,335.86,823,757,0
42291,337.70,823,757,0
42301,341.05,823,757,0
42311,347.08,823,757,0
42321,356.44,823,757,0
42331,370.28,823,757,0
42341,389.52,823,757,0
42351,415.34,823,757,0
42361,447.98,823,757,0
42380,487.24,815,757,0
42383,530.03,815,757,0
42392,573.65,815,757,0
42402,615.71,815,757,0
42412,654.15,815,758,0
42422,686.98,815,757,0
42432,713.00,815,757,0
42442,731.60,815,758,0
42452,744.62,815,758,0
42462,753.69,815,757,0
42472,760.04,815,758,0
42482,764.49,815,757,0
42492,765.45,815,758,0
42502,761.46,815,757,0
42512,751.25,815,757,0
42522,733.78,815,757,0
42532,708.51,815,757,0
42542,675.45,815,757,0
42552,634.73,815,757,0
42562,588.78,815,757,0
42572,540.25,815,757,0
42583,491.40,815,758,0
42593,444.65,815,757,0
42603,401.64,815,757,0
42613,363.52,815,757,0
42624,331.35,815,757,0
42633,305.70,815,757,0
42643,286.68,815,757,0
42653,274.17,815,758,0
42663,267.61,815,757,0
42673,266.35,815,757,0
42683,269.59,815,757,0
42693,276.40,815,758,0
42703,285.97,815,757,0
42713,297.29,815,757,0
42723,309.67,815,758,0
42733,322.24,815,757,0
42743,334.38,815,757,0
42753,345.58,815,757,0
42763,355.31,815,757,0
42773,363.36,815,758,0
42783,369.72,815,757,0
42793,374.26,815,757,0
42803,377.23,815,758,0
42813,378.79,815,758,0
42823,379.11,815,757,0
42833,378.35,815,757,0
42843,376.79,815,757,0
42853,374.58,815,758,0
42863,372.01,815,757,0
42873,368.96,815,757,0
42883,365.63,815,757,0
42893,362.10,815,757,0
42903,358.60,815,757,0
42913,355.08,815,757,0
42924,351.71,815,757,0
42934,348.41,815,757,0
42944,345.54,815,757,0
42954,342.98,815,757,0
42964,341.02,815,758,0
42974,339.43,815,757,0
42984,338.31,815,757,0
42994,337.53,815,757,0
43004,337.29,815,758,0
43014,337.46,815,758,0
43024,338.44,815,757,0
43034,340.15,815,757,0
43044,343.53,815,758,0
43054,349.03,815,758,0
43064,357.89,815,758,0
43074,371.04,815,757,0
43084,389.80,815,758,0
43095,414.89,815,757,0
43114,446.94,734,757,0
43117,485.78,734,757,0
43126,528.62,734,758,0
43137,572.36,734,757,0
43147,614.64,734,758,0
43157,653.15,734,757,0
43167,686.23,734,758,0
43177,712.61,734,757,0
43187,731.32,734,758,0
43197,744.43,734,758,0
43207,753.60,734,758,0
43217,760.02,734,758,0
43227,764.43,734,758,0
43237,764.64,734,758,0
43247,759.35,734,758,0
43257,747.24,734,758,0
43267,728.14,734,758,0
43277,701.23,734,757,0
43287,666.57,734,758,0
43297,624.36,734,758,0
43308,577.97,734,758,0
43318,529.63,734,757,0
43328,482.00,734,758,0
43338,436.27,734,757,0
43348,394.62,734,758,0
43358,357.92,734,757,0
43368,327.26,734,758,0
43378,302.97,734,758,0
43388,285.45,734,758,0
43398,274.08,734,758,0
43408,268.87,734,758,0
43418,268.83,734,758,0
43428,273.38,734,758,0
43438,281.28,734,758,0
43448,291.52,734,758,0
43458,302.94,734,758,0
43468,315.09,734,758,0
43479,326.67,734,757,0
43489,337.44,734,757,0
43499,346.74,734,758,0
43509,354.62,734,758,0
43520,360.77,734,757,0
43529,365.47,734,757,0
43539,368.50,734,758,0
43549,370.45,734,758,0
43559,371.17,734,758,0
43569,371.08,734,758,0
43579,370.03,734,757,0
43589,368.52,734,758,0
43599,366.35,734,757,0
43609,363.93,734,757,0
43619,361.04,734,757,0
43629,358.11,734,758,0
43639,355.25,734,758,0
43649,352.65,734,758,0
43659,350.22,734,757,0
43669,348.36,734,758,0
43679,346.54,734,758,0
43689,345.09,734,758,0
43699,343.61,734,757,0
43709,342.35,734,758,0
43719,341.13,734,758,0
43729,340.19,734,758,0
43739,339.19,734,757,0
43749,338.58,734,758,0
43759,338.23,734,757,0
43769,338.51,734,758,0
43779,339.00,734,757,0
43789,340.33,734,757,0
43799,342.41,734,757,0
43809,346.32,734,757,0
43820,352.69,734,757,0
43830,362.64,734,758,0
43840,377.24,734,758,0
43850,397.87,734,758,0
43870,425.21,755,757,0
43873,460.42,755,758,0
43882,501.43,755,758,0
43892,545.23,755,758,0
43902,589.05,755,758,0
43912,630.52,755,758,0
43922,667.48,755,758,0
43932,698.32,755,758,0
43942,721.32,755,758,0
43952,737.43,755,758,0
43962,748.70,755,758,0
43972,756.59,755,758,0
43982,762.11,755,758,0
43992,765.98,755,758,0
44002,768.69,755,758,0
44012,770.58,755,758,0
44022,769.03,755,758,0
44033,762.00,755,758,0
44043,748.11,755,758,0
44053,726.31,755,757,0
44063,696.13,755,758,0
44073,657.43,755,758,0
44083,610.93,755,758,0
44093,560.00,755,757,0
44103,507.84,755,757,0
44113,456.93,755,757,0
44123,409.81,755,757,0
44133,367.91,755,757,0
44143,332.75,755,758,0
44153,304.20,755,757,0
44163,282.88,755,758,0
44173,268.52,755,757,0
44183,260.65,755,758,0
44193,258.27,755,758,0
44204,260.80,755,757,0
44214,266.90,755,757,0
44224,276.19,755,758,0
44234,287.23,755,758,0
44244,299.51,755,758,0
44254,312.00,755,758,0
44264,324.21,755,758,0
44274,335.21,755,758,0
44284,344.96,755,757,0
44294,353.07,755,757,0
44304,359.91,755,758,0
44314,364.86,755,757,0
44324,368.46,755,758,0
44334,370.64,755,758,0
44344,371.82,755,757,0
44354,371.83,755,758,0
44364,370.81,755,758,0
44375,368.51,755,758,0
44385,365.70,755,758,0
44395,362.02,755,758,0
44405,357.94,755,758,0
44416,353.42,755,757,0
44425,349.01,755,758,0
44435,344.76,755,758,0
44445,341.19,755,758,0
44455,337.75,755,758,0
44465,335.08,755,758,0
44475,332.83,755,758,0
44485,331.38,755,758,0
44495,330.28,755,758,0
44505,329.85,755,758,0
44515,329.64,755,758,0
44525,330.01,755,758,0
44535,330.43,755,758,0
44545,331.16,755,758,0
44555,331.75,755,758,0
44565,332.56,755,758,0
44575,333.08,755,757,0
44585,333.87,755,757,0
44595,334.89,755,758,0
44605,337.07,755,757,0
44615,340.60,755,758,0
44625,346.98,755,758,0
44635,356.59,755,758,0
44645,371.07,755,758,0
44655,391.19,755,758,0
44665,418.18,755,758,0
44675,451.89,755,758,0
44694,492.25,825,757,0
44697,535.59,825,758,0
44706,579.56,825,757,0
44716,621.52,825,758,0
44726,659.46,825,758,0
44736,691.47,825,758,0
44746,716.53,825,757,0
44756,734.07,825,758,0
44766,746.35,825,758,0
44776,754.94,825,758,0
44786,760.96,825,758,0
44796,765.17,825,757,0
44806,768.12,825,758,0
44816,770.18,825,758,0
44826,770.86,825,758,0
44836,767.21,825,758,0
44846,757.85,825,758,0
44856,741.05,825,758,0
44866,716.01,825,757,0
44876,682.36,825,758,0
44887,640.43,825,758,0
44897,591.27,825,758,0
44907,539.07,825,757,0
44917,486.21,825,758,0
44928,435.79,825,758,0
44937,389.74,825,757,0
44947,349.75,825,757,0
44957,316.48,825,757,0
44967,290.75,825,758,0
44977,272.14,825,758,0
44987,260.61,825,757,0
44997,255.16,825,757,0
45007,255.28,825,758,0
45017,259.70,825,757,0
45027,267.76,825,758,0
45037,278.20,825,757,0
45047,290.40,825,758,0
45057,303.14,825,757,0
45067,316.17,825,757,0
45077,328.50,825,757,0
45087,340.09,825,758,0
45097,350.05,825,757,0
45107,358.65,825,758,0
45117,365.40,825,757,0
45127,370.68,825,758,0
45137,374.12,825,758,0
45147,376.01,825,758,0
45157,376.14,825,757,0
45167,375.24,825,758,0
45177,373.07,825,758,0
45187,370.18,825,758,0
45197,366.39,825,757,0
45207,362.33,825,758,0
45217,357.90,825,758,0
45228,353.65,825,758,0
45238,349.30,825,757,0
45248,345.18,825,758,0
45258,341.27,825,758,0
45268,337.97,825,758,0
45278,334.98,825,758,0
45288,332.84,825,758,0
45298,331.09,825,758,0
45308,329.99,825,758,0
45318,329.27,825,757,0
45328,329.10,825,758,0
45338,329.28,825,758,0
45348,329.80,825,758,0
45358,330.20,825,757,0
45368,330.91,825,758,0
45378,331.62,825,757,0
45388,332.59,825,758,0
45399,333.53,825,757,0
45409,334.57,825,758,0
45419,335.81,825,758,0
45429,337.50,825,758,0
45440,339.62,825,757,0
45449,342.73,825,758,0
45459,347.40,825,758,0
45469,354.82,825,758,0
45479,365.93,825,758,0
45489,381.81,825,758,0
45499,403.34,825,758,0
45509,431.69,825,758,0
45529,467.01,834,757,0
45532,507.94,834,758,0
45541,551.11,834,758,0
45551,593.89,834,758,0
45561,634.13,834,758,0
45571,670.05,834,758,0
45581,699.73,834,758,0
45591,722.27,834,758,0
45601,738.05,834,758,0
45612,749.09,834,758,0
45622,756.86,834,759,0
45632,762.30,834,758,0
45642,766.11,834,758,0
45652,766.59,834,758,0
45662,762.30,834,758,0
45672,751.71,834,758,0
45682,733.80,834,758,0
45692,707.97,834,758,0
45702,674.51,834,758,0
45712,633.30,834,758,0
45722,587.22,834,758,0
45732,538.56,834,758,0
45742,490.18,834,758,0
45752,444.14,834,758,0
45762,402.22,834,758,0
45772,365.30,834,758,0
45783,334.65,834,758,0
45793,310.41,834,758,0
45803,293.02,834,758,0
45813,281.83,834,758,0
45824,276.56,834,758,0
45833,276.35,834,758,0
45843,280.49,834,758,0
45853,287.89,834,758,0
45863,297.82,834,758,0
45873,309.15,834,758,0
45883,321.44,834,758,0
45893,333.83,834,758,0
45903,346.05,834,758,0
45913,357.26,834,758,0
45923,367.21,834,758,0
45933,375.42,834,758,0
45943,382.07,834,758,0
45953,386.85,834,758,0
45963,390.11,834,758,0
45973,391.57,834,758,0
45983,391.92,834,758,0
45993,390.78,834,758,0
46003,388.88,834,758,0
46013,386.04,834,758,0
46023,382.60,834,758,0
46033,378.48,834,758,0
46043,374.18,834,758,0
46053,369.62,834,758,0
46063,365.54,834,758,0
46073,361.56,834,758,0
46083,358.14,834,758,0
46093,355.01,834,758,0
46103,352.48,834,758,0
46113,350.11,834,758,0
46124,348.23,834,758,0
46134,346.36,834,758,0
46144,344.75,834,758,0
46154,343.11,834,758,0
46164,341.96,834,758,0
46174,341.08,834,758,0
46184,341.14,834,758,0
46194,341.95,834,758,0
46204,344.80,834,758,0
46214,349.83,834,758,0
46224,358.37,834,758,0
46234,370.94,834,758,0
46244,389.05,834,758,0
46254,412.99,834,758,0
46264,443.72,834,758,0
46283,480.75,755,757,0
46286,522.35,755,758,0
46295,565.32,755,758,0
46305,607.39,755,758,0
46315,646.10,755,758,0
46325,680.02,755,758,0
46336,707.48,755,758,0
46345,727.74,755,758,0
46355,741.92,755,758,0
46365,751.84,755,758,0
46375,758.79,755,758,0
46385,763.65,755,758,0
46395,764.91,755,758,0
46405,761.17,755,758,0
46415,750.96,755,758,0
46425,734.09,755,758,0
46435,709.68,755,758,0
46445,677.59,755,758,0
46455,637.81,755,758,0
46465,593.25,755,758,0
46475,546.29,755,758,0
46485,499.53,755,758,0
46495,454.12,755,757,0
46505,412.25,755,758,0
46515,375.11,755,758,0
46525,343.96,755,758,0
46535,318.73,755,758,0
46545,299.91,755,758,0
46555,287.25,755,758,0
46565,280.62,755,758,0
46575,278.98,755,757,0
46585,281.90,755,758,0
46595,287.89,755,758,0
46605,296.53,755,758,0
46615,306.70,755,758,0
46625,317.93,755,758,0
46636,329.27,755,758,0
46646,340.42,755,758,0
46656,350.49,755,758,0
46666,359.64,755,758,0
46676,367.42,755,758,0
46686,373.90,755,758,0
46696,378.60,755,758,0
46706,381.93,755,758,0
46716,383.75,755,758,0
46726,384.43,755,758,0
46736,383.83,755,758,0
46746,382.34,755,758,0
46756,379.84,755,758,0
46766,376.84,755,758,0
46776,373.08,755,758,0
46786,369.07,755,758,0
46796,364.68,755,758,0
46807,360.49,755,758,0
46817,356.23,755,758,0
46827,352.30,755,758,0
46837,348.53,755,758,0
46848,345.50,755,758,0
46857,342.90,755,758,0
46867,341.09,755,758,0
46877,339.52,755,758,0
46887,338.46,755,758,0
46897,337.64,755,758,0
46907,337.32,755,758,0
46917,337.18,755,758,0
46927,337.55,755,758,0
46937,338.46,755,758,0
46947,340.59,755,758,0
46957,344.44,755,758,0
46967,351.08,755,758,0
46977,361.00,755,758,0
46987,375.74,755,758,0
46997,396.31,755,758,0
47007,423.86,755,758,0
47027,458.83,743,757,0
47030,499.81,743,758,0
47039,543.45,743,758,0
47049,587.42,743,758,0
47059,629.03,743,758,0
47069,666.27,743,758,0
47079,697.22,743,758,0
47089,720.59,743,758,0
47099,736.92,743,758,0
47109,748.34,743,758,0
47119,756.34,743,758,0
47129,761.94,743,758,0
47139,765.86,743,758,0
47149,768.60,743,758,0
47159,770.52,743,758,0
47169,771.86,743,758,0
47179,770.36,743,758,0
47190,763.48,743,758,0
47199,749.71,743,758,0
47209,727.85,743,758,0
47219,697.38,743,758,0
47229,658.18,743,758,0
47239,611.11,743,758,0
47249,559.14,743,758,0
47259,505.95,743,758,0
47269,454.24,743,758,0
47279,406.47,743,758,0
47289,364.50,743,758,0
47299,329.51,743,758,0
47309,301.58,743,758,0
47319,280.97,743,758,0
47329,267.39,743,758,0
47339,260.54,743,758,0
47349,259.52,743,758,0
47360,263.48,743,758,0
47369,271.39,743,758,0
47379,282.29,743,758,0
47389,295.36,743,758,0
47399,309.52,743,758,0
47409,323.72,743,758,0
47419,337.35,743,758,0
47429,349.54,743,758,0
47439,360.18,743,758,0
47449,369.08,743,758,0
47459,375.96,743,758,0
47469,380.90,743,758,0
47479,383.97,743,758,0
47489,385.35,743,758,0
47499,385.33,743,758,0
47509,383.86,743,758,0
47519,381.16,743,758,0
47529,377.34,743,758,0
47539,372.78,743,758,0
47549,367.62,743,758,0
47559,362.12,743,758,0
47569,356.38,743,758,0
47579,350.78,743,758,0
47589,345.40,743,758,0
47599,340.65,743,758,0
47609,336.39,743,758,0
47619,332.93,743,758,0
47629,330.21,743,758,0
47639,328.39,743,758,0
47649,327.29,743,758,0
47660,326.99,743,758,0
47670,327.33,743,758,0
47680,328.39,743,758,0
47690,329.86,743,758,0
47700,331.74,743,758,0
47710,333.79,743,758,0
47720,336.08,743,758,0
47730,338.20,743,758,0
47740,340.37,743,758,0
47750,342.44,743,758,0
47760,344.75,743,758,0
47770,347.53,743,758,0
47780,351.66,743,758,0
47790,357.72,743,758,0
47800,367.27,743,758,0
47810,381.38,743,758,0
47820,401.75,743,758,0
47831,429.30,743,758,0
47841,464.86,743,758,0
47860,506.00,834,757,0
47862,549.89,834,758,0
47873,593.68,834,758,0
47883,635.05,834,758,0
47893,671.59,834,758,0
47903,701.63,834,758,0
47913,723.64,834,758,0
47923,739.05,834,758,0
47933,749.83,834,758,0
47943,757.38,834,758,0
47953,762.67,834,758,0
47963,766.37,834,758,0
47973,768.96,834,758,0
47983,770.77,834,758,0
47993,772.04,834,758,0
48003,771.26,834,758,0
48013,765.52,834,758,0
48023,752.98,834,758,0
48033,732.07,834,758,0
48044,702.35,834,758,0
48054,663.72,834,758,0
48064,616.70,834,758,0
48074,563.61,834,758,0
48084,508.61,834,758,0
48094,454.73,834,758,0
48104,404.97,834,758,0
48114,360.88,834,758,0
48124,324.01,834,758,0
48134,294.82,834,758,0
48144,273.79,834,758,0
48154,260.35,834,758,0
48164,254.25,834,758,0
48174,254.22,834,758,0
48184,259.64,834,758,0
48194,269.00,834,758,0
48204,281.52,834,758,0
48215,295.76,834,758,0
48225,311.00,834,758,0
48235,325.83,834,758,0
48245,339.94,834,758,0
48256,352.56,834,758,0
48265,363.49,834,758,0
48275,372.13,834,758,0
48285,378.69,834,758,0
48295,382.90,834,758,0
48305,385.33,834,758,0
48315,385.87,834,758,0
48325,384.84,834,758,0
48335,382.36,834,758,0
48345,378.95,834,758,0
48355,374.59,834,758,0
48365,369.87,834,758,0
48375,364.73,834,758,0
48385,359.71,834,758,0
48395,354.74,834,758,0
48405,350.32,834,758,0
48415,346.28,834,758,0
48425,343.02,834,758,0
48435,340.49,834,758,0
48445,338.76,834,758,0
48455,337.71,834,758,0
48465,337.50,834,758,0
48475,337.69,834,758,0
48485,338.43,834,758,0
48495,339.33,834,758,0
48505,340.30,834,758,0
48515,341.28,834,758,0
48525,342.14,834,758,0
48535,342.57,834,758,0
48545,343.00,834,758,0
48556,343.26,834,758,0
48566,343.87,834,758,0
48576,344.98,834,758,0
48586,347.26,834,758,0
48596,351.08,834,758,0
48606,357.57,834,758,0
48616,367.38,834,758,0
48626,382.01,834,758,0
48636,402.24,834,758,0
48646,428.82,834,758,0
48656,461.92,834,758,0
48675,501.29,815,757,0
48678,543.71,815,758,0
48687,586.53,815,758,0
48697,627.21,815,758,0
48707,663.75,815,758,0
48717,694.64,815,758,0
48727,718.75,815,758,0
48737,735.62,815,758,0
48747,747.44,815,758,0
48757,755.71,815,758,0
48768,761.49,815,758,0
48777,765.55,815,758,0
48787,765.94,815,758,0
48797,761.07,815,758,0
48807,749.61,815,758,0
48817,731.00,815,758,0
48827,704.68,815,758,0
48837,670.54,815,758,0
48847,628.76,815,758,0
48857,582.38,815,758,0
48867,533.92,815,758,0
48877,485.90,815,758,0
48887,439.95,815,758,0
48897,397.83,815,758,0
48907,360.77,815,758,0
48917,329.68,815,758,0
48927,304.92,815,758,0
48937,286.90,815,758,0
48947,275.14,815,758,0
48957,269.27,815,758,0
48967,268.68,815,758,0
48977,272.67,815,758,0
48987,280.27,815,758,0
48997,290.56,815,758,0
49007,302.56,815,758,0
49017,315.60,815,758,0
49027,328.92,815,758,0
49037,341.80,815,758,0
49047,353.64,815,758,0
49057,363.99,815,758,0
49068,372.57,815,758,0
49078,379.21,815,758,0
49088,383.82,815,758,0
49098,386.57,815,758,0
49108,387.47,815,758,0
49118,386.90,815,758,0
49128,385.05,815,758,0
49138,382.20,815,758,0
49148,378.59,815,758,0
49158,374.77,815,758,0
49168,370.77,815,758,0
49178,366.98,815,758,0
49188,363.21,815,758,0
49198,359.76,815,758,0
49208,356.62,815,758,0
49218,353.73,815,758,0
49228,351.03,815,758,0
49239,348.66,815,758,0
49249,346.41,815,758,0
49259,344.48,815,758,0
49269,342.80,815,758,0
49280,341.49,815,758,0
49289,340.53,815,758,0
49299,339.98,815,758,0
49309,339.64,815,758,0
49319,339.88,815,758,0
49329,340.73,815,758,0
49339,342.61,815,758,0
49349,345.73,815,758,0
49359,351.21,815,758,0
49369,359.68,815,758,0
49379,372.59,815,758,0
49389,390.84,815,758,0
49399,415.70,815,758,0
49409,447.25,815,758,0
49428,485.79,753,757,0
49431,528.19,753,758,0
49440,571.81,753,758,0
49451,613.95,753,758,0
49460,652.54,753,759,0
49470,685.50,753,758,0
49480,711.92,753,758,0
49490,730.85,753,758,0
49500,744.09,753,758,0
49510,753.37,753,758,0
49520,759.86,753,758,0
49530,764.40,753,758,0
49540,766.76,753,758,0
49550,765.08,753,758,0
49560,757.94,753,758,0
49570,743.94,753,758,0
49580,722.88,753,758,0
49590,693.94,753,758,0
49600,657.40,753,758,0
49610,614.12,753,758,0
49620,566.77,753,770,0
49630,517.51,753,770,0
49640,469.19,753,773,0
49650,422.97,753,773,0
49660,381.07,753,774,0
49670,344.23,753,774,0
49680,313.65,753,783,0
49690,289.63,753,783,0
49700,272.55,753,786,0
49710,261.97,753,780,0
49720,257.52,753,787,0
49730,258.22,753,782,0
49740,263.47,753,786,0
49751,271.99,753,783,0
49761,283.22,753,786,0
49771,295.97,753,785,0
49781,309.48,753,786,0
49792,322.66,753,785,0
49801,335.36,753,787,0
49811,346.65,753,785,0
49821,356.57,753,786,0
49831,364.50,753,784,0
49841,370.74,753,786,0
49851,374.89,753,785,0
49861,377.54,753,787,0
49871,378.23,753,784,0
49881,377.69,753,786,0
49891,375.73,753,784,0
49901,372.98,753,787,0
49911,369.43,753,785,0
49921,365.53,753,786,0
49931,361.26,753,784,0
49941,357.11,753,786,0
49951,352.88,753,785,0
49961,349.01,753,786,0
49971,345.32,753,784,0
49981,342.14,753,786,0
49991,339.27,753,785,0
50001,337.05,753,787,0
50011,335.19,753,784,0
50021,333.98,753,786,0
50031,333.17,753,785,0
50041,332.95,753,787,0
50051,333.01,753,784,0
50061,333.56,753,786,0
50071,334.25,753,785,0
50081,335.20,753,787,0
50092,336.13,753,785,0
50102,337.12,753,786,0
50112,338.03,753,786,0
50122,339.05,753,786,0
50132,340.15,753,786,0
50142,341.77,753,786,0
50152,344.37,753,786,0
50162,348.85,753,787,0
50172,356.05,753,786,0
50182,367.09,753,786,0
50192,383.14,753,786,0
50202,405.59,753,786,0
50212,435.29,753,786,0
50231,472.32,803,785,0
50234,514.22,803,786,0
50243,558.00,803,786,0
50253,601.16,803,787,0
50263,641.39,803,787,0
50273,676.55,803,786,0
50283,705.01,803,787,0
50293,725.84,803,787,0
50304,740.41,803,786,0
50313,750.62,803,787,0
50323,757.80,803,787,0
50333,762.88,803,787,0
50343,766.47,803,786,0
50353,768.94,803,786,0
50363,770.68,803,786,0
50373,769.92,803,787,0
50383,764.37,803,786,0
50393,752.39,803,786,0
50403,732.77,803,787,0
50413,704.73,803,787,0
50423,668.21,803,786,0
50433,623.62,803,786,0
50443,573.46,803,787,0
50453,520.95,803,786,0
50463,468.81,803,786,0
50473,419.41,803,786,0
50483,374.89,803,786,0
50493,336.43,803,786,0
50503,304.72,803,786,0
50513,280.20,803,787,0
50523,262.91,803,786,0
50533,252.61,803,787,0
50543,248.53,803,786,0
50553,249.83,803,787,0
50563,255.49,803,786,0
50573,264.47,803,787,0
50583,275.77,803,786,0
50593,288.53,803,787,0
50604,301.74,803,785,0
50614,314.85,803,787,0
50624,326.89,803,785,0
50634,337.55,803,786,0
50644,346.43,803,785,0
50654,353.33,803,787,0
50664,358.12,803,785,0
50674,360.87,803,786,0
50684,361.64,803,785,0
50694,360.97,803,786,0
50704,358.97,803,785,0
50714,356.11,803,786,0
50724,352.52,803,785,0
50734,348.55,803,787,0
50744,344.35,803,785,0
50754,340.26,803,786,0
50764,336.16,803,785,0
50775,332.25,803,787,0
50785,328.49,803,785,0
50795,325.17,803,786,0
50805,322.16,803,784,0
50816,319.67,803,787,0
50825,317.58,803,785,0
50835,316.04,803,786,0
50845,314.91,803,784,0
50855,314.38,803,786,0
50865,314.22,803,785,0
50875,314.63,803,787,0
50885,315.34,803,784,0
50895,316.39,803,786,0
50905,317.69,803,785,0
50915,319.37,803,786,0
50925,321.06,803,784,0
50935,322.84,803,786,0
50945,324.39,803,785,0
50955,325.73,803,787,0
50965,326.67,803,784,0
50975,327.41,803,786,0
50985,327.84,803,784,0
50995,328.32,803,787,0
51005,328.82,803,784,0
51015,330.12,803,787,0
51025,332.70,803,784,0
51035,337.55,803,787,0
51045,345.48,803,784,0
51055,357.89,803,787,0
51065,375.88,803,784,0
51075,400.39,803,786,0
51094,431.77,863,786,0
51096,470.54,863,785,0
51106,513.84,863,783,0
51116,558.67,863,787,0
51126,602.31,863,784,0
51136,642.46,863,787,0
51146,677.42,863,784,0
51156,705.80,863,787,0
51166,726.26,863,784,0
51176,740.58,863,787,0
51186,750.61,863,784,0
51196,757.62,863,787,0
51206,762.54,863,784,0
51216,765.98,863,787,0
51226,767.40,863,784,0
51236,764.92,863,787,0
51246,756.89,863,784,0
51256,742.05,863,786,0
51266,719.49,863,784,0
51276,688.96,863,787,0
51287,650.49,863,784,0
51297,605.60,863,787,0
51307,556.95,863,783,0
51317,507.46,863,786,0
51328,459.32,863,783,0
51337,414.78,863,787,0
51347,375.16,863,783,0
51357,341.64,863,786,0
51367,314.62,863,784,0
51377,294.63,863,786,0
51387,281.16,863,783,0
51397,273.87,863,786,0
51407,271.94,863,783,0
51417,274.83,863,786,0
51427,281.31,863,784,0
51437,290.77,863,787,0
51447,301.94,863,784,0
51457,314.30,863,786,0
51467,326.98,863,783,0
51477,339.46,863,787,0
51487,350.76,863,783,0
51497,360.86,863,786,0
51507,369.13,863,783,0
51517,375.86,863,787,0
51527,380.66,863,783,0
51537,384.02,863,786,0
51547,385.81,863,783,0
51557,386.56,863,787,0
51567,385.87,863,783,0
51577,384.37,863,786,0
51587,381.82,863,783,0
51597,378.91,863,787,0
51607,375.60,863,784,0
51617,372.16,863,786,0
51628,368.47,863,784,0
51638,365.29,863,786,0
51648,362.20,863,784,0
51658,359.57,863,786,0
51668,356.96,863,784,0
51678,354.61,863,786,0
51688,352.29,863,784,0
51698,350.31,863,786,0
51708,348.25,863,784,0
51718,346.59,863,786,0
51728,344.95,863,784,0
51738,343.77,863,786,0
51748,342.68,863,784,0
51758,342.13,863,786,0
51768,342.09,863,784,0
51778,343.44,863,786,0
51788,346.09,863,785,0
51799,351.34,863,786,0
51809,359.72,863,785,0
51819,372.58,863,786,0
51829,390.66,863,785,0
51840,414.98,863,786,0
51858,445.33,764,786,0
51861,482.09,764,784,0
51870,523.16,764,786,0
51880,565.71,764,786,0
51890,607.11,764,785,0
51900,645.39,764,787,0
51910,678.70,764,786,0
51920,706.05,764,786,0
51930,726.43,764,785,0
51940,740.70,764,786,0
51950,750.69,764,786,0
51960,757.69,764,786,0
51970,762.24,764,785,0
51980,762.98,764,786,0
51990,758.53,764,786,0
52000,747.91,764,786,0
52011,730.32,764,786,0
52020,705.67,764,786,0
52030,673.58,764,786,0
52040,634.62,764,786,0
52050,591.11,764,786,0
52060,545.73,764,786,0
52070,500.38,764,786,0
52080,457.07,764,786,0
52090,416.89,764,786,0
52100,381.44,764,786,0
52110,351.35,764,785,0
52120,327.29,764,786,0
52130,309.12,764,786,0
52140,296.87,764,786,0
52150,289.96,764,785,0
52160,287.92,764,786,0
52170,289.83,764,786,0
52180,295.02,764,786,0
52190,302.34,764,785,0
52200,311.11,764,786,0
52210,320.51,764,786,0
52220,330.00,764,786,0
52230,339.13,764,786,0
52240,347.49,764,786,0
52250,354.67,764,786,0
52260,360.77,764,786,0
52270,365.55,764,785,0
52280,369.12,764,786,0
52290,371.40,764,786,0
52300,372.43,764,786,0
52311,372.26,764,786,0
52321,371.11,764,786,0
52331,369.02,764,786,0
52341,366.23,764,786,0
52352,362.86,764,786,0
52361,359.30,764,786,0
52371,355.65,764,786,0
52381,352.20,764,786,0
52391,349.14,764,786,0
52401,346.66,764,786,0
52411,344.83,764,786,0
52421,343.55,764,786,0
52431,342.79,764,786,0
52441,342.38,764,786,0
52451,342.18,764,786,0
52461,342.08,764,786,0
52471,342.02,764,786,0
52481,341.92,764,786,0
52491,341.86,764,786,0
52501,341.65,764,786,0
52511,341.41,764,786,0
52521,341.24,764,786,0
52531,341.21,764,786,0
52541,341.49,764,786,0
52551,342.29,764,786,0
52561,343.92,764,786,0
52571,346.94,764,786,0
52581,352.10,764,786,0
52591,360.21,764,786,0
52601,372.36,764,786,0
52611,389.44,764,786,0
52621,412.45,764,786,0
52640,442.32,782,785,0
52643,479.64,782,785,0
52652,521.32,782,787,0
52662,564.55,782,785,0
52672,606.81,782,787,0
52682,646.08,782,785,0
52692,680.43,782,787,0
52702,708.20,782,785,0
52712,727.94,782,787,0
52722,741.76,782,785,0
52732,751.43,782,787,0
52742,758.20,782,785,0
52752,762.94,782,787,0
52762,766.26,782,785,0
52772,768.58,782,787,0
52782,770.21,782,786,0
52792,771.34,782,787,0
52802,772.14,782,785,0
52812,769.61,782,787,0
52823,761.37,782,785,0
52833,745.92,782,787,0
52843,722.16,782,784,0
52853,689.75,782,786,0
52864,648.81,782,784,0
52873,600.27,782,787,0
52883,548.07,782,784,0
52893,495.77,782,786,0
52903,446.04,782,784,0
52913,401.50,782,787,0
52923,363.55,782,784,0
52933,333.51,782,787,0
52943,311.16,782,784,0
52953,296.37,782,786,0
52963,288.54,782,784,0
52973,287.31,782,783,0
52983,291.29,782,773,0
52993,299.56,782,775,0
53003,310.49,782,773,0
53013,323.37,782,778,0
53023,336.89,782,774,0
53033,350.51,782,773,0
53043,362.96,782,769,0
53053,373.90,782,769,0
53063,382.97,782,769,0
53073,390.18,782,769,0
53083,395.31,782,769,0
53093,398.86,782,770,0
53103,400.66,782,770,0
53113,401.28,782,771,0
53123,400.68,782,771,0
53133,399.15,782,770,0
53143,396.70,782,770,0
53153,393.62,782,770,0
53164,389.96,782,770,0
53174,386.07,782,770,0
53184,381.77,782,770,0
53194,377.64,782,771,0
53204,373.37,782,770,0
53214,369.58,782,770,0
53224,366.06,782,770,0
53234,363.26,782,769,0
53244,360.87,782,769,0
53254,359.28,782,769,0
53264,357.99,782,769,0
53274,357.52,782,769,0
53284,357.15,782,769,0
53294,357.24,782,769,0
53304,357.08,782,768,0
53314,357.06,782,769,0
53324,356.61,782,769,0
53335,356.13,782,768,0
53345,355.23,782,768,0
53355,354.61,782,768,0
53365,354.21,782,768,0
53376,355.56,782,761,0
53385,358.78,782,759,0
53395,365.23,782,759,0
53405,375.49,782,758,0
53415,391.24,782,758,0
53425,412.77,782,758,0
53435,441.17,782,758,0
53445,475.49,782,758,0
53465,515.20,824,756,0
53467,557.05,824,757,0
53477,598.74,824,759,0
53487,637.64,824,757,0
53497,672.38,824,759,0
53507,701.15,824,757,0
53517,723.31,824,759,0
53527,738.81,824,757,0
53537,749.67,824,759,0
53548,757.27,824,757,0
53558,762.59,824,759,0
53568,766.31,824,757,0
53578,767.68,824,759,0
53588,764.52,824,757,0
53598,755.79,824,759,0
53608,740.08,824,758,0
53618,716.79,824,760,0
53628,685.48,824,759,0
53638,646.63,824,761,0
53648,601.66,824,759,0
53658,553.89,824,761,0
53668,505.19,824,763,0
53678,458.29,824,763,0
53688,414.58,824,762,0
53698,375.88,824,764,0
53708,342.61,824,763,0
53719,315.90,824,765,0
53729,295.70,824,763,0
53739,282.46,824,765,0
53749,276.11,824,758,0
53760,276.55,824,760,0
53769,282.38,824,756,0
53779,292.98,824,759,0
53789,306.70,824,756,0
53799,322.52,824,759,0
53809,338.74,824,756,0
53819,353.99,824,758,0
53829,367.10,824,756,0
53839,377.83,824,758,0
53849,385.42,824,756,0
53859,390.31,824,758,0
53869,392.32,824,756,0
53879,392.35,824,759,0
53889,390.45,824,756,0
53899,387.40,824,759,0
53909,383.46,824,755,0
53919,379.30,824,759,0
53929,374.92,824,756,0
53939,370.83,824,759,0
53949,366.90,824,756,0
53959,363.37,824,759,0
53969,360.26,824,756,0
53979,357.74,824,760,0
53989,355.59,824,757,0
53999,354.13,824,760,0
54009,353.02,824,758,0
54019,352.37,824,760,0
54029,352.00,824,757,0
54039,351.83,824,760,0
54049,351.54,824,757,0
54060,351.33,824,760,0
54070,350.72,824,758,0
54080,350.33,824,760,0
54090,349.98,824,757,0
54100,350.54,824,760,0
54110,352.48,824,757,0
54120,357.09,824,760,0
54130,365.68,824,758,0
54140,379.57,824,759,0
54150,399.50,824,756,0
54160,426.57,824,759,0
54170,460.68,824,756,0
54190,501.11,725,755,0
54192,544.53,725,757,0
54202,587.87,725,758,0
54212,628.80,725,757,0
54222,665.41,725,758,0
54232,696.06,725,757,0
54242,719.74,725,758,0
54252,736.36,725,757,0
54262,747.95,725,758,0
54273,756.07,725,757,0
54283,761.75,725,758,0
54293,765.72,725,757,0
54303,766.53,725,758,0
54313,762.90,725,757,0
54323,753.46,725,758,0
54333,737.42,725,757,0
54343,713.90,725,757,0
54353,682.94,725,757,0
54363,644.60,725,758,0
54373,601.39,725,757,0
54383,555.25,725,758,0
54393,508.80,725,757,0
54403,463.73,725,758,0
54413,422.20,725,757,0
54423,385.11,725,758,0
54433,353.71,725,760,0
54444,328.17,725,758,0
54454,309.30,725,758,0
54464,296.53,725,757,0
54474,289.94,725,759,0
54484,288.37,725,758,0
54494,291.47,725,759,0
54504,297.72,725,758,0
54514,306.72,725,759,0
54524,317.00,725,758,0
54534,328.27,725,759,0
54544,339.25,725,758,0
54554,349.97,725,759,0
54564,359.37,725,758,0
54574,367.66,725,759,0
54584,374.02,725,758,0
54594,378.85,725,759,0
54604,381.60,725,758,0
54615,382.88,725,760,0
54625,382.18,725,758,0
54635,380.33,725,759,0
54645,377.06,725,757,0
54656,373.18,725,759,0
54665,368.46,725,756,0
54675,363.73,725,758,0
54685,358.67,725,756,0
54695,354.18,725,759,0
54705,349.71,725,757,0
54715,345.94,725,758,0
54725,342.40,725,756,0
54735,339.71,725,759,0
54745,337.10,725,756,0
54755,335.05,725,758,0
54765,332.85,725,756,0
54775,331.10,725,759,0
54785,329.14,725,756,0
54795,327.64,725,758,0
54805,325.91,725,756,0
54815,325.08,725,759,0
54825,325.01,725,756,0
54835,326.72,725,758,0
54845,330.62,725,757,0
54855,338.45,725,759,0
54865,350.79,725,756,0
54875,369.32,725,759,0
54885,394.38,725,757,0
54895,427.22,725,759,0
54915,467.36,725,760,0
54918,512.08,725,762,0
54927,557.96,725,760,0
54937,602.54,725,762,0
54947,643.48,725,761,0
54957,678.99,725,761,0
54967,707.19,725,761,0
54977,727.54,725,763,0
54987,741.78,725,757,0
54998,751.74,725,760,0
55007,758.72,725,757,0
55017,763.60,725,759,0
55027,767.02,725,756,0
55037,769.42,725,759,0
55047,769.25,725,756,0
55057,764.55,725,759,0
55067,753.45,725,756,0
55077,734.97,725,759,0
55087,708.41,725,756,0
55097,673.66,725,759,0
55107,630.65,725,759,0
55117,581.68,725,760,0
55127,529.62,725,757,0
55137,477.36,725,759,0
55147,426.81,725,756,0
55157,380.02,725,759,0
55168,338.06,725,756,0
55177,302.34,725,759,0
55187,273.18,725,756,0
55197,251.06,725,759,0
55207,235.70,725,757,0
55217,227.09,725,768,0
55227,224.06,725,762,0
55237,226.31,725,763,0
55247,232.52,725,762,0
55257,242.26,725,764,0
55267,254.10,725,764,0
55277,267.48,725,772,0
55287,281.18,725,773,0
55297,294.93,725,774,0
55307,307.55,725,774,0
55317,318.83,725,776,0
55327,327.96,725,781,0
55337,334.88,725,782,0
55347,339.46,725,784,0
55357,341.89,725,785,0
55367,342.18,725,786,0
55377,340.67,725,785,0
55387,337.73,725,786,0
55397,333.78,725,786,0
55407,329.30,725,786,0
55417,324.33,725,785,0
55427,319.21,725,786,0
55437,314.22,725,786,0
55447,309.70,725,786,0
55457,305.46,725,786,0
55468,301.72,725,786,0
55478,298.42,725,785,0
55488,295.55,725,786,0
55498,293.07,725,785,0
55508,291.08,725,786,0
55518,289.55,725,785,0
55528,288.75,725,787,0
55538,288.39,725,785,0
55548,288.62,725,786,0
55558,289.20,725,785,0
55568,290.09,725,786,0
55578,291.17,725,785,0
55588,292.45,725,787,0
55598,293.86,725,785,0
55608,295.74,725,786,0
55618,298.52,725,785,0
55628,303.16,725,786,0
55639,310.53,725,784,0
55649,321.81,725,786,0
55659,338.11,725,784,0
55669,360.66,725,786,0
55680,390.04,725,784,0
55689,426.07,725,786,0
55708,468.18,794,786,0
55711,514.15,794,787,0
55720,560.65,794,783,0
55730,605.11,794,787,0
55740,645.19,794,784,0
55750,679.38,794,787,0
55760,706.82,794,784,0
55770,727.02,794,786,0
55780,741.11,794,784,0
55790,750.98,794,787,0
55800,757.89,794,783,0
55810,760.88,794,786,0
55820,758.64,794,784,0
55830,750.31,794,787,0
55840,735.00,794,783,0
55851,712.29,794,786,0
55860,682.20,794,784,0
55870,644.81,794,786,0
55880,602.14,794,783,0
55890,556.58,794,786,0
55900,510.12,794,784,0
55910,464.61,794,786,0
55920,421.36,794,784,0
55930,381.52,794,786,0
55940,345.88,794,784,0
55950,315.27,794,786,0
55960,289.91,794,784,0
55970,270.09,794,786,0
55980,255.62,794,784,0
55990,246.52,794,787,0
56000,241.99,794,784,0
56010,241.69,794,787,0
56020,244.53,794,784,0
56030,249.98,794,787,0
56040,256.93,794,784,0
56050,264.92,794,786,0
56060,273.05,794,784,0
56070,281.09,794,787,0
56080,288.39,794,784,0
56090,295.17,794,786,0
56100,301.04,794,784,0
56110,306.25,794,786,0
56120,310.51,794,784,0
56130,314.04,794,786,0
56140,316.60,794,784,0
56151,318.56,794,786,0
56161,319.59,794,783,0
56171,320.14,794,786,0
56181,319.97,794,783,0
56192,319.59,794,786,0
56201,318.77,794,783,0
56211,317.90,794,786,0
56221,316.64,794,783,0
56231,315.46,794,786,0
56241,314.04,794,783,0
56251,312.57,794,786,0
56261,310.73,794,783,0
56271,308.92,794,786,0
56281,306.85,794,784,0
56291,304.92,794,786,0
56301,302.76,794,783,0
56311,300.77,794,786,0
56321,298.78,794,783,0
56331,297.05,794,786,0
56341,295.32,794,783,0
56351,294.02,794,786,0
56361,292.86,794,784,0
56371,292.43,794,786,0
56381,292.47,794,783,0
56391,293.70,794,786,0
56401,296.36,794,784,0
56411,301.35,794,786,0
56421,309.13,794,783,0
56431,320.88,794,786,0
56441,336.94,794,784,0
56460,358.09,752,783,0
56463,384.51,752,785,0
56472,416.07,752,787,0
56482,451.53,752,784,0
56492,489.69,752,786,0
56502,528.44,752,784,0
56512,566.15,752,787,0
56522,600.78,752,784,0
56532,630.46,752,786,0
56542,653.68,752,784,0
56552,669.89,752,787,0
56562,678.41,752,784,0
56572,679.57,752,786,0
56582,673.57,752,784,0
56592,661.44,752,787,0
56602,643.82,752,784,0
56612,622.11,752,786,0
56622,597.09,752,784,0
56632,570.10,752,787,0
56642,541.92,752,784,0
56652,513.48,752,786,0
56663,485.14,752,784,0
56673,457.71,752,787,0
56683,431.31,752,785,0
56693,406.70,752,786,0
56704,384.12,752,785,0
56713,364.07,752,787,0
56723,346.56,752,785,0
56733,331.99,752,786,0
56743,320.34,752,785,0
56753,311.84,752,787,0
56763,306.06,752,785,0
56773,303.00,752,786,0
56783,302.14,752,785,0
56793,303.38,752,787,0
56803,306.14,752,785,0
56813,310.13,752,786,0
56823,314.76,752,785,0
56833,319.93,752,787,0
56843,325.01,752,785,0
56853,329.81,752,786,0
56863,333.94,752,785,0
56873,337.47,752,787,0
56883,340.07,752,785,0
56893,341.85,752,786,0
56903,342.58,752,785,0
56913,342.45,752,787,0
56923,341.54,752,785,0
56933,340.09,752,786,0
56943,338.09,752,785,0
56953,335.92,752,787,0
56963,333.50,752,785,0
56973,331.17,752,787,0
56983,328.80,752,785,0
56993,326.59,752,787,0
57004,324.48,752,786,0
57014,322.58,752,786,0
57024,320.69,752,786,0
57034,318.94,752,787,0
57044,317.12,752,786,0
57054,315.54,752,786,0
57064,313.96,752,786,0
57074,312.52,752,786,0
57084,311.16,752,786,0
57094,310.26,752,787,0
57104,309.84,752,786,0
57114,310.36,752,786,0
57124,312.05,752,786,0
57134,315.42,752,787,0
57144,320.99,752,786,0
57154,329.52,752,786,0
57164,341.37,752,786,0
57175,357.11,752,786,0
57185,376.84,752,786,0
57204,400.29,744,786,0
57207,427.29,744,786,0
57217,456.64,744,785,0
57227,486.88,744,787,0
57237,516.40,744,784,0
57247,543.67,744,787,0
57257,567.21,744,784,0
57267,586.05,744,787,0
57277,598.85,744,785,0
57287,605.62,744,787,0
57297,606.21,744,784,0
57307,601.34,744,787,0
57317,591.38,744,784,0
57327,577.21,744,787,0
57337,559.53,744,784,0
57347,539.62,744,787,0
57357,518.00,744,785,0
57367,495.80,744,787,0
57377,473.23,744,785,0
57388,451.13,744,787,0
57398,429.67,744,784,0
57408,409.45,744,787,0
57418,390.59,744,784,0
57428,373.48,744,787,0
57438,358.12,744,784,0
57448,344.97,744,787,0
57458,333.88,744,784,0
57468,325.30,744,787,0
57478,318.83,744,784,0
57488,314.68,744,787,0
57498,312.33,744,784,0
57508,311.98,744,787,0
57518,313.10,744,784,0
57528,315.72,744,787,0
57538,319.15,744,784,0
57548,323.43,744,787,0
57559,327.89,744,784,0
57569,332.72,744,787,0
57579,337.35,744,784,0
57589,341.70,744,787,0
57600,345.39,744,784,0
57609,348.70,744,787,0
57619,351.19,744,784,0
57629,353.06,744,786,0
57639,353.99,744,784,0
57649,354.33,744,787,0
57659,353.98,744,784,0
57669,353.30,744,786,0
57679,352.14,744,784,0
57689,351.11,744,787,0
57699,349.79,744,784,0
57709,348.70,744,787,0
57719,347.37,744,784,0
57729,346.45,744,787,0
57739,345.41,744,784,0
57749,344.43,744,787,0
57759,343.10,744,784,0
57769,341.87,744,787,0
57779,340.37,744,784,0
57789,339.06,744,787,0
57799,337.45,744,784,0
57809,336.03,744,787,0
57819,334.61,744,784,0
57829,333.48,744,787,0
57839,332.48,744,784,0
57849,331.99,744,787,0
57859,331.82,744,784,0
57869,332.31,744,787,0
57879,333.24,744,784,0
57889,335.40,744,787,0
57900,338.84,744,784,0
57910,344.46,744,787,0
57920,352.33,744,784,0
57930,363.59,744,787,0
57950,378.46,745,786,0
57953,398.38,745,787,0
57962,422.91,745,786,0
57972,451.82,745,787,0
57982,483.97,745,786,0
57992,518.70,745,787,0
58002,553.97,745,786,0
58012,588.61,745,787,0
58022,620.14,745,786,0
58032,647.48,745,787,0
58042,669.41,745,786,0
58052,685.53,745,787,0
58062,695.14,745,786,0
58072,698.74,745,787,0
58082,696.16,745,786,0
58092,687.97,745,786,0
58102,674.82,745,786,0
58113,657.69,745,787,0
58123,637.25,745,786,0
58133,614.38,745,786,0
58143,589.54,745,786,0
58153,563.79,745,786,0
58163,537.97,745,786,0
58173,512.56,745,786,0
58183,488.05,745,786,0
58193,464.89,745,786,0
58203,443.75,745,786,0
58213,424.93,745,786,0
58223,408.53,745,787,0
58233,394.66,745,786,0
58243,383.28,745,786,0
58253,374.49,745,786,0
58263,368.17,745,787,0
58273,364.05,745,786,0
58284,361.85,745,787,0
58294,361.42,745,786,0
58304,362.45,745,787,0
58314,364.76,745,786,0
58324,368.05,745,787,0
58334,372.06,745,786,0
58344,376.46,745,787,0
58354,380.99,745,786,0
58364,385.45,745,787,0
58374,389.69,745,786,0
58384,393.47,745,787,0
