Time,PPG,IBI,GSR,GSR_Event
3920292,557.29,833,752,0
3920302,609.36,833,759,0
3920312,655.11,833,751,0
3920322,691.67,833,760,0
3920332,717.27,833,750,0
3920343,735.19,833,759,0
3920353,747.73,833,751,0
3920363,756.47,833,760,0
3920373,762.63,833,751,0
3920384,766.94,833,759,0
3920393,769.96,833,750,0
3920403,772.07,833,760,0
3920413,773.55,833,750,0
3920423,774.58,833,759,0
3920433,775.31,833,750,0
3920443,775.82,833,760,0
3920453,776.17,833,751,0
3920463,776.42,833,759,0
3920473,776.59,833,750,0
3920483,776.72,833,760,0
3920493,775.00,833,750,0
3920503,766.82,833,759,0
3920513,749.73,833,750,0
3920523,722.25,833,759,0
3920533,684.08,833,750,0
3920543,635.80,833,759,0
3920553,578.69,833,751,0
3920563,516.12,833,759,0
3920573,454.37,833,750,0
3920583,397.43,833,759,0
3920593,348.27,833,751,0
3920603,308.42,833,759,0
3920613,278.25,833,750,0
3920623,257.18,833,759,0
3920633,244.14,833,751,0
3920643,237.75,833,759,0
3920653,236.58,833,750,0
3920663,239.11,833,759,0
3920673,244.00,833,751,0
3920684,250.05,833,759,0
3920694,256.38,833,752,0
3920704,262.18,833,757,0
3920714,267.14,833,752,0
3920724,270.87,833,757,0
3920734,273.35,833,751,0
3920744,274.53,833,757,0
3920754,274.63,833,752,0
3920764,273.75,833,757,0
3920774,272.24,833,752,0
3920784,270.16,833,757,0
3920794,267.88,833,752,0
3920804,265.52,833,757,0
3920814,263.30,833,752,0
3920824,261.37,833,758,0
3920834,259.89,833,752,0
3920844,258.85,833,757,0
3920855,258.42,833,752,0
3920865,258.43,833,757,0
3920875,258.94,833,753,0
3920885,259.82,833,757,0
3920896,261.03,833,753,0
3920905,262.31,833,757,0
3920915,263.63,833,753,0
3920925,264.73,833,756,0
3920935,265.84,833,753,0
3920945,266.79,833,757,0
3920955,268.14,833,753,0
3920965,270.58,833,756,0
3920975,275.72,833,753,0
3920985,285.02,833,757,0
3920995,300.83,833,753,0
3921005,325.26,833,757,0
3921025,360.76,773,756,0
3921028,406.77,773,754,0
3921037,459.21,773,756,0
3921047,514.31,773,755,0
3921057,568.94,773,756,0
3921068,619.75,773,755,0
3921078,663.62,773,756,0
3921088,697.64,773,754,0
3921098,721.44,773,757,0
3921108,738.11,773,754,0
3921118,749.82,773,756,0
3921128,758.02,773,754,0
3921138,763.80,773,757,0
3921148,767.84,773,754,0
3921158,770.68,773,756,0
3921168,772.66,773,755,0
3921178,774.05,773,756,0
3921188,774.98,773,754,0
3921198,775.63,773,756,0
3921208,776.04,773,754,0
3921218,776.33,773,756,0
3921228,776.53,773,754,0
3921239,776.71,773,757,0
3921249,776.84,773,754,0
3921259,776.12,773,758,0
3921269,769.23,773,753,0
3921280,753.00,773,757,0
3921289,726.13,773,754,0
3921299,688.20,773,757,0
3921309,639.67,773,753,0
3921319,581.83,773,757,0
3921329,517.08,773,753,0
3921339,452.56,773,757,0
3921349,392.95,773,753,0
3921359,341.19,773,757,0
3921369,298.88,773,753,0
3921379,266.68,773,757,0
3921389,244.11,773,753,0
3921399,230.10,773,757,0
3921409,223.04,773,753,0
3921419,221.62,773,757,0
3921429,224.13,773,753,0
3921439,229.32,773,757,0
3921449,235.78,773,753,0
3921459,242.62,773,757,0
3921469,248.95,773,753,0
3921479,254.49,773,757,0
3921489,258.80,773,753,0
3921499,261.90,773,757,0
3921509,263.69,773,753,0
3921519,264.38,773,757,0
3921529,264.05,773,753,0
3921539,263.14,773,757,0
3921549,261.64,773,754,0
3921559,259.95,773,757,0
3921569,258.12,773,753,0
3921580,256.50,773,757,0
3921590,255.11,773,753,0
3921600,254.09,773,758,0
3921610,253.42,773,751,0
3921620,253.21,773,760,0
3921630,253.32,773,753,0
3921640,253.74,773,758,0
3921650,254.29,773,751,0
3921660,254.93,773,760,0
3921670,255.59,773,753,0
3921680,256.23,773,758,0
3921690,256.98,773,751,0
3921700,258.27,773,760,0
3921710,260.80,773,753,0
3921720,266.09,773,758,0
3921730,276.05,773,752,0
3921740,293.13,773,760,0
3921751,319.79,773,750,0
3921770,358.47,746,750,0
3921773,407.06,746,753,0
3921782,461.68,746,760,0
3921793,518.65,746,751,0
3921803,574.51,746,759,0
3921813,625.74,746,752,0
3921823,669.11,746,758,0
3921833,701.47,746,753,0
3921843,724.13,746,759,0
3921853,740.04,746,752,0
3921863,751.17,746,758,0
3921873,759.00,746,753,0
3921883,764.49,746,759,0
3921893,768.37,746,753,0
3921903,771.13,746,758,0
3921913,773.06,746,753,0
3921923,774.37,746,759,0
3921933,775.33,746,752,0
3921943,775.96,746,758,0
3921953,776.44,746,753,0
3921964,776.74,746,758,0
3921974,776.95,746,753,0
3921984,777.09,746,757,0
3921994,777.19,746,754,0
3922004,777.22,746,757,0
3922014,777.24,746,753,0
3922024,776.61,746,758,0
3922034,769.96,746,754,0
3922044,753.77,746,757,0
3922054,726.92,746,753,0
3922064,688.85,746,757,0
3922074,640.16,746,754,0
3922084,581.96,746,757,0
3922094,516.53,746,752,0
3922104,450.88,746,757,0
3922114,390.28,746,753,0
3922124,337.26,746,757,0
3922135,293.81,746,754,0
3922145,260.23,746,756,0
3922155,236.29,746,754,0
3922165,220.69,746,756,0
3922176,212.34,746,755,0
3922185,209.45,746,757,0
3922195,210.73,746,754,0
3922205,214.63,746,756,0
3922215,220.18,746,755,0
3922225,226.25,746,757,0
3922235,232.39,746,754,0
3922245,237.85,746,756,0
3922255,242.56,746,755,0
3922265,246.25,746,757,0
3922275,249.00,746,754,0
3922285,250.67,746,756,0
3922295,251.63,746,755,0
3922305,251.87,746,756,0
3922315,251.74,746,754,0
3922325,251.22,746,756,0
3922335,250.72,746,755,0
3922345,250.21,746,755,0
3922355,249.97,746,755,0
3922365,249.85,746,756,0
3922375,250.03,746,755,0
3922385,250.36,746,755,0
3922395,251.02,746,754,0
3922405,251.66,746,756,0
3922415,252.40,746,755,0
3922425,252.97,746,755,0
3922435,253.54,746,755,0
3922445,253.97,746,756,0
3922455,254.63,746,755,0
3922465,255.98,746,755,0
3922476,259.54,746,756,0
3922486,266.97,746,755,0
3922496,280.95,746,756,0
3922506,303.98,746,754,0
3922516,339.04,746,757,0
3922535,385.66,765,756,0
3922538,439.67,765,757,0
3922547,497.24,765,754,0
3922557,554.94,765,757,0
3922567,609.00,765,755,0
3922577,655.97,765,757,0
3922587,692.32,765,754,0
3922597,717.81,765,757,0
3922607,735.70,765,755,0
3922617,748.22,765,757,0
3922627,757.02,765,754,0
3922637,763.23,765,757,0
3922647,767.62,765,755,0
3922657,770.65,765,757,0
3922667,772.77,765,754,0
3922677,774.25,765,757,0
3922688,775.33,765,754,0
3922697,776.05,765,757,0
3922707,776.55,765,754,0
3922717,776.90,765,757,0
3922727,777.19,765,754,0
3922737,777.34,765,757,0
3922747,777.46,765,754,0
3922757,777.49,765,757,0
3922767,777.56,765,754,0
3922777,777.60,765,757,0
3922787,777.64,765,754,0
3922797,777.66,765,757,0
3922807,774.33,765,754,0
3922817,763.48,765,757,0
3922827,742.12,765,754,0
3922837,709.04,765,757,0
3922847,664.07,765,753,0
3922857,608.12,765,757,0
3922867,542.60,765,754,0
3922877,472.52,765,757,0
3922887,403.62,765,754,0
3922897,340.69,765,757,0
3922907,286.27,765,754,0
3922917,241.96,765,757,0
3922927,207.82,765,754,0
3922937,183.36,765,757,0
3922947,167.39,765,754,0
3922957,158.87,765,757,0
3922967,156.21,765,754,0
3922977,158.25,765,757,0
3922988,163.49,765,753,0
3922998,170.93,765,757,0
3923008,179.48,765,753,0
3923018,188.55,765,758,0
3923028,197.30,765,753,0
3923038,205.44,765,757,0
3923048,212.46,765,753,0
3923058,218.37,765,758,0
3923068,222.97,765,753,0
3923078,226.41,765,758,0
3923088,228.64,765,753,0
3923098,229.99,765,757,0
3923108,230.55,765,753,0
3923118,230.64,765,758,0
3923128,230.28,765,753,0
3923138,229.81,765,758,0
3923148,229.31,765,753,0
3923159,229.05,765,758,0
3923169,228.99,765,751,0
3923179,229.25,765,760,0
3923189,229.82,765,750,0
3923200,230.82,765,760,0
3923209,232.07,765,751,0
3923219,233.59,765,760,0
3923229,235.30,765,750,0
3923239,237.18,765,760,0
3923249,239.06,765,751,0
3923259,240.88,765,760,0
3923269,242.55,765,750,0
3923279,244.05,765,760,0
3923289,245.32,765,752,0
3923299,246.38,765,760,0
3923309,247.30,765,750,0
3923319,248.58,765,760,0
3923329,251.02,765,752,0
3923339,256.24,765,760,0
3923349,266.46,765,751,0
3923359,284.40,765,761,0
3923379,313.08,843,760,0
3923382,355.70,843,758,0
3923391,407.56,843,752,0
3923401,464.95,843,759,0
3923411,524.28,843,753,0
3923421,581.88,843,760,0
3923431,634.03,843,751,0
3923441,677.01,843,759,0
3923451,707.09,843,753,0
3923461,728.19,843,760,0
3923471,742.96,843,752,0
3923481,753.30,843,759,0
3923491,760.58,843,753,0
3923501,765.72,843,760,0
3923511,769.36,843,752,0
3923521,771.91,843,759,0
3923531,773.70,843,753,0
3923542,774.99,843,758,0
3923551,775.89,843,751,0
3923561,776.52,843,759,0
3923571,776.97,843,752,0
3923581,777.28,843,759,0
3923591,777.45,843,752,0
3923601,777.57,843,759,0
3923611,777.66,843,752,0
3923621,777.72,843,758,0
3923631,777.72,843,752,0
3923641,777.72,843,759,0
3923651,777.67,843,752,0
3923661,777.64,843,758,0
3923671,777.58,843,751,0
3923681,777.53,843,759,0
3923691,777.50,843,753,0
3923701,774.95,843,759,0
3923712,764.85,843,753,0
3923721,744.71,843,759,0
3923731,712.95,843,752,0
3923741,669.25,843,758,0
3923751,614.15,843,753,0
3923761,548.96,843,759,0
3923771,477.74,843,752,0
3923781,406.94,843,758,0
3923791,340.87,843,752,0
3923801,282.58,843,759,0
3923811,233.93,843,752,0
3923821,195.47,843,758,0
3923831,167.04,843,753,0
3923841,147.83,843,759,0
3923851,136.99,843,752,0
3923861,133.10,843,759,0
3923871,134.87,843,753,0
3923881,140.74,843,758,0
3923891,149.56,843,752,0
3923901,159.93,843,758,0
3923911,171.10,843,753,0
3923921,182.08,843,758,0
3923931,192.39,843,752,0
3923941,201.53,843,759,0
3923951,209.38,843,753,0
3923961,215.74,843,758,0
3923971,220.79,843,752,0
3923981,224.45,843,759,0
3923991,227.06,843,753,0
3924001,228.63,843,758,0
3924012,229.55,843,753,0
3924022,229.86,843,758,0
3924032,229.90,843,753,0
3924042,229.63,843,757,0
3924052,229.40,843,754,0
3924062,229.15,843,758,0
3924072,229.19,843,753,0
3924082,229.31,843,757,0
3924092,229.81,843,754,0
3924102,230.51,843,758,0
3924112,231.56,843,754,0
3924122,232.72,843,757,0
3924132,234.22,843,754,0
3924142,235.78,843,758,0
3924152,237.56,843,753,0
3924162,239.28,843,757,0
3924172,241.08,843,754,0
3924183,242.77,843,757,0
3924193,244.47,843,754,0
3924203,245.87,843,756,0
3924213,247.20,843,755,0
3924224,248.29,843,756,0
3924233,249.58,843,754,0
3924243,251.46,843,756,0
3924253,255.35,843,755,0
3924263,262.96,843,756,0
3924273,276.52,843,755,0
3924283,298.52,843,756,0
3924302,332.26,924,756,0
3924305,378.04,924,754,0
3924314,431.64,924,756,0
3924324,489.18,924,755,0
3924334,547.07,924,756,0
3924344,601.95,924,755,0
3924354,650.35,924,756,0
3924364,688.39,924,755,0
3924374,715.06,924,757,0
3924384,733.73,924,755,0
3924395,746.79,924,757,0
3924404,755.94,924,755,0
3924414,762.39,924,757,0
3924424,766.90,924,755,0
3924434,770.10,924,757,0
3924444,772.34,924,755,0
3924454,773.95,924,756,0
3924464,775.12,924,755,0
3924474,775.99,924,757,0
3924484,776.59,924,755,0
3924494,777.01,924,757,0
3924504,777.31,924,755,0
3924514,777.52,924,757,0
3924524,777.66,924,755,0
3924534,777.76,924,756,0
3924544,777.83,924,755,0
3924554,777.88,924,757,0
3924564,777.88,924,755,0
3924574,777.83,924,756,0
3924584,777.79,924,755,0
3924594,777.77,924,757,0
3924604,777.71,924,755,0
3924614,777.63,924,756,0
3924624,777.52,924,755,0
3924634,774.97,924,757,0
3924644,764.78,924,755,0
3924654,744.40,924,756,0
3924664,712.14,924,755,0
3924674,667.78,924,757,0
3924684,611.75,924,754,0
3924695,545.39,924,756,0
3924705,472.55,924,754,0
3924715,400.25,924,757,0
3924725,332.72,924,754,0
3924736,273.40,924,757,0
3924745,223.87,924,754,0
3924755,185.12,924,757,0
3924765,156.71,924,754,0
3924775,138.24,924,757,0
3924785,128.23,924,754,0
3924795,125.42,924,757,0
3924805,128.16,924,754,0
3924815,135.23,924,757,0
3924825,144.93,924,755,0
3924835,156.31,924,757,0
3924845,168.13,924,754,0
3924855,179.75,924,757,0
3924865,190.37,924,754,0
3924875,199.77,924,757,0
3924885,207.55,924,754,0
3924895,213.94,924,757,0
3924905,218.76,924,754,0
3924915,222.30,924,757,0
3924925,224.66,924,754,0
3924935,226.22,924,757,0
3924945,227.01,924,754,0
3924955,227.43,924,757,0
3924965,227.39,924,754,0
3924975,227.27,924,757,0
3924985,226.98,924,754,0
3924995,226.86,924,757,0
3925005,226.81,924,754,0
3925015,227.04,924,757,0
3925025,227.41,924,754,0
3925036,228.15,924,758,0
3925046,228.96,924,753,0
3925056,230.04,924,758,0
3925066,231.19,924,753,0
3925076,232.50,924,758,0
3925086,233.85,924,754,0
3925096,235.35,924,758,0
3925106,236.83,924,753,0
3925116,238.55,924,758,0
3925126,240.32,924,753,0
3925136,242.19,924,758,0
3925146,244.02,924,753,0
3925156,245.86,924,758,0
3925166,247.57,924,754,0
3925176,249.24,924,758,0
3925186,250.63,924,753,0
3925196,251.94,924,758,0
3925207,253.11,924,752,0
3925217,254.58,924,760,0
3925227,257.06,924,751,0
3925237,262.06,924,760,0
3925257,271.64,954,760,0
3925260,289.36,954,759,0
3925269,317.33,954,752,0
3925279,358.20,954,760,0
3925289,408.63,954,753,0
3925299,464.84,954,761,0
3925309,523.30,954,752,0
3925319,580.47,954,760,0
3925329,631.84,954,753,0
3925339,674.49,954,761,0
3925349,705.24,954,751,0
3925359,726.77,954,760,0
3925369,741.88,954,753,0
3925379,752.50,954,760,0
3925389,759.98,954,751,0
3925399,765.26,954,760,0
3925409,768.99,954,753,0
3925420,771.65,954,759,0
3925430,773.51,954,753,0
3925440,774.82,954,758,0
3925450,775.73,954,754,0
3925460,776.37,954,758,0
3925470,776.81,954,753,0
3925480,777.13,954,758,0
3925490,777.35,954,753,0
3925500,777.54,954,758,0
3925510,777.64,954,753,0
3925520,777.70,954,759,0
3925530,777.75,954,753,0
3925540,777.74,954,758,0
3925550,777.69,954,753,0
3925560,777.61,954,759,0
3925570,777.56,954,754,0
3925580,777.52,954,758,0
3925591,777.45,954,754,0
3925601,775.90,954,758,0
3925611,767.74,954,754,0
3925621,749.52,954,757,0
3925632,719.71,954,755,0
3925641,678.18,954,757,0
3925651,625.50,954,754,0
3925661,562.52,954,757,0
3925671,492.25,954,755,0
3925681,421.42,954,757,0
3925691,355.25,954,754,0
3925701,296.72,954,757,0
3925711,247.47,954,755,0
3925721,208.20,954,757,0
3925731,179.13,954,754,0
3925741,159.46,954,757,0
3925751,148.31,954,755,0
3925761,144.06,954,757,0
3925771,145.63,954,754,0
3925781,151.35,954,757,0
3925791,160.16,954,755,0
3925801,170.61,954,756,0
3925811,181.87,954,754,0
3925821,192.88,954,757,0
3925831,203.33,954,755,0
3925841,212.53,954,757,0
3925851,220.47,954,754,0
3925861,226.80,954,757,0
3925871,231.79,954,754,0
3925881,235.28,954,756,0
3925891,237.77,954,754,0
3925901,239.21,954,757,0
3925911,240.05,954,754,0
3925921,240.29,954,756,0
3925932,240.29,954,755,0
3925942,240.03,954,756,0
3925952,239.89,954,756,0
3925962,239.67,954,755,0
3925972,239.77,954,757,0
3925982,239.92,954,756,0
3925992,240.42,954,756,0
3926002,241.02,954,755,0
3926012,241.96,954,757,0
3926022,242.91,954,756,0
3926032,244.18,954,756,0
3926042,245.46,954,755,0
3926052,246.99,954,757,0
3926062,248.41,954,756,0
3926072,250.00,954,756,0
3926082,251.50,954,755,0
3926092,253.19,954,757,0
3926103,254.76,954,755,0
3926113,256.42,954,757,0
3926123,257.92,954,754,0
3926133,259.49,954,757,0
3926144,260.84,954,755,0
3926153,262.18,954,757,0
3926163,263.24,954,755,0
3926173,264.19,954,757,0
3926183,264.82,954,754,0
3926193,265.43,954,757,0
3926203,266.12,954,755,0
3926222,267.71,966,754,0
3926225,271.83,966,753,0
3926234,280.06,966,757,0
3926244,294.74,966,754,0
3926254,318.65,966,758,0
3926264,353.94,966,754,0
3926274,400.24,966,758,0
3926284,453.44,966,754,0
3926294,509.50,966,758,0
3926304,565.28,966,754,0
3926315,617.26,966,758,0
3926324,661.97,966,755,0
3926334,696.48,966,758,0
3926344,720.64,966,754,0
3926354,737.54,966,758,0
3926364,749.38,966,754,0
3926374,757.67,966,758,0
3926384,763.47,966,754,0
3926394,767.53,966,758,0
3926404,770.37,966,755,0
3926414,772.36,966,758,0
3926424,773.75,966,754,0
3926434,774.73,966,758,0
3926444,775.41,966,755,0
3926454,775.89,966,758,0
3926464,776.22,966,754,0
3926474,776.45,966,758,0
3926484,776.62,966,754,0
3926494,776.73,966,758,0
3926504,776.81,966,754,0
3926514,776.87,966,758,0
3926524,776.91,966,754,0
3926534,776.94,966,758,0
3926544,774.13,966,754,0
3926554,764.06,966,758,0
3926564,744.03,966,754,0
3926574,713.42,966,758,0
3926584,672.02,966,754,0
3926594,620.63,966,758,0
3926604,560.40,966,754,0
3926615,495.74,966,758,0
3926625,432.64,966,754,0
3926635,375.45,966,759,0
3926645,326.12,966,752,0
3926656,286.05,966,760,0
3926665,255.35,966,754,0
3926675,233.69,966,758,0
3926685,219.90,966,752,0
3926695,212.77,966,760,0
3926705,210.74,966,754,0
3926715,212.62,966,758,0
3926725,217.10,966,753,0
3926735,223.20,966,760,0
3926745,229.91,966,754,0
3926755,236.71,966,758,0
3926765,242.97,966,753,0
3926775,248.51,966,760,0
3926785,252.98,966,754,0
3926795,256.46,966,758,0
3926805,258.89,966,752,0
3926815,260.38,966,760,0
3926825,261.00,966,751,0
3926835,261.04,966,759,0
3926845,260.60,966,753,0
3926855,259.91,966,760,0
3926865,259.08,966,751,0
3926875,258.37,966,759,0
3926885,257.83,966,753,0
3926895,257.62,966,760,0
3926905,257.65,966,751,0
3926915,258.06,966,758,0
3926925,258.72,966,753,0
3926935,259.62,966,760,0
3926945,260.68,966,752,0
3926956,261.93,966,761,0
3926966,263.24,966,751,0
3926976,264.62,966,760,0
3926986,265.98,966,751,0
3926996,267.36,966,761,0
3927006,268.66,966,751,0
3927016,269.88,966,760,0
3927026,271.03,966,751,0
3927036,272.14,966,761,0
3927046,273.21,966,751,0
3927056,274.22,966,760,0
3927066,275.18,966,751,0
3927076,276.11,966,760,0
3927086,276.98,966,751,0
3927096,277.71,966,760,0
3927106,278.31,966,751,0
3927116,278.86,966,761,0
3927136,279.68,914,760,0
3927139,281.53,914,758,0
3927148,285.66,914,753,0
3927158,293.95,914,759,0
3927169,308.88,914,754,0
3927179,332.83,914,758,0
3927189,367.98,914,754,0
3927199,413.50,914,758,0
3927209,465.38,914,755,0
3927219,520.16,914,758,0
3927229,574.42,914,754,0
3927239,624.56,914,758,0
3927249,667.47,914,755,0
3927259,700.33,914,758,0
3927269,723.33,914,755,0
3927279,739.43,914,758,0
3927289,750.70,914,755,0
3927299,758.59,914,758,0
3927309,764.11,914,754,0
3927319,767.98,914,758,0
3927329,770.69,914,755,0
3927340,772.58,914,757,0
3927350,773.91,914,755,0
3927360,774.83,914,757,0
3927370,775.48,914,756,0
3927380,775.94,914,756,0
3927390,776.26,914,755,0
3927400,776.48,914,756,0
3927410,776.64,914,756,0
3927420,776.75,914,756,0
3927430,776.82,914,755,0
3927440,776.88,914,757,0
3927450,774.51,914,756,0
3927460,765.14,914,756,0
3927470,746.63,914,755,0
3927480,717.56,914,756,0
3927490,677.83,914,756,0
3927500,628.04,914,756,0
3927511,569.53,914,756,0
3927521,506.15,914,755,0
3927531,444.35,914,757,0
3927541,387.80,914,755,0
3927552,339.52,914,757,0
3927561,300.75,914,755,0
3927571,271.98,914,757,0
3927581,252.44,914,755,0
3927591,241.21,914,757,0
3927601,236.56,914,755,0
3927611,237.12,914,757,0
3927621,241.20,914,755,0
3927631,247.53,914,757,0
3927641,254.74,914,755,0
3927651,262.15,914,757,0
3927661,268.83,914,755,0
3927671,274.58,914,757,0
3927681,278.91,914,755,0
3927691,281.85,914,757,0
3927701,283.27,914,755,0
3927711,283.49,914,757,0
3927721,282.48,914,755,0
3927731,280.75,914,757,0
3927741,278.34,914,755,0
3927751,275.75,914,757,0
3927761,273.04,914,755,0
3927771,270.67,914,757,0
3927781,268.63,914,755,0
3927791,267.24,914,757,0
3927801,266.31,914,755,0
3927811,266.13,914,757,0
3927821,266.43,914,755,0
3927831,267.33,914,757,0
3927841,268.56,914,755,0
3927852,270.19,914,757,0
3927862,271.94,914,755,0
3927872,273.97,914,757,0
3927882,275.99,914,754,0
3927892,278.14,914,758,0
3927902,280.15,914,755,0
3927912,282.16,914,757,0
3927922,283.96,914,754,0
3927932,285.68,914,758,0
3927942,287.15,914,755,0
3927952,288.39,914,758,0
3927962,289.26,914,754,0
3927972,289.87,914,758,0
3927982,290.08,914,754,0
3927992,290.10,914,757,0
3928002,289.98,914,755,0
3928012,290.37,914,758,0
3928023,292.28,914,754,0
3928033,297.55,914,758,0
3928043,308.49,914,754,0
3928062,327.63,926,753,0
3928066,358.34,926,753,0
3928075,400.71,926,760,0
3928085,450.68,926,752,0
3928095,504.82,926,761,0
3928105,559.65,926,752,0
3928115,611.69,926,761,0
3928125,657.64,926,752,0
3928135,693.45,926,761,0
3928145,718.52,926,752,0
3928155,736.06,926,761,0
3928165,748.34,926,752,0
3928175,756.94,926,761,0
3928185,762.96,926,752,0
3928195,767.17,926,761,0
3928205,770.12,926,752,0
3928215,772.18,926,761,0
3928225,773.63,926,752,0
3928236,774.64,926,760,0
3928246,775.35,926,752,0
3928256,775.84,926,760,0
3928266,776.19,926,753,0
3928276,776.43,926,759,0
3928286,776.60,926,752,0
3928296,776.72,926,760,0
3928306,776.81,926,753,0
3928316,776.86,926,759,0
3928326,776.90,926,752,0
3928336,776.93,926,760,0
3928346,773.82,926,753,0
3928356,763.21,926,759,0
3928366,743.04,926,752,0
3928376,712.13,926,760,0
3928386,670.43,926,753,0
3928396,618.66,926,759,0
3928407,558.12,926,754,0
3928417,493.41,926,758,0
3928427,430.67,926,754,0
3928437,373.47,926,758,0
3928448,324.47,926,754,0
3928457,284.82,926,758,0
3928467,254.87,926,754,0
3928477,233.95,926,758,0
3928487,221.20,926,754,0
3928497,215.01,926,759,0
3928507,214.06,926,754,0
3928517,216.83,926,758,0
3928527,222.28,926,754,0
3928537,229.10,926,759,0
3928547,236.57,926,754,0
3928557,243.85,926,758,0
3928567,250.67,926,754,0
3928577,256.60,926,759,0
3928587,261.60,926,754,0
3928597,265.41,926,758,0
3928607,268.24,926,754,0
3928617,270.01,926,758,0
3928627,270.99,926,754,0
3928637,271.17,926,758,0
3928647,270.82,926,754,0
3928657,270.02,926,758,0
3928667,269.07,926,754,0
3928677,267.89,926,758,0
3928687,266.85,926,754,0
3928697,265.91,926,758,0
3928707,265.34,926,754,0
3928717,264.98,926,758,0
3928727,264.99,926,754,0
3928737,265.20,926,758,0
3928748,265.87,926,755,0
3928758,266.68,926,758,0
3928768,267.72,926,755,0
3928778,268.79,926,757,0
3928788,270.05,926,756,0
3928798,271.28,926,758,0
3928808,272.61,926,755,0
3928818,273.84,926,757,0
3928828,275.17,926,756,0
3928838,276.41,926,758,0
3928848,277.66,926,755,0
3928858,278.75,926,757,0
3928868,279.89,926,756,0
3928878,280.91,926,758,0
3928888,281.92,926,755,0
3928898,282.72,926,757,0
3928908,283.53,926,756,0
3928919,284.23,926,757,0
3928929,285.10,926,756,0
3928948,286.36,886,756,0
3928951,289.51,886,758,0
3928961,295.96,886,755,0
3928971,308.35,886,758,0
3928981,329.16,886,755,0
3928991,361.09,886,759,0
3929001,404.17,886,755,0
3929011,454.74,886,758,0
3929021,508.94,886,755,0
3929031,563.65,886,759,0
3929041,615.14,886,755,0
3929051,660.01,886,758,0
3929061,695.06,886,755,0
3929071,719.65,886,758,0
3929081,736.85,886,754,0
3929091,748.90,886,758,0
3929101,757.33,886,755,0
3929111,763.23,886,759,0
3929121,767.36,886,755,0
3929132,770.25,886,759,0
3929142,772.28,886,755,0
3929152,773.69,886,759,0
3929162,774.69,886,754,0
3929172,775.38,886,760,0
3929182,775.87,886,754,0
3929192,776.21,886,759,0
3929202,776.44,886,754,0
3929212,776.61,886,760,0
3929222,776.73,886,754,0
3929232,776.81,886,759,0
3929242,776.87,886,754,0
3929252,776.91,886,760,0
3929262,776.93,886,754,0
3929272,776.95,886,759,0
3929282,776.97,886,754,0
3929292,776.98,886,760,0
3929303,773.90,886,752,0
3929313,763.43,886,761,0
3929323,743.07,886,752,0
3929333,711.85,886,761,0
3929344,669.72,886,752,0
3929353,617.69,886,761,0
3929363,556.84,886,751,0
3929373,491.66,886,761,0
3929383,427.99,886,752,0
3929393,369.84,886,761,0
3929403,319.49,886,751,0
3929413,278.20,886,760,0
3929423,246.00,886,752,0
3929433,222.51,886,760,0
3929443,206.93,886,751,0
3929453,198.21,886,761,0
3929463,195.15,886,751,0
3929473,196.52,886,761,0
3929483,201.12,886,751,0
3929493,207.85,886,760,0
3929503,215.91,886,752,0
3929513,224.51,886,760,0
3929523,232.93,886,752,0
3929533,240.66,886,761,0
3929543,247.49,886,752,0
3929553,253.26,886,761,0
3929563,257.85,886,752,0
3929573,261.28,886,761,0
3929583,263.64,886,751,0
3929593,265.08,886,761,0
3929603,265.78,886,752,0
3929613,265.89,886,761,0
3929623,265.54,886,752,0
3929633,264.99,886,760,0
3929644,264.35,886,752,0
3929654,263.73,886,761,0
3929664,263.25,886,752,0
3929674,262.96,886,760,0
3929684,262.97,886,753,0
3929694,263.28,886,761,0
3929704,263.84,886,752,0
3929714,264.57,886,760,0
3929724,265.56,886,753,0
3929734,266.68,886,761,0
3929744,267.89,886,752,0
3929754,269.08,886,760,0
3929764,270.26,886,753,0
3929774,271.34,886,761,0
3929784,272.39,886,752,0
3929794,273.30,886,760,0
3929804,274.16,886,753,0
3929815,274.84,886,759,0
3929825,275.40,886,753,0
3929835,275.79,886,759,0
3929845,276.16,886,754,0
3929856,276.41,886,759,0
3929865,276.67,886,754,0
3929875,276.81,886,759,0
3929885,277.08,886,754,0
3929895,277.32,886,759,0
3929905,277.74,886,753,0
3929924,278.20,976,753,0
3929927,278.95,976,757,0
3929936,279.95,976,758,0
3929946,281.68,976,754,0
3929956,284.69,976,758,0
3929966,290.74,976,755,0
3929976,302.00,976,758,0
3929986,320.86,976,754,0
3929996,349.87,976,759,0
3930006,391.01,976,755,0
3930016,440.21,976,758,0
3930027,494.10,976,756,0
3930036,549.27,976,758,0
3930046,602.08,976,755,0
3930056,649.28,976,758,0
3930066,687.51,976,756,0
3930076,714.32,976,758,0
3930086,733.08,976,755,0
3930096,746.25,976,758,0
3930106,755.48,976,755,0
3930116,761.93,976,758,0
3930126,766.45,976,755,0
3930136,769.62,976,758,0
3930146,771.83,976,755,0
3930156,773.38,976,758,0
3930166,774.47,976,755,0
3930176,775.23,976,758,0
3930186,775.76,976,755,0
3930196,776.13,976,757,0
3930206,776.39,976,755,0
3930216,776.57,976,758,0
3930226,776.70,976,755,0
3930236,776.79,976,757,0
3930246,776.85,976,755,0
3930256,776.90,976,758,0
3930266,776.93,976,755,0
3930276,776.95,976,757,0
3930286,776.96,976,755,0
3930296,776.98,976,758,0
3930306,776.98,976,756,0
3930316,772.32,976,757,0
3930327,759.45,976,756,0
3930337,736.30,976,757,0
3930347,702.31,976,756,0
3930357,657.73,976,756,0
3930368,603.60,976,757,0
3930377,541.28,976,757,0
3930387,476.99,976,756,0
3930397,415.62,976,756,0
3930407,360.79,976,757,0
3930417,314.23,976,757,0
3930427,276.83,976,757,0
3930437,248.42,976,756,0
3930447,228.45,976,757,0
3930457,215.76,976,757,0
3930467,209.45,976,756,0
3930477,208.07,976,756,0
3930487,210.62,976,757,0
3930497,215.75,976,757,0
3930507,222.68,976,756,0
3930517,230.36,976,756,0
3930527,238.31,976,757,0
3930537,245.76,976,755,0
3930547,252.56,976,757,0
3930557,258.22,976,756,0
3930567,262.91,976,757,0
3930577,266.37,976,755,0
3930587,268.87,976,756,0
3930597,270.32,976,756,0
3930607,271.17,976,757,0
3930617,271.29,976,755,0
3930627,271.16,976,757,0
3930637,270.73,976,756,0
3930647,270.34,976,757,0
3930657,269.94,976,755,0
3930668,269.83,976,757,0
3930678,269.75,976,755,0
3930688,270.00,976,757,0
3930698,270.43,976,755,0
3930708,271.20,976,758,0
3930718,272.08,976,755,0
3930728,273.17,976,757,0
3930738,274.28,976,755,0
3930748,275.61,976,758,0
3930758,276.93,976,756,0
3930768,278.28,976,758,0
3930778,279.48,976,755,0
3930788,280.75,976,758,0
3930798,281.85,976,755,0
3930808,282.97,976,757,0
3930818,283.92,976,755,0
3930828,284.89,976,758,0
3930839,285.74,976,755,0
3930849,286.59,976,758,0
3930859,287.18,976,755,0
3930869,287.73,976,759,0
3930880,288.07,976,754,0
3930889,288.43,976,758,0
3930899,288.86,976,755,0
3930909,289.93,976,759,0
3930929,292.57,1004,758,0
3930932,299.25,1004,761,0
3930942,312.25,1004,752,0
3930952,333.99,1004,761,0
3930962,366.48,1004,752,0
3930972,409.88,1004,761,0
3930982,460.40,1004,752,0
3930992,514.75,1004,761,0
3931002,568.91,1004,753,0
3931012,619.42,1004,761,0
3931022,663.10,1004,752,0
3931032,697.22,1004,761,0
3931042,721.16,1004,752,0
3931052,737.91,1004,761,0
3931062,749.64,1004,752,0
3931072,757.85,1004,761,0
3931082,763.59,1004,752,0
3931092,767.61,1004,761,0
3931102,770.43,1004,752,0
3931112,772.40,1004,761,0
3931122,773.78,1004,752,0
3931132,774.75,1004,760,0
3931142,775.42,1004,752,0
3931152,775.90,1004,762,0
3931162,776.23,1004,752,0
3931172,776.46,1004,761,0
3931182,776.62,1004,752,0
3931192,776.73,1004,761,0
3931202,776.81,1004,752,0
3931212,773.31,1004,761,0
3931223,762.38,1004,753,0
3931233,741.65,1004,760,0
3931243,710.34,1004,754,0
3931253,668.50,1004,759,0
3931264,617.13,1004,754,0
3931273,557.65,1004,760,0
3931283,495.18,1004,754,0
3931293,435.17,1004,759,0
3931303,381.68,1004,754,0
3931313,336.82,1004,760,0
3931323,301.73,1004,753,0
3931333,276.22,1004,759,0
3931343,259.66,1004,754,0
3931353,250.72,1004,760,0
3931363,248.06,1004,753,0
3931373,249.93,1004,759,0
3931383,254.96,1004,754,0
3931393,261.70,1004,760,0
3931403,269.21,1004,753,0
3931413,276.39,1004,759,0
3931423,282.83,1004,754,0
3931433,288.02,1004,759,0
3931443,291.96,1004,754,0
3931453,294.46,1004,759,0
3931463,295.78,1004,754,0
3931473,295.89,1004,759,0
3931483,295.19,1004,753,0
3931493,293.76,1004,759,0
3931503,291.99,1004,754,0
3931513,289.89,1004,759,0
3931523,287.78,1004,753,0
3931533,285.71,1004,759,0
3931543,283.91,1004,754,0
3931553,282.35,1004,759,0
3931564,281.26,1004,754,0
3931574,280.45,1004,759,0
3931584,280.10,1004,755,0
3931594,280.07,1004,758,0
3931604,280.48,1004,755,0
3931614,281.11,1004,759,0
3931624,282.06,1004,755,0
3931634,283.07,1004,758,0
3931644,284.34,1004,755,0
3931654,285.61,1004,759,0
3931664,287.01,1004,755,0
3931674,288.34,1004,758,0
3931684,289.78,1004,755,0
3931694,291.09,1004,758,0
3931704,292.48,1004,755,0
3931714,293.70,1004,758,0
3931724,294.95,1004,755,0
3931735,296.04,1004,758,0
3931745,297.10,1004,756,0
3931755,297.93,1004,757,0
3931765,298.68,1004,756,0
3931776,299.16,1004,756,0
3931785,299.63,1004,756,0
3931795,300.04,1004,757,0
3931805,301.10,1004,757,0
3931815,303.68,1004,757,0
3931825,309.56,1004,756,0
3931844,320.92,916,756,0
3931847,341.47,916,758,0
3931856,372.62,916,756,0
3931866,414.73,916,757,0
3931876,463.88,916,756,0
3931886,516.80,916,758,0
3931896,570.22,916,756,0
3931906,620.77,916,757,0
3931916,664.04,916,756,0
3931926,697.93,916,758,0
3931936,721.65,916,756,0
3931947,738.25,916,758,0
3931956,749.88,916,756,0
3931966,758.01,916,758,0
3931976,763.71,916,756,0
3931986,767.70,916,758,0
3931996,770.49,916,756,0
3932006,772.44,916,758,0
3932016,773.81,916,756,0
3932026,774.77,916,758,0
3932036,775.44,916,756,0
3932046,775.91,916,758,0
3932056,776.23,916,756,0
3932066,776.46,916,758,0
3932076,776.62,916,756,0
3932086,776.74,916,758,0
3932096,776.82,916,756,0
3932106,776.87,916,758,0
3932116,775.24,916,756,0
3932126,768.01,916,758,0
3932136,752.11,916,755,0
3932146,726.19,916,758,0
3932156,689.92,916,755,0
3932166,644.21,916,758,0
3932176,589.94,916,756,0
3932186,530.25,916,757,0
3932196,470.52,916,756,0
3932206,415.46,916,757,0
3932216,367.67,916,756,0
3932226,328.77,916,758,0
3932236,298.71,916,755,0
3932247,277.54,916,758,0
3932257,264.13,916,755,0
3932267,257.45,916,758,0
3932277,255.86,916,755,0
3932288,258.22,916,759,0
3932297,262.99,916,755,0
3932307,269.25,916,758,0
3932317,275.82,916,755,0
3932327,282.26,916,758,0
3932337,287.88,916,755,0
3932347,292.55,916,758,0
3932357,295.90,916,754,0
3932367,298.16,916,758,0
3932377,299.22,916,755,0
3932387,299.41,916,758,0
3932397,298.65,916,755,0
3932407,297.30,916,758,0
3932417,295.41,916,755,0
3932427,293.40,916,758,0
3932437,291.27,916,755,0
3932447,289.30,916,759,0
3932457,287.45,916,755,0
3932467,286.03,916,758,0
3932477,284.91,916,755,0
3932487,284.29,916,758,0
3932497,284.03,916,755,0
3932507,284.28,916,758,0
3932517,284.80,916,754,0
3932527,285.76,916,759,0
3932537,286.90,916,755,0
3932547,288.39,916,758,0
3932557,289.99,916,754,0
3932567,291.75,916,759,0
3932577,293.41,916,755,0
3932588,295.17,916,759,0
3932598,296.75,916,754,0
3932608,298.20,916,759,0
3932618,299.29,916,754,0
3932628,300.15,916,760,0
3932638,300.70,916,754,0
3932648,301.22,916,759,0
3932658,301.84,916,754,0
3932668,303.47,916,761,0
3932678,307.32,916,754,0
3932688,315.67,916,759,0
3932698,330.89,916,754,0
3932718,355.61,873,752,0
3932721,392.89,873,752,0
3932730,438.99,873,761,0
3932740,490.38,873,752,0
3932750,543.97,873,761,0
3932760,596.22,873,752,0
3932770,643.81,873,761,0
3932780,683.47,873,752,0
3932790,711.53,873,761,0
3932801,731.17,873,753,0
3932811,744.92,873,761,0
3932821,754.54,873,753,0
3932831,761.28,873,760,0
3932841,766.00,873,754,0
3932851,769.30,873,761,0
3932861,771.61,873,754,0
3932871,773.23,873,760,0
3932881,774.36,873,754,0
3932891,775.15,873,761,0
3932901,775.71,873,754,0
3932911,776.09,873,760,0
3932921,776.37,873,754,0
3932931,776.56,873,761,0
3932941,776.69,873,753,0
3932951,776.78,873,760,0
3932961,776.85,873,754,0
3932972,776.89,873,759,0
3932982,776.93,873,755,0
3932992,776.95,873,759,0
3933002,774.05,873,755,0
3933012,763.83,873,758,0
3933022,744.34,873,754,0
3933032,714.28,873,759,0
3933042,673.70,873,755,0
3933052,623.17,873,758,0
3933062,564.19,873,754,0
3933072,501.01,873,759,0
3933082,439.68,873,755,0
3933092,383.59,873,758,0
3933102,335.45,873,754,0
3933112,296.32,873,759,0
3933122,266.61,873,755,0
3933132,245.47,873,758,0
3933143,232.21,873,755,0
3933153,225.34,873,758,0
3933163,223.78,873,756,0
3933173,225.94,873,757,0
3933184,230.89,873,756,0
3933193,237.35,873,758,0
3933203,244.66,873,756,0
3933213,251.88,873,757,0
3933223,258.77,873,756,0
3933233,264.71,873,758,0
3933243,269.81,873,756,0
3933253,273.68,873,757,0
3933263,276.61,873,757,0
3933273,278.35,873,758,0
3933283,279.32,873,756,0
3933293,279.39,873,758,0
3933303,279.02,873,757,0
3933313,278.11,873,758,0
3933323,277.14,873,755,0
3933333,275.94,873,757,0
3933343,275.01,873,756,0
3933353,274.15,873,757,0
3933363,273.68,873,756,0
3933373,273.35,873,757,0
3933383,273.41,873,756,0
3933393,273.55,873,757,0
3933403,274.03,873,756,0
3933413,274.53,873,757,0
3933423,275.32,873,757,0
3933433,276.16,873,757,0
3933443,277.27,873,756,0
3933453,278.39,873,757,0
3933463,279.73,873,756,0
3933473,281.05,873,757,0
3933484,282.54,873,757,0
3933494,283.92,873,756,0
3933504,285.36,873,758,0
3933514,286.58,873,756,0
3933524,287.82,873,758,0
3933534,288.82,873,756,0
3933544,289.77,873,758,0
3933554,290.53,873,756,0
3933564,291.48,873,758,0
3933574,292.92,873,756,0
3933584,296.16,873,758,0
3933603,302.76,886,757,0
3933606,316.24,886,759,0
3933615,337.98,886,755,0
3933625,370.82,886,758,0
3933635,414.24,886,756,0
3933645,464.61,886,758,0
3933655,518.47,886,756,0
3933665,572.54,886,758,0
3933675,622.35,886,756,0
3933685,665.62,886,759,0
3933696,699.03,886,755,0
3933705,722.47,886,758,0
3933715,738.87,886,756,0
3933725,750.39,886,759,0
3933735,758.46,886,755,0
3933745,764.15,886,758,0
3933755,768.13,886,756,0
3933765,770.92,886,758,0
3933775,772.83,886,755,0
3933785,774.17,886,758,0
3933795,775.06,886,756,0
3933805,775.69,886,759,0
3933815,776.08,886,756,0
3933825,776.40,886,758,0
3933835,776.62,886,756,0
3933845,776.82,886,758,0
3933855,776.96,886,755,0
3933865,777.06,886,759,0
3933875,777.13,886,756,0
3933885,777.17,886,759,0
3933895,777.16,886,755,0
3933905,777.16,886,759,0
3933915,777.11,886,756,0
3933925,777.08,886,758,0
3933935,777.05,886,756,0
3933945,772.07,886,758,0
3933955,758.93,886,756,0
3933965,735.60,886,758,0
3933975,701.13,886,755,0
3933985,655.88,886,758,0
3933996,600.63,886,755,0
3934006,536.80,886,759,0
3934016,470.82,886,754,0
3934026,407.53,886,758,0
3934036,350.46,886,754,0
3934046,301.93,886,758,0
3934056,262.70,886,755,0
3934066,233.04,886,759,0
3934076,212.25,886,755,0
3934086,199.40,886,759,0
3934096,193.11,886,755,0
3934106,192.18,886,759,0
3934116,195.25,886,755,0
3934126,201.30,886,759,0
3934136,209.06,886,754,0
3934146,217.74,886,759,0
3934156,226.56,886,755,0
3934167,235.05,886,760,0
3934177,242.71,886,753,0
3934187,249.35,886,761,0
3934197,254.73,886,752,0
3934208,258.93,886,761,0
3934217,261.95,886,753,0
3934227,263.98,886,761,0
3934237,265.14,886,752,0
3934247,265.66,886,761,0
3934257,265.63,886,753,0
3934267,265.31,886,760,0
3934277,264.83,886,752,0
3934287,264.28,886,762,0
3934297,263.68,886,753,0
3934307,263.22,886,761,0
3934317,262.94,886,752,0
3934327,262.87,886,761,0
3934337,263.00,886,753,0
3934347,263.34,886,761,0
3934357,263.88,886,752,0
3934367,264.56,886,762,0
3934377,265.29,886,752,0
3934387,266.06,886,761,0
3934397,266.81,886,752,0
3934407,267.51,886,761,0
3934417,268.09,886,752,0
3934427,268.58,886,761,0
3934437,269.05,886,752,0
3934447,269.55,886,761,0
3934457,270.03,886,753,0
3934467,270.53,886,761,0
3934477,271.06,886,752,0
3934487,271.68,886,762,0
3934497,272.38,886,752,0
3934508,273.21,886,761,0
3934518,274.35,886,752,0
3934528,276.30,886,761,0
3934538,280.24,886,752,0
3934558,288.05,954,752,0
3934561,303.08,954,755,0
3934570,327.31,954,759,0
3934580,363.13,954,755,0
3934590,409.25,954,759,0
3934600,461.98,954,755,0
3934610,517.87,954,759,0
3934620,573.49,954,755,0
3934630,624.30,954,759,0
3934640,667.58,954,754,0
3934650,700.37,954,759,0
3934660,723.31,954,755,0
3934670,739.38,954,759,0
3934680,750.62,954,754,0
3934690,758.49,954,759,0
3934700,764.04,954,755,0
3934710,767.93,954,759,0
3934721,770.65,954,755,0
3934731,772.56,954,759,0
3934741,773.89,954,756,0
3934751,774.82,954,758,0
3934761,775.48,954,757,0
3934771,775.98,954,759,0
3934781,776.37,954,756,0
3934791,776.64,954,758,0
3934801,776.84,954,756,0
3934811,776.97,954,758,0
3934821,777.07,954,756,0
3934831,777.13,954,758,0
3934841,777.14,954,757,0
3934851,777.09,954,758,0
3934861,777.07,954,756,0
3934871,777.05,954,758,0
3934881,775.88,954,757,0
3934892,768.41,954,757,0
3934902,751.75,954,757,0
3934912,724.27,954,756,0
3934922,685.83,954,758,0
3934932,636.89,954,756,0
3934942,578.94,954,757,0
3934952,514.29,954,756,0
3934962,449.70,954,757,0
3934972,389.49,954,756,0
3934982,336.84,954,757,0
3934992,293.00,954,756,0
3935002,258.67,954,758,0
3935012,233.14,954,756,0
3935022,216.00,954,756,0
3935032,205.93,954,756,0
3935042,201.92,954,757,0
3935052,202.42,954,756,0
3935063,206.45,954,758,0
3935073,212.70,954,756,0
3935083,220.38,954,758,0
3935093,228.45,954,756,0
3935104,236.46,954,758,0
3935113,243.73,954,756,0
3935123,250.16,954,758,0
3935133,255.30,954,756,0
3935143,259.32,954,758,0
3935153,262.05,954,756,0
3935163,263.79,954,758,0
3935173,264.58,954,755,0
3935183,264.84,954,759,0
3935193,264.54,954,756,0
3935203,264.12,954,758,0
3935213,263.49,954,756,0
3935223,263.00,954,758,0
3935233,262.57,954,756,0
3935243,262.40,954,758,0
3935253,262.36,954,756,0
3935263,262.68,954,758,0
3935273,263.12,954,755,0
3935283,263.90,954,758,0
3935293,264.74,954,756,0
3935303,265.81,954,758,0
3935313,266.94,954,755,0
3935323,268.20,954,758,0
3935333,269.42,954,755,0
3935343,270.84,954,759,0
3935353,272.22,954,755,0
3935363,273.74,954,758,0
3935373,275.19,954,755,0
3935383,276.72,954,758,0
3935393,278.09,954,755,0
3935404,279.43,954,758,0
3935414,280.50,954,755,0
3935424,281.42,954,759,0
3935434,282.11,954,754,0
3935444,282.76,954,759,0
3935454,283.35,954,755,0
3935464,284.57,954,759,0
3935474,287.36,954,755,0
3935494,293.59,936,754,0
3935497,306.32,936,752,0
3935506,327.48,936,762,0
3935516,359.26,936,753,0
3935526,402.43,936,761,0
3935536,453.00,936,753,0
3935546,507.56,936,762,0
3935556,562.63,936,753,0
3935566,613.96,936,761,0
3935576,658.76,936,752,0
3935586,694.19,936,762,0
3935596,719.03,936,753,0
3935606,736.42,936,761,0
3935617,748.59,936,752,0
3935627,757.12,936,761,0
3935637,763.08,936,753,0
3935647,767.26,936,761,0
3935657,770.18,936,753,0
3935667,772.23,936,762,0
3935677,773.66,936,753,0
3935687,774.66,936,761,0
3935697,775.36,936,753,0
3935707,775.85,936,761,0
3935717,776.20,936,753,0
3935727,776.44,936,761,0
3935737,776.61,936,753,0
3935747,776.72,936,762,0
3935757,776.81,936,753,0
3935767,775.71,936,761,0
3935777,768.60,936,753,0
3935788,752.43,936,760,0
3935798,725.77,936,754,0
3935808,688.34,936,760,0
3935818,640.80,936,754,0
3935828,584.24,936,759,0
3935838,521.56,936,754,0
3935848,459.12,936,759,0
3935858,401.70,936,754,0
3935868,352.12,936,759,0
3935878,311.97,936,754,0
3935888,281.55,936,759,0
3935898,260.64,936,754,0
3935908,247.93,936,759,0
3935918,242.25,936,754,0
3935928,241.88,936,759,0
3935938,245.47,936,755,0
3935948,251.54,936,759,0
3935959,259.01,936,755,0
3935969,266.64,936,759,0
3935979,273.90,936,755,0
3935989,280.10,936,758,0
3936000,285.13,936,756,0
3936009,288.69,936,759,0
3936019,290.97,936,755,0
3936029,291.88,936,758,0
3936039,291.83,936,756,0
3936049,290.81,936,759,0
3936059,289.24,936,755,0
3936069,287.15,936,758,0
3936079,285.01,936,756,0
3936089,282.73,936,759,0
3936099,280.71,936,755,0
3936109,278.83,936,758,0
3936119,277.42,936,756,0
3936129,276.35,936,759,0
3936139,275.82,936,755,0
3936149,275.53,936,758,0
3936159,275.71,936,756,0
3936169,276.14,936,758,0
3936179,277.00,936,755,0
3936189,277.99,936,758,0
3936199,279.28,936,756,0
3936209,280.65,936,758,0
3936219,282.30,936,755,0
3936229,283.97,936,758,0
3936239,285.82,936,755,0
3936249,287.54,936,758,0
3936259,289.35,936,755,0
3936269,290.92,936,758,0
3936279,292.44,936,756,0
3936289,293.64,936,758,0
3936300,294.65,936,756,0
3936310,295.22,936,757,0
3936320,295.80,936,757,0
3936330,296.59,936,757,0
3936340,298.98,936,758,0
3936350,304.17,936,757,0
3936360,314.75,936,757,0
3936379,333.00,886,757,0
3936382,362.57,886,759,0
3936391,403.71,886,757,0
3936401,452.61,886,759,0
3936411,505.61,886,756,0
3936421,559.69,886,758,0
3936431,611.21,886,756,0
3936441,657.00,886,758,0
3936451,692.96,886,756,0
3936461,718.17,886,759,0
3936471,735.82,886,756,0
3936481,748.17,886,758,0
3936491,756.82,886,756,0
3936501,762.88,886,758,0
3936512,767.11,886,756,0
3936521,770.08,886,758,0
3936531,772.16,886,756,0
3936541,773.61,886,758,0
3936551,774.63,886,756,0
3936561,775.34,886,758,0
3936571,775.84,886,756,0
3936581,776.19,886,759,0
3936591,776.43,886,756,0
3936601,776.60,886,758,0
3936611,776.72,886,757,0
3936621,776.80,886,758,0
3936631,776.86,886,756,0
3936641,776.90,886,758,0
3936651,771.75,886,756,0
3936661,758.07,886,759,0
3936671,733.92,886,756,0
3936681,698.89,886,758,0
3936691,653.58,886,756,0
3936701,599.02,886,758,0
3936711,536.48,886,755,0
3936721,472.91,886,758,0
3936731,413.19,886,756,0
3936741,360.85,886,758,0
3936751,317.52,886,756,0
3936761,283.85,886,758,0
3936771,259.47,886,756,0
3936781,243.86,886,758,0
3936791,235.50,886,756,0
3936801,233.12,886,758,0
3936812,235.06,886,756,0
3936822,240.10,886,759,0
3936832,246.75,886,755,0
3936842,254.20,886,759,0
3936852,261.47,886,755,0
3936862,268.18,886,759,0
3936872,273.79,886,755,0
3936882,278.31,886,759,0
3936892,281.47,886,755,0
3936902,283.56,886,759,0
3936912,284.51,886,755,0
3936922,284.61,886,759,0
3936932,283.87,886,755,0
3936942,282.67,886,758,0
3936952,281.05,886,755,0
3936962,279.37,886,759,0
3936972,277.54,886,755,0
3936983,275.96,886,759,0
3936993,274.56,886,755,0
3937003,273.58,886,759,0
3937013,272.89,886,754,0
3937024,272.62,886,761,0
3937033,272.74,886,755,0
3937043,273.33,886,759,0
3937053,274.22,886,754,0
3937063,275.44,886,761,0
3937073,276.85,886,755,0
3937083,278.52,886,759,0
3937093,280.29,886,754,0
3937103,282.13,886,761,0
3937113,283.89,886,755,0
3937123,285.60,886,759,0
3937133,287.13,886,754,0
3937143,288.51,886,761,0
3937153,289.55,886,755,0
3937163,290.42,886,759,0
3937173,290.98,886,755,0
3937183,291.37,886,760,0
3937193,291.82,886,753,0
3937203,292.86,886,759,0
3937213,295.60,886,755,0
3937223,302.11,886,761,0
3937243,314.63,863,761,0
3937246,336.86,863,761,0
3937255,370.58,863,752,0
3937265,414.77,863,762,0
3937275,465.71,863,754,0
3937285,520.10,863,761,0
3937295,574.41,863,752,0
3937305,625.20,863,762,0
3937315,668.13,863,753,0
3937325,700.79,863,762,0
3937335,723.69,863,752,0
3937345,739.73,863,762,0
3937355,750.95,863,753,0
3937366,758.81,863,760,0
3937375,764.35,863,753,0
3937385,768.23,863,761,0
3937395,770.99,863,753,0
3937405,772.88,863,761,0
3937415,774.20,863,753,0
3937425,775.13,863,762,0
3937435,775.77,863,753,0
3937445,776.19,863,761,0
3937455,776.47,863,753,0
3937465,776.63,863,762,0
3937475,776.74,863,753,0
3937485,776.82,863,761,0
3937495,776.87,863,753,0
3937505,776.91,863,762,0
3937515,776.94,863,753,0
3937525,776.96,863,761,0
3937536,776.97,863,754,0
3937545,774.06,863,762,0
3937555,763.80,863,753,0
3937565,743.50,863,760,0
3937575,712.15,863,754,0
3937585,670.06,863,761,0
3937595,617.93,863,753,0
3937605,556.88,863,761,0
3937615,491.39,863,754,0
3937625,427.54,863,761,0
3937635,369.57,863,753,0
3937645,319.85,863,761,0
3937655,279.35,863,754,0
3937665,248.26,863,761,0
3937675,226.24,863,752,0
3937685,212.24,863,761,0
3937695,204.97,863,753,0
3937705,203.01,863,759,0
3937715,205.06,863,753,0
3937725,209.80,863,761,0
3937735,216.33,863,754,0
3937745,223.73,863,760,0
3937755,231.36,863,753,0
3937765,238.66,863,761,0
3937775,245.36,863,753,0
3937785,251.17,863,760,0
3937795,256.00,863,753,0
3937805,259.69,863,761,0
3937815,262.31,863,753,0
3937825,263.85,863,760,0
3937836,264.49,863,755,0
3937846,264.34,863,760,0
3937856,263.68,863,755,0
3937866,262.66,863,759,0
3937876,261.61,863,755,0
3937886,260.53,863,759,0
3937896,259.68,863,755,0
3937906,259.05,863,759,0
3937916,258.82,863,755,0
3937926,258.92,863,759,0
3937936,259.46,863,754,0
3937946,260.22,863,759,0
3937956,261.35,863,755,0
3937966,262.70,863,760,0
3937976,264.34,863,754,0
3937986,266.08,863,759,0
3937996,268.03,863,755,0
3938007,269.95,863,758,0
3938017,272.02,863,756,0
3938027,274.03,863,759,0
3938037,276.08,863,756,0
3938048,277.98,863,758,0
3938057,279.83,863,756,0
3938067,281.34,863,758,0
3938077,282.78,863,756,0
3938087,283.87,863,758,0
3938097,284.81,863,755,0
3938107,285.43,863,758,0
3938117,286.11,863,756,0
3938127,287.06,863,758,0
3938146,289.32,904,758,0
3938149,294.75,904,756,0
3938158,305.71,904,758,0
3938168,324.61,904,757,0
3938178,353.79,904,757,0
3938188,394.99,904,758,0
3938198,444.32,904,758,0
3938208,498.36,904,757,0
3938219,553.23,904,758,0
3938228,605.54,904,758,0
3938238,651.87,904,758,0
3938248,689.41,904,757,0
3938258,715.69,904,758,0
3938268,734.08,904,757,0
3938278,746.96,904,758,0
3938288,755.97,904,757,0
3938298,762.28,904,759,0
3938308,766.70,904,758,0
3938318,769.83,904,758,0
3938328,772.02,904,757,0
3938338,773.56,904,758,0
3938348,774.63,904,758,0
3938358,775.39,904,758,0
3938368,775.91,904,757,0
3938378,776.28,904,758,0
3938388,776.50,904,757,0
3938398,776.65,904,758,0
3938408,776.75,904,757,0
3938418,776.83,904,758,0
3938428,776.88,904,757,0
3938438,776.92,904,758,0
3938448,776.94,904,757,0
3938458,776.96,904,758,0
3938468,776.97,904,756,0
3938478,776.98,904,758,0
3938488,773.34,904,757,0
3938498,761.93,904,758,0
3938508,740.22,904,756,0
3938519,707.37,904,759,0
3938529,663.37,904,756,0
3938539,609.17,904,758,0
3938549,545.95,904,756,0
3938560,479.02,904,759,0
3938569,414.04,904,756,0
3938579,355.23,904,758,0
3938589,304.72,904,756,0
3938599,263.83,904,759,0
3938609,232.51,904,756,0
3938619,210.50,904,758,0
3938629,196.59,904,756,0
3938639,189.77,904,759,0
3938649,188.38,904,756,0
3938659,191.40,904,759,0
3938669,197.36,904,756,0
3938679,205.40,904,759,0
3938689,214.41,904,756,0
3938699,223.76,904,758,0
3938709,232.62,904,756,0
3938719,240.83,904,758,0
3938729,247.78,904,756,0
3938739,253.55,904,758,0
3938749,257.84,904,756,0
3938759,260.80,904,758,0
3938769,262.40,904,756,0
3938779,263.14,904,759,0
3938789,262.97,904,756,0
3938799,262.38,904,758,0
3938809,261.37,904,756,0
3938819,260.36,904,758,0
3938829,259.35,904,756,0
3938839,258.73,904,759,0
3938849,258.25,904,756,0
3938860,258.22,904,759,0
3938870,258.45,904,755,0
3938880,259.09,904,759,0
3938890,260.01,904,755,0
3938900,261.29,904,760,0
3938910,262.66,904,755,0
3938920,264.30,904,759,0
3938930,266.01,904,755,0
3938940,267.90,904,760,0
3938950,269.73,904,755,0
3938960,271.57,904,759,0
3938970,273.28,904,755,0
3938980,275.04,904,759,0
3938990,276.61,904,755,0
3939000,278.14,904,759,0
3939010,279.47,904,755,0
3939020,280.79,904,759,0
3939031,281.97,904,755,0
3939041,283.13,904,760,0
3939051,284.12,904,754,0
3939061,285.07,904,762,0
3939072,285.91,904,753,0
3939090,286.83,944,754,0
3939093,288.04,944,753,0
3939102,290.09,944,761,0
3939112,294.13,944,752,0
3939122,301.98,944,762,0
3939132,316.17,944,753,0
3939142,339.35,944,762,0
3939152,373.79,944,753,0
3939162,418.34,944,762,0
3939172,469.32,944,753,0
3939182,523.31,944,762,0
3939192,577.05,944,753,0
3939202,626.88,944,762,0
3939212,669.38,944,753,0
3939222,701.67,944,762,0
3939232,724.27,944,753,0
3939243,740.09,944,762,0
3939252,751.16,944,753,0
3939262,758.91,944,762,0
3939272,764.34,944,753,0
3939282,768.14,944,762,0
3939292,770.80,944,753,0
3939302,772.66,944,762,0
3939312,773.96,944,753,0
3939322,774.87,944,762,0
3939332,775.51,944,753,0
3939342,775.96,944,762,0
3939352,776.27,944,753,0
3939362,776.49,944,762,0
3939372,776.64,944,753,0
3939382,776.75,944,762,0
3939392,776.82,944,753,0
3939402,776.88,944,762,0
3939412,776.91,944,753,0
3939422,776.94,944,762,0
3939432,774.90,944,753,0
3939442,766.19,944,762,0
3939452,748.00,944,752,0
3939462,719.50,944,762,0
3939472,680.39,944,753,0
3939482,631.29,944,761,0
3939492,573.43,944,752,0
3939502,510.43,944,762,0
3939512,448.42,944,753,0
3939522,391.68,944,761,0
3939532,342.53,944,752,0
3939543,302.43,944,762,0
3939553,271.83,944,753,0
3939563,250.19,944,760,0
3939573,236.55,944,754,0
3939584,229.66,944,760,0
3939593,228.13,944,753,0
3939603,230.45,944,761,0
3939613,235.46,944,754,0
3939623,241.88,944,760,0
3939633,248.90,944,753,0
3939643,255.70,944,761,0
3939653,261.88,944,754,0
3939663,267.14,944,760,0
3939673,271.43,944,753,0
3939683,274.51,944,761,0
3939693,276.59,944,754,0
3939703,277.61,944,760,0
3939713,277.86,944,753,0
3939723,277.43,944,761,0
3939733,276.57,944,754,0
3939743,275.37,944,760,0
3939753,274.15,944,755,0
3939763,272.90,944,761,0
3939773,271.90,944,754,0
3939783,271.12,944,760,0
3939793,270.70,944,755,0
3939803,270.53,944,761,0
3939813,270.71,944,754,0
3939823,271.10,944,760,0
3939833,271.84,944,755,0
3939843,272.79,944,761,0
3939853,274.01,944,754,0
3939863,275.34,944,760,0
3939873,276.91,944,755,0
3939884,278.52,944,760,0
3939894,280.29,944,755,0
3939904,282.00,944,759,0
3939914,283.72,944,755,0
3939924,285.26,944,759,0
3939934,286.72,944,755,0
3939944,287.84,944,760,0
3939954,288.83,944,755,0
3939964,289.52,944,759,0
3939974,290.18,944,755,0
3939984,290.85,944,760,0
3939994,292.27,944,756,0
3940004,295.40,944,759,0
3940023,302.10,933,759,0
3940026,315.31,933,757,0
3940035,337.25,933,757,0
3940045,369.87,933,758,0
3940055,413.28,933,756,0
3940065,463.51,933,759,0
3940075,517.27,933,756,0
3940085,571.28,933,759,0
3940096,621.34,933,757,0
3940105,664.56,933,759,0
3940115,698.25,933,757,0
3940125,721.83,933,758,0
3940135,738.38,933,757,0
3940145,749.97,933,759,0
3940155,758.08,933,757,0
3940165,763.75,933,758,0
3940175,767.73,933,757,0
3940185,770.51,933,759,0
3940195,772.46,933,757,0
3940205,773.82,933,758,0
3940215,774.77,933,757,0
3940225,775.44,933,759,0
3940235,775.91,933,757,0
3940245,776.24,933,758,0
3940255,776.47,933,757,0
3940265,776.63,933,758,0
3940275,776.74,933,757,0
3940285,776.82,933,759,0
3940295,776.87,933,757,0
3940305,772.67,933,757,0
3940315,760.94,933,757,0
3940325,739.14,933,758,0
3940335,706.44,933,757,0
3940345,662.90,933,758,0
3940355,609.78,933,756,0
3940365,548.26,933,758,0
3940375,484.33,933,757,0
3940385,422.81,933,757,0
3940396,368.01,933,758,0
3940406,322.07,933,757,0
3940416,286.26,933,758,0
3940426,260.08,933,756,0
3940436,243.13,933,759,0
3940446,233.88,933,757,0
3940456,231.08,933,758,0
3940466,232.95,933,757,0
3940476,238.23,933,758,0
3940486,245.28,933,757,0
3940496,253.25,933,758,0
3940506,261.06,933,757,0
3940516,268.37,933,758,0
3940526,274.52,933,757,0
3940536,279.50,933,758,0
3940546,282.95,933,756,0
3940556,285.20,933,758,0
3940567,286.08,933,756,0
3940577,286.06,933,758,0
3940587,285.05,933,756,0
3940597,283.54,933,759,0
3940608,281.49,933,756,0
3940617,279.41,933,758,0
3940627,277.28,933,756,0
3940637,275.44,933,759,0
3940647,273.76,933,756,0
3940657,272.59,933,758,0
3940667,271.73,933,756,0
3940677,271.38,933,759,0
3940687,271.31,933,756,0
3940697,271.69,933,758,0
3940707,272.30,933,756,0
3940717,273.28,933,759,0
3940727,274.44,933,756,0
3940737,275.94,933,758,0
3940747,277.58,933,756,0
3940757,279.51,933,759,0
3940767,281.46,933,756,0
3940777,283.59,933,759,0
3940787,285.56,933,756,0
3940797,287.49,933,759,0
3940807,289.14,933,756,0
3940817,290.60,933,759,0
3940827,291.66,933,756,0
3940837,292.62,933,759,0
3940847,293.68,933,756,0
3940857,295.96,933,759,0
3940867,300.60,933,756,0
3940877,310.02,933,759,0
3940896,326.56,873,758,0
3940899,353.78,873,763,0
3940908,392.37,873,756,0
3940918,439.62,873,759,0
3940928,491.89,873,756,0
3940938,546.05,873,760,0
3940948,598.49,873,755,0
3940958,645.92,873,759,0
3940968,684.21,873,756,0
3940978,712.05,873,760,0
3940988,731.53,873,755,0
3940998,745.17,873,760,0
3941008,754.72,873,755,0
3941018,761.41,873,760,0
3941028,766.08,873,755,0
3941038,769.36,873,760,0
3941048,771.65,873,756,0
3941058,773.26,873,760,0
3941068,774.38,873,756,0
3941079,775.17,873,760,0
3941089,775.72,873,754,0
3941099,776.10,873,762,0
3941109,776.37,873,753,0
3941120,776.56,873,762,0
3941129,776.69,873,755,0
3941139,776.78,873,762,0
3941149,776.85,873,753,0
3941159,776.89,873,762,0
3941169,776.93,873,754,0
3941179,771.59,873,762,0
3941189,757.57,873,753,0
3941199,733.14,873,762,0
3941209,698.21,873,754,0
3941219,653.11,873,762,0
3941229,598.82,873,753,0
3941239,536.82,873,762,0
3941249,474.04,873,754,0
3941259,415.44,873,762,0
3941269,364.18,873,753,0
3941279,321.61,873,762,0
3941289,288.51,873,753,0
3941299,264.62,873,761,0
3941309,249.05,873,753,0
3941319,240.55,873,762,0
3941329,237.68,873,753,0
3941339,238.98,873,761,0
3941349,243.14,873,753,0
3941359,248.97,873,762,0
3941369,255.58,873,753,0
3941379,262.18,873,761,0
3941389,268.25,873,753,0
3941399,273.45,873,762,0
3941409,277.64,873,753,0
3941420,280.71,873,762,0
3941430,282.68,873,753,0
3941440,283.59,873,762,0
3941450,283.67,873,753,0
3941460,283.00,873,761,0
3941470,281.84,873,753,0
3941480,280.35,873,762,0
3941490,278.74,873,753,0
3941500,277.06,873,761,0
3941510,275.54,873,753,0
3941520,274.22,873,762,0
3941530,273.26,873,753,0
3941540,272.58,873,762,0
3941550,272.28,873,753,0
3941560,272.28,873,762,0
3941570,272.71,873,753,0
3941580,273.44,873,762,0
3941591,274.47,873,753,0
3941601,275.70,873,760,0
3941611,277.12,873,755,0
3941621,278.58,873,760,0
3941632,280.08,873,755,0
3941641,281.43,873,760,0
3941651,282.67,873,754,0
3941661,283.67,873,760,0
3941671,284.63,873,755,0
3941681,285.72,873,761,0
3941691,287.86,873,755,0
3941701,292.45,873,760,0
3941711,301.87,873,755,0
3941721,318.11,873,761,0
3941740,343.92,844,760,0
3941743,382.51,844,759,0
3941752,430.15,844,756,0
3941762,483.16,844,760,0
3941772,538.18,844,756,0
3941782,591.53,844,760,0
3941792,640.23,844,756,0
3941803,680.92,844,759,0
3941812,709.74,844,756,0
3941822,729.92,844,760,0
3941832,744.04,844,756,0
3941842,753.93,844,759,0
3941852,760.85,844,755,0
3941862,765.70,844,760,0
3941872,769.09,844,756,0
3941882,771.46,844,759,0
3941892,773.12,844,755,0
3941902,774.29,844,760,0
3941912,775.10,844,756,0
3941922,775.67,844,759,0
3941932,776.07,844,756,0
3941942,776.35,844,760,0
3941952,776.54,844,756,0
3941962,776.68,844,759,0
3941972,776.78,844,756,0
3941982,776.84,844,760,0
3941992,776.89,844,756,0
3942002,776.92,844,759,0
3942012,776.95,844,757,0
3942022,776.23,844,760,0
3942032,769.61,844,756,0
3942042,753.52,844,759,0
3942052,726.45,844,756,0
3942062,688.26,844,760,0
3942072,639.45,844,756,0
3942082,581.03,844,759,0
3942092,515.32,844,756,0
3942103,449.05,844,758,0
3942113,387.50,844,757,0
3942123,333.65,844,758,0
3942133,289.05,844,757,0
3942144,254.19,844,757,0
3942153,228.94,844,756,0
3942163,212.20,844,758,0
3942173,202.97,844,757,0
3942183,199.68,844,757,0
3942193,200.97,844,756,0
3942203,205.35,844,758,0
3942213,211.85,844,757,0
3942223,219.35,844,758,0
3942233,227.30,844,756,0
3942243,234.88,844,758,0
3942253,241.82,844,757,0
3942263,247.74,844,758,0
3942273,252.75,844,756,0
3942283,256.55,844,759,0
3942293,259.43,844,757,0
3942303,261.23,844,758,0
3942313,262.28,844,758,0
3942323,262.58,844,758,0
3942333,262.53,844,757,0
3942343,262.03,844,757,0
3942353,261.51,844,758,0
3942363,260.84,844,758,0
3942373,260.33,844,756,0
3942383,259.93,844,758,0
3942393,259.91,844,758,0
3942403,260.02,844,759,0
3942413,260.53,844,757,0
3942423,261.19,844,757,0
3942433,262.20,844,758,0
3942444,263.34,844,757,0
3942454,264.78,844,759,0
3942464,266.18,844,756,0
3942474,267.75,844,758,0
3942484,269.28,844,757,0
3942494,270.96,844,758,0
3942504,272.51,844,757,0
3942514,274.20,844,758,0
3942524,275.73,844,756,0
3942534,277.31,844,758,0
3942544,278.67,844,757,0
3942554,280.01,844,759,0
3942564,281.12,844,757,0
3942574,282.29,844,758,0
3942584,283.53,844,757,0
3942594,285.81,844,758,0
3942604,290.41,844,756,0
3942624,299.80,884,756,0
3942627,317.39,884,756,0
3942636,345.34,884,760,0
3942646,385.74,884,756,0
3942657,434.72,884,760,0
3942667,488.76,884,756,0
3942677,544.68,884,761,0
3942687,598.82,884,754,0
3942697,646.74,884,762,0
3942707,685.73,884,756,0
3942717,713.11,884,761,0
3942727,732.28,884,754,0
3942737,745.70,884,762,0
3942747,755.09,884,756,0
3942757,761.66,884,761,0
3942767,766.26,884,754,0
3942777,769.48,884,763,0
3942787,771.74,884,756,0
3942797,773.36,884,761,0
3942807,774.54,884,754,0
3942817,775.36,884,762,0
3942828,775.98,884,754,0
3942838,776.46,884,762,0
3942848,776.84,884,753,0
3942858,777.10,884,763,0
3942868,777.28,884,753,0
3942878,777.41,884,763,0
3942888,777.50,884,754,0
3942898,777.52,884,763,0
3942908,777.50,884,753,0
3942918,777.43,884,763,0
3942928,777.39,884,754,0
3942938,777.31,884,763,0
3942948,777.22,884,753,0
3942958,773.25,884,762,0
3942968,761.26,884,753,0
3942978,738.77,884,762,0
3942988,704.90,884,752,0
3942999,659.71,884,762,0
3943009,604.13,884,753,0
3943019,539.42,884,761,0
3943029,471.11,884,754,0
3943040,404.90,884,760,0
3943049,344.98,884,753,0
3943059,293.60,884,761,0
3943069,252.02,884,753,0
3943079,220.26,884,761,0
3943089,197.85,884,753,0
3943099,183.75,884,762,0
3943109,176.88,884,754,0
3943119,175.72,884,761,0
3943129,179.02,884,753,0
3943139,185.44,884,762,0
3943149,194.01,884,753,0
3943159,203.69,884,761,0
3943169,213.73,884,753,0
3943179,223.37,884,762,0
3943189,232.26,884,753,0
3943199,239.98,884,760,0
3943209,246.41,884,754,0
3943219,251.39,884,762,0
3943229,255.04,884,753,0
3943239,257.43,884,760,0
3943249,258.84,884,755,0
3943259,259.41,884,762,0
3943269,259.37,884,753,0
3943279,258.83,884,761,0
3943289,258.15,884,755,0
3943299,257.34,884,762,0
3943309,256.63,884,754,0
3943319,256.06,884,761,0
3943329,255.74,884,755,0
3943340,255.69,884,760,0
3943350,256.08,884,754,0
3943360,256.70,884,760,0
3943370,257.73,884,755,0
3943380,259.01,884,760,0
3943390,260.60,884,754,0
3943400,262.35,884,760,0
3943410,264.30,884,755,0
3943420,266.22,884,760,0
3943430,268.26,884,754,0
3943440,270.19,884,760,0
3943450,272.11,884,755,0
3943460,273.79,884,760,0
3943470,275.35,884,755,0
3943480,276.62,884,760,0
3943490,277.76,884,755,0
3943500,278.60,884,760,0
3943511,279.37,884,755,0
3943521,279.98,884,759,0
3943531,280.98,884,755,0
3943541,282.78,884,759,0
3943552,287.05,884,756,0
3943570,295.35,946,755,0
3943573,311.36,946,760,0
3943582,336.92,946,758,0
3943592,374.62,946,758,0
3943602,421.75,946,759,0
3943612,474.84,946,757,0
3943622,530.30,946,758,0
3943632,585.02,946,758,0
3943642,634.43,946,758,0
3943652,675.83,946,757,0
3943662,706.18,946,758,0
3943672,727.43,946,758,0
3943682,742.30,946,759,0
3943692,752.71,946,757,0
3943702,760.00,946,758,0
3943712,765.10,946,758,0
3943723,768.67,946,757,0
3943732,771.21,946,757,0
3943742,772.99,946,758,0
3943752,774.24,946,758,0
3943762,775.11,946,757,0
3943772,775.72,946,758,0
3943782,776.15,946,758,0
3943792,776.45,946,759,0
3943802,776.61,946,757,0
3943812,776.73,946,757,0
3943822,776.81,946,758,0
3943832,776.87,946,759,0
3943842,776.91,946,757,0
3943852,776.93,946,757,0
3943862,776.95,946,758,0
3943872,776.97,946,758,0
3943882,776.98,946,757,0
3943892,774.58,946,759,0
3943902,765.49,946,758,0
3943912,746.79,946,758,0
3943922,716.94,946,757,0
3943932,675.86,946,758,0
3943942,624.26,946,758,0
3943952,563.32,946,757,0
3943962,496.71,946,757,0
3943972,430.46,946,758,0
3943982,368.99,946,758,0
3943992,315.42,946,758,0
3944002,271.02,946,757,0
3944012,236.30,946,758,0
3944023,210.88,946,756,0
3944033,194.29,946,759,0
3944043,185.12,946,757,0
3944053,182.21,946,759,0
3944064,184.03,946,756,0
3944073,189.47,946,758,0
3944083,197.08,946,756,0
3944093,206.02,946,759,0
3944103,215.14,946,756,0
3944113,223.97,946,758,0
3944123,231.86,946,757,0
3944133,238.68,946,759,0
3944143,244.04,946,756,0
3944153,248.15,946,758,0
3944163,250.84,946,757,0
3944173,252.56,946,758,0
3944183,253.34,946,756,0
3944193,253.58,946,759,0
3944203,253.23,946,757,0
3944213,252.78,946,759,0
3944223,252.16,946,756,0
3944233,251.73,946,760,0
3944243,251.29,946,757,0
3944253,251.21,946,759,0
3944263,251.27,946,756,0
3944273,251.75,946,759,0
3944283,252.42,946,757,0
3944293,253.54,946,759,0
3944303,254.83,946,757,0
3944313,256.56,946,759,0
3944323,258.36,946,757,0
3944333,260.40,946,759,0
3944343,262.51,946,757,0
3944353,264.75,946,759,0
3944364,266.88,946,756,0
3944374,269.06,946,760,0
3944384,271.10,946,756,0
3944394,273.13,946,760,0
3944404,275.02,946,756,0
3944414,276.86,946,760,0
3944424,278.53,946,756,0
3944434,280.13,946,760,0
3944444,281.55,946,756,0
3944454,282.84,946,760,0
3944464,283.92,946,756,0
3944474,284.84,946,760,0
3944494,285.57,923,759,0
3944497,286.43,923,762,0
3944506,287.84,923,753,0
3944516,290.89,923,762,0
3944526,297.35,923,754,0
3944536,309.38,923,762,0
3944546,329.53,923,753,0
3944556,360.36,923,762,0
3944566,402.59,923,754,0
3944577,452.34,923,763,0
3944587,506.11,923,754,0
3944597,560.38,923,763,0
3944607,611.87,923,754,0
3944617,657.12,923,762,0
3944627,693.04,923,754,0
3944637,718.23,923,763,0
3944647,735.86,923,754,0
3944657,748.20,923,762,0
3944667,756.84,923,754,0
3944677,762.89,923,763,0
3944687,767.12,923,754,0
3944697,770.09,923,762,0
3944707,772.16,923,754,0
3944717,773.61,923,763,0
3944727,774.63,923,754,0
3944737,775.34,923,762,0
3944748,775.84,923,755,0
3944758,776.19,923,761,0
3944768,776.43,923,755,0
3944778,776.60,923,761,0
3944788,776.72,923,755,0
3944798,776.80,923,762,0
3944808,776.86,923,756,0
3944818,776.22,923,761,0
3944828,769.90,923,755,0
3944838,755.06,923,761,0
3944848,729.97,923,754,0
3944858,694.02,923,760,0
3944868,647.81,923,755,0
3944878,592.50,923,761,0
3944888,530.16,923,754,0
3944898,467.20,923,760,0
3944908,408.21,923,754,0
3944919,356.38,923,760,0
3944929,313.71,923,754,0
3944939,280.54,923,760,0
3944949,256.63,923,755,0
3944960,241.10,923,759,0
3944969,232.97,923,755,0
3944979,230.49,923,759,0
3944989,232.40,923,755,0
3944999,237.12,923,759,0
3945009,243.69,923,755,0
3945019,250.94,923,760,0
3945029,258.24,923,755,0
3945039,264.86,923,760,0
3945049,270.64,923,754,0
3945059,275.16,923,760,0
3945069,278.59,923,755,0
3945079,280.77,923,759,0
3945089,281.95,923,754,0
3945099,282.09,923,760,0
3945109,281.59,923,755,0
3945119,280.43,923,759,0
3945129,279.02,923,755,0
3945139,277.30,923,760,0
3945149,275.66,923,755,0
3945159,274.05,923,760,0
3945169,272.75,923,756,0
3945179,271.67,923,760,0
3945189,271.08,923,755,0
3945199,270.80,923,760,0
3945209,271.12,923,755,0
3945219,271.77,923,760,0
3945229,272.87,923,755,0
3945239,274.19,923,760,0
3945249,275.81,923,756,0
3945260,277.49,923,758,0
3945270,279.40,923,756,0
3945280,281.12,923,758,0
3945290,282.84,923,758,0
3945300,284.35,923,757,0
3945310,285.87,923,757,0
3945320,287.15,923,758,0
3945330,288.39,923,757,0
3945340,289.26,923,757,0
3945350,290.04,923,756,0
3945360,290.50,923,758,0
3945370,291.08,923,757,0
3945380,291.87,923,758,0
3945390,293.97,923,756,0
3945400,298.65,923,759,0
3945419,308.44,926,758,0
3945422,326.39,926,757,0
3945431,354.05,926,759,0
3945441,392.90,926,757,0
3945451,440.42,926,759,0
3945461,492.96,926,757,0
3945472,547.23,926,759,0
3945481,599.58,926,758,0
3945491,645.90,926,759,0
3945501,684.12,926,758,0
3945511,711.98,926,759,0
3945521,731.49,926,758,0
3945531,745.14,926,759,0
3945541,754.70,926,757,0
3945551,761.39,926,759,0
3945561,766.07,926,758,0
3945571,769.35,926,759,0
3945581,771.65,926,758,0
3945591,773.25,926,759,0
3945601,774.38,926,758,0
3945611,775.16,926,759,0
3945621,775.71,926,757,0
3945631,776.10,926,759,0
3945641,776.37,926,757,0
3945651,776.56,926,759,0
3945661,776.69,926,758,0
3945671,772.37,926,759,0
3945681,759.96,926,757,0
3945691,737.94,926,759,0
3945701,705.26,926,757,0
3945711,662.11,926,759,0
3945721,609.36,926,757,0
3945731,548.61,926,758,0
3945741,485.77,926,757,0
3945751,426.23,926,759,0
3945761,373.06,926,757,0
3945772,328.94,926,759,0
3945782,294.76,926,757,0
3945792,270.70,926,759,0
3945802,255.75,926,756,0
3945812,248.88,926,759,0
3945822,248.36,926,757,0
3945832,252.67,926,759,0
3945842,259.97,926,756,0
3945852,268.98,926,759,0
3945862,278.24,926,756,0
3945872,287.00,926,759,0
3945882,294.41,926,756,0
3945892,300.29,926,760,0
3945902,304.36,926,757,0
3945912,306.82,926,760,0
3945922,307.69,926,756,0
3945932,307.35,926,760,0
3945943,305.96,926,756,0
3945953,303.87,926,760,0
3945963,301.25,926,756,0
3945973,298.44,926,760,0
3945984,295.48,926,754,0
3945993,292.72,926,760,0
3946003,290.19,926,756,0
3946013,288.08,926,760,0
3946023,286.42,926,755,0
3946033,285.35,926,760,0
3946043,284.82,926,756,0
3946053,284.87,926,760,0
3946063,285.43,926,755,0
3946073,286.50,926,760,0
3946083,287.93,926,756,0
3946093,289.67,926,760,0
3946103,291.61,926,755,0
3946113,293.70,926,760,0
3946123,295.72,926,756,0
3946133,297.56,926,760,0
3946143,299.06,926,755,0
3946153,300.24,926,762,0
3946163,301.03,926,756,0
3946173,301.58,926,760,0
3946183,302.22,926,755,0
3946193,304.04,926,762,0
3946203,308.40,926,756,0
3946213,317.66,926,760,0
3946223,334.27,926,755,0
3946243,360.80,823,754,0
3946246,399.69,823,754,0
3946255,446.88,823,763,0
3946265,498.82,823,754,0
3946275,552.36,823,763,0
3946285,603.98,823,754,0
3946295,650.36,823,763,0
3946305,688.35,823,754,0
3946315,714.94,823,763,0
3946326,733.56,823,754,0
3946335,746.59,823,763,0
3946345,755.72,823,754,0
3946355,762.10,823,762,0
3946365,766.57,823,754,0
3946375,769.70,823,763,0
3946385,771.89,823,754,0
3946395,773.42,823,763,0
3946405,774.50,823,754,0
3946415,775.25,823,763,0
3946425,775.77,823,754,0
3946435,776.14,823,763,0
3946445,776.40,823,754,0
3946455,776.58,823,763,0
3946465,776.71,823,754,0
3946475,776.79,823,763,0
3946485,776.13,823,754,0
3946496,769.70,823,762,0
3946505,754.79,823,754,0
3946515,729.57,823,762,0
3946525,693.57,823,754,0
3946535,647.20,823,762,0
3946545,591.77,823,754,0
3946555,529.35,823,762,0
3946565,466.63,823,753,0
3946575,407.94,823,762,0
3946585,356.70,823,753,0
3946595,314.66,823,763,0
3946605,282.54,823,754,0
3946615,259.83,823,762,0
3946625,245.70,823,753,0
3946635,238.76,823,762,0
3946645,237.63,823,754,0
3946655,240.70,823,762,0
3946665,246.58,823,754,0
3946675,253.95,823,763,0
3946685,261.76,823,754,0
3946695,269.25,823,762,0
3946705,275.94,823,754,0
3946715,281.40,823,762,0
3946725,285.48,823,754,0
3946735,288.17,823,762,0
3946745,289.57,823,754,0
3946755,289.83,823,762,0
3946765,289.20,823,754,0
3946775,287.77,823,762,0
3946785,285.91,823,754,0
3946796,283.75,823,761,0
3946806,281.51,823,755,0
3946816,279.26,823,760,0
3946826,277.25,823,755,0
3946836,275.55,823,760,0
3946846,274.40,823,755,0
3946856,273.64,823,760,0
3946866,273.44,823,754,0
3946876,273.65,823,761,0
3946886,274.44,823,754,0
3946896,275.55,823,760,0
3946906,277.06,823,756,0
3946916,278.67,823,760,0
3946926,280.48,823,755,0
3946936,282.27,823,761,0
3946946,284.12,823,756,0
3946956,285.71,823,760,0
3946967,287.21,823,755,0
3946977,288.35,823,760,0
3946987,289.44,823,755,0
3946997,290.60,823,760,0
3947008,292.69,823,757,0
3947017,296.72,823,760,0
3947027,305.08,823,755,0
3947037,320.10,823,760,0
3947057,344.71,814,759,0
3947060,382.00,814,757,0
3947069,428.54,814,759,0
3947079,480.66,814,758,0
3947089,535.32,814,759,0
3947099,588.88,814,758,0
3947109,637.95,814,759,0
3947119,679.06,814,758,0
3947129,708.44,814,760,0
3947139,729.01,814,758,0
3947149,743.41,814,759,0
3947159,753.49,814,758,0
3947169,760.54,814,759,0
3947180,765.48,814,757,0
3947190,768.98,814,759,0
3947200,771.43,814,757,0
3947210,773.14,814,760,0
3947220,774.34,814,757,0
3947230,775.18,814,759,0
3947240,775.77,814,757,0
3947250,776.23,814,760,0
3947260,776.50,814,757,0
3947270,776.69,814,760,0
3947280,776.83,814,757,0
3947290,776.92,814,760,0
3947300,776.99,814,757,0
3947310,777.08,814,759,0
3947320,777.10,814,757,0
3947330,777.11,814,760,0
3947340,774.33,814,757,0
3947351,764.33,814,760,0
3947361,744.35,814,756,0
3947371,713.39,814,760,0
3947381,671.31,814,756,0
3947392,619.02,814,760,0
3947401,557.90,814,756,0
3947411,492.36,814,759,0
3947421,428.35,814,756,0
3947431,370.30,814,760,0
3947441,320.50,814,756,0
3947451,280.36,814,760,0
3947461,249.95,814,756,0
3947471,228.67,814,760,0
3947481,215.31,814,756,0
3947491,208.70,814,760,0
3947501,207.33,814,756,0
3947511,210.06,814,760,0
3947521,215.36,814,756,0
3947531,222.41,814,760,0
3947541,230.13,814,756,0
3947551,237.98,814,760,0
3947561,245.40,814,756,0
3947571,252.09,814,760,0
3947581,257.68,814,756,0
3947591,262.28,814,760,0
3947601,265.62,814,756,0
3947611,267.96,814,760,0
3947621,269.26,814,756,0
3947631,269.78,814,760,0
3947641,269.59,814,756,0
3947651,269.03,814,759,0
3947661,268.12,814,756,0
3947671,267.14,814,759,0
3947681,266.16,814,756,0
3947692,265.42,814,760,0
3947702,264.91,814,755,0
3947712,264.77,814,762,0
3947722,264.92,814,753,0
3947732,265.46,814,762,0
3947742,266.31,814,755,0
3947752,267.46,814,762,0
3947762,268.82,814,753,0
3947772,270.37,814,763,0
3947782,272.06,814,755,0
3947792,273.84,814,762,0
3947802,275.65,814,754,0
3947812,277.42,814,763,0
3947822,279.10,814,755,0
3947832,280.61,814,762,0
3947842,281.88,814,754,0
3947852,282.95,814,763,0
3947863,283.91,814,753,0
3947873,285.22,814,762,0
3947883,287.90,814,754,0
3947893,293.67,814,763,0
3947904,305.00,814,754,0
3947922,324.11,866,753,0
3947925,354.85,866,756,0
3947934,397.28,866,762,0
3947944,447.43,866,755,0
3947954,501.81,866,763,0
3947964,557.03,866,755,0
3947974,609.43,866,762,0
3947984,656.02,866,755,0
3947994,692.31,866,763,0
3948004,717.72,866,755,0
3948014,735.50,866,762,0
3948024,747.95,866,756,0
3948034,756.67,866,763,0
3948044,762.77,866,755,0
3948054,767.04,866,762,0
3948064,770.03,866,755,0
3948075,772.12,866,762,0
3948084,773.63,866,754,0
3948094,774.68,866,763,0
3948104,775.46,866,755,0
3948114,776.01,866,762,0
3948124,776.44,866,754,0
3948134,776.73,866,763,0
3948144,776.94,866,755,0
3948154,777.04,866,761,0
3948164,777.16,866,755,0
3948174,777.20,866,762,0
3948184,777.22,866,755,0
3948194,777.20,866,761,0
3948204,777.18,866,754,0
3948214,777.21,866,763,0
3948224,777.24,866,755,0
3948234,773.31,866,761,0
3948244,761.43,866,756,0
3948254,739.66,866,762,0
3948264,706.93,866,754,0
3948274,663.20,866,761,0
3948284,609.22,866,755,0
3948294,546.46,866,762,0
3948304,480.28,866,754,0
3948314,416.21,866,761,0
3948324,357.82,866,754,0
3948334,307.43,866,762,0
3948344,266.41,866,754,0
3948354,234.92,866,761,0
3948364,212.49,866,755,0
3948375,198.11,866,760,0
3948385,190.79,866,754,0
3948395,189.05,866,761,0
3948405,191.87,866,755,0
3948416,197.74,866,760,0
3948425,205.61,866,755,0
3948435,214.34,866,761,0
3948445,223.37,866,755,0
3948455,231.92,866,760,0
3948465,239.74,866,755,0
3948475,246.33,866,760,0
3948485,251.80,866,755,0
3948495,255.98,866,760,0
3948505,259.07,866,755,0
3948515,261.02,866,761,0
3948525,262.17,866,756,0
3948535,262.51,866,760,0
3948545,262.44,866,755,0
3948555,261.96,866,761,0
3948565,261.46,866,755,0
3948575,260.85,866,760,0
3948585,260.42,866,755,0
3948595,260.13,866,761,0
3948605,260.17,866,755,0
3948615,260.34,866,760,0
3948625,260.88,866,756,0
3948635,261.56,866,760,0
3948645,262.63,866,755,0
3948655,263.90,866,760,0
3948665,265.47,866,755,0
3948675,267.09,866,760,0
3948685,268.95,866,754,0
3948695,270.72,866,760,0
3948705,272.60,866,756,0
3948716,274.27,866,760,0
3948726,275.81,866,755,0
3948736,276.98,866,759,0
3948746,278.02,866,756,0
3948756,278.70,866,759,0
3948766,279.30,866,756,0
3948776,279.85,866,759,0
3948786,281.23,866,757,0
3948796,284.46,866,759,0
3948806,291.44,866,755,0
3948825,304.38,903,756,0
3948828,327.06,903,761,0
3948837,361.12,903,758,0
3948847,406.04,903,758,0
3948857,457.80,903,758,0
3948867,512.97,903,759,0
3948877,568.22,903,758,0
3948887,620.10,903,758,0
3948897,664.13,903,759,0
3948907,697.99,903,759,0
3948917,721.69,903,758,0
3948928,738.28,903,759,0
3948937,749.94,903,758,0
3948947,758.15,903,759,0
3948957,763.93,903,758,0
3948967,767.98,903,759,0
3948977,770.81,903,758,0
3948987,772.84,903,759,0
3948997,774.30,903,758,0
3949007,775.28,903,759,0
3949017,775.93,903,758,0
3949027,776.38,903,759,0
3949037,776.69,903,758,0
3949047,776.91,903,759,0
3949057,777.03,903,759,0
3949067,777.06,903,759,0
3949077,777.09,903,758,0
3949087,777.10,903,759,0
3949097,777.07,903,758,0
3949107,777.09,903,759,0
3949117,777.11,903,758,0
3949127,772.79,903,759,0
3949137,760.08,903,757,0
3949147,737.30,903,758,0
3949157,703.40,903,757,0
3949167,658.58,903,758,0
3949177,603.50,903,757,0
3949187,539.88,903,758,0
3949197,473.36,903,757,0
3949207,409.69,903,758,0
3949217,352.01,903,757,0
3949228,302.94,903,759,0
3949238,263.36,903,757,0
3949248,233.68,903,759,0
3949258,212.90,903,756,0
3949268,200.38,903,760,0
3949278,194.56,903,757,0
3949288,194.31,903,759,0
3949298,198.07,903,756,0
3949308,204.74,903,759,0
3949318,212.96,903,757,0
3949328,222.01,903,759,0
3949338,230.88,903,756,0
3949348,239.32,903,759,0
3949358,246.72,903,757,0
3949368,252.98,903,759,0
3949378,257.83,903,757,0
3949388,261.48,903,759,0
3949399,263.78,903,757,0
3949409,265.09,903,760,0
3949419,265.36,903,756,0
3949429,265.00,903,760,0
3949440,264.05,903,756,0
3949449,262.92,903,760,0
3949459,261.58,903,756,0
3949469,260.37,903,760,0
3949479,259.32,903,756,0
3949489,258.71,903,760,0
3949499,258.45,903,756,0
3949509,258.66,903,760,0
3949519,259.28,903,756,0
3949529,260.35,903,760,0
3949539,261.70,903,756,0
3949549,263.38,903,760,0
3949559,265.15,903,756,0
3949569,267.03,903,760,0
3949579,268.91,903,756,0
3949589,270.78,903,760,0
3949599,272.56,903,756,0
3949609,274.32,903,760,0
3949619,275.90,903,756,0
3949629,277.38,903,760,0
3949639,278.68,903,756,0
3949649,279.81,903,760,0
3949659,280.59,903,756,0
3949669,281.19,903,760,0
3949679,281.60,903,756,0
3949689,282.19,903,760,0
3949699,283.21,903,757,0
3949709,285.84,903,760,0
3949728,291.76,903,760,0
3949731,304.22,903,763,0
3949740,324.68,903,757,0
3949750,355.59,903,762,0
3949760,398.14,903,755,0
3949770,448.46,903,763,0
3949780,502.92,903,754,0
3949790,558.14,903,762,0
3949800,609.74,903,755,0
3949810,655.33,903,763,0
3949820,691.83,903,754,0
3949830,717.38,903,761,0
3949840,735.31,903,755,0
3949850,747.86,903,763,0
3949860,756.65,903,754,0
3949870,762.79,903,761,0
3949880,767.10,903,755,0
3949890,770.11,903,763,0
3949900,772.22,903,754,0
3949911,773.66,903,763,0
3949921,774.66,903,754,0
3949931,775.36,903,763,0
3949941,775.85,903,755,0
3949952,776.20,903,763,0
3949961,776.44,903,754,0
3949971,776.61,903,764,0
3949981,776.72,903,754,0
3949991,776.81,903,763,0
3950001,776.86,903,755,0
3950011,773.95,903,763,0
3950021,763.72,903,754,0
3950031,743.58,903,763,0
3950041,712.85,903,754,0
3950051,671.32,903,763,0
3950061,619.75,903,753,0
3950071,559.36,903,763,0
3950081,494.79,903,753,0
3950091,432.03,903,762,0
3950101,375.28,903,754,0
3950111,326.68,903,763,0
3950121,287.69,903,754,0
3950131,258.43,903,762,0
3950141,238.45,903,753,0
3950151,226.58,903,763,0
3950161,221.56,903,754,0
3950171,221.78,903,763,0
3950181,225.79,903,754,0
3950191,232.19,903,762,0
3950201,239.98,903,754,0
3950211,248.13,903,764,0
3950221,255.93,903,754,0
3950231,262.77,903,763,0
3950241,268.49,903,754,0
3950252,272.80,903,763,0
3950262,275.82,903,754,0
3950272,277.50,903,762,0
3950282,278.12,903,755,0
3950292,277.79,903,761,0
3950302,276.78,903,754,0
3950312,275.22,903,762,0
3950322,273.48,903,754,0
3950332,271.58,903,761,0
3950342,269.82,903,754,0
3950352,268.20,903,762,0
3950362,267.03,903,754,0
3950372,266.20,903,761,0
3950382,265.89,903,754,0
3950392,265.96,903,762,0
3950402,266.62,903,754,0
3950412,267.67,903,761,0
3950423,269.14,903,755,0
3950433,270.77,903,761,0
3950443,272.64,903,755,0
3950453,274.55,903,761,0
3950464,276.61,903,755,0
3950473,278.53,903,761,0
3950483,280.43,903,755,0
3950493,282.14,903,760,0
3950503,283.81,903,755,0
3950513,285.28,903,761,0
3950523,286.70,903,754,0
3950533,287.86,903,761,0
3950543,289.02,903,755,0
3950553,290.00,903,761,0
3950563,290.94,903,755,0
3950573,291.64,903,761,0
3950583,292.31,903,755,0
3950593,292.73,903,761,0
3950603,293.15,903,755,0
3950613,293.54,903,761,0
3950623,294.45,903,755,0
3950633,296.71,903,760,0
3950652,301.98,924,761,0
3950655,313.17,924,759,0
3950664,332.67,924,757,0
3950674,362.55,924,760,0
3950684,404.04,924,755,0
3950694,453.14,924,760,0
3950704,506.54,924,757,0
3950714,560.98,924,760,0
3950724,612.24,924,756,0
3950734,657.26,924,760,0
3950744,693.18,924,757,0
3950754,718.33,924,760,0
3950764,735.93,924,756,0
3950774,748.25,924,761,0
3950784,756.87,924,757,0
3950794,762.91,924,760,0
3950804,767.14,924,757,0
3950814,770.10,924,760,0
3950824,772.17,924,757,0
3950834,773.62,924,760,0
3950844,774.63,924,758,0
3950854,775.34,924,760,0
3950864,775.84,924,757,0
3950874,776.19,924,760,0
3950884,776.43,924,758,0
3950894,776.60,924,761,0
3950904,776.72,924,757,0
3950914,776.63,924,760,0
3950924,771.13,924,756,0
3950935,756.90,924,759,0
3950945,732.50,924,758,0
3950955,697.42,924,758,0
3950965,652.30,924,759,0
3950976,598.17,924,757,0
3950985,536.87,924,758,0
3950995,475.11,924,757,0
3951005,417.95,924,759,0
3951015,368.25,924,757,0
3951025,327.93,924,758,0
3951035,297.27,924,758,0
3951045,276.19,924,758,0
3951055,263.40,924,758,0
3951065,257.75,924,758,0
3951075,257.48,924,758,0
3951085,261.32,924,759,0
3951095,267.53,924,758,0
3951105,275.04,924,758,0
3951115,282.57,924,758,0
3951125,289.60,924,759,0
3951135,295.46,924,758,0
3951145,300.08,924,759,0
3951155,303.10,924,758,0
3951165,304.87,924,758,0
3951175,305.25,924,758,0
3951185,304.66,924,759,0
3951195,303.13,924,758,0
3951205,301.17,924,758,0
3951215,298.67,924,757,0
3951225,296.11,924,759,0
3951235,293.38,924,758,0
3951245,290.99,924,758,0
3951255,288.77,924,757,0
3951265,286.99,924,759,0
3951276,285.50,924,757,0
3951286,284.62,924,759,0
3951296,284.09,924,757,0
3951306,284.15,924,759,0
3951316,284.53,924,757,0
3951326,285.44,924,759,0
3951336,286.64,924,757,0
3951346,288.25,924,759,0
3951356,290.02,924,757,0
3951366,292.07,924,759,0
3951376,294.15,924,757,0
3951386,296.33,924,759,0
3951396,298.42,924,757,0
3951406,300.44,924,759,0
3951416,302.15,924,757,0
3951426,303.65,924,760,0
3951436,304.70,924,757,0
3951447,305.52,924,760,0
3951457,306.00,924,756,0
3951467,306.56,924,760,0
3951477,307.85,924,756,0
3951488,311.45,924,761,0
3951497,319.03,924,757,0
3951507,333.29,924,761,0
3951526,356.56,874,760,0
3951529,392.09,874,763,0
3951538,436.85,874,757,0
3951548,487.34,874,761,0
3951558,540.12,874,756,0
3951568,592.11,874,763,0
3951578,639.78,874,757,0
3951588,680.00,874,761,0
3951598,709.10,874,756,0
3951608,729.47,874,763,0
3951618,743.73,874,757,0
3951628,753.71,874,761,0
3951638,760.70,874,756,0
3951648,765.59,874,763,0
3951659,769.01,874,755,0
3951668,771.41,874,761,0
3951678,773.09,874,756,0
3951688,774.26,874,763,0
3951698,775.08,874,755,0
3951708,775.66,874,761,0
3951718,776.06,874,756,0
3951728,776.34,874,763,0
3951738,776.54,874,755,0
3951748,776.68,874,761,0
3951758,776.77,874,756,0
3951768,775.73,874,763,0
3951778,768.74,874,754,0
3951788,753.26,874,761,0
3951798,727.55,874,756,0
3951808,691.26,874,762,0
3951818,644.85,874,754,0
3951828,589.48,874,763,0
3951838,527.79,874,756,0
3951848,466.27,874,762,0
3951858,409.02,874,754,0
3951868,359.26,874,762,0
3951878,318.59,874,756,0
3951888,287.69,874,762,0
3951898,266.09,874,754,0
3951908,252.82,874,763,0
3951918,246.45,874,756,0
3951928,245.58,874,761,0
3951938,248.71,874,755,0
3951948,254.45,874,762,0
3951959,261.47,874,754,0
3951969,268.88,874,763,0
3951979,275.86,874,754,0
3951989,281.94,874,763,0
3952000,286.80,874,754,0
3952009,290.29,874,763,0
3952019,292.43,874,754,0
3952029,293.33,874,763,0
3952039,293.19,874,754,0
3952049,292.23,874,763,0
3952059,290.66,874,754,0
3952069,288.66,874,763,0
3952079,286.54,874,754,0
3952089,284.40,874,763,0
3952099,282.40,874,754,0
3952109,280.56,874,763,0
3952119,279.02,874,754,0
3952129,277.90,874,763,0
3952139,277.29,874,754,0
3952149,277.07,874,763,0
3952159,277.27,874,754,0
3952169,277.83,874,763,0
3952179,278.78,874,754,0
3952189,280.00,874,763,0
3952199,281.42,874,754,0
3952209,282.92,874,763,0
3952219,284.53,874,754,0
3952229,286.13,874,762,0
3952239,287.80,874,754,0
3952249,289.41,874,762,0
3952259,291.00,874,754,0
3952269,292.50,874,763,0
3952279,293.93,874,754,0
3952289,295.24,874,764,0
3952300,296.45,874,754,0
3952310,297.39,874,762,0
3952320,298.17,874,755,0
3952330,298.68,874,762,0
3952340,299.07,874,755,0
3952350,299.39,874,762,0
3952360,300.22,874,754,0
3952370,302.55,874,762,0
3952380,308.43,874,756,0
3952399,319.79,873,754,0
3952402,340.64,873,757,0
3952411,372.76,873,761,0
3952421,415.60,873,756,0
3952431,465.39,873,762,0
3952441,518.89,873,756,0
3952451,572.58,873,761,0
3952461,623.36,873,756,0
3952471,666.54,873,762,0
3952481,699.68,873,756,0
3952491,722.87,873,762,0
3952501,739.11,873,757,0
3952512,750.48,873,761,0
3952521,758.48,873,755,0
3952531,764.08,873,762,0
3952541,768.00,873,756,0
3952551,770.74,873,762,0
3952561,772.66,873,756,0
3952571,774.01,873,762,0
3952581,774.95,873,756,0
3952591,775.56,873,761,0
3952601,775.99,873,756,0
3952611,776.34,873,762,0
3952621,776.58,873,756,0
3952631,776.75,873,762,0
3952641,776.87,873,756,0
3952651,776.95,873,762,0
3952661,777.01,873,756,0
3952671,777.05,873,761,0
3952681,777.03,873,755,0
3952691,777.02,873,762,0
3952701,777.02,873,756,0
3952711,777.01,873,761,0
3952721,771.44,873,757,0
3952731,757.38,873,762,0
3952741,733.05,873,756,0
3952751,697.81,873,761,0
3952761,652.09,873,756,0
3952771,596.99,873,761,0
3952781,533.82,873,755,0
3952791,469.51,873,760,0
3952801,408.63,873,756,0
3952812,354.31,873,760,0
3952822,308.62,873,756,0
3952832,272.13,873,760,0
3952842,244.79,873,756,0
3952852,225.83,873,759,0
3952862,214.48,873,756,0
3952872,209.23,873,760,0
3952882,209.04,873,756,0
3952892,212.45,873,759,0
3952902,218.49,873,756,0
3952912,225.84,873,760,0
3952922,233.95,873,756,0
3952932,241.93,873,759,0
3952942,249.54,873,756,0
3952952,256.23,873,760,0
3952962,261.99,873,756,0
3952972,266.50,873,759,0
3952983,270.03,873,757,0
3952993,272.38,873,759,0
3953003,273.89,873,758,0
3953013,274.57,873,758,0
3953024,274.70,873,759,0
3953033,274.23,873,759,0
3953043,273.61,873,758,0
3953053,272.74,873,758,0
3953063,272.09,873,759,0
3953073,271.46,873,759,0
3953083,271.15,873,757,0
3953093,271.06,873,758,0
3953103,271.43,873,758,0
3953113,271.99,873,759,0
3953123,272.98,873,757,0
3953133,274.05,873,758,0
3953143,275.45,873,759,0
3953153,276.82,873,759,0
3953163,278.37,873,758,0
3953173,279.85,873,758,0
3953183,281.44,873,759,0
3953193,282.85,873,758,0
3953203,284.35,873,758,0
3953213,285.66,873,758,0
3953223,287.05,873,759,0
3953233,288.15,873,758,0
3953243,289.22,873,758,0
3953253,290.01,873,758,0
3953263,290.74,873,759,0
3953273,291.24,873,758,0
3953283,292.03,873,758,0
3953293,293.39,873,758,0
3953303,296.79,873,759,0
3953323,303.88,923,759,0
3953326,318.23,923,761,0
3953335,341.73,923,757,0
3953345,376.87,923,760,0
3953355,421.87,923,757,0
3953366,473.25,923,761,0
3953375,527.60,923,758,0
3953385,581.64,923,761,0
3953395,630.90,923,757,0
3953405,672.67,923,761,0
3953415,703.97,923,757,0
3953425,725.88,923,761,0
3953435,741.22,923,757,0
3953445,751.95,923,761,0
3953455,759.47,923,758,0
3953465,764.73,923,761,0
3953475,768.41,923,757,0
3953485,770.99,923,761,0
3953495,772.79,923,758,0
3953505,774.10,923,761,0
3953515,775.01,923,758,0
3953525,775.65,923,761,0
3953536,776.10,923,757,0
3953545,776.41,923,761,0
3953555,776.63,923,758,0
3953565,776.78,923,761,0
3953575,776.85,923,757,0
3953585,776.89,923,761,0
3953595,776.93,923,758,0
3953605,776.95,923,761,0
3953615,776.96,923,757,0
3953625,776.97,923,761,0
3953635,772.23,923,757,0
3953645,759.09,923,761,0
3953655,735.49,923,756,0
3953665,701.27,923,760,0
3953675,656.53,923,757,0
3953685,602.20,923,760,0
3953695,539.53,923,757,0
3953705,474.91,923,760,0
3953715,413.57,923,757,0
3953725,359.10,923,760,0
3953735,312.95,923,756,0
3953745,276.24,923,760,0
3953755,248.82,923,757,0
3953765,230.19,923,760,0
3953775,219.08,923,756,0
3953785,214.30,923,760,0
3953795,214.29,923,757,0
3953805,217.89,923,760,0
3953815,223.75,923,756,0
3953825,231.03,923,760,0
3953836,238.73,923,757,0
3953846,246.40,923,760,0
3953856,253.35,923,756,0
3953866,259.42,923,762,0
3953876,264.31,923,754,0
3953886,268.07,923,761,0
3953896,270.58,923,756,0
3953906,272.03,923,762,0
3953916,272.49,923,754,0
3953926,272.30,923,760,0
3953936,271.66,923,756,0
3953946,270.77,923,762,0
3953956,269.77,923,754,0
3953966,268.90,923,761,0
3953976,268.24,923,756,0
3953986,267.87,923,762,0
3953996,267.78,923,754,0
3954007,268.02,923,763,0
3954017,268.57,923,754,0
3954027,269.43,923,763,0
3954037,270.54,923,754,0
3954048,271.84,923,764,0
3954057,273.34,923,754,0
3954067,274.95,923,763,0
3954077,276.60,923,754,0
3954087,278.26,923,763,0
3954097,279.90,923,754,0
3954107,281.47,923,763,0
3954117,283.00,923,754,0
3954127,284.37,923,763,0
3954137,285.63,923,754,0
3954147,286.77,923,763,0
3954157,287.74,923,754,0
3954167,288.50,923,763,0
3954177,289.08,923,754,0
3954187,289.44,923,763,0
3954197,289.70,923,754,0
3954207,289.96,923,763,0
3954227,290.66,904,763,0
3954230,292.90,904,761,0
3954239,298.29,904,755,0
3954249,309.09,904,762,0
3954259,327.92,904,756,0
3954269,356.61,904,762,0
3954279,397.27,904,756,0
3954289,446.05,904,762,0
3954299,499.26,904,756,0
3954309,553.57,904,762,0
3954319,605.43,904,757,0
3954329,651.37,904,762,0
3954339,688.89,904,756,0
3954349,715.32,904,763,0
3954359,733.83,904,756,0
3954369,746.78,904,762,0
3954379,755.84,904,756,0
3954390,762.19,904,762,0
3954399,766.63,904,756,0
3954409,769.74,904,762,0
3954419,771.92,904,756,0
3954429,773.44,904,762,0
3954439,774.55,904,756,0
3954449,775.33,904,762,0
3954459,775.87,904,756,0
3954469,776.25,904,762,0
3954479,776.52,904,756,0
3954489,776.71,904,762,0
3954499,776.84,904,756,0
3954509,776.89,904,762,0
3954519,776.92,904,755,0
3954529,776.94,904,762,0
3954539,772.72,904,756,0
3954549,760.42,904,761,0
3954560,738.22,904,756,0
3954569,705.67,904,761,0
3954579,662.95,904,755,0
3954589,610.81,904,761,0
3954599,550.65,904,755,0
3954609,488.23,904,761,0
3954619,428.97,904,754,0
3954629,376.18,904,761,0
3954639,331.68,904,755,0
3954649,296.29,904,762,0
3954659,270.23,904,755,0
3954669,252.64,904,761,0
3954679,242.46,904,752,0
3954689,238.16,904,762,0
3954699,238.50,904,756,0
3954709,241.95,904,762,0
3954719,247.54,904,756,0
3954729,254.02,904,761,0
3954739,260.78,904,755,0
3954749,267.06,904,761,0
3954759,272.70,904,755,0
3954769,277.25,904,761,0
3954779,280.82,904,755,0
3954789,283.14,904,762,0
3954799,284.51,904,755,0
3954809,284.87,904,761,0
3954819,284.61,904,755,0
3954829,283.70,904,761,0
3954839,282.46,904,756,0
3954849,280.87,904,761,0
3954860,279.32,904,756,0
3954870,277.72,904,760,0
3954880,276.35,904,752,0
3954890,275.13,904,760,0
3954900,274.28,904,757,0
3954910,273.64,904,761,0
3954920,273.49,904,757,0
3954930,273.56,904,760,0
3954940,274.12,904,757,0
3954950,274.90,904,761,0
3954960,276.04,904,756,0
3954970,277.32,904,760,0
3954980,278.93,904,757,0
3954990,280.54,904,760,0
3955000,282.35,904,756,0
3955010,284.09,904,760,0
3955020,285.95,904,757,0
3955031,287.63,904,759,0
3955041,289.33,904,757,0
3955051,290.73,904,759,0
3955061,292.05,904,758,0
3955072,292.98,904,758,0
3955081,293.72,904,755,0
3955091,293.97,904,759,0
3955101,294.11,904,757,0
3955111,294.12,904,758,0
3955121,294.60,904,755,0
3955131,296.39,904,759,0
3955141,301.50,904,757,0
3955161,312.02,934,758,0
3955164,331.69,934,761,0
3955173,361.87,934,758,0
3955183,403.65,934,761,0
3955193,453.08,934,758,0
3955203,506.80,934,760,0
3955213,561.29,934,758,0
3955223,613.15,934,761,0
3955233,658.02,934,758,0
3955244,693.71,934,761,0
3955254,718.70,934,758,0
3955264,736.19,934,761,0
3955274,748.43,934,758,0
3955284,757.00,934,761,0
3955294,763.00,934,758,0
3955304,767.20,934,761,0
3955314,770.14,934,757,0
3955324,772.20,934,761,0
3955334,773.64,934,757,0
3955344,774.65,934,762,0
3955354,775.35,934,758,0
3955364,775.85,934,761,0
3955374,776.19,934,757,0
3955384,776.44,934,761,0
3955394,776.60,934,758,0
3955404,776.72,934,761,0
3955415,776.81,934,757,0
3955425,774.08,934,762,0
3955435,764.33,934,755,0
3955445,745.07,934,765,0
3955456,715.22,934,754,0
3955465,675.17,934,762,0
3955475,625.49,934,755,0
3955485,567.44,934,765,0
3955495,505.30,934,754,0
3955505,444.99,934,761,0
3955515,390.52,934,755,0
3955525,344.38,934,763,0
3955535,307.45,934,754,0
3955545,280.06,934,761,0
3955555,261.57,934,755,0
3955565,251.03,934,763,0
3955575,246.91,934,754,0
3955585,247.79,934,761,0
3955595,252.18,934,755,0
3955605,258.64,934,763,0
3955615,266.08,934,754,0
3955625,273.64,934,763,0
3955635,280.56,934,755,0
3955645,286.44,934,763,0
3955655,290.93,934,754,0
3955665,294.04,934,763,0
3955675,295.78,934,756,0
3955685,296.28,934,762,0
3955695,295.64,934,754,0
3955705,294.12,934,763,0
3955715,291.94,934,756,0
3955725,289.43,934,763,0
3955735,286.73,934,754,0
3955745,284.11,934,763,0
3955756,281.68,934,754,0
3955766,279.67,934,765,0
3955776,278.14,934,754,0
3955786,277.16,934,763,0
3955796,276.72,934,754,0
3955806,276.85,934,764,0
3955816,277.41,934,754,0
3955826,278.40,934,763,0
3955836,279.69,934,754,0
3955846,281.24,934,763,0
3955856,282.93,934,754,0
3955866,284.62,934,763,0
3955876,286.36,934,754,0
3955886,288.10,934,770,0
3955896,289.74,934,754,0
3955906,291.27,934,766,0
3955916,292.69,934,754,0
3955927,293.86,934,764,0
3955937,294.84,934,754,0
3955947,295.49,934,763,0
3955957,295.86,934,755,0
3955968,296.07,934,762,0
3955977,296.44,934,754,0
3955987,297.68,934,763,0
3955997,301.42,934,755,0
3956007,309.69,934,762,0
3956017,324.66,934,755,0
3956036,348.80,876,754,0
3956039,385.38,876,757,0
3956048,431.29,876,762,0
3956058,482.93,876,756,0
3956068,536.82,876,762,0
3956078,589.46,876,753,0
3956088,637.80,876,762,0
3956098,678.61,876,757,0
3956108,708.13,876,762,0
3956118,728.79,876,757,0
3956128,743.25,876,762,0
3956139,753.38,876,756,0
3956148,760.46,876,762,0
3956158,765.42,876,756,0
3956168,768.90,876,762,0
3956178,771.33,876,756,0
3956188,773.03,876,762,0
3956198,774.22,876,756,0
3956208,775.05,876,762,0
3956218,775.64,876,753,0
3956228,776.05,876,768,0
3956238,776.33,876,756,0
3956248,776.53,876,762,0
3956258,776.67,876,756,0
3956268,776.77,876,762,0
3956278,776.84,876,756,0
3956288,776.89,876,762,0
3956298,772.46,876,756,0
3956308,759.81,876,761,0
3956318,737.45,876,754,0
3956328,704.40,876,762,0
3956338,660.95,876,756,0
3956348,607.95,876,761,0
3956358,547.07,876,755,0
3956368,484.22,876,761,0
3956378,424.92,876,756,0
3956388,372.19,876,760,0
3956398,328.42,876,755,0
3956408,294.39,876,761,0
3956418,270.23,876,755,0
3956428,254.78,876,761,0
3956439,247.00,876,756,0
3956449,245.16,876,761,0
3956459,247.85,876,756,0
3956469,253.38,876,760,0
3956480,260.64,876,757,0
3956489,268.25,876,761,0
3956499,275.59,876,755,0
3956509,281.88,876,760,0
3956519,287.06,876,754,0
3956529,290.77,876,761,0
3956539,293.24,876,756,0
3956549,294.28,876,760,0
3956559,294.37,876,757,0
3956569,293.44,876,761,0
3956579,291.98,876,756,0
3956589,289.93,876,760,0
3956599,287.64,876,754,0
3956609,285.17,876,761,0
3956619,282.98,876,756,0
3956629,280.89,876,760,0
3956639,279.29,876,757,0
3956649,278.00,876,760,0
3956659,277.36,876,747,0
3956669,277.17,876,760,0
3956679,277.63,876,757,0
3956689,278.43,876,760,0
3956699,279.80,876,752,0
3956709,281.40,876,760,0
3956719,283.42,876,757,0
3956729,285.48,876,759,0
3956739,287.70,876,756,0
3956749,289.72,876,760,0
3956759,291.64,876,757,0
3956769,293.21,876,760,0
3956780,294.56,876,758,0
3956790,295.42,876,759,0
3956800,296.32,876,757,0
3956810,297.55,876,759,0
3956820,300.47,876,760,0
3956830,306.59,876,759,0
3956840,318.41,876,759,0
3956859,338.35,823,759,0
3956862,370.13,823,761,0
3956871,412.69,823,758,0
3956881,462.37,823,760,0
3956891,515.61,823,758,0
3956901,569.30,823,761,0
3956911,619.91,823,759,0
3956921,664.21,823,760,0
3956931,698.05,823,759,0
3956941,721.73,823,761,0
3956951,738.31,823,759,0
3956961,749.92,823,760,0
3956971,758.04,823,759,0
3956981,763.77,823,760,0
3956992,767.78,823,758,0
3957001,770.63,823,760,0
3957011,772.63,823,759,0
3957021,774.03,823,761,0
3957031,775.00,823,758,0
3957041,775.69,823,760,0
3957051,776.13,823,759,0
3957061,776.47,823,760,0
3957071,776.67,823,759,0
3957081,776.81,823,760,0
3957091,776.91,823,759,0
3957101,777.02,823,761,0
3957111,777.10,823,758,0
3957121,777.16,823,759,0
3957131,777.15,823,759,0
3957141,776.34,823,760,0
3957151,769.42,823,758,0
3957161,753.27,823,760,0
3957171,726.53,823,758,0
3957181,688.91,823,760,0
3957191,640.72,823,757,0
3957201,583.16,823,760,0
3957211,518.57,823,758,0
3957221,453.90,823,759,0
3957231,393.76,823,758,0
3957241,340.99,823,759,0
3957251,297.15,823,758,0
3957261,263.08,823,760,0
3957271,238.28,823,758,0
3957281,221.95,823,760,0
3957292,212.71,823,757,0
3957302,209.37,823,760,0
3957312,210.37,823,757,0
3957322,214.55,823,761,0
3957332,220.60,823,757,0
3957342,227.75,823,760,0
3957352,235.07,823,757,0
3957362,242.07,823,760,0
3957372,248.27,823,757,0
3957382,253.59,823,761,0
3957392,257.74,823,757,0
3957402,260.82,823,760,0
3957412,262.76,823,757,0
3957422,263.82,823,760,0
3957432,264.04,823,757,0
3957442,263.73,823,761,0
3957452,262.95,823,757,0
3957463,262.07,823,761,0
3957473,261.10,823,757,0
3957483,260.26,823,762,0
3957493,259.54,823,756,0
3957504,259.21,823,762,0
3957513,259.19,823,757,0
3957523,259.56,823,762,0
3957533,260.21,823,756,0
3957543,261.22,823,765,0
3957553,262.52,823,757,0
3957563,264.12,823,763,0
3957573,265.80,823,756,0
3957583,267.62,823,766,0
3957593,269.40,823,757,0
3957603,271.30,823,761,0
3957613,273.14,823,756,0
3957623,274.85,823,762,0
3957633,276.35,823,757,0
3957643,277.75,823,762,0
3957653,278.89,823,756,0
3957663,279.91,823,764,0
3957673,280.80,823,754,0
3957683,282.01,823,761,0
3957693,284.45,823,756,0
3957703,289.85,823,764,0
3957723,300.43,863,763,0
3957726,319.89,863,763,0
3957735,350.31,863,755,0
3957745,392.64,863,764,0
3957755,442.89,863,756,0
3957765,497.70,863,765,0
3957775,553.59,863,755,0
3957785,607.07,863,767,0
3957795,653.68,863,755,0
3957805,690.67,863,765,0
3957815,716.57,863,755,0
3957825,734.70,863,765,0
3957835,747.43,863,756,0
3957846,756.35,863,764,0
3957855,762.59,863,755,0
3957865,767.00,863,765,0
3957875,770.08,863,756,0
3957885,772.24,863,764,0
3957895,773.80,863,755,0
3957905,774.89,863,764,0
3957915,775.69,863,755,0
3957925,776.30,863,765,0
3957935,776.72,863,755,0
3957945,777.06,863,765,0
3957955,777.30,863,755,0
3957965,777.43,863,765,0
3957975,777.51,863,755,0
3957985,777.53,863,764,0
3957995,777.54,863,756,0
3958005,777.51,863,766,0
3958016,777.44,863,756,0
3958025,777.39,863,765,0
3958035,777.36,863,756,0
3958045,777.30,863,763,0
3958055,772.19,863,756,0
3958065,758.68,863,763,0
3958075,734.47,863,755,0
3958085,698.68,863,763,0
3958095,651.54,863,755,0
3958105,594.17,863,763,0
3958115,527.82,863,754,0
3958125,459.09,863,763,0
3958135,392.97,863,755,0
3958145,333.37,863,763,0
3958155,282.64,863,754,0
3958165,241.69,863,763,0
3958175,210.54,863,755,0
3958185,188.65,863,764,0
3958195,175.08,863,754,0
3958205,168.59,863,763,0
3958215,167.90,863,755,0
3958225,171.61,863,762,0
3958235,178.54,863,754,0
3958245,187.47,863,763,0
3958255,197.53,863,755,0
3958265,207.83,863,764,0
3958275,217.78,863,754,0
3958285,226.80,863,764,0
3958295,234.62,863,755,0
3958305,241.08,863,762,0
3958316,246.15,863,756,0
3958326,249.75,863,762,0
3958336,252.18,863,756,0
3958346,253.50,863,761,0
3958356,254.08,863,756,0
3958366,253.97,863,761,0
3958376,253.51,863,756,0
3958386,252.75,863,761,0
3958396,252.10,863,756,0
3958406,251.47,863,762,0
3958416,251.11,863,757,0
3958426,250.95,863,761,0
3958436,251.27,863,751,0
3958446,251.83,863,764,0
3958456,252.82,863,756,0
3958466,253.99,863,762,0
3958476,255.54,863,750,0
3958487,257.18,863,761,0
3958497,259.01,863,744,0
3958507,260.81,863,761,0
3958517,262.71,863,756,0
3958528,264.47,863,761,0
3958537,266.26,863,757,0
3958547,267.81,863,761,0
3958557,269.36,863,754,0
3958567,270.67,863,761,0
3958577,271.93,863,757,0
3958587,272.85,863,761,0
3958597,273.79,863,752,0
3958607,274.84,863,763,0
3958617,276.69,863,747,0
3958627,280.30,863,763,0
3958637,287.88,863,753,0
3958657,301.72,934,754,0
3958660,325.84,934,761,0
3958669,361.72,934,760,0
3958679,407.96,934,761,0
3958689,460.77,934,759,0
3958700,516.85,934,761,0
3958710,572.57,934,759,0
3958720,624.43,934,761,0
3958730,667.84,934,759,0
3958740,700.59,934,762,0
3958750,723.51,934,758,0
3958760,739.56,934,761,0
3958770,750.79,934,759,0
3958780,758.65,934,762,0
3958790,764.16,934,758,0
3958800,768.05,934,761,0
3958810,770.82,934,758,0
3958820,772.80,934,762,0
3958830,774.23,934,759,0
3958840,775.28,934,761,0
3958850,776.05,934,759,0
3958860,776.64,934,762,0
3958871,777.05,934,758,0
3958881,777.33,934,762,0
3958891,777.49,934,758,0
3958901,777.56,934,762,0
3958912,777.56,934,757,0
3958921,777.52,934,763,0
3958931,777.45,934,758,0
3958941,777.40,934,762,0
3958951,777.32,934,757,0
3958961,776.37,934,762,0
3958971,769.14,934,758,0
3958981,752.47,934,762,0
3958991,724.69,934,757,0
3959001,685.95,934,761,0
3959011,636.51,934,757,0
3959021,577.51,934,761,0
3959031,511.19,934,757,0
3959041,444.66,934,760,0
3959051,382.58,934,757,0
3959061,328.10,934,761,0
3959071,282.39,934,757,0
3959081,246.31,934,761,0
3959091,219.52,934,757,0
3959101,201.45,934,761,0
3959111,190.81,934,757,0
3959121,186.46,934,761,0
3959131,186.96,934,757,0
3959141,191.13,934,761,0
3959151,197.65,934,757,0
3959161,205.68,934,762,0
3959171,214.26,934,758,0
3959181,222.84,934,761,0
3959191,230.77,934,757,0
3959201,237.87,934,761,0
3959212,243.82,934,757,0
3959222,248.68,934,761,0
3959232,252.33,934,756,0
3959242,254.89,934,763,0
3959252,256.38,934,754,0
3959262,257.17,934,761,0
3959272,257.29,934,756,0
3959282,257.03,934,763,0
3959292,256.46,934,755,0
3959302,255.85,934,761,0
3959312,255.30,934,756,0
3959322,254.95,934,762,0
3959332,254.79,934,754,0
3959342,254.94,934,761,0
3959352,255.26,934,757,0
3959362,255.87,934,763,0
3959372,256.72,934,754,0
3959383,257.83,934,764,0
3959393,259.08,934,754,0
3959403,260.47,934,764,0
3959413,261.92,934,754,0
3959424,263.40,934,763,0
3959433,264.86,934,754,0
3959443,266.23,934,764,0
3959453,267.54,934,754,0
3959463,268.75,934,764,0
3959473,269.85,934,754,0
3959483,270.92,934,766,0
3959493,272.06,934,753,0
3959503,273.16,934,765,0
3959513,274.31,934,754,0
3959523,275.42,934,763,0
3959533,276.53,934,754,0
3959543,277.66,934,764,0
3959553,278.79,934,754,0
3959572,280.22,916,753,0
3959575,283.07,916,750,0
3959584,288.58,916,766,0
3959595,299.12,916,751,0
3959604,316.83,916,767,0
3959614,344.44,916,754,0
3959624,384.12,916,765,0
3959634,432.60,916,756,0
3959644,486.03,916,764,0
3959654,541.18,916,756,0
3959664,594.35,916,765,0
3959674,642.46,916,756,0
3959684,682.10,916,765,0
3959694,710.57,916,755,0
3959704,730.50,916,764,0
3959714,744.49,916,756,0
3959724,754.29,916,764,0
3959734,761.19,916,755,0
3959744,766.02,916,764,0
3959754,769.40,916,742,0
3959764,771.76,916,765,0
3959774,773.42,916,754,0
3959784,774.54,916,769,0
3959794,775.32,916,746,0
3959804,775.82,916,764,0
3959814,776.18,916,756,0
3959824,776.42,916,764,0
3959834,776.60,916,756,0
3959844,776.72,916,766,0
3959854,776.80,916,747,0
3959864,776.86,916,767,0
3959874,776.90,916,747,0
3959884,776.89,916,766,0
3959895,771.09,916,749,0
3959905,756.15,916,763,0
3959915,730.52,916,751,0
3959925,693.72,916,766,0
3959936,646.49,916,750,0
3959945,590.03,916,763,0
3959955,525.86,916,754,0
3959965,461.23,916,762,0
3959975,401.25,916,755,0
3959985,348.89,916,762,0
3959995,305.94,916,754,0
3960005,272.57,916,762,0
3960015,248.53,916,752,0
3960025,232.81,916,764,0
3960035,224.43,916,747,0
3960045,221.73,916,762,0
3960055,223.44,916,754,0
3960065,228.06,916,763,0
3960075,234.69,916,751,0
3960085,242.11,916,763,0
3960095,249.79,916,753,0
3960105,256.88,916,764,0
3960115,263.17,916,756,0
3960125,268.22,916,762,0
3960135,272.18,916,750,0
3960145,274.79,916,761,0
3960155,276.39,916,756,0
3960165,276.92,916,762,0
3960175,276.69,916,755,0
3960185,275.75,916,762,0
3960195,274.45,916,756,0
3960205,272.82,916,761,0
3960215,271.24,916,754,0
3960225,269.63,916,763,0
3960236,268.33,916,755,0
3960246,267.24,916,761,0
3960256,266.61,916,750,0
3960266,266.34,916,760,0
3960276,266.58,916,758,0
3960286,267.14,916,761,0
3960296,268.12,916,754,0
3960306,269.24,916,761,0
3960316,270.76,916,754,0
3960326,272.33,916,761,0
3960336,274.16,916,754,0
3960346,275.91,916,761,0
3960356,277.87,916,755,0
3960366,279.71,916,763,0
3960376,281.64,916,753,0
3960386,283.33,916,762,0
3960396,285.03,916,755,0
3960407,286.44,916,761,0
3960417,287.81,916,754,0
3960427,288.76,916,760,0
3960437,289.56,916,757,0
3960448,289.91,916,759,0
3960457,290.15,916,753,0
3960467,290.11,916,759,0
3960477,290.33,916,757,0
3960487,291.17,916,759,0
3960497,293.99,916,756,0
3960516,300.55,944,756,0
3960519,314.49,944,762,0
3960528,337.40,944,759,0
3960538,371.09,944,760,0
3960548,415.25,944,759,0
3960558,466.22,944,761,0
3960568,520.54,944,759,0
3960578,574.76,944,760,0
3960588,624.38,944,759,0
3960598,666.82,944,761,0
3960608,699.83,944,759,0
3960619,722.94,944,761,0
3960628,739.11,944,759,0
3960638,750.44,944,761,0
3960648,758.41,944,758,0
3960658,763.98,944,761,0
3960668,767.89,944,759,0
3960678,770.62,944,761,0
3960688,772.54,944,759,0
3960698,773.87,944,761,0
3960708,774.81,944,759,0
3960718,775.47,944,760,0
3960728,775.93,944,759,0
3960738,776.25,944,761,0
3960748,776.47,944,759,0
3960758,776.63,944,761,0
3960768,771.64,944,759,0
3960778,758.38,944,761,0
3960788,734.82,944,758,0
3960798,700.93,944,760,0
3960808,656.77,944,758,0
3960818,603.39,944,760,0
3960828,542.08,944,758,0
3960838,479.74,944,760,0
3960848,420.97,944,758,0
3960858,369.60,944,760,0
3960868,326.99,944,757,0
3960878,294.29,944,759,0
3960888,271.23,944,758,0
3960898,257.36,944,761,0
3960908,251.08,944,758,0
3960919,251.23,944,761,0
3960929,255.79,944,758,0
3960939,263.40,944,761,0
3960949,272.45,944,757,0
3960960,281.96,944,761,0
3960969,290.67,944,757,0
3960979,298.23,944,761,0
3960989,303.90,944,757,0
3960999,307.83,944,761,0
3961009,309.81,944,758,0
3961019,310.30,944,761,0
3961029,309.31,944,758,0
3961039,307.33,944,761,0
3961049,304.40,944,758,0
3961059,301.15,944,760,0
3961069,297.64,944,757,0
3961079,294.23,944,761,0
3961089,290.90,944,758,0
3961099,288.02,944,761,0
3961109,285.48,944,758,0
3961119,283.62,944,762,0
3961129,282.24,944,757,0
3961139,281.52,944,761,0
3961149,281.28,944,758,0
3961159,281.63,944,761,0
3961169,282.38,944,757,0
3961179,283.72,944,761,0
3961189,285.31,944,757,0
3961199,287.27,944,762,0
3961209,289.33,944,757,0
3961219,291.68,944,761,0
3961229,294.00,944,758,0
3961239,296.36,944,761,0
3961249,298.52,944,757,0
3961260,300.68,944,761,0
3961270,302.49,944,757,0
3961280,304.10,944,761,0
3961290,305.27,944,757,0
3961300,306.17,944,762,0
3961310,306.77,944,757,0
3961320,307.56,944,761,0
3961330,309.19,944,757,0
3961340,313.38,944,762,0
3961350,321.97,944,758,0
3961360,337.62,944,762,0
3961370,362.76,944,757,0
3961390,399.52,873,757,0
3961393,444.96,873,747,0
3961402,495.67,873,766,0
3961412,548.23,873,755,0
3961422,599.42,873,765,0
3961432,645.75,873,755,0
3961442,684.14,873,765,0
3961452,712.00,873,751,0
3961462,731.50,873,774,0
3961473,745.15,873,752,0
3961483,754.70,873,765,0
3961493,761.39,873,749,0
3961503,766.07,873,766,0
3961513,769.35,873,755,0
3961523,771.65,873,770,0
3961533,773.25,873,750,0
3961543,774.38,873,765,0
3961553,775.16,873,756,0
3961563,775.71,873,765,0
3961573,776.10,873,747,0
3961583,776.41,873,764,0
3961593,776.63,873,751,0
3961603,776.79,873,765,0
3961613,776.89,873,747,0
3961623,774.14,873,767,0
3961633,764.54,873,749,0
3961644,745.56,873,764,0
3961654,716.21,873,749,0
3961664,676.42,873,767,0
3961674,627.09,873,748,0
3961684,569.38,873,766,0
3961694,507.85,873,744,0
3961704,447.98,873,763,0
3961714,393.99,873,749,0
3961724,348.18,873,762,0
3961734,311.91,873,750,0
3961744,285.07,873,762,0
3961754,267.26,873,750,0
3961764,257.07,873,763,0
3961774,253.32,873,746,0
3961784,254.29,873,763,0
3961794,258.71,873,749,0
3961804,265.01,873,763,0
3961815,272.38,873,752,0
3961825,279.64,873,763,0
3961835,286.39,873,753,0
3961845,291.89,873,761,0
3961856,296.25,873,756,0
3961865,299.09,873,762,0
3961875,300.78,873,753,0
3961885,301.06,873,761,0
3961895,300.53,873,756,0
3961905,299.04,873,762,0
3961915,297.23,873,753,0
3961925,294.80,873,761,0
3961935,292.33,873,756,0
3961945,289.66,873,762,0
3961955,287.32,873,753,0
3961965,285.12,873,761,0
3961975,283.46,873,755,0
3961985,282.04,873,763,0
3961995,281.30,873,752,0
3962005,280.91,873,762,0
3962015,281.15,873,755,0
3962025,281.62,873,764,0
3962035,282.50,873,753,0
3962045,283.47,873,762,0
3962055,284.83,873,755,0
3962065,286.16,873,760,0
3962075,287.79,873,752,0
3962085,289.27,873,761,0
3962095,290.94,873,755,0
3962105,292.37,873,761,0
3962115,293.89,873,752,0
3962125,295.04,873,764,0
3962135,296.18,873,755,0
3962145,296.90,873,761,0
3962156,297.96,873,757,0
3962166,299.73,873,760,0
3962176,304.10,873,759,0
3962186,312.98,873,760,0
3962196,329.44,873,761,0
3962215,355.28,826,758,0
3962218,393.94,826,763,0
3962227,441.06,826,759,0
3962237,493.41,826,762,0
3962247,547.50,826,760,0
3962257,599.94,826,761,0
3962267,646.97,826,759,0
3962277,685.98,826,763,0
3962287,713.29,826,759,0
3962297,732.40,826,762,0
3962307,745.78,826,759,0
3962317,755.15,826,762,0
3962327,761.70,826,759,0
3962337,766.29,826,762,0
3962347,769.55,826,759,0
3962357,771.83,826,763,0
3962368,773.42,826,759,0
3962377,774.54,826,761,0
3962387,775.32,826,759,0
3962397,775.87,826,762,0
3962407,776.25,826,759,0
3962417,776.47,826,762,0
3962427,776.63,826,759,0
3962437,776.74,826,763,0
3962447,776.82,826,759,0
3962457,776.87,826,761,0
3962467,776.91,826,759,0
3962477,776.94,826,762,0
3962487,776.96,826,759,0
3962497,776.97,826,762,0
3962507,773.68,826,759,0
3962517,762.98,826,762,0
3962527,742.24,826,758,0
3962537,710.62,826,762,0
3962547,668.35,826,758,0
3962557,616.26,826,761,0
3962567,555.37,826,758,0
3962577,490.63,826,761,0
3962587,427.65,826,759,0
3962597,370.67,826,761,0
3962607,321.74,826,758,0
3962617,281.96,826,762,0
3962627,251.33,826,758,0
3962637,229.72,826,761,0
3962647,215.83,826,758,0
3962657,208.72,826,762,0
3962668,206.88,826,758,0
3962678,209.27,826,762,0
3962688,214.46,826,757,0
3962698,221.61,826,762,0
3962708,229.53,826,757,0
3962718,237.81,826,763,0
3962728,245.58,826,757,0
3962738,252.65,826,763,0
3962748,258.54,826,757,0
3962758,263.39,826,762,0
3962768,266.92,826,758,0
3962778,269.43,826,763,0
3962788,270.84,826,757,0
3962798,271.58,826,762,0
3962808,271.57,826,758,0
3962818,271.23,826,763,0
3962828,270.48,826,758,0
3962839,269.73,826,762,0
3962849,268.91,826,757,0
3962859,268.30,826,763,0
3962869,267.82,826,757,0
3962880,267.75,826,767,0
3962889,267.91,826,757,0
3962899,268.49,826,763,0
3962909,269.33,826,757,0
3962919,270.60,826,767,0
3962929,272.05,826,757,0
3962939,273.75,826,763,0
3962949,275.45,826,757,0
3962959,277.29,826,767,0
3962969,279.05,826,757,0
3962979,280.79,826,763,0
3962989,282.27,826,757,0
3962999,283.60,826,765,0
3963009,284.58,826,757,0
3963019,285.39,826,762,0
3963029,285.96,826,757,0
3963039,286.61,826,765,0
3963049,287.67,826,756,0
3963059,290.17,826,763,0
3963069,295.73,826,757,0
3963079,306.91,826,764,0
3963099,326.31,883,768,0
3963102,357.63,883,767,0
3963111,400.30,883,746,0
3963121,450.48,883,771,0
3963131,504.85,883,744,0
3963141,560.05,883,768,0
3963151,612.45,883,755,0
3963161,658.56,883,766,0
3963171,694.09,883,745,0
3963181,719.01,883,767,0
3963191,736.45,883,748,0
3963201,748.66,883,771,0
3963211,757.20,883,744,0
3963222,763.18,883,768,0
3963231,767.41,883,747,0
3963241,770.38,883,769,0
3963251,772.41,883,743,0
3963261,773.83,883,767,0
3963271,774.82,883,746,0
3963281,775.56,883,768,0
3963291,776.12,883,744,0
3963301,776.47,883,767,0
3963311,776.72,883,746,0
3963321,776.89,883,768,0
3963331,777.01,883,743,0
3963341,777.09,883,767,0
3963351,777.11,883,745,0
3963361,777.12,883,770,0
3963371,777.12,883,743,0
3963381,777.13,883,766,0
3963392,776.45,883,742,0
3963401,770.36,883,771,0
3963411,755.38,883,741,0
3963421,729.68,883,767,0
3963431,692.75,883,739,0
3963441,645.34,883,770,0
3963451,588.41,883,741,0
3963461,523.87,883,766,0
3963471,458.17,883,740,0
3963481,396.32,883,771,0
3963491,341.66,883,741,0
3963501,295.95,883,768,0
3963511,259.62,883,739,0
3963521,232.56,883,772,0
3963531,214.27,883,740,0
3963541,203.47,883,769,0
3963551,199.00,883,740,0
3963561,199.47,883,769,0
3963571,203.66,883,746,0
3963581,210.32,883,771,0
3963591,218.54,883,741,0
3963601,227.33,883,769,0
3963611,236.10,883,746,0
3963621,244.26,883,771,0
3963631,251.47,883,742,0
3963641,257.41,883,767,0
3963651,262.13,883,746,0
3963661,265.52,883,769,0
3963671,267.72,883,741,0
3963681,268.75,883,768,0
3963692,268.95,883,740,0
3963702,268.45,883,770,0
3963712,267.67,883,743,0
3963722,266.53,883,764,0
3963732,265.38,883,748,0
3963742,264.33,883,766,0
3963752,263.67,883,743,0
3963762,263.17,883,763,0
3963772,263.16,883,747,0
3963782,263.33,883,766,0
3963792,264.04,883,743,0
3963802,264.93,883,765,0
3963812,266.24,883,747,0
3963822,267.58,883,765,0
3963832,269.25,883,742,0
3963842,270.76,883,763,0
3963852,272.50,883,746,0
3963863,274.02,883,762,0
3963873,275.69,883,749,0
3963883,277.07,883,762,0
3963893,278.59,883,751,0
3963904,279.78,883,761,0
3963913,281.13,883,749,0
3963923,282.12,883,763,0
3963933,283.16,883,751,0
3963943,283.80,883,762,0
3963953,284.50,883,748,0
3963963,284.86,883,762,0
3963973,285.68,883,750,0
3963983,286.97,883,762,0
3964002,290.20,904,762,0
3964005,297.42,904,759,0
3964014,311.27,904,756,0
3964024,333.94,904,761,0
3964034,367.69,904,754,0
3964044,411.93,904,765,0
3964054,463.08,904,757,0
3964064,517.70,904,762,0
3964075,571.92,904,759,0
3964084,622.26,904,762,0
3964094,665.46,904,757,0
3964104,698.93,904,762,0
3964114,722.35,904,759,0
3964124,738.74,904,762,0
3964134,750.22,904,756,0
3964144,758.25,904,762,0
3964154,763.88,904,758,0
3964164,767.81,904,763,0
3964174,770.57,904,756,0
3964184,772.50,904,762,0
3964194,773.89,904,759,0
3964204,774.87,904,763,0
3964214,775.59,904,755,0
3964224,776.10,904,762,0
3964234,776.50,904,758,0
3964244,776.78,904,761,0
3964254,776.97,904,755,0
3964264,777.07,904,762,0
3964274,777.13,904,758,0
3964284,777.14,904,761,0
3964294,777.14,904,755,0
3964304,777.10,904,762,0
3964314,772.48,904,758,0
3964324,759.44,904,761,0
3964334,736.68,904,754,0
3964344,703.09,904,762,0
3964354,659.18,904,757,0
3964364,605.51,904,761,0
3964375,543.73,904,759,0
3964385,479.70,904,759,0
3964395,419.14,904,761,0
3964405,364.59,904,758,0
3964416,318.77,904,762,0
3964425,282.02,904,759,0
3964435,254.89,904,761,0
3964445,236.19,904,758,0
3964455,225.33,904,762,0
3964465,220.39,904,760,0
3964475,220.53,904,760,0
3964485,223.93,904,758,0
3964495,229.91,904,761,0
3964505,236.92,904,760,0
3964515,244.66,904,760,0
3964525,251.96,904,758,0
3964535,258.96,904,761,0
3964545,264.84,904,760,0
3964555,269.95,904,760,0
3964565,273.65,904,758,0
3964575,276.54,904,761,0
3964585,278.13,904,757,0
3964595,279.17,904,760,0
3964605,279.20,904,758,0
3964615,278.93,904,761,0
3964625,277.92,904,757,0
3964635,276.92,904,760,0
3964645,275.53,904,758,0
3964655,274.38,904,761,0
3964665,273.11,904,757,0
3964675,272.35,904,760,0
3964685,271.60,904,758,0
3964695,271.46,904,761,0
3964705,271.45,904,757,0
3964716,272.05,904,762,0
3964726,272.76,904,757,0
3964736,273.90,904,762,0
3964746,275.00,904,756,0
3964756,276.46,904,763,0
3964766,277.78,904,757,0
3964776,279.35,904,762,0
3964786,280.66,904,756,0
3964796,282.09,904,763,0
3964806,283.26,904,757,0
3964816,284.55,904,762,0
3964826,285.59,904,756,0
3964836,286.70,904,762,0
3964846,287.52,904,757,0
3964856,288.48,904,762,0
3964866,289.19,904,756,0
3964876,290.03,904,763,0
3964887,290.58,904,756,0
3964897,291.22,904,763,0
3964907,291.67,904,755,0
3964917,292.41,904,763,0
3964928,293.57,904,755,0
3964946,296.32,944,755,0
3964949,302.69,944,741,0
3964958,315.04,944,767,0
3964968,335.77,944,749,0
3964978,367.04,944,764,0
3964988,409.37,944,756,0
3964998,459.06,944,767,0
3965008,512.74,944,751,0
3965018,566.48,944,764,0
3965028,617.03,944,756,0
3965038,660.99,944,766,0
3965048,695.75,944,751,0
3965058,720.08,944,764,0
3965068,737.12,944,756,0
3965078,749.04,944,766,0
3965088,757.43,944,752,0
3965099,763.30,944,772,0
3965108,767.41,944,755,0
3965118,770.29,944,765,0
3965128,772.30,944,753,0
3965138,773.71,944,772,0
3965148,774.70,944,756,0
3965158,775.39,944,765,0
3965168,775.87,944,753,0
3965178,776.21,944,771,0
3965188,776.45,944,756,0
3965198,776.61,944,765,0
3965208,776.73,944,753,0
3965218,776.81,944,771,0
3965228,776.87,944,756,0
3965238,776.22,944,765,0
3965248,769.85,944,753,0
3965258,754.77,944,770,0
3965268,729.34,944,745,0
3965278,693.67,944,724,1
3965288,648.04,944,753,0
3965298,593.51,944,739,0
3965308,532.07,944,745,0
3965318,470.42,944,724,1
3965328,413.04,944,753,0
3965338,363.01,944,736,0
3965348,321.44,944,746,0
3965358,289.12,944,724,1
3965368,265.73,944,754,0
3965378,250.59,944,734,1
3965388,242.32,944,747,0
3965399,239.65,944,752,0
3965409,241.13,944,740,0
3965419,245.55,944,767,0
3965429,251.64,944,736,0
3965440,258.56,944,771,0
3965449,265.42,944,741,0
3965459,271.81,944,766,0
3965469,277.31,944,736,0
3965479,281.80,944,772,0
3965489,285.08,944,741,0
3965499,287.28,944,765,0
3965509,288.44,944,736,0
3965519,288.74,944,771,0
3965529,288.26,944,742,0
3965539,287.20,944,764,0
3965549,285.64,944,736,0
3965559,283.86,944,771,0
3965569,281.93,944,742,0
3965579,280.07,944,763,0
3965589,278.33,944,736,0
3965599,276.86,944,771,0
3965609,275.75,944,733,1
3965619,275.05,944,762,0
3965629,274.74,944,737,0
3965639,274.86,944,771,0
3965649,275.33,944,733,1
3965659,276.17,944,762,0
3965669,277.32,944,737,0
3965679,278.68,944,771,0
3965689,280.28,944,733,1
3965699,282.12,944,762,0
3965709,284.01,944,737,0
3965719,285.90,944,771,0
3965729,287.77,944,734,1
3965740,289.64,944,772,0
3965750,291.46,944,730,1
3965760,293.17,944,771,0
3965770,294.62,944,725,1
3965780,295.93,944,770,0
3965790,297.15,944,731,1
3965800,298.18,944,772,0
3965810,299.02,944,726,1
3965820,299.62,944,770,0
3965830,300.03,944,731,1
3965840,300.32,944,772,0
3965850,300.57,944,727,1
3965860,300.91,944,771,0
3965870,301.84,944,731,1
3965880,304.29,944,772,0
3965899,310.24,953,771,0
3965902,322.68,953,764,0
3965911,343.57,953,735,0
3965921,375.02,953,768,0
3965931,417.23,953,741,0
3965941,466.49,953,766,0
3965952,519.53,953,747,0
3965961,572.86,953,768,0
3965971,622.31,953,742,0
3965981,665.21,953,767,0
3965991,698.74,953,747,0
3966001,722.22,953,768,0
3966011,738.65,953,741,0
3966021,750.16,953,766,0
3966031,758.21,953,747,0
3966041,763.85,953,769,0
3966051,767.79,953,740,0
3966061,770.56,953,767,0
3966071,772.49,953,746,0
3966081,773.84,953,769,0
3966091,774.79,953,740,0
3966101,775.45,953,767,0
3966111,775.92,953,745,0
3966121,776.24,953,766,0
3966131,776.47,953,739,0
3966141,776.63,953,767,0
3966151,776.74,953,745,0
3966161,776.78,953,766,0
3966171,772.34,953,735,0
3966181,759.81,953,767,0
3966191,737.50,953,722,1
3966201,704.60,953,765,0
3966211,661.91,953,722,1
3966221,610.12,953,767,0
3966231,550.69,953,737,0
3966241,489.28,953,765,0
3966252,431.47,953,731,1
3966262,380.16,953,765,0
3966272,337.85,953,743,0
3966282,304.60,953,763,0
3966292,280.80,953,752,0
3966302,265.35,953,765,0
3966312,257.61,953,747,0
3966322,255.50,953,764,0
3966332,258.14,953,748,0
3966342,263.32,953,765,0
3966352,270.43,953,746,0
3966362,277.76,953,764,0
3966372,285.16,953,723,1
3966382,291.50,953,765,0
3966392,297.00,953,722,1
3966402,300.86,953,764,0
3966412,303.65,953,750,0
3966423,304.78,953,763,0
3966433,305.06,953,723,1
3966443,304.14,953,761,0
3966453,302.73,953,723,1
3966464,300.58,953,760,0
3966473,298.44,953,722,1
3966483,295.95,953,761,0
3966493,293.86,953,723,1
3966503,291.76,953,760,0
3966513,290.16,953,753,0
3966523,288.61,953,761,0
3966533,287.66,953,723,1
3966543,286.86,953,760,0
3966553,286.77,953,722,1
3966563,286.84,953,762,0
3966573,287.53,953,757,0
3966583,288.27,953,760,0
3966593,289.60,953,722,1
3966603,290.88,953,762,0
3966613,292.50,953,757,0
3966623,293.85,953,760,0
3966633,295.44,953,723,1
3966643,296.68,953,762,0
3966653,298.10,953,723,1
3966663,299.14,953,760,0
3966673,300.34,953,723,1
3966683,301.27,953,762,0
3966693,302.39,953,723,1
3966703,303.13,953,760,0
3966713,304.03,953,759,0
3966723,304.54,953,762,0
3966733,305.19,953,723,1
3966743,305.48,953,761,0
3966753,305.80,953,723,1
3966764,305.86,953,760,0
3966774,306.29,953,761,0
3966784,307.06,953,758,0
3966794,309.78,953,723,1
3966804,315.85,953,758,0
3966823,327.81,924,759,0
3966826,348.87,924,756,0
3966835,380.96,924,763,0
3966845,423.32,924,757,0
3966855,472.55,924,763,0
3966865,525.14,924,758,0
3966875,577.86,924,763,0
3966885,627.31,924,757,0
3966895,669.35,924,763,0
3966905,701.64,924,758,0
3966915,724.25,924,763,0
3966925,740.08,924,757,0
3966935,751.15,924,763,0
3966945,758.91,924,758,0
3966955,764.33,924,763,0
3966965,768.13,924,757,0
3966976,770.79,924,764,0
3966985,772.66,924,758,0
3966995,773.96,924,763,0
3967005,774.87,924,757,0
3967015,775.51,924,763,0
3967025,775.96,924,758,0
3967035,776.27,924,763,0
3967045,776.49,924,758,0
3967055,776.64,924,763,0
3967065,775.72,924,758,0
3967075,769.42,924,763,0
3967085,754.64,924,757,0
3967095,730.10,924,763,0
3967105,695.61,924,758,0
3967115,651.72,924,762,0
3967125,599.22,924,757,0
3967135,540.74,924,723,1
3967145,482.02,924,756,0
3967155,427.88,924,723,1
3967165,380.86,924,757,0
3967175,342.63,924,762,0
3967185,313.47,924,756,0
3967195,293.44,924,723,1
3967205,281.40,924,757,0
3967215,276.35,924,763,0
3967225,276.50,924,757,0
3967235,280.68,924,762,0
3967245,287.03,924,758,0
3967255,294.69,924,763,0
3967265,302.37,924,756,0
3967276,309.55,924,763,0
3967286,315.34,924,756,0
3967296,319.78,924,763,0
3967306,322.46,924,755,0
3967316,323.78,924,764,0
3967326,323.59,924,756,0
3967336,322.38,924,724,1
3967346,320.13,924,755,0
3967356,317.43,924,764,0
3967366,314.26,924,756,0
3967376,311.10,924,763,0
3967386,307.85,924,755,0
3967396,304.94,924,764,0
3967406,302.26,924,756,0
3967416,300.12,924,763,0
3967426,298.29,924,755,0
3967436,297.04,924,764,0
3967447,296.17,924,755,0
3967457,295.82,924,764,0
3967467,295.75,924,754,0
3967477,296.04,924,771,0
3967488,296.58,924,745,0
3967497,297.48,924,764,0
3967507,298.45,924,754,0
3967517,299.64,924,770,0
3967527,300.95,924,746,0
3967537,302.47,924,764,0
3967547,304.00,924,755,0
3967557,305.54,924,770,0
3967567,307.01,924,747,0
3967577,308.51,924,764,0
3967587,309.81,924,755,0
3967597,310.98,924,769,0
3967607,311.84,924,749,0
3967617,312.53,924,764,0
3967627,312.93,924,755,0
3967637,313.21,924,768,0
3967647,313.62,924,751,0
3967657,315.15,924,773,0
3967667,319.05,924,755,0
3967677,327.69,924,767,0
3967687,343.64,924,752,0
3967707,369.59,883,748,0
3967710,407.60,883,740,0
3967719,453.75,883,771,0
3967729,504.65,883,737,0
3967739,557.26,883,768,0
3967749,608.05,883,738,0
3967759,653.59,883,770,0
3967769,690.61,883,738,0
3967779,716.53,883,769,0
3967789,734.67,883,739,0
3967799,747.37,883,771,0
3967809,756.26,883,738,0
3967819,762.48,883,768,0
3967830,766.84,883,740,0
3967839,769.89,883,769,0
3967849,772.02,883,739,0
3967859,773.51,883,768,0
3967869,774.56,883,740,0
3967879,775.29,883,769,0
3967889,775.80,883,740,0
3967899,776.16,883,768,0
3967909,776.41,883,741,0
3967919,776.59,883,769,0
3967929,776.71,883,742,0
3967939,776.80,883,769,0
3967949,776.86,883,741,0
3967959,776.90,883,771,0
3967969,776.93,883,741,0
3967979,773.14,883,769,0
3967989,761.82,883,740,0
3968000,740.75,883,767,0
3968009,709.58,883,740,0
3968019,668.35,883,770,0
3968029,617.80,883,741,0
3968039,559.10,883,766,0
3968049,497.74,883,743,0
3968059,438.85,883,767,0
3968069,386.18,883,740,0
3968079,341.21,883,777,0
3968089,305.15,883,735,0
3968099,278.02,883,769,0
3968109,259.41,883,742,0
3968119,248.02,883,768,0
3968129,242.66,883,751,0
3968139,241.86,883,767,0
3968149,244.60,883,740,0
3968159,249.48,883,768,0
3968169,255.63,883,740,0
3968179,262.13,883,769,0
3968189,268.48,883,738,0
3968199,274.21,883,766,0
3968209,279.24,883,741,0
3968219,283.33,883,770,0
3968229,286.53,883,740,0
3968239,288.77,883,768,0
3968249,290.17,883,747,0
3968259,290.80,883,767,0
3968269,290.91,883,748,0
3968279,290.42,883,769,0
3968289,289.61,883,741,0
3968300,288.44,883,766,0
3968310,287.28,883,744,0
3968320,286.04,883,764,0
3968330,285.08,883,748,0
3968340,284.20,883,764,0
3968350,283.76,883,744,0
3968360,283.49,883,765,0
3968370,283.68,883,749,0
3968380,284.08,883,764,0
3968390,284.95,883,745,0
3968400,285.87,883,765,0
3968410,287.24,883,749,0
3968420,288.58,883,765,0
3968430,290.21,883,745,0
3968440,291.73,883,765,0
3968450,293.31,883,748,0
3968460,294.72,883,764,0
