Time,PPG,IBI,GSR,GSR_Event
3281708,266.91,784,794,0
3281718,269.25,784,790,0
3281728,274.11,784,793,0
3281738,283.76,784,791,0
3281758,300.50,803,790,0
3281761,328.64,803,793,0
3281770,369.33,803,792,0
3281780,419.76,803,793,0
3281790,475.50,803,792,0
3281800,533.08,803,792,0
3281810,588.90,803,792,0
3281820,639.67,803,793,0
3281830,680.49,803,792,0
3281840,709.44,803,792,0
3281850,729.71,803,792,0
3281860,743.94,803,793,0
3281870,753.90,803,792,0
3281880,760.92,803,792,0
3281890,765.83,803,792,0
3281900,769.26,803,793,0
3281910,771.67,803,792,0
3281921,773.40,803,793,0
3281931,774.56,803,791,0
3281941,775.42,803,794,0
3281951,775.98,803,791,0
3281961,776.37,803,794,0
3281971,776.65,803,791,0
3281981,776.84,803,794,0
3281991,776.93,803,791,0
3282001,776.99,803,794,0
3282011,774.98,803,791,0
3282021,766.07,803,794,0
3282031,746.98,803,791,0
3282041,716.39,803,794,0
3282051,674.23,803,791,0
3282061,621.19,803,794,0
3282071,558.26,803,791,0
3282081,489.22,803,794,0
3282092,420.67,803,790,0
3282102,357.86,803,795,0
3282112,303.60,803,790,0
3282122,259.53,803,795,0
3282132,226.07,803,789,0
3282142,203.17,803,794,0
3282152,189.53,803,790,0
3282162,183.97,803,794,0
3282172,184.62,803,789,0
3282182,189.96,803,795,0
3282192,198.25,803,790,0
3282202,208.24,803,794,0
3282212,218.71,803,789,0
3282222,228.96,803,794,0
3282232,238.06,803,790,0
3282242,245.84,803,794,0
3282252,251.97,803,789,0
3282263,256.52,803,795,0
3282273,259.41,803,789,0
3282283,260.87,803,794,0
3282293,261.00,803,789,0
3282304,260.23,803,794,0
3282313,258.66,803,789,0
3282323,256.79,803,794,0
3282333,254.71,803,789,0
3282343,252.74,803,794,0
3282353,250.97,803,789,0
3282363,249.70,803,794,0
3282373,248.97,803,789,0
3282383,248.90,803,795,0
3282393,249.27,803,789,0
3282403,250.26,803,794,0
3282413,251.73,803,789,0
3282423,253.69,803,794,0
3282433,255.97,803,789,0
3282443,258.51,803,795,0
3282453,261.06,803,789,0
3282463,263.70,803,794,0
3282473,266.19,803,789,0
3282483,268.57,803,795,0
3282493,270.67,803,788,0
3282503,272.61,803,795,0
3282513,274.44,803,789,0
3282523,276.67,803,795,0
3282533,279.85,803,789,0
3282543,285.38,803,794,0
3282553,294.95,803,788,0
3282563,310.48,803,794,0
3282582,334.47,825,794,0
3282585,370.58,825,795,0
3282594,416.48,825,788,0
3282604,468.41,825,794,0
3282614,522.89,825,788,0
3282624,576.66,825,794,0
3282634,626.86,825,788,0
3282644,670.15,825,795,0
3282654,702.20,825,788,0
3282664,724.64,825,794,0
3282674,740.35,825,788,0
3282684,751.34,825,795,0
3282694,759.04,825,788,0
3282704,764.43,825,794,0
3282714,768.24,825,788,0
3282724,770.96,825,795,0
3282734,772.90,825,788,0
3282744,774.26,825,794,0
3282754,775.25,825,788,0
3282764,775.99,825,794,0
3282775,776.55,825,787,0
3282785,776.90,825,795,0
3282795,777.14,825,788,0
3282805,777.27,825,795,0
3282816,777.40,825,789,0
3282825,777.45,825,794,0
3282835,777.45,825,788,0
3282845,777.40,825,795,0
3282855,774.19,825,788,0
3282865,763.89,825,794,0
3282875,743.78,825,788,0
3282885,712.52,825,795,0
3282895,670.23,825,789,0
3282905,617.79,825,794,0
3282915,556.35,825,789,0
3282925,490.55,825,795,0
3282935,425.93,825,789,0
3282945,366.85,825,794,0
3282955,316.07,825,788,0
3282965,274.69,825,794,0
3282975,242.98,825,789,0
3282985,220.49,825,794,0
3282995,206.33,825,788,0
3283005,199.20,825,794,0
3283015,197.73,825,789,0
3283025,200.47,825,795,0
3283035,206.20,825,788,0
3283045,213.60,825,794,0
3283055,221.82,825,789,0
3283065,230.01,825,795,0
3283075,237.72,825,788,0
3283085,244.45,825,794,0
3283095,250.01,825,789,0
3283105,254.25,825,794,0
3283116,257.31,825,789,0
3283126,259.14,825,794,0
3283136,260.09,825,790,0
3283146,260.10,825,794,0
3283156,259.60,825,790,0
3283166,258.73,825,794,0
3283176,257.79,825,790,0
3283186,256.78,825,794,0
3283196,256.03,825,790,0
3283206,255.51,825,794,0
3283216,255.48,825,790,0
3283226,255.81,825,794,0
3283236,256.64,825,791,0
3283246,257.78,825,794,0
3283256,259.39,825,790,0
3283266,261.24,825,794,0
3283276,263.44,825,790,0
3283287,265.67,825,794,0
3283297,268.04,825,791,0
3283307,270.21,825,794,0
3283317,272.38,825,791,0
3283328,274.24,825,793,0
3283337,276.09,825,791,0
3283347,277.87,825,794,0
3283357,280.22,825,792,0
3283367,283.84,825,793,0
3283377,290.23,825,791,0
3283387,301.18,825,794,0
3283397,319.34,825,792,0
3283417,347.22,834,791,0
3283420,387.66,834,794,0
3283429,436.27,834,791,0
3283439,489.59,834,793,0
3283449,544.40,834,791,0
3283459,597.55,834,793,0
3283469,645.56,834,791,0
3283479,685.03,834,794,0
3283489,712.71,834,791,0
3283500,732.12,834,794,0
3283510,745.72,834,790,0
3283520,755.23,834,794,0
3283530,761.89,834,790,0
3283540,766.59,834,794,0
3283550,769.93,834,790,0
3283560,772.22,834,794,0
3283570,773.78,834,790,0
3283580,774.88,834,794,0
3283590,775.64,834,790,0
3283600,776.14,834,794,0
3283610,776.44,834,790,0
3283620,776.61,834,794,0
3283630,776.77,834,790,0
3283640,776.88,834,794,0
3283650,776.96,834,790,0
3283660,777.01,834,795,0
3283671,777.10,834,789,0
3283681,777.15,834,794,0
3283691,777.24,834,789,0
3283701,774.98,834,794,0
3283712,765.73,834,788,0
3283721,747.21,834,794,0
3283731,717.92,834,789,0
3283741,677.66,834,795,0
3283751,626.97,834,788,0
3283761,567.20,834,794,0
3283771,501.91,834,789,0
3283781,437.44,834,794,0
3283791,377.56,834,789,0
3283801,325.28,834,794,0
3283811,281.91,834,789,0
3283821,248.12,834,794,0
3283831,223.31,834,789,0
3283841,206.89,834,795,0
3283851,197.58,834,789,0
3283861,194.19,834,794,0
3283871,195.29,834,789,0
3283881,199.79,834,794,0
3283891,206.37,834,789,0
3283901,214.14,834,794,0
3283911,222.24,834,789,0
3283921,230.18,834,794,0
3283931,237.37,834,789,0
3283941,243.69,834,794,0
3283951,248.84,834,789,0
3283961,252.87,834,794,0
3283971,255.70,834,789,0
3283981,257.59,834,794,0
3283991,258.53,834,788,0
3284001,258.88,834,795,0
3284012,258.66,834,788,0
3284022,258.16,834,794,0
3284032,257.56,834,788,0
3284042,257.13,834,794,0
3284052,256.84,834,788,0
3284062,256.93,834,795,0
3284072,257.29,834,788,0
3284082,258.06,834,794,0
3284092,259.16,834,788,0
3284102,260.57,834,794,0
3284112,262.20,834,788,0
3284122,263.98,834,794,0
3284132,265.83,834,788,0
3284142,267.72,834,795,0
3284152,269.48,834,788,0
3284162,271.13,834,794,0
3284172,272.64,834,788,0
3284183,274.12,834,794,0
3284193,276.01,834,788,0
3284203,279.05,834,794,0
3284213,284.61,834,788,0
3284224,294.67,834,794,0
3284233,311.22,834,788,0
3284243,337.04,834,795,0
3284262,374.87,846,794,0
3284265,422.10,846,794,0
3284274,474.91,846,788,0
3284284,529.88,846,794,0
3284294,583.66,846,789,0
3284304,633.18,846,794,0
3284314,674.99,846,788,0
3284324,705.72,846,795,0
3284334,727.19,846,789,0
3284344,742.22,846,794,0
3284354,752.78,846,788,0
3284364,760.22,846,794,0
3284374,765.47,846,789,0
3284384,769.14,846,794,0
3284395,771.67,846,789,0
3284404,773.48,846,795,0
3284414,774.75,846,788,0
3284424,775.64,846,794,0
3284434,776.26,846,789,0
3284444,776.66,846,794,0
3284454,776.89,846,788,0
3284464,777.05,846,794,0
3284474,777.12,846,789,0
3284484,777.21,846,795,0
3284494,777.28,846,789,0
3284504,777.28,846,794,0
3284514,777.28,846,789,0
3284524,777.28,846,794,0
3284534,777.33,846,789,0
3284544,774.40,846,795,0
3284554,764.04,846,789,0
3284564,743.50,846,794,0
3284574,712.23,846,789,0
3284584,669.95,846,795,0
3284594,617.34,846,789,0
3284604,555.48,846,794,0
3284614,489.08,846,789,0
3284624,424.00,846,794,0
3284634,364.64,846,790,0
3284644,312.98,846,794,0
3284654,270.64,846,789,0
3284664,237.83,846,794,0
3284674,214.36,846,790,0
3284684,199.08,846,794,0
3284695,191.00,846,791,0
3284705,188.64,846,794,0
3284715,190.81,846,791,0
3284725,196.05,846,794,0
3284736,203.41,846,791,0
3284745,211.68,846,794,0
3284755,220.22,846,791,0
3284765,228.30,846,793,0
3284775,235.67,846,792,0
3284785,241.85,846,794,0
3284795,246.87,846,791,0
3284805,250.55,846,794,0
3284815,253.17,846,791,0
3284825,254.71,846,794,0
3284835,255.52,846,791,0
3284845,255.62,846,794,0
3284855,255.48,846,791,0
3284865,255.08,846,794,0
3284875,254.80,846,791,0
3284885,254.60,846,794,0
3284895,254.72,846,791,0
3284905,255.02,846,793,0
3284915,255.74,846,791,0
3284925,256.63,846,794,0
3284935,257.94,846,791,0
3284945,259.42,846,793,0
3284955,261.22,846,791,0
3284965,263.13,846,794,0
3284975,265.27,846,791,0
3284985,267.33,846,793,0
3284995,269.51,846,791,0
3285005,271.50,846,794,0
3285015,273.53,846,791,0
3285025,275.52,846,793,0
3285036,278.19,846,792,0
3285046,282.29,846,793,0
3285056,289.66,846,793,0
3285066,302.19,846,792,0
3285076,322.92,846,793,0
3285086,354.01,846,793,0
3285105,396.78,843,792,0
3285108,446.99,843,789,0
3285117,501.29,843,794,0
3285127,556.23,843,792,0
3285137,608.58,843,793,0
3285147,654.56,843,791,0
3285157,691.34,843,794,0
3285167,717.12,843,792,0
3285177,735.21,843,793,0
3285187,747.88,843,791,0
3285197,756.79,843,794,0
3285207,763.06,843,792,0
3285217,767.50,843,793,0
3285227,770.61,843,791,0
3285237,772.78,843,794,0
3285248,774.31,843,790,0
3285257,775.41,843,793,0
3285267,776.15,843,791,0
3285277,776.66,843,794,0
3285287,777.02,843,791,0
3285297,777.27,843,793,0
3285307,777.45,843,791,0
3285317,777.57,843,794,0
3285327,777.66,843,791,0
3285337,777.76,843,793,0
3285347,777.79,843,791,0
3285357,777.81,843,794,0
3285367,777.82,843,790,0
3285377,777.83,843,793,0
3285387,776.73,843,791,0
3285397,769.44,843,794,0
3285407,752.68,843,790,0
3285417,725.00,843,794,0
3285427,686.22,843,791,0
3285437,636.74,843,794,0
3285447,577.33,843,791,0
3285457,510.63,843,794,0
3285467,443.16,843,792,0
3285477,379.89,843,794,0
3285487,323.57,843,791,0
3285497,275.83,843,794,0
3285507,237.26,843,792,0
3285517,208.21,843,793,0
3285527,187.75,843,791,0
3285537,175.18,843,794,0
3285548,169.04,843,791,0
3285558,168.39,843,794,0
3285568,171.70,843,790,0
3285578,178.05,843,794,0
3285588,186.09,843,789,0
3285598,195.15,843,794,0
3285608,204.15,843,790,0
3285618,212.80,843,794,0
3285628,220.53,843,789,0
3285638,227.32,843,794,0
3285648,232.79,843,790,0
3285658,237.27,843,794,0
3285668,240.66,843,789,0
3285678,243.33,843,794,0
3285688,245.20,843,790,0
3285698,246.73,843,794,0
3285708,247.84,843,789,0
3285719,248.87,843,794,0
3285729,249.77,843,789,0
3285739,250.78,843,794,0
3285749,251.83,843,788,0
3285760,253.08,843,794,0
3285769,254.34,843,789,0
3285779,255.78,843,794,0
3285789,257.31,843,789,0
3285799,258.89,843,794,0
3285809,260.38,843,789,0
3285819,261.81,843,794,0
3285829,263.06,843,789,0
3285839,264.20,843,794,0
3285849,265.21,843,789,0
3285859,266.39,843,794,0
3285869,268.25,843,789,0
3285879,271.94,843,794,0
3285889,278.77,843,789,0
3285899,291.14,843,795,0
3285909,311.54,843,789,0
3285919,342.97,843,794,0
3285929,386.39,843,788,0
3285948,437.62,843,787,0
3285951,492.97,843,788,0
3285960,549.30,843,794,0
3285970,603.04,843,788,0
3285980,650.77,843,795,0
3285990,688.77,843,788,0
3286000,715.36,843,795,0
3286010,734.03,843,788,0
3286020,747.09,843,795,0
3286030,756.28,843,788,0
3286040,762.67,843,795,0
3286050,767.14,843,787,0
3286060,770.31,843,794,0
3286070,772.57,843,788,0
3286080,774.16,843,794,0
3286090,775.27,843,788,0
3286100,776.05,843,794,0
3286110,776.63,843,788,0
3286120,777.04,843,795,0
3286130,777.33,843,788,0
3286140,777.53,843,795,0
3286150,777.67,843,788,0
3286160,777.77,843,794,0
3286170,777.84,843,788,0
3286180,777.84,843,794,0
3286190,777.85,843,788,0
3286200,777.85,843,795,0
3286210,777.81,843,788,0
3286220,774.35,843,795,0
3286231,763.15,843,788,0
3286241,741.67,843,794,0
3286251,708.99,843,788,0
3286261,665.06,843,794,0
3286272,610.79,843,788,0
3286281,547.59,843,794,0
3286291,480.39,843,788,0
3286301,414.96,843,794,0
3286311,355.48,843,789,0
3286321,304.30,843,794,0
3286331,262.68,843,788,0
3286341,230.72,843,795,0
3286351,207.92,843,789,0
3286361,193.24,843,794,0
3286371,185.67,843,788,0
3286381,183.75,843,794,0
3286391,186.31,843,788,0
3286401,191.92,843,795,0
3286411,199.53,843,788,0
3286421,208.07,843,794,0
3286431,216.84,843,789,0
3286441,225.11,843,794,0
3286451,232.54,843,788,0
3286461,238.72,843,795,0
3286471,243.65,843,789,0
3286481,247.18,843,794,0
3286491,249.48,843,788,0
3286501,250.71,843,794,0
3286511,251.18,843,789,0
3286521,251.00,843,794,0
3286531,250.49,843,788,0
3286541,249.78,843,795,0
3286551,249.16,843,789,0
3286561,248.68,843,794,0
3286572,248.52,843,789,0
3286582,248.62,843,794,0
3286592,249.16,843,790,0
3286602,249.93,843,794,0
3286612,251.02,843,791,0
3286622,252.30,843,794,0
3286632,253.75,843,790,0
3286642,255.16,843,794,0
3286652,256.52,843,790,0
3286662,257.65,843,794,0
3286672,258.79,843,790,0
3286682,260.05,843,794,0
3286692,262.26,843,790,0
3286702,266.26,843,794,0
3286712,274.02,843,790,0
3286722,287.73,843,794,0
3286732,310.27,843,791,0
3286743,344.34,843,794,0
3286762,389.88,814,793,0
3286765,442.63,814,792,0
3286774,499.19,814,792,0
3286785,555.96,814,792,0
3286795,609.54,814,793,0
3286805,656.27,814,792,0
3286815,692.70,814,793,0
3286825,718.25,814,791,0
3286835,736.13,814,793,0
3286845,748.69,814,792,0
3286855,757.48,814,793,0
3286865,763.64,814,791,0
3286875,767.95,814,793,0
3286885,770.96,814,792,0
3286895,773.07,814,794,0
3286905,774.55,814,791,0
3286915,775.59,814,793,0
3286925,776.31,814,792,0
3286935,776.82,814,794,0
3286945,777.17,814,791,0
3286956,777.42,814,794,0
3286966,777.59,814,790,0
3286976,777.72,814,794,0
3286986,777.80,814,789,0
3286996,777.86,814,794,0
3287006,777.90,814,790,0
3287016,774.89,814,794,0
3287026,763.95,814,790,0
3287036,742.32,814,795,0
3287046,709.14,814,790,0
3287056,664.27,814,794,0
3287066,608.35,814,789,0
3287076,542.80,814,795,0
3287086,472.32,814,790,0
3287096,403.56,814,794,0
3287106,340.95,814,790,0
3287116,287.05,814,794,0
3287127,243.24,814,789,0
3287137,210.17,814,794,0
3287147,187.19,814,788,0
3287157,173.37,814,794,0
3287168,167.22,814,788,0
3287177,167.28,814,794,0
3287187,171.78,814,788,0
3287197,179.43,814,794,0
3287207,188.65,814,788,0
3287217,198.40,814,795,0
3287227,207.58,814,789,0
3287237,215.80,814,795,0
3287247,222.55,814,789,0
3287257,227.78,814,794,0
3287267,231.36,814,789,0
3287277,233.65,814,794,0
3287287,234.83,814,789,0
3287297,235.44,814,794,0
3287307,235.61,814,789,0
3287317,235.85,814,794,0
3287327,236.33,814,788,0
3287337,237.43,814,794,0
3287347,239.10,814,789,0
3287357,241.60,814,795,0
3287367,244.76,814,788,0
3287377,248.60,814,794,0
3287387,252.84,814,789,0
3287397,257.51,814,795,0
3287407,262.29,814,788,0
3287417,267.17,814,795,0
3287427,271.92,814,789,0
3287437,276.83,814,795,0
3287447,282.32,814,788,0
3287457,289.60,814,794,0
3287468,300.13,814,788,0
3287478,316.34,814,795,0
3287488,340.79,814,788,0
3287498,376.47,814,794,0
3287518,421.67,755,794,0
3287521,472.81,755,794,0
3287530,526.61,755,788,0
3287540,579.91,755,794,0
3287550,629.44,755,789,0
3287560,671.82,755,795,0
3287570,703.63,755,788,0
3287580,725.90,755,794,0
3287590,741.49,755,789,0
3287600,752.40,755,795,0
3287610,760.08,755,788,0
3287620,765.46,755,794,0
3287630,769.22,755,789,0
3287640,771.85,755,794,0
3287650,773.70,755,788,0
3287660,774.99,755,794,0
3287670,775.89,755,789,0
3287681,776.52,755,794,0
3287691,776.97,755,790,0
3287701,777.23,755,794,0
3287711,777.42,755,790,0
3287721,777.55,755,794,0
3287731,777.64,755,790,0
3287741,777.71,755,794,0
3287751,777.75,755,790,0
3287761,777.74,755,794,0
3287771,773.49,755,790,0
3287781,760.91,755,794,0
3287791,737.84,755,790,0
3287801,703.43,755,794,0
3287811,658.34,755,790,0
3287821,603.30,755,794,0
3287831,539.69,755,790,0
3287841,473.19,755,794,0
3287852,409.57,755,791,0
3287862,352.49,755,793,0
3287872,304.30,755,792,0
3287882,265.42,755,793,0
3287892,236.15,755,793,0
3287902,215.66,755,794,0
3287912,203.21,755,792,0
3287922,197.23,755,793,0
3287932,196.56,755,792,0
3287942,199.52,755,794,0
3287952,205.11,755,792,0
3287962,212.02,755,793,0
3287972,219.68,755,792,0
3287982,227.11,755,793,0
3287992,233.98,755,792,0
3288002,239.73,755,793,0
3288012,244.48,755,793,0
3288023,247.98,755,793,0
3288033,250.60,755,793,0
3288043,252.13,755,792,0
3288053,253.04,755,793,0
3288064,253.20,755,791,0
3288073,253.05,755,792,0
3288083,252.48,755,792,0
3288093,251.86,755,793,0
3288103,251.00,755,791,0
3288113,250.23,755,793,0
3288123,249.31,755,792,0
3288133,248.57,755,793,0
3288143,247.76,755,792,0
3288153,247.32,755,793,0
3288163,247.09,755,792,0
3288173,247.88,755,793,0
3288183,250.49,755,791,0
3288193,256.55,755,793,0
3288203,268.00,755,792,0
3288213,287.89,755,793,0
3288223,319.04,755,792,0
3288233,363.42,755,793,0
3288252,416.31,735,792,0
3288255,474.03,735,795,0
3288264,533.08,735,790,0
3288274,590.01,735,794,0
3288284,640.92,735,791,0
3288294,682.00,735,794,0
3288304,710.76,735,790,0
3288314,730.93,735,794,0
3288324,745.05,735,791,0
3288334,754.94,735,794,0
3288344,761.86,735,790,0
3288354,766.70,735,794,0
3288364,770.09,735,791,0
3288374,772.46,735,794,0
3288384,774.12,735,790,0
3288394,775.29,735,794,0
3288404,776.10,735,789,0
3288414,776.67,735,794,0
3288424,777.07,735,790,0
3288434,777.35,735,794,0
3288444,777.54,735,790,0
3288454,777.68,735,794,0
3288464,777.78,735,790,0
3288474,777.84,735,794,0
3288484,777.89,735,789,0
3288494,777.92,735,794,0
3288504,777.95,735,790,0
3288514,777.96,735,794,0
3288524,777.97,735,789,0
3288535,773.10,735,794,0
3288545,759.10,735,789,0
3288555,733.78,735,795,0
3288565,696.35,735,789,0
3288576,647.13,735,794,0
3288585,587.26,735,789,0
3288595,518.18,735,794,0
3288605,446.26,735,789,0
3288615,377.48,735,795,0
3288625,315.62,735,789,0
3288635,263.02,735,794,0
3288645,220.54,735,789,0
3288655,188.24,735,794,0
3288665,165.37,735,790,0
3288675,151.16,735,794,0
3288685,144.17,735,789,0
3288695,143.17,735,795,0
3288705,146.59,735,789,0
3288715,153.32,735,794,0
3288725,162.01,735,789,0
3288735,171.86,735,794,0
3288745,181.89,735,789,0
3288755,191.69,735,794,0
3288765,200.57,735,789,0
3288775,208.50,735,794,0
3288785,215.12,735,788,0
3288795,220.57,735,795,0
3288805,224.73,735,789,0
3288815,227.90,735,794,0
3288825,230.03,735,789,0
3288835,231.56,735,794,0
3288845,232.51,735,789,0
3288855,233.21,735,794,0
3288865,233.62,735,789,0
3288876,234.03,735,794,0
3288886,234.41,735,788,0
3288896,234.89,735,794,0
3288906,235.35,735,788,0
3288916,235.93,735,794,0
3288926,236.77,735,788,0
3288936,238.55,735,794,0
3288946,242.37,735,788,0
3288956,250.10,735,794,0
3288966,263.87,735,788,0
3288976,286.88,735,794,0
3288986,322.57,735,788,0
3288996,370.36,735,795,0
3289015,425.88,763,794,0
3289018,485.36,763,794,0
3289027,545.12,763,788,0
3289037,601.74,763,794,0
3289047,651.15,763,788,0
3289057,689.20,763,794,0
3289067,715.84,763,788,0
3289077,734.49,763,795,0
3289088,747.54,763,788,0
3289097,756.68,763,795,0
3289107,763.08,763,788,0
3289117,767.55,763,795,0
3289127,770.69,763,788,0
3289137,772.88,763,794,0
3289147,774.42,763,788,0
3289157,775.49,763,795,0
3289167,776.24,763,788,0
3289177,776.77,763,795,0
3289187,777.14,763,788,0
3289197,777.40,763,794,0
3289207,777.58,763,788,0
3289217,777.70,763,794,0
3289227,777.79,763,788,0
3289237,777.86,763,794,0
3289247,777.90,763,788,0
3289257,777.93,763,794,0
3289267,777.95,763,788,0
3289277,777.97,763,794,0
3289287,777.98,763,788,0
3289297,774.64,763,794,0
3289307,763.65,763,788,0
3289317,741.85,763,794,0
3289327,707.95,763,788,0
3289337,661.77,763,795,0
3289347,604.37,763,788,0
3289357,536.93,763,795,0
3289367,464.35,763,788,0
3289377,392.67,763,794,0
3289388,326.77,763,788,0
3289398,269.45,763,794,0
3289408,222.43,763,789,0
3289418,185.75,763,794,0
3289428,159.21,763,790,0
3289438,141.87,763,794,0
3289448,132.61,763,789,0
3289458,129.90,763,794,0
3289468,132.46,763,790,0
3289478,138.71,763,794,0
3289488,147.45,763,790,0
3289498,157.52,763,794,0
3289508,168.16,763,789,0
3289518,178.48,763,794,0
3289528,188.11,763,789,0
3289538,196.56,763,794,0
3289548,203.89,763,789,0
3289559,209.93,763,794,0
3289569,214.88,763,791,0
3289579,218.77,763,794,0
3289589,221.93,763,790,0
3289600,224.39,763,793,0
3289609,226.46,763,790,0
3289619,228.04,763,794,0
3289629,229.40,763,791,0
3289639,230.39,763,794,0
3289649,231.17,763,791,0
3289659,231.59,763,794,0
3289669,231.76,763,791,0
3289679,231.49,763,794,0
3289689,231.04,763,790,0
3289699,230.43,763,794,0
3289709,230.39,763,791,0
3289719,231.81,763,794,0
3289729,236.37,763,791,0
3289739,246.33,763,794,0
3289749,264.92,763,791,0
3289759,295.33,763,793,0
3289769,340.19,763,792,0
3289779,394.60,763,794,0
3289798,454.59,783,793,0
3289801,516.56,783,792,0
3289810,576.69,783,792,0
3289820,630.87,783,793,0
3289830,675.01,783,792,0
3289840,705.95,783,793,0
3289850,727.61,783,793,0
3289860,742.77,783,793,0
3289870,753.34,783,792,0
3289880,760.74,783,792,0
3289890,765.96,783,793,0
3289900,769.61,783,793,0
3289910,772.17,783,792,0
3289920,773.96,783,793,0
3289930,775.26,783,792,0
3289940,776.17,783,792,0
3289950,776.80,783,792,0
3289960,777.21,783,793,0
3289970,777.49,783,792,0
3289980,777.68,783,792,0
3289990,777.82,783,792,0
3290000,777.87,783,793,0
3290010,777.91,783,792,0
3290020,777.94,783,792,0
3290030,777.96,783,792,0
3290040,777.97,783,793,0
3290050,777.98,783,793,0
3290060,777.99,783,792,0
3290071,777.99,783,793,0
3290081,771.86,783,792,0
3290091,755.88,783,793,0
3290101,727.93,783,791,0
3290112,687.62,783,794,0
3290121,635.58,783,792,0
3290131,572.88,783,793,0
3290141,500.78,783,791,0
3290151,427.31,783,794,0
3290161,357.79,783,792,0
3290171,296.14,783,793,0
3290181,244.07,783,791,0
3290191,202.39,783,794,0
3290201,170.86,783,792,0
3290211,149.26,783,793,0
3290221,136.15,783,791,0
3290231,130.53,783,794,0
3290241,130.55,783,792,0
3290251,135.10,783,793,0
3290261,142.61,783,791,0
3290271,152.24,783,794,0
3290281,162.63,783,790,0
3290291,173.24,783,794,0
3290301,183.11,783,791,0
3290311,192.29,783,794,0
3290321,200.22,783,790,0
3290331,207.10,783,794,0
3290341,212.64,783,791,0
3290351,217.16,783,794,0
3290361,220.54,783,790,0
3290371,223.25,783,794,0
3290381,225.06,783,791,0
3290391,226.41,783,794,0
3290401,227.02,783,791,0
3290412,227.31,783,794,0
3290422,227.09,783,790,0
3290432,226.72,783,794,0
3290442,226.08,783,789,0
3290452,225.71,783,794,0
3290462,225.93,783,790,0
3290472,228.13,783,794,0
3290482,233.92,783,789,0
3290492,246.12,783,795,0
3290502,267.04,783,790,0
3290512,300.37,783,794,0
3290522,347.23,783,789,0
3290532,403.09,783,795,0
3290551,463.88,753,794,0
3290554,525.89,753,795,0
3290563,585.02,753,788,0
3290573,637.81,753,795,0
3290583,679.91,753,788,0
3290593,709.38,753,794,0
3290603,730.01,753,788,0
3290613,744.45,753,795,0
3290624,754.51,753,788,0
3290633,761.56,753,794,0
3290643,766.49,753,788,0
3290653,769.94,753,795,0
3290663,772.36,753,788,0
3290673,774.05,753,795,0
3290683,775.24,753,788,0
3290693,776.07,753,794,0
3290703,776.69,753,788,0
3290713,777.13,753,794,0
3290723,777.43,753,788,0
3290733,777.64,753,795,0
3290743,777.79,753,788,0
3290753,777.90,753,794,0
3290763,777.97,753,789,0
3290773,777.98,753,794,0
3290783,777.99,753,788,0
3290793,777.99,753,795,0
3290803,774.18,753,788,0
3290813,761.48,753,794,0
3290823,736.95,753,788,0
3290833,699.47,753,794,0
3290843,649.48,753,788,0
3290853,587.92,753,794,0
3290863,516.16,753,789,0
3290873,439.87,753,794,0
3290883,365.98,753,789,0
3290893,299.34,753,794,0
3290903,242.67,753,789,0
3290913,196.95,753,794,0
3290924,162.38,753,788,0
3290934,138.52,753,794,0
3290944,124.14,753,788,0
3290954,117.80,753,794,0
3290964,117.82,753,788,0
3290974,122.58,753,794,0
3290984,130.64,753,788,0
3290994,140.69,753,794,0
3291004,151.58,753,788,0
3291014,162.46,753,795,0
3291024,172.61,753,788,0
3291034,181.56,753,794,0
3291044,189.10,753,788,0
3291054,195.07,753,794,0
3291064,199.51,753,788,0
3291074,202.61,753,794,0
3291084,204.57,753,788,0
3291095,205.69,753,794,0
3291105,206.25,753,788,0
3291115,206.56,753,794,0
3291125,206.86,753,789,0
3291136,207.29,753,794,0
3291145,207.93,753,788,0
3291155,208.85,753,794,0
3291165,210.10,753,789,0
3291175,211.57,753,794,0
3291185,213.24,753,788,0
3291195,215.01,753,794,0
3291205,216.85,753,789,0
3291215,218.61,753,794,0
3291225,220.36,753,788,0
3291235,222.13,753,795,0
3291245,224.45,753,789,0
3291255,228.22,753,794,0
3291265,234.92,753,788,0
3291275,246.95,753,794,0
3291285,267.45,753,789,0
3291295,299.88,753,794,0
3291305,345.95,753,789,0
3291324,400.99,773,787,0
3291327,461.17,773,791,0
3291336,522.92,773,794,0
3291346,582.47,773,790,0
3291356,635.73,773,794,0
3291366,678.45,773,789,0
3291376,708.36,773,794,0
3291386,729.29,773,790,0
3291396,743.91,773,794,0
3291406,754.13,773,789,0
3291416,761.29,773,794,0
3291426,766.31,773,790,0
3291436,769.81,773,795,0
3291446,772.27,773,789,0
3291456,773.99,773,794,0
3291466,775.19,773,790,0
3291476,776.03,773,794,0
3291486,776.62,773,789,0
3291496,777.04,773,794,0
3291506,777.33,773,790,0
3291516,777.53,773,794,0
3291526,777.67,773,789,0
3291536,777.77,773,794,0
3291546,777.84,773,790,0
3291556,777.89,773,794,0
3291566,777.92,773,789,0
3291576,777.94,773,794,0
3291586,777.96,773,790,0
3291596,775.79,773,794,0
3291607,765.95,773,791,0
3291617,745.05,773,794,0
3291627,711.69,773,792,0
3291637,665.63,773,793,0
3291648,607.75,773,792,0
3291657,539.56,773,793,0
3291667,464.95,773,791,0
3291677,391.03,773,794,0
3291687,323.10,773,792,0
3291697,264.01,773,793,0
3291707,215.62,773,791,0
3291717,178.15,773,793,0
3291727,151.23,773,792,0
3291737,133.72,773,794,0
3291747,124.68,773,791,0
3291757,122.50,773,794,0
3291767,125.95,773,792,0
3291777,133.29,773,793,0
3291787,143.49,773,791,0
3291797,155.09,773,793,0
3291807,167.40,773,792,0
3291817,179.33,773,793,0
3291827,190.46,773,791,0
3291837,200.18,773,793,0
3291847,208.48,773,792,0
3291857,214.94,773,793,0
3291867,219.84,773,791,0
3291877,223.06,773,794,0
3291887,225.06,773,792,0
3291897,225.77,773,793,0
3291907,225.79,773,791,0
3291917,225.21,773,794,0
3291927,224.51,773,792,0
3291937,223.67,773,793,0
3291948,223.13,773,793,0
3291958,222.70,773,793,0
3291968,222.79,773,793,0
3291978,223.03,773,792,0
3291988,223.66,773,793,0
3291998,224.36,773,792,0
3292008,225.33,773,793,0
3292018,226.21,773,792,0
3292028,227.44,773,793,0
3292038,228.85,773,792,0
3292048,231.46,773,793,0
3292058,236.30,773,792,0
3292068,245.72,773,794,0
3292078,261.75,773,792,0
3292088,288.01,773,793,0
3292098,327.65,773,792,0
3292108,378.41,773,794,0
3292128,435.97,804,793,0
3292131,496.71,804,794,0
3292140,556.75,804,789,0
3292150,612.76,804,794,0
3292161,660.40,804,789,0
3292171,695.68,804,795,0
3292181,720.38,804,788,0
3292191,737.66,804,795,0
3292201,749.76,804,788,0
3292211,758.24,804,795,0
3292221,764.16,804,788,0
3292231,768.32,804,794,0
3292241,771.22,804,788,0
3292251,773.25,804,794,0
3292261,774.68,804,788,0
3292271,775.67,804,794,0
3292281,776.37,804,788,0
3292291,776.86,804,794,0
3292301,777.20,804,788,0
3292311,777.44,804,794,0
3292321,777.61,804,788,0
3292332,777.73,804,795,0
3292342,777.81,804,788,0
3292352,777.87,804,795,0
3292362,777.91,804,788,0
3292372,777.93,804,794,0
3292382,777.95,804,788,0
3292392,775.74,804,794,0
3292402,765.75,804,788,0
3292412,744.69,804,795,0
3292422,711.53,804,788,0
3292432,665.94,804,794,0
3292442,608.53,804,788,0
3292452,540.57,804,794,0
3292462,466.09,804,788,0
3292472,392.35,804,794,0
3292482,324.36,804,788,0
3292492,264.81,804,794,0
3292503,215.49,804,788,0
3292513,176.99,804,794,0
3292523,149.05,804,788,0
3292533,130.52,804,794,0
3292544,120.25,804,789,0
3292553,116.70,804,794,0
3292563,118.46,804,788,0
3292573,124.07,804,794,0
3292583,132.32,804,788,0
3292593,141.91,804,795,0
3292603,152.05,804,788,0
3292613,161.94,804,795,0
3292623,171.17,804,789,0
3292633,179.30,804,794,0
3292643,186.16,804,788,0
3292653,191.59,804,794,0
3292663,195.83,804,789,0
3292673,198.92,804,794,0
3292683,201.09,804,788,0
3292693,202.52,804,795,0
3292703,203.56,804,789,0
3292713,204.34,804,794,0
3292723,205.05,804,788,0
3292733,205.76,804,794,0
3292743,206.69,804,789,0
3292753,207.81,804,794,0
3292763,209.20,804,788,0
3292773,210.72,804,794,0
3292783,212.44,804,789,0
3292793,214.23,804,795,0
3292803,216.13,804,788,0
3292813,217.94,804,794,0
3292823,219.67,804,789,0
3292833,221.18,804,794,0
3292844,222.50,804,789,0
3292854,223.64,804,794,0
3292864,225.03,804,790,0
3292874,227.25,804,794,0
3292884,231.68,804,790,0
3292894,239.87,804,794,0
3292904,254.44,804,790,0
3292914,278.22,804,794,0
3292924,314.46,804,790,0
3292943,362.96,815,788,0
3292946,419.33,815,792,0
3292955,479.57,815,793,0
3292965,540.26,815,791,0
3292975,597.57,815,794,0
3292985,647.71,815,791,0
3292995,686.80,815,793,0
3293005,714.16,815,791,0
3293015,733.31,815,794,0
3293025,746.72,815,791,0
3293035,756.10,815,794,0
3293045,762.67,815,791,0
3293056,767.27,815,793,0
3293065,770.49,815,791,0
3293075,772.74,815,794,0
3293085,774.32,815,792,0
3293095,775.42,815,794,0
3293105,776.20,815,791,0
3293115,776.74,815,793,0
3293125,777.12,815,792,0
3293135,777.38,815,793,0
3293145,777.57,815,791,0
3293155,777.70,815,793,0
3293165,777.79,815,791,0
3293175,777.85,815,793,0
3293185,777.90,815,791,0
3293195,773.17,815,793,0
3293205,759.28,815,791,0
3293215,733.56,815,793,0
3293225,695.34,815,792,0
3293235,645.01,815,794,0
3293245,583.55,815,792,0
3293255,512.33,815,793,0
3293265,438.09,815,792,0
3293275,367.05,815,793,0
3293285,303.77,815,791,0
3293295,250.49,815,793,0
3293305,208.25,815,792,0
3293315,177.02,815,794,0
3293325,156.31,815,791,0
3293335,144.61,815,793,0
3293345,140.57,815,792,0
3293356,142.33,815,793,0
3293366,148.44,815,793,0
3293376,157.18,815,792,0
3293386,167.54,815,793,0
3293396,178.26,815,792,0
3293406,188.81,815,793,0
3293416,198.26,815,792,0
3293426,206.49,815,793,0
3293436,213.07,815,792,0
3293446,218.24,815,792,0
3293456,221.81,815,792,0
3293466,224.18,815,793,0
3293476,225.24,815,792,0
3293486,225.55,815,793,0
3293496,225.09,815,792,0
3293506,224.38,815,793,0
3293516,223.41,815,792,0
3293527,222.68,815,793,0
3293537,222.14,815,791,0
3293547,222.14,815,794,0
3293557,222.48,815,791,0
3293568,223.41,815,794,0
3293577,224.61,815,791,0
3293587,226.27,815,794,0
3293597,227.99,815,791,0
3293607,229.97,815,794,0
3293617,231.82,815,791,0
3293627,233.76,815,794,0
3293637,235.46,815,790,0
3293647,237.16,815,794,0
3293657,238.62,815,791,0
3293667,240.06,815,794,0
3293677,241.28,815,791,0
3293687,242.96,815,794,0
3293697,245.37,815,791,0
3293707,249.93,815,794,0
3293717,258.05,815,790,0
3293727,272.09,815,794,0
3293737,294.26,815,790,0
3293756,326.76,813,790,0
3293759,371.74,813,788,0
3293768,424.84,813,795,0
3293778,482.06,813,789,0
3293788,540.02,813,795,0
3293798,595.13,813,789,0
3293808,644.12,813,794,0
3293818,684.20,813,788,0
3293828,712.25,813,794,0
3293838,731.89,813,789,0
3293848,745.64,813,794,0
3293858,755.26,813,789,0
3293868,762.00,813,794,0
3293878,766.71,813,789,0
3293888,770.01,813,794,0
3293898,772.32,813,789,0
3293908,773.98,813,794,0
3293918,775.19,813,789,0
3293928,776.03,813,794,0
3293938,776.62,813,789,0
3293948,777.04,813,795,0
3293958,777.28,813,789,0
3293968,777.45,813,795,0
3293978,773.76,813,789,0
3293988,762.13,813,794,0
3293998,740.36,813,789,0
3294008,707.26,813,794,0
3294018,662.52,813,788,0
3294028,606.95,813,794,0
3294039,541.74,813,789,0
3294049,472.47,813,794,0
3294059,405.05,813,789,0
3294069,343.53,813,794,0
3294080,290.83,813,788,0
3294089,248.62,813,794,0
3294099,217.36,813,788,0
3294109,196.68,813,794,0
3294119,185.34,813,789,0
3294129,181.85,813,794,0
3294139,184.38,813,788,0
3294149,191.21,813,794,0
3294159,200.75,813,788,0
3294169,211.54,813,794,0
3294179,222.39,813,788,0
3294189,232.52,813,794,0
3294199,241.28,813,788,0
3294209,248.44,813,794,0
3294219,253.75,813,788,0
3294229,257.25,813,794,0
3294239,259.02,813,788,0
3294249,259.31,813,794,0
3294259,258.36,813,788,0
3294269,256.50,813,794,0
3294279,253.99,813,789,0
3294289,251.21,813,794,0
3294299,248.36,813,788,0
3294309,245.77,813,794,0
3294319,243.52,813,789,0
3294329,241.78,813,794,0
3294339,240.60,813,788,0
3294349,240.12,813,794,0
3294359,240.26,813,788,0
3294369,241.04,813,794,0
3294380,242.40,813,788,0
3294390,244.34,813,794,0
3294400,246.76,813,788,0
3294410,249.53,813,794,0
3294420,252.50,813,788,0
3294430,255.61,813,794,0
3294440,258.73,813,788,0
3294450,261.72,813,794,0
3294460,264.51,813,788,0
3294470,266.97,813,794,0
3294480,269.16,813,788,0
3294490,271.04,813,794,0
3294500,272.96,813,788,0
3294510,275.41,813,794,0
3294520,279.40,813,788,0
3294530,286.35,813,795,0
3294540,298.25,813,788,0
3294560,317.25,804,788,0
3294563,346.61,804,792,0
3294572,387.32,804,794,0
3294582,436.25,804,791,0
3294593,489.75,804,794,0
3294603,544.51,804,791,0
3294613,597.28,804,793,0
3294623,644.98,804,791,0
3294633,683.69,804,793,0
3294643,711.73,804,791,0
3294653,731.35,804,794,0
3294663,745.13,804,792,0
3294673,754.78,804,793,0
3294683,761.53,804,790,0
3294693,766.26,804,793,0
3294703,769.57,804,791,0
3294713,771.84,804,793,0
3294723,773.47,804,791,0
3294733,774.57,804,794,0
3294743,775.39,804,792,0
3294753,776.00,804,793,0
3294764,776.43,804,792,0
3294774,775.23,804,793,0
3294784,768.13,804,792,0
3294794,752.02,804,792,0
3294804,725.49,804,794,0
3294814,688.18,804,793,0
3294824,640.47,804,792,0
3294834,583.20,804,792,0
3294844,519.37,804,793,0
3294854,454.80,804,793,0
3294864,394.39,804,793,0
3294874,341.09,804,792,0
3294884,296.88,804,793,0
3294894,262.46,804,793,0
3294904,238.19,804,793,0
3294914,223.18,804,792,0
3294924,216.44,804,793,0
3294935,216.26,804,792,0
3294945,221.37,804,794,0
3294955,229.74,804,791,0
3294965,240.24,804,794,0
3294976,251.22,804,790,0
3294985,261.96,804,794,0
3294995,271.40,804,791,0
3295005,279.29,804,794,0
3295015,285.03,804,791,0
3295025,288.88,804,793,0
3295035,290.59,804,791,0
3295045,290.63,804,794,0
3295055,289.02,804,791,0
3295065,286.36,804,793,0
3295075,282.74,804,791,0
3295085,278.74,804,794,0
3295095,274.45,804,791,0
3295105,270.50,804,794,0
3295115,266.88,804,791,0
3295125,263.92,804,794,0
3295135,261.50,804,790,0
3295145,259.93,804,794,0
3295155,259.05,804,791,0
3295165,259.04,804,794,0
3295175,259.54,804,791,0
3295185,260.71,804,794,0
3295195,262.25,804,791,0
3295205,264.28,804,794,0
3295215,266.42,804,790,0
3295225,268.82,804,794,0
3295235,271.15,804,791,0
3295245,273.55,804,794,0
3295255,275.74,804,790,0
3295265,277.88,804,794,0
3295276,279.76,804,790,0
3295286,281.54,804,794,0
3295296,282.92,804,789,0
3295306,284.23,804,794,0
3295316,285.36,804,789,0
3295326,286.80,804,794,0
3295336,288.96,804,789,0
3295346,293.13,804,795,0
3295356,300.63,804,789,0
3295366,313.30,804,794,0
3295376,333.05,804,789,0
3295395,362.27,835,788,0
3295398,403.16,835,787,0
3295407,451.58,835,795,0
3295417,503.82,835,788,0
3295427,556.72,835,795,0
3295437,607.37,835,788,0
3295447,652.82,835,795,0
3295457,690.07,835,788,0
3295467,716.15,835,795,0
3295477,734.41,835,788,0
3295488,747.18,835,794,0
3295497,756.13,835,788,0
3295507,762.39,835,794,0
3295517,766.77,835,788,0
3295527,769.84,835,795,0
3295537,771.99,835,788,0
3295547,773.49,835,794,0
3295557,774.54,835,788,0
3295567,775.28,835,794,0
3295577,775.80,835,788,0
3295587,776.16,835,795,0
3295597,776.41,835,788,0
3295607,771.74,835,795,0
3295617,759.26,835,788,0
3295627,737.03,835,794,0
3295637,704.23,835,788,0
3295647,661.09,835,794,0
3295657,608.39,835,788,0
3295667,547.63,835,795,0
3295677,485.09,835,789,0
3295687,425.32,835,795,0
3295697,371.86,835,788,0
3295707,327.03,835,795,0
3295717,291.84,835,789,0
3295727,266.52,835,794,0
3295737,250.29,835,788,0
3295747,242.15,835,794,0
3295757,240.64,835,788,0
3295767,244.27,835,794,0
3295777,251.39,835,788,0
3295788,260.57,835,794,0
3295798,270.51,835,788,0
3295808,280.13,835,795,0
3295818,288.71,835,788,0
3295828,295.69,835,794,0
3295838,300.80,835,788,0
3295848,303.99,835,795,0
3295858,305.36,835,788,0
3295868,305.08,835,794,0
3295878,303.56,835,788,0
3295888,301.03,835,794,0
3295898,297.94,835,788,0
3295908,294.53,835,794,0
3295918,291.07,835,788,0
3295928,287.79,835,794,0
3295938,284.94,835,788,0
3295948,282.56,835,795,0
3295959,280.89,835,788,0
3295969,279.81,835,794,0
3295979,279.44,835,789,0
3295989,279.65,835,794,0
3296000,280.40,835,789,0
3296009,281.56,835,794,0
3296019,283.11,835,788,0
3296029,284.75,835,794,0
3296039,286.58,835,790,0
3296049,288.42,835,795,0
3296059,290.31,835,788,0
3296069,292.06,835,795,0
3296079,293.71,835,790,0
3296089,295.17,835,795,0
3296099,296.58,835,788,0
3296109,297.82,835,795,0
3296119,298.99,835,789,0
3296129,300.11,835,794,0
3296139,301.74,835,789,0
3296149,304.39,835,794,0
3296159,309.33,835,789,0
3296169,318.06,835,794,0
3296179,332.40,835,789,0
3296189,354.65,835,795,0
3296208,387.33,813,794,0
3296211,429.83,813,793,0
3296220,478.48,813,790,0
3296230,529.85,813,794,0
3296240,580.85,813,790,0
3296250,628.64,813,794,0
3296260,670.10,813,790,0
3296270,702.17,813,794,0
3296280,724.62,813,790,0
3296290,740.34,813,794,0
3296300,751.33,813,790,0
3296310,759.08,813,794,0
3296320,764.54,813,790,0
3296330,768.36,813,794,0
3296340,771.04,813,791,0
3296350,772.91,813,794,0
3296360,774.23,813,790,0
3296370,775.14,813,794,0
3296380,775.74,813,791,0
3296390,776.12,813,794,0
3296400,776.38,813,790,0
3296410,776.57,813,794,0
3296420,776.70,813,791,0
3296430,776.79,813,794,0
3296440,774.92,813,790,0
3296450,766.80,813,794,0
3296460,749.98,813,791,0
3296471,723.11,813,793,0
3296481,686.26,813,792,0
3296491,639.94,813,793,0
3296501,585.49,813,792,0
3296512,526.11,813,792,0
3296521,467.79,813,792,0
3296531,414.37,813,793,0
3296541,368.62,813,792,0
3296551,331.45,813,793,0
3296561,303.41,813,792,0
3296571,283.70,813,793,0
3296581,271.66,813,792,0
3296591,265.76,813,792,0
3296601,264.81,813,792,0
3296611,267.18,813,793,0
3296621,271.93,813,792,0
3296631,277.69,813,792,0
3296641,283.91,813,792,0
3296651,289.68,813,793,0
3296661,294.75,813,792,0
3296671,298.64,813,792,0
3296681,301.53,813,793,0
3296691,303.22,813,793,0
3296701,303.97,813,792,0
3296711,303.68,813,793,0
3296721,302.70,813,793,0
3296731,301.03,813,793,0
3296741,299.10,813,792,0
3296751,296.75,813,793,0
3296761,294.43,813,793,0
3296771,292.11,813,793,0
3296781,290.19,813,792,0
3296791,288.51,813,792,0
3296801,287.37,813,793,0
3296812,286.62,813,792,0
3296822,286.56,813,793,0
3296832,286.86,813,791,0
3296842,287.72,813,794,0
3296852,288.70,813,791,0
3296862,289.99,813,793,0
3296872,291.28,813,791,0
3296882,292.70,813,794,0
3296892,293.99,813,791,0
3296902,295.62,813,793,0
3296912,297.83,813,791,0
3296922,302.00,813,794,0
3296932,309.46,813,791,0
3296942,322.18,813,793,0
3296952,342.48,813,791,0
3296971,373.32,763,791,0
3296974,414.97,763,788,0
3296983,463.62,763,794,0
3296993,515.72,763,790,0
3297003,568.18,763,794,0
3297013,617.97,763,789,0
3297024,661.86,763,794,0
3297033,696.40,763,790,0
3297043,720.63,763,794,0
3297053,737.58,763,789,0
3297063,749.49,763,794,0
3297073,757.87,763,790,0
3297083,763.74,763,794,0
3297093,767.89,763,789,0
3297103,770.79,763,794,0
3297113,772.83,763,790,0
3297123,774.25,763,794,0
3297133,775.20,763,789,0
3297143,775.83,763,794,0
3297153,776.27,763,790,0
3297163,776.53,763,794,0
3297173,776.76,763,790,0
3297183,776.87,763,794,0
3297193,776.95,763,789,0
3297203,777.01,763,794,0
3297213,777.05,763,789,0
3297223,777.08,763,794,0
3297233,772.64,763,789,0
3297243,760.75,763,794,0
3297253,739.27,763,789,0
3297263,707.56,763,794,0
3297273,665.73,763,789,0
3297283,614.94,763,794,0
3297293,556.25,763,790,0
3297303,495.61,763,794,0
3297313,437.40,763,789,0
3297324,385.30,763,794,0
3297334,341.11,763,789,0
3297344,305.89,763,794,0
3297354,279.27,763,788,0
3297364,260.89,763,794,0
3297374,249.56,763,788,0
3297384,244.25,763,794,0
3297394,243.49,763,788,0
3297404,246.17,763,794,0
3297414,250.96,763,789,0
3297424,257.15,763,794,0
3297434,263.70,763,788,0
3297444,270.22,763,794,0
3297454,276.03,763,789,0
3297464,281.03,763,795,0
3297474,285.01,763,788,0
3297484,288.05,763,794,0
3297495,289.96,763,788,0
3297505,291.09,763,795,0
3297515,291.49,763,788,0
3297525,291.47,763,794,0
3297536,291.16,763,788,0
3297545,290.68,763,794,0
3297555,290.18,763,788,0
3297565,289.82,763,794,0
3297575,289.58,763,788,0
3297585,289.53,763,794,0
3297595,289.67,763,788,0
3297605,289.90,763,794,0
3297615,290.19,763,788,0
3297625,290.47,763,794,0
3297635,290.63,763,788,0
3297645,290.61,763,794,0
3297655,290.39,763,788,0
3297665,290.14,763,794,0
3297675,290.36,763,788,0
3297685,292.09,763,794,0
3297695,296.82,763,788,0
3297705,306.82,763,794,0
3297715,324.27,763,788,0
3297725,352.18,763,794,0
3297735,392.58,763,788,0
3297755,441.31,783,787,0
3297758,494.70,783,790,0
3297767,549.39,783,794,0
3297777,601.90,783,789,0
3297787,649.25,783,794,0
3297797,687.74,783,788,0
3297807,714.69,783,794,0
3297817,733.56,783,789,0
3297827,746.76,783,794,0
3297837,756.05,783,788,0
3297847,762.55,783,794,0
3297857,767.10,783,789,0
3297867,770.28,783,794,0
3297878,772.55,783,790,0
3297887,774.15,783,795,0
3297897,775.26,783,789,0
3297907,776.04,783,794,0
3297917,776.63,783,790,0
3297927,777.04,783,795,0
3297937,777.33,783,789,0
3297947,777.53,783,794,0
3297957,777.67,783,790,0
3297967,777.77,783,794,0
3297977,777.80,783,789,0
3297987,777.81,783,794,0
3297997,777.78,783,790,0
3298007,774.08,783,794,0
3298017,762.83,783,789,0
3298027,741.71,783,794,0
3298037,709.99,783,790,0
3298048,667.82,783,794,0
3298057,616.28,783,789,0
3298067,556.45,783,794,0
3298077,493.49,783,790,0
3298087,432.70,783,794,0
3298097,377.93,783,789,0
3298107,331.15,783,794,0
3298117,293.48,783,790,0
3298127,264.75,783,794,0
3298137,244.47,783,790,0
3298147,231.56,783,795,0
3298157,224.96,783,790,0
3298167,223.17,783,794,0
3298177,225.05,783,789,0
3298187,229.19,783,794,0
3298197,234.53,783,790,0
3298207,240.29,783,794,0
3298217,245.94,783,791,0
3298227,250.85,783,795,0
3298237,254.92,783,790,0
3298247,257.82,783,794,0
3298257,259.71,783,790,0
3298267,260.66,783,794,0
3298277,260.89,783,790,0
3298287,260.41,783,794,0
3298297,259.64,783,791,0
3298307,258.68,783,794,0
3298317,257.83,783,790,0
3298327,257.11,783,794,0
3298337,256.73,783,791,0
3298348,256.64,783,794,0
3298358,257.09,783,791,0
3298368,257.79,783,793,0
3298378,258.88,783,792,0
3298388,260.12,783,793,0
3298398,261.58,783,791,0
3298408,262.95,783,794,0
3298418,264.38,783,792,0
3298428,265.51,783,793,0
3298438,266.73,783,791,0
3298448,268.10,783,794,0
3298458,270.64,783,792,0
3298468,275.42,783,793,0
3298478,284.34,783,791,0
3298488,299.66,783,794,0
3298498,324.58,783,792,0
3298518,361.73,763,791,0
3298521,409.04,763,794,0
3298530,462.47,763,791,0
3298540,518.60,763,793,0
3298550,574.18,763,791,0
3298561,625.73,763,794,0
3298571,669.48,763,790,0
3298581,701.99,763,794,0
3298591,724.75,763,789,0
3298601,740.68,763,795,0
3298611,751.88,763,790,0
3298621,759.71,763,794,0
3298631,765.20,763,789,0
3298641,769.04,763,794,0
3298651,771.73,763,790,0
3298661,773.61,763,794,0
3298671,774.93,763,789,0
3298681,775.85,763,794,0
3298691,776.49,763,790,0
3298701,776.95,763,794,0
3298711,777.26,763,789,0
3298721,777.48,763,795,0
3298732,777.64,763,789,0
3298742,777.75,763,794,0
3298752,777.78,763,788,0
3298762,777.80,763,794,0
3298772,772.55,763,788,0
3298782,758.88,763,795,0
3298792,734.45,763,788,0
3298802,698.66,763,795,0
3298812,651.83,763,788,0
3298822,595.35,763,794,0
3298832,530.40,763,788,0
3298842,463.98,763,794,0
3298852,400.86,763,788,0
3298862,345.10,763,794,0
3298872,298.57,763,789,0
3298882,262.23,763,795,0
3298892,235.55,763,788,0
3298903,217.98,763,794,0
3298913,208.17,763,788,0
3298923,204.69,763,794,0
3298933,205.86,763,788,0
3298944,210.31,763,794,0
3298953,216.56,763,788,0
3298963,223.64,763,795,0
3298973,230.65,763,789,0
3298983,237.01,763,795,0
3298993,242.32,763,788,0
3299003,246.47,763,794,0
3299013,249.28,763,788,0
3299023,250.87,763,794,0
3299033,251.29,763,788,0
3299043,250.74,763,795,0
3299053,249.40,763,789,0
3299063,247.48,763,794,0
3299073,245.11,763,788,0
3299083,242.63,763,795,0
3299093,240.26,763,788,0
3299103,238.17,763,794,0
3299113,236.49,763,788,0
3299123,235.31,763,795,0
3299133,234.75,763,788,0
3299143,234.82,763,794,0
3299153,235.48,763,789,0
3299163,236.62,763,795,0
3299173,238.19,763,788,0
3299183,240.15,763,794,0
3299193,242.50,763,788,0
3299203,245.40,763,794,0
3299213,249.35,763,788,0
3299223,255.42,763,795,0
3299233,265.32,763,788,0
3299244,281.38,763,795,0
3299254,306.38,763,788,0
3299264,343.21,763,795,0
3299283,390.80,766,794,0
3299287,445.21,766,793,0
3299295,502.83,766,789,0
3299305,560.27,766,794,0
3299315,613.97,766,789,0
3299325,660.27,766,794,0
3299335,695.59,766,789,0
3299345,720.35,766,794,0
3299355,737.65,766,789,0
3299365,749.75,766,794,0
3299375,758.23,766,789,0
3299385,764.16,766,794,0
3299395,768.31,766,790,0
3299405,771.22,766,794,0
3299415,773.25,766,789,0
3299425,774.68,766,794,0
3299435,775.67,766,789,0
3299445,776.37,766,794,0
3299456,776.86,766,790,0
3299465,777.20,766,794,0
3299475,777.44,766,790,0
3299485,777.61,766,794,0
3299495,777.73,766,790,0
3299505,777.81,766,794,0
3299515,777.87,766,790,0
3299525,777.86,766,794,0
3299535,774.69,766,790,0
3299545,764.63,766,794,0
3299555,745.15,766,789,0
3299565,715.06,766,793,0
3299575,674.46,766,790,0
3299585,624.14,766,794,0
3299595,565.25,766,790,0
3299605,502.22,766,794,0
3299615,440.27,766,790,0
3299625,383.32,766,794,0
3299635,333.94,766,790,0
3299645,293.11,766,794,0
3299655,261.02,766,791,0
3299665,237.19,766,794,0
3299675,220.97,766,790,0
3299685,211.21,766,794,0
3299695,206.82,766,790,0
3299705,206.53,766,794,0
3299715,209.37,766,790,0
3299725,214.27,766,794,0
3299735,220.62,766,791,0
3299745,227.46,766,794,0
3299756,234.44,766,791,0
3299766,240.91,766,794,0
3299776,246.81,766,792,0
3299786,251.75,766,793,0
3299796,255.85,766,792,0
3299806,258.90,766,794,0
3299816,261.20,766,791,0
3299826,262.60,766,793,0
3299836,263.49,766,792,0
3299846,263.69,766,793,0
3299856,263.57,766,792,0
3299866,262.97,766,793,0
3299876,262.21,766,792,0
3299886,261.24,766,794,0
3299896,260.61,766,792,0
3299906,260.77,766,793,0
3299916,263.15,766,792,0
3299927,269.28,766,792,0
3299937,281.84,766,793,0
3299947,303.53,766,792,0
3299957,337.79,766,793,0
3299968,383.79,766,792,0
3299977,437.47,766,792,0
3299996,495.01,713,792,0
3299999,553.04,713,794,0
3300008,607.76,713,790,0
3300018,655.49,713,793,0
3300028,692.20,713,791,0
3300038,717.94,713,793,0
3300048,735.96,713,790,0
3300058,748.57,713,793,0
3300068,757.40,713,791,0
3300078,763.58,713,794,0
3300088,767.91,713,790,0
3300098,770.93,713,793,0
3300108,773.05,713,791,0
3300118,774.54,713,794,0
3300128,775.58,713,790,0
3300139,776.30,713,794,0
3300148,776.81,713,791,0
3300158,777.17,713,793,0
3300168,777.42,713,790,0
3300178,777.59,713,794,0
3300188,777.71,713,791,0
3300198,777.80,713,794,0
3300208,777.86,713,790,0
3300218,777.90,713,794,0
3300228,777.93,713,791,0
3300238,776.58,713,794,0
3300248,768.26,713,790,0
3300258,749.76,713,794,0
3300268,719.83,713,791,0
3300278,678.18,713,794,0
3300288,625.24,713,791,0
3300298,562.34,713,794,0
3300308,492.30,713,790,0
3300318,422.61,713,794,0
3300328,357.97,713,791,0
3300338,301.23,713,794,0
3300348,253.98,713,790,0
3300358,217.00,713,794,0
3300368,189.74,713,791,0
3300378,171.56,713,794,0
3300388,160.94,713,790,0
3300398,156.71,713,794,0
3300408,157.31,713,791,0
3300418,161.68,713,794,0
3300428,168.42,713,790,0
3300439,176.73,713,794,0
3300449,185.47,713,789,0
3300459,194.16,713,794,0
3300469,202.17,713,789,0
3300480,209.32,713,794,0
3300489,215.18,713,789,0
3300499,219.88,713,794,0
3300509,223.22,713,789,0
3300519,225.60,713,794,0
3300529,226.96,713,789,0
3300539,227.70,713,794,0
3300549,227.79,713,789,0
3300559,227.55,713,795,0
3300569,226.96,713,789,0
3300579,226.33,713,794,0
3300589,225.50,713,789,0
3300599,224.88,713,794,0
3300609,224.49,713,789,0
3300619,225.07,713,794,0
3300629,227.36,713,789,0
3300639,233.08,713,794,0
3300649,244.20,713,789,0
3300659,263.30,713,795,0
3300669,293.21,713,789,0
3300679,337.16,713,795,0
3300689,390.85,713,789,0
3300708,450.30,712,788,0
3300711,511.62,712,788,0
3300720,571.22,712,795,0
3300730,625.54,712,788,0
3300740,670.72,712,795,0
3300750,702.91,712,788,0
3300760,725.43,712,795,0
3300770,741.20,712,788,0
3300780,752.24,712,795,0
3300790,759.97,712,788,0
3300800,765.38,712,795,0
3300810,769.17,712,788,0
3300820,771.82,712,794,0
3300830,773.67,712,788,0
3300840,774.97,712,795,0
3300850,775.88,712,788,0
3300860,776.52,712,794,0
3300870,776.96,712,788,0
3300880,777.27,712,795,0
3300890,777.49,712,788,0
3300900,777.64,712,795,0
3300910,777.75,712,788,0
3300920,777.83,712,795,0
3300930,777.88,712,788,0
3300940,777.91,712,795,0
3300951,777.94,712,788,0
3300961,775.82,712,795,0
3300971,766.23,712,788,0
3300981,745.97,712,794,0
3300992,713.54,712,788,0
3301001,669.06,712,795,0
3301011,613.12,712,788,0
3301021,546.87,712,794,0
3301031,474.09,712,788,0
3301041,401.89,712,794,0
3301051,335.20,712,788,0
3301061,277.15,712,795,0
3301071,229.11,712,788,0
3301081,191.62,712,794,0
3301091,164.56,712,789,0
3301101,147.04,712,795,0
3301111,137.81,712,788,0
3301121,135.47,712,795,0
3301131,138.54,712,788,0
3301141,145.58,712,794,0
3301151,155.39,712,788,0
3301161,166.72,712,794,0
3301171,178.67,712,789,0
3301181,190.39,712,794,0
3301191,201.37,712,788,0
3301201,211.20,712,794,0
3301211,219.67,712,788,0
3301221,226.71,712,794,0
3301231,232.46,712,788,0
3301241,236.95,712,794,0
3301251,240.48,712,788,0
3301261,243.21,712,794,0
3301271,245.42,712,788,0
3301281,247.22,712,795,0
3301292,248.78,712,789,0
3301302,250.09,712,794,0
3301312,251.26,712,789,0
3301322,252.21,712,794,0
3301332,253.09,712,790,0
3301342,253.92,712,794,0
3301352,255.27,712,789,0
3301362,257.93,712,794,0
3301372,263.57,712,790,0
3301382,273.90,712,794,0
3301392,291.67,712,789,0
3301402,319.71,712,794,0
3301412,360.86,712,790,0
3301422,411.34,712,795,0
3301441,467.34,733,794,0
3301444,525.18,733,794,0
3301453,581.65,733,791,0
3301463,633.10,733,794,0
3301473,675.84,733,790,0
3301483,706.49,733,794,0
3301493,727.94,733,791,0
3301504,742.96,733,793,0
3301513,753.47,733,790,0
3301523,760.83,733,794,0
3301533,766.02,733,791,0
3301543,769.66,733,793,0
3301553,772.20,733,790,0
3301563,773.99,733,794,0
3301573,775.23,733,791,0
3301583,776.11,733,793,0
3301593,776.72,733,790,0
3301603,777.10,733,793,0
3301613,777.37,733,790,0
3301623,777.56,733,794,0
3301633,777.69,733,790,0
3301643,777.78,733,794,0
3301653,777.85,733,791,0
3301663,777.89,733,794,0
3301673,777.93,733,791,0
3301683,773.32,733,793,0
3301693,760.20,733,790,0
3301703,736.27,733,794,0
3301713,700.83,733,792,0
3301723,654.29,733,794,0
3301733,597.46,733,791,0
3301743,531.41,733,794,0
3301753,462.37,733,791,0
3301763,395.79,733,794,0
3301773,335.55,733,791,0
3301783,283.66,733,794,0
3301793,240.99,733,792,0
3301804,207.65,733,793,0
3301814,183.41,733,792,0
3301824,167.17,733,793,0
3301834,157.82,733,792,0
3301844,153.85,733,792,0
3301854,154.19,733,792,0
3301864,157.39,733,793,0
3301874,162.63,733,793,0
3301884,168.83,733,793,0
3301894,175.44,733,792,0
3301904,181.78,733,793,0
3301914,187.72,733,793,0
3301924,192.77,733,792,0
3301934,197.13,733,792,0
3301944,200.43,733,793,0
3301954,203.04,733,793,0
3301964,204.83,733,793,0
3301975,206.17,733,793,0
3301985,206.85,733,792,0
3301995,207.28,733,794,0
3302005,207.37,733,791,0
3302016,207.47,733,794,0
3302025,207.33,733,792,0
3302035,207.27,733,794,0
3302045,207.02,733,791,0
3302055,206.97,733,794,0
3302065,206.85,733,792,0
3302075,206.90,733,793,0
3302085,207.06,733,791,0
3302095,207.98,733,794,0
3302105,210.04,733,791,0
3302115,214.70,733,793,0
3302125,223.36,733,791,0
3302135,238.43,733,794,0
3302145,261.57,733,792,0
3302155,295.56,733,793,0
3302174,342.06,733,793,0
3302177,397.67,733,795,0
3302187,457.94,733,789,0
3302196,519.16,733,794,0
3302206,577.53,733,789,0
3302216,630.17,733,795,0
3302226,673.53,733,789,0
3302236,704.92,733,794,0
3302246,726.84,733,790,0
3302256,742.19,733,794,0
3302266,752.93,733,789,0
3302276,760.45,733,794,0
3302286,765.72,733,790,0
3302296,769.40,733,794,0
3302306,771.98,733,789,0
3302316,773.79,733,794,0
3302326,775.05,733,790,0
3302336,775.94,733,794,0
3302346,776.55,733,789,0
3302356,776.99,733,795,0
3302366,777.29,733,790,0
3302376,777.50,733,794,0
3302386,777.65,733,789,0
3302396,777.76,733,794,0
3302406,777.83,733,790,0
3302416,777.88,733,794,0
3302426,776.46,733,789,0
3302436,768.39,733,794,0
3302446,750.70,733,790,0
3302456,721.61,733,794,0
3302466,680.50,733,789,0
3302476,627.98,733,794,0
3302487,565.03,733,789,0
3302497,494.73,733,794,0
3302507,423.93,733,789,0
3302517,357.39,733,794,0
3302528,298.52,733,789,0
3302537,249.38,733,794,0
3302547,210.52,733,788,0
3302557,181.95,733,794,0
3302567,162.68,733,789,0
3302577,151.59,733,794,0
3302587,147.13,733,789,0
3302597,147.86,733,795,0
3302607,152.27,733,789,0
3302617,159.18,733,794,0
3302627,167.35,733,789,0
3302637,176.03,733,794,0
3302647,184.42,733,788,0
3302657,192.10,733,794,0
3302667,198.58,733,789,0
3302677,203.81,733,794,0
3302687,207.59,733,788,0
3302697,210.20,733,794,0
3302707,211.56,733,789,0
3302717,211.95,733,794,0
3302727,211.53,733,788,0
3302737,210.69,733,794,0
3302747,209.58,733,788,0
3302757,208.51,733,795,0
3302767,207.45,733,788,0
3302777,206.72,733,794,0
3302787,206.29,733,788,0
3302797,206.24,733,794,0
3302807,206.51,733,788,0
3302817,207.09,733,795,0
3302828,207.88,733,789,0
3302838,209.07,733,794,0
3302848,210.81,733,788,0
3302858,213.61,733,794,0
3302868,218.31,733,788,0
3302878,226.06,733,795,0
3302888,238.43,733,788,0
3302898,257.29,733,794,0
3302908,284.29,733,788,0
3302918,320.59,733,795,0
3302937,366.95,763,794,0
3302940,421.05,763,794,0
3302949,478.77,763,788,0
3302959,536.39,763,795,0
3302969,590.70,763,788,0
3302979,638.84,763,794,0
3302989,678.70,763,788,0
3302999,708.49,763,794,0
3303009,729.30,763,788,0
3303019,743.87,763,795,0
3303029,754.11,763,788,0
3303040,761.27,763,794,0
3303049,766.29,763,788,0
3303059,769.80,763,794,0
3303069,772.26,763,788,0
3303079,773.98,763,795,0
3303089,775.19,763,788,0
3303099,776.03,763,794,0
3303109,776.62,763,788,0
3303119,777.04,763,794,0
3303129,775.27,763,788,0
3303139,767.34,763,794,0
3303149,750.61,763,788,0
3303159,723.56,763,794,0
3303169,686.15,763,788,0
3303179,638.49,763,794,0
3303189,581.43,763,788,0
3303199,518.17,763,795,0
3303209,454.26,763,789,0
3303219,393.88,763,795,0
3303229,340.09,763,789,0
3303239,294.25,763,794,0
3303249,257.53,763,789,0
3303259,229.90,763,795,0
3303269,210.99,763,789,0
3303279,199.68,763,794,0
3303289,194.80,763,789,0
3303299,194.82,763,794,0
3303309,198.43,763,789,0
3303319,204.17,763,794,0
3303329,211.11,763,789,0
3303340,218.15,763,794,0
3303350,224.75,763,790,0
3303360,230.26,763,794,0
3303370,234.60,763,790,0
3303380,237.51,763,794,0
3303390,239.11,763,790,0
3303400,239.33,763,794,0
3303410,238.55,763,790,0
3303420,236.80,763,793,0
3303430,234.50,763,790,0
3303440,231.78,763,794,0
3303450,229.02,763,790,0
3303460,226.23,763,794,0
3303470,223.80,763,790,0
3303480,221.68,763,794,0
3303490,220.10,763,790,0
3303500,218.96,763,794,0
3303511,218.46,763,791,0
3303521,218.36,763,793,0
3303531,218.90,763,792,0
3303541,219.74,763,793,0
3303552,221.06,763,792,0
3303561,222.50,763,794,0
3303571,224.19,763,792,0
3303581,225.85,763,793,0
3303591,227.61,763,792,0
3303601,229.14,763,794,0
3303611,230.73,763,792,0
3303621,232.22,763,793,0
3303631,234.26,763,792,0
3303641,237.01,763,793,0
3303651,241.46,763,791,0
3303661,248.31,763,793,0
3303671,259.02,763,792,0
3303681,274.18,763,793,0
3303700,295.13,763,793,0
3303703,322.86,763,791,0
3303712,357.57,763,793,0
3303723,398.46,763,791,0
3303732,444.52,763,792,0
3303742,493.82,763,792,0
3303752,543.72,763,793,0
3303762,591.29,763,791,0
3303772,634.02,763,793,0
3303782,670.57,763,792,0
3303792,700.36,763,793,0
3303802,723.18,763,791,0
3303812,739.45,763,793,0
3303822,750.37,763,792,0
3303832,756.22,763,793,0
3303842,756.67,763,792,0
3303852,751.88,763,793,0
3303862,741.33,763,792,0
3303872,724.90,763,793,0
3303882,702.13,763,791,0
3303892,673.59,763,794,0
3303902,640.59,763,793,0
3303912,604.67,763,793,0
3303922,566.54,763,791,0
3303932,527.76,763,794,0
3303942,489.43,763,792,0
3303952,452.96,763,793,0
3303962,418.94,763,791,0
3303972,388.32,763,794,0
3303982,361.48,763,792,0
3303992,339.09,763,793,0
3304002,321.02,763,792,0
3304012,307.34,763,794,0
3304023,297.56,763,791,0
3304033,291.43,763,794,0
3304043,288.04,763,791,0
3304053,287.00,763,794,0
3304064,287.43,763,790,0
3304073,288.93,763,794,0
3304083,290.62,763,791,0
3304093,292.32,763,794,0
3304103,293.55,763,790,0
3304113,294.37,763,794,0
3304123,294.39,763,790,0
3304133,293.89,763,794,0
3304143,292.68,763,790,0
3304153,291.15,763,794,0
3304163,289.09,763,791,0
3304173,286.88,763,794,0
3304183,284.43,763,790,0
3304193,282.11,763,794,0
3304203,279.81,763,790,0
3304213,277.81,763,794,0
3304223,275.94,763,790,0
3304233,274.50,763,794,0
3304243,273.28,763,790,0
3304253,272.51,763,794,0
3304263,271.93,763,790,0
3304273,271.78,763,794,0
3304283,271.80,763,790,0
3304293,272.20,763,794,0
3304303,272.74,763,790,0
3304313,273.59,763,794,0
3304323,274.44,763,790,0
3304333,275.55,763,794,0
3304343,276.59,763,790,0
3304353,277.78,763,794,0
3304364,278.83,763,789,0
3304374,279.95,763,795,0
3304384,280.91,763,789,0
3304394,281.88,763,795,0
3304404,282.77,763,788,0
3304414,283.87,763,794,0
3304424,285.32,763,789,0
3304434,287.88,763,794,0
3304444,292.08,763,788,0
3304454,298.87,763,795,0
3304464,309.06,763,789,0
3304474,323.74,763,795,0
3304494,343.71,793,794,0
3304497,369.98,793,795,0
3304506,402.22,793,788,0
3304516,439.82,793,795,0
3304526,481.75,793,788,0
3304536,526.35,793,794,0
3304546,570.99,793,788,0
3304556,613.29,793,795,0
3304566,651.00,793,788,0
3304577,683.19,793,794,0
3304587,709.32,793,788,0
3304597,729.28,793,794,0
3304607,743.47,793,789,0
3304617,752.07,793,794,0
3304627,755.65,793,788,0
3304637,754.25,793,794,0
3304647,747.84,793,788,0
3304657,736.23,793,794,0
3304667,719.49,793,788,0
3304677,697.53,793,794,0
3304687,671.48,793,789,0
3304697,642.11,793,794,0
3304707,610.66,793,788,0
3304717,578.11,793,794,0
3304727,545.50,793,788,0
3304737,513.60,793,794,0
3304748,483.46,793,790,0
3304758,455.85,793,794,0
3304768,431.55,793,790,0
3304778,410.73,793,794,0
3304788,393.75,793,791,0
3304798,380.46,793,794,0
3304808,370.76,793,790,0
3304818,364.15,793,794,0
3304828,360.29,793,790,0
3304838,358.40,793,794,0
3304848,358.07,793,790,0
3304858,358.48,793,794,0
3304868,359.36,793,791,0
3304878,360.15,793,794,0
3304888,360.66,793,790,0
3304898,360.42,793,794,0
3304908,359.57,793,790,0
3304919,357.81,793,793,0
3304929,355.38,793,791,0
3304939,352.18,793,793,0
3304949,348.57,793,792,0
3304960,344.54,793,793,0
3304969,340.52,793,791,0
3304979,336.38,793,793,0
3304989,332.54,793,792,0
3304999,328.86,793,793,0
3305009,325.69,793,791,0
3305019,322.74,793,794,0
3305029,320.33,793,792,0
3305039,318.22,793,793,0
3305049,316.61,793,791,0
3305059,315.27,793,793,0
3305069,314.46,793,792,0
3305079,313.89,793,793,0
3305089,313.80,793,791,0
3305099,313.82,793,793,0
3305109,314.08,793,792,0
3305119,314.40,793,793,0
3305129,314.92,793,793,0
3305139,315.29,793,793,0
3305149,315.67,793,792,0
3305159,315.77,793,793,0
3305169,315.84,793,792,0
3305179,315.72,793,793,0
3305189,315.67,793,792,0
3305199,315.64,793,793,0
3305209,316.35,793,793,0
3305219,318.17,793,793,0
3305229,322.28,793,792,0
3305239,329.61,793,793,0
3305249,341.60,793,792,0
3305260,359.29,793,793,0
3305270,384.02,793,793,0
3305280,416.07,793,792,0
3305299,455.65,806,791,0
3305303,500.41,806,789,0
3305311,547.09,806,794,0
3305321,592.79,806,791,0
3305331,635.20,806,794,0
3305341,672.17,806,790,0
3305351,702.37,806,793,0
3305361,724.76,806,790,0
3305371,740.43,806,794,0
3305381,751.40,806,790,0
3305391,759.08,806,793,0
3305401,764.46,806,791,0
3305411,768.22,806,794,0
3305421,770.85,806,790,0
3305431,772.70,806,793,0
3305441,773.99,806,791,0
3305451,774.89,806,794,0
3305461,775.52,806,790,0
3305472,773.78,806,794,0
3305481,767.46,806,790,0
3305491,754.89,806,794,0
3305501,734.91,806,790,0
3305511,707.25,806,794,0
3305521,672.16,806,791,0
3305531,630.29,806,794,0
3305541,584.47,806,790,0
3305551,538.09,806,794,0
3305561,493.79,806,791,0
3305571,453.91,806,794,0
3305581,419.52,806,790,0
3305591,391.38,806,794,0
3305601,369.32,806,791,0
3305611,353.33,806,794,0
3305621,342.51,806,790,0
3305631,336.27,806,794,0
3305641,333.41,806,790,0
3305651,333.24,806,794,0
3305661,334.54,806,790,0
3305671,336.82,806,794,0
3305681,339.15,806,790,0
3305691,341.25,806,794,0
3305701,342.54,806,790,0
3305711,343.07,806,794,0
3305721,342.49,806,790,0
3305731,341.10,806,794,0
3305741,338.76,806,791,0
3305751,335.91,806,794,0
3305761,332.47,806,790,0
3305772,328.77,806,794,0
3305782,324.81,806,789,0
3305792,320.92,806,794,0
3305802,317.09,806,789,0
3305812,313.68,806,795,0
3305822,310.52,806,789,0
3305832,307.92,806,794,0
3305842,305.71,806,789,0
3305852,304.13,806,794,0
3305862,302.98,806,789,0
3305872,302.38,806,794,0
3305882,302.10,806,789,0
3305892,302.20,806,795,0
3305902,302.48,806,789,0
3305912,303.11,806,794,0
3305922,303.85,806,789,0
3305932,304.79,806,794,0
3305943,305.71,806,788,0
3305953,306.66,806,795,0
3305963,307.44,806,788,0
3305973,308.17,806,794,0
3305984,308.76,806,788,0
3305993,309.43,806,794,0
3306003,310.42,806,788,0
3306013,312.48,806,794,0
3306023,316.49,806,788,0
3306033,323.72,806,794,0
3306043,335.50,806,788,0
3306053,353.56,806,794,0
3306063,379.32,806,788,0
3306073,413.56,806,794,0
3306092,456.16,793,794,0
3306095,503.38,793,795,0
3306104,552.08,793,788,0
3306114,599.46,793,794,0
3306124,642.78,793,788,0
3306134,679.79,793,794,0
3306144,708.95,793,788,0
3306155,729.37,793,795,0
3306164,743.66,793,788,0
3306174,753.66,793,795,0
3306184,760.66,793,788,0
3306194,765.56,793,794,0
3306204,768.99,793,788,0
3306214,771.40,793,794,0
3306224,773.12,793,788,0
3306234,774.33,793,794,0
3306244,775.17,793,788,0
3306254,775.76,793,795,0
3306264,776.22,793,788,0
3306274,776.54,793,795,0
3306284,776.76,793,788,0
3306294,776.88,793,794,0
3306304,776.49,793,788,0
3306314,771.58,793,795,0
3306324,759.54,793,788,0
3306334,739.15,793,794,0
3306344,709.87,793,788,0
3306354,671.81,793,794,0
3306364,625.67,793,788,0
3306374,573.05,793,795,0
3306384,519.17,793,788,0
3306394,467.90,793,794,0
3306404,421.60,793,789,0
3306414,381.91,793,795,0
3306424,349.62,793,788,0
3306434,324.79,793,794,0
3306444,306.85,793,788,0
3306455,294.98,793,795,0
3306465,288.17,793,789,0
3306475,285.29,793,795,0
3306485,285.38,793,790,0
3306496,287.36,793,794,0
3306505,290.51,793,789,0
3306515,294.00,793,795,0
3306525,297.43,793,790,0
3306535,300.34,793,795,0
3306545,302.64,793,789,0
3306555,304.08,793,794,0
3306565,304.74,793,790,0
3306575,304.47,793,794,0
3306585,303.56,793,789,0
3306595,301.94,793,794,0
3306605,299.94,793,790,0
3306615,297.52,793,795,0
3306625,294.96,793,789,0
3306635,292.32,793,794,0
3306645,289.86,793,790,0
3306655,287.50,793,794,0
3306665,285.51,793,790,0
3306675,283.73,793,794,0
3306685,282.35,793,789,0
3306695,281.26,793,794,0
3306705,280.58,793,790,0
3306715,280.15,793,794,0
3306725,280.11,793,789,0
3306735,280.20,793,794,0
3306745,280.53,793,790,0
3306755,280.93,793,794,0
3306765,281.51,793,789,0
3306775,282.08,793,794,0
3306785,282.87,793,790,0
3306796,284.02,793,794,0
3306806,286.33,793,790,0
3306816,290.56,793,794,0
3306826,298.19,793,791,0
3306836,310.56,793,793,0
3306846,329.21,793,791,0
3306865,355.63,773,790,0
3306868,392.09,773,794,0
3306877,437.32,773,793,0
3306887,487.49,773,791,0
3306897,539.12,773,793,0
3306907,589.31,773,792,0
3306917,635.55,773,792,0
3306927,675.45,773,791,0
3306937,706.00,773,793,0
3306947,727.39,773,792,0
3306957,742.36,773,792,0
3306967,752.84,773,792,0
3306977,760.13,773,793,0
3306987,765.28,773,792,0
3306997,768.88,773,792,0
3307008,771.44,773,793,0
3307017,773.24,773,793,0
3307027,774.54,773,792,0
3307037,775.49,773,792,0
3307047,776.20,773,793,0
3307057,776.66,773,793,0
3307067,776.97,773,792,0
3307077,777.15,773,792,0
3307087,777.28,773,793,0
3307097,773.42,773,792,0
3307107,762.67,773,792,0
3307117,743.05,773,792,0
3307127,714.07,773,793,0
3307137,675.90,773,793,0
3307147,629.39,773,792,0
3307157,575.40,773,793,0
3307167,519.35,773,793,0
3307177,465.42,773,792,0
3307187,417.12,773,792,0
3307197,376.07,773,793,0
3307207,343.18,773,793,0
3307217,318.35,773,792,0
3307227,301.40,773,792,0
3307237,291.08,773,793,0
3307247,286.47,773,793,0
3307257,285.94,773,792,0
3307267,288.49,773,792,0
3307277,292.67,773,792,0
3307287,297.78,773,793,0
3307297,302.78,773,792,0
3307308,307.26,773,793,0
3307318,310.52,773,792,0
3307328,312.64,773,794,0
3307338,313.30,773,791,0
3307348,312.78,773,794,0
3307358,310.96,773,791,0
3307368,308.27,773,794,0
3307378,304.72,773,791,0
3307388,300.86,773,794,0
3307398,296.66,773,791,0
3307408,292.61,773,794,0
3307418,288.65,773,791,0
3307428,285.20,773,794,0
3307438,282.18,773,791,0
3307448,279.90,773,793,0
3307458,278.13,773,791,0
3307468,277.15,773,794,0
3307479,276.59,773,790,0
3307489,276.67,773,794,0
3307499,276.98,773,790,0
3307509,277.63,773,795,0
3307520,278.38,773,789,0
3307529,279.47,773,794,0
3307539,280.79,773,790,0
3307549,283.21,773,794,0
3307559,287.43,773,789,0
3307569,294.84,773,794,0
3307579,306.89,773,789,0
3307589,325.65,773,794,0
3307599,352.89,773,789,0
3307618,389.91,753,789,0
3307621,435.71,753,788,0
3307630,486.45,753,794,0
3307640,538.82,753,788,0
3307650,589.83,753,794,0
3307660,636.38,753,788,0
3307670,675.82,753,795,0
3307680,706.26,753,788,0
3307691,727.57,753,795,0
3307700,742.53,753,788,0
3307710,753.04,753,794,0
3307720,760.40,753,788,0
3307730,765.59,753,795,0
3307740,769.27,753,788,0
3307750,771.85,753,795,0
3307760,773.69,753,788,0
3307770,774.99,753,795,0
3307780,775.89,753,789,0
3307790,776.48,753,794,0
3307800,776.89,753,788,0
3307810,777.18,753,795,0
3307820,777.38,753,788,0
3307830,772.90,753,794,0
3307840,760.46,753,788,0
3307850,738.29,753,794,0
3307860,705.80,753,788,0
3307870,663.56,753,794,0
3307880,612.22,753,789,0
3307890,553.06,753,795,0
3307900,492.14,753,788,0
3307910,434.37,753,794,0
3307920,382.92,753,789,0
3307930,339.83,753,794,0
3307940,305.59,753,789,0
3307950,280.47,753,794,0
3307960,263.70,753,789,0
3307970,254.36,753,794,0
3307980,251.00,753,788,0
3307991,252.33,753,794,0
3308001,256.77,753,788,0
3308011,263.05,753,794,0
3308021,270.02,753,788,0
3308032,276.92,753,794,0
3308041,282.98,753,788,0
3308051,287.83,753,794,0
3308061,291.18,753,788,0
3308071,293.06,753,794,0
3308081,293.60,753,788,0
3308091,292.95,753,794,0
3308101,291.29,753,788,0
3308111,288.80,753,794,0
3308121,285.78,753,788,0
3308131,282.42,753,794,0
3308141,278.99,753,788,0
3308151,275.61,753,794,0
3308161,272.47,753,788,0
3308171,269.76,753,794,0
3308181,267.60,753,788,0
3308191,266.01,753,794,0
3308201,265.02,753,788,0
3308211,264.58,753,794,0
3308221,264.67,753,788,0
3308231,265.20,753,794,0
3308241,266.08,753,788,0
3308251,267.21,753,794,0
3308261,268.56,753,788,0
3308271,270.19,753,794,0
3308281,272.41,753,788,0
3308291,275.76,753,795,0
3308301,281.32,753,788,0
3308311,290.69,753,795,0
3308321,305.91,753,788,0
3308332,329.30,753,794,0
3308342,363.11,753,788,0
3308361,407.52,743,788,0
3308364,458.53,743,791,0
3308374,512.67,743,794,0
3308383,566.64,743,789,0
3308393,617.32,743,794,0
3308403,661.50,743,790,0
3308413,696.23,743,794,0
3308423,720.59,743,789,0
3308433,737.69,743,794,0
3308443,749.69,743,790,0
3308453,758.14,743,794,0
3308463,764.06,743,789,0
3308473,768.24,743,794,0
3308483,771.13,743,790,0
3308493,773.14,743,794,0
3308503,774.56,743,789,0
3308513,775.55,743,794,0
3308523,776.24,743,789,0
3308533,776.73,743,794,0
3308544,777.07,743,790,0
3308553,777.35,743,794,0
3308563,777.54,743,790,0
3308573,777.68,743,794,0
3308583,777.78,743,791,0
3308593,777.84,743,794,0
3308603,777.89,743,790,0
3308613,777.92,743,794,0
3308623,773.57,743,790,0
3308633,761.66,743,794,0
3308643,740.08,743,790,0
3308653,707.95,743,794,0
3308663,665.58,743,791,0
3308673,613.89,743,794,0
3308683,554.14,743,790,0
3308693,491.91,743,794,0
3308703,431.98,743,791,0
3308713,377.77,743,794,0
3308723,331.55,743,790,0
3308733,294.06,743,794,0
3308743,265.28,743,791,0
3308753,244.59,743,794,0
3308763,231.21,743,790,0
3308773,223.82,743,794,0
3308783,221.39,743,790,0
3308793,222.47,743,794,0
3308803,226.06,743,790,0
3308813,231.01,743,794,0
3308823,236.67,743,791,0
3308833,242.29,743,794,0
3308844,247.61,743,791,0
3308854,252.01,743,793,0
3308864,255.61,743,791,0
3308874,258.12,743,793,0
3308884,259.84,743,792,0
3308894,260.62,743,793,0
3308904,260.82,743,792,0
3308914,260.36,743,793,0
3308924,259.74,743,792,0
3308934,258.79,743,793,0
3308944,257.91,743,792,0
3308954,256.95,743,793,0
3308964,256.24,743,793,0
3308974,255.57,743,793,0
3308984,255.22,743,792,0
3308994,254.90,743,793,0
3309004,254.89,743,792,0
3309015,254.96,743,792,0
3309025,255.57,743,793,0
3309035,256.90,743,792,0
3309045,260.06,743,793,0
3309056,266.17,743,791,0
3309065,277.13,743,793,0
3309075,295.09,743,792,0
3309085,323.09,743,793,0
3309105,363.31,743,793,0
3309108,412.97,743,794,0
3309117,468.01,743,789,0
3309127,525.01,743,795,0
3309137,580.68,743,789,0
3309147,631.64,743,794,0
3309157,674.22,743,789,0
3309167,705.36,743,794,0
3309177,727.15,743,788,0
3309187,742.40,743,794,0
3309197,753.08,743,789,0
3309207,760.56,743,794,0
3309217,765.79,743,789,0
3309228,769.45,743,795,0
3309238,772.02,743,789,0
3309248,773.81,743,794,0
3309258,775.07,743,788,0
3309268,775.95,743,795,0
3309278,776.56,743,789,0
3309288,776.99,743,794,0
3309298,777.30,743,788,0
3309308,777.51,743,795,0
3309318,777.66,743,789,0
3309328,777.76,743,794,0
3309338,777.83,743,788,0
3309348,777.88,743,794,0
3309358,777.92,743,788,0
3309368,777.94,743,795,0
3309378,775.95,743,788,0
3309388,767.18,743,795,0
3309399,748.61,743,788,0
3309409,718.94,743,794,0
3309419,677.99,743,788,0
3309429,626.39,743,794,0
3309440,565.33,743,788,0
3309449,498.37,743,794,0
3309459,431.75,743,788,0
3309469,370.02,743,794,0
3309479,315.97,743,789,0
3309489,271.07,743,794,0
3309499,235.69,743,788,0
3309509,209.51,743,794,0
3309519,191.66,743,788,0
3309529,181.09,743,794,0
3309539,176.52,743,788,0
3309549,176.71,743,795,0
3309559,180.44,743,788,0
3309569,186.56,743,795,0
3309579,194.11,743,788,0
3309589,202.22,743,795,0
3309599,210.34,743,788,0
3309609,217.99,743,794,0
3309619,224.77,743,788,0
3309629,230.49,743,794,0
3309639,235.10,743,788,0
3309649,238.67,743,795,0
3309659,241.26,743,788,0
3309669,243.02,743,795,0
3309679,244.13,743,788,0
3309689,244.82,743,794,0
3309699,245.17,743,788,0
3309709,245.42,743,795,0
3309719,245.60,743,789,0
3309729,245.85,743,794,0
3309740,246.15,743,788,0
3309750,246.49,743,794,0
3309760,246.90,743,789,0
3309770,247.40,743,795,0
3309780,248.27,743,789,0
3309790,249.82,743,795,0
3309800,252.96,743,789,0
3309810,259.14,743,794,0
3309820,270.58,743,789,0
3309830,289.39,743,794,0
3309840,318.63,743,789,0
3309850,360.83,743,794,0
3309870,412.18,765,794,0
3309873,468.78,765,793,0
3309882,527.09,765,790,0
3309892,583.51,765,793,0
3309902,634.83,765,791,0
3309912,677.26,765,794,0
3309922,707.48,765,790,0
3309932,728.64,765,794,0
3309942,743.45,765,791,0
3309953,753.81,765,793,0
3309963,761.11,765,792,0
3309973,766.22,765,792,0
3309983,769.80,765,792,0
3309993,772.30,765,792,0
3310003,774.05,765,792,0
3310013,775.28,765,793,0
3310023,776.14,765,793,0
3310033,776.70,765,792,0
3310043,777.09,765,792,0
3310053,777.36,765,793,0
3310063,777.55,765,793,0
3310073,777.69,765,792,0
3310083,777.78,765,792,0
3310093,777.85,765,793,0
3310103,777.89,765,792,0
3310113,777.92,765,792,0
3310124,777.95,765,793,0
3310134,776.29,765,791,0
3310144,768.02,765,793,0
3310154,749.88,765,791,0
3310164,720.65,765,794,0
3310174,680.25,765,791,0
3310184,629.26,765,793,0
3310194,568.54,765,791,0
3310204,501.31,765,794,0
3310214,433.97,765,792,0
3310224,371.45,765,794,0
3310234,316.25,765,791,0
3310244,269.84,765,794,0
3310254,232.60,765,792,0
3310264,204.65,765,793,0
3310274,185.00,765,791,0
3310284,172.83,765,794,0
3310295,166.67,765,790,0
3310305,165.57,765,794,0
3310315,168.05,765,790,0
3310325,173.31,765,794,0
3310336,180.20,765,790,0
3310345,188.20,765,794,0
3310355,196.37,765,790,0
3310365,204.57,765,794,0
3310375,212.24,765,789,0
3310385,219.46,765,794,0
3310395,225.88,765,790,0
3310405,231.66,765,794,0
3310415,236.60,765,789,0
3310425,241.05,765,794,0
3310435,244.72,765,790,0
3310445,247.98,765,794,0
3310455,250.55,765,790,0
3310465,252.70,765,794,0
3310475,254.21,765,790,0
3310485,255.30,765,794,0
3310495,255.73,765,789,0
3310505,255.76,765,795,0
3310515,255.32,765,790,0
3310525,254.92,765,795,0
3310535,255.03,765,790,0
3310545,257.08,765,794,0
3310555,262.28,765,790,0
3310565,273.30,765,794,0
3310575,292.67,765,789,0
3310585,323.58,765,794,0
3310595,367.55,765,790,0
3310614,420.18,745,789,0
3310617,477.47,745,788,0
3310626,536.17,745,795,0
3310636,592.48,745,789,0
3310646,642.82,745,794,0
3310656,683.33,745,788,0
3310666,711.73,745,794,0
3310676,731.61,745,788,0
3310686,745.53,745,795,0
3310696,755.27,745,788,0
3310706,762.09,745,795,0
3310716,766.86,745,788,0
3310726,770.20,745,794,0
3310736,772.54,745,789,0
3310746,774.18,745,795,0
3310756,775.33,745,788,0
3310766,776.13,745,795,0
3310776,776.69,745,788,0
3310786,777.08,745,794,0
3310796,777.36,745,788,0
3310807,777.55,745,795,0
3310817,777.69,745,788,0
3310827,777.78,745,795,0
3310837,777.85,745,788,0
3310848,777.89,745,794,0
3310857,773.47,745,788,0
3310867,760.13,745,795,0
3310877,735.40,745,788,0
3310887,698.47,745,794,0
3310897,649.86,745,788,0
3310907,590.54,745,794,0
3310917,521.94,745,788,0
3310927,450.26,745,794,0
3310937,381.82,745,789,0
3310947,320.80,745,794,0
3310957,269.65,745,788,0
3310967,229.08,745,794,0
3310977,199.06,745,789,0
3310987,179.03,745,794,0
3310997,167.75,745,788,0
3311007,163.62,745,794,0
3311017,165.11,745,788,0
3311027,170.56,745,794,0
3311037,178.54,745,788,0
3311047,188.02,745,794,0
3311057,197.87,745,788,0
3311067,207.34,745,794,0
3311077,215.85,745,788,0
3311087,223.05,745,794,0
3311097,228.78,745,788,0
3311107,233.05,745,794,0
3311117,235.86,745,788,0
3311127,237.45,745,794,0
3311137,238.08,745,788,0
3311148,238.02,745,794,0
3311158,237.50,745,788,0
3311168,236.66,745,794,0
3311178,235.78,745,789,0
3311188,234.94,745,794,0
3311198,234.32,745,788,0
3311208,233.88,745,794,0
3311218,233.66,745,788,0
3311228,233.59,745,794,0
3311238,233.76,745,788,0
3311248,234.09,745,794,0
3311258,234.57,745,788,0
3311268,235.09,745,794,0
3311278,235.83,745,788,0
3311288,237.30,745,794,0
3311298,240.51,745,788,0
3311308,247.04,745,794,0
3311319,259.29,745,789,0
3311329,279.99,745,794,0
3311339,312.35,745,790,0
3311349,357.89,745,794,0
3311369,412.09,754,793,0
3311372,471.16,754,792,0
3311381,531.46,754,792,0
3311391,589.18,754,793,0
3311401,640.60,754,792,0
3311411,681.86,754,793,0
3311421,710.74,754,791,0
3311431,730.96,754,793,0
3311441,745.07,754,792,0
3311451,754.95,754,793,0
3311461,761.87,754,791,0
3311471,766.71,754,793,0
3311481,770.14,754,793,0
3311491,772.54,754,793,0
3311501,774.26,754,792,0
3311511,775.47,754,793,0
3311521,776.31,754,792,0
3311532,776.91,754,792,0
3311542,777.32,754,792,0
3311552,777.57,754,791,0
3311562,777.74,754,793,0
3311572,777.82,754,791,0
3311582,777.87,754,793,0
3311592,777.91,754,792,0
3311602,777.94,754,793,0
3311612,771.96,754,791,0
3311622,756.84,754,793,0
3311632,730.27,754,791,0
3311642,691.75,754,793,0
3311652,641.47,754,791,0
3311662,580.94,754,793,0
3311672,511.49,754,792,0
3311682,440.97,754,793,0
3311692,374.04,754,791,0
3311703,314.80,754,794,0
3311713,265.10,754,791,0
3311723,226.07,754,794,0
3311733,197.03,754,790,0
3311744,177.48,754,794,0
3311753,165.85,754,791,0
3311763,161.05,754,794,0
3311773,161.38,754,790,0
3311783,165.64,754,794,0
3311793,172.26,754,790,0
3311803,180.41,754,794,0
3311813,188.99,754,790,0
3311823,197.56,754,794,0
3311833,205.37,754,791,0
3311843,212.20,754,794,0
3311853,217.67,754,790,0
3311863,222.01,754,794,0
3311873,225.01,754,791,0
3311883,227.06,754,794,0
3311893,228.11,754,790,0
3311903,228.64,754,794,0
3311913,228.62,754,789,0
3311923,228.48,754,794,0
3311933,228.12,754,790,0
3311943,228.00,754,794,0
3311953,227.91,754,789,0
3311963,228.28,754,794,0
3311973,228.80,754,790,0
3311983,229.67,754,794,0
3311993,230.67,754,789,0
3312003,231.97,754,794,0
3312013,233.22,754,790,0
3312023,234.70,754,794,0
3312033,236.37,754,790,0
3312044,239.18,754,794,0
3312054,244.14,754,789,0
3312064,253.27,754,795,0
3312074,268.92,754,789,0
3312084,294.23,754,794,0
3312094,331.40,754,789,0
3312104,379.97,754,794,0
3312123,435.65,755,794,0
3312126,494.81,755,794,0
3312135,553.75,755,788,0
3312145,608.81,755,795,0
3312155,656.10,755,788,0
3312165,692.63,755,794,0
3312175,718.24,755,788,0
3312185,736.17,755,795,0
3312195,748.72,755,788,0
3312205,757.50,755,795,0
3312215,763.65,755,788,0
3312225,767.96,755,794,0
3312235,770.97,755,788,0
3312245,773.08,755,795,0
3312256,774.55,755,788,0
3312265,775.59,755,794,0
3312275,776.31,755,788,0
3312285,776.82,755,794,0
3312295,777.17,755,788,0
3312305,777.42,755,795,0
3312315,777.59,755,788,0
3312325,777.72,755,794,0
3312335,777.80,755,788,0
3312345,777.86,755,795,0
3312355,777.90,755,788,0
3312365,776.60,755,795,0
3312375,768.28,755,788,0
3312385,750.07,755,794,0
3312395,720.05,755,788,0
3312405,677.82,755,794,0
3312415,623.92,755,788,0
3312425,559.61,755,794,0
3312435,487.94,755,788,0
3312445,416.26,755,794,0
3312455,349.15,755,788,0
3312465,290.14,755,794,0
3312475,240.98,755,789,0
3312485,202.46,755,794,0
3312495,174.25,755,788,0
3312505,155.40,755,794,0
3312515,144.61,755,788,0
3312525,140.53,755,795,0
3312535,141.65,755,788,0
3312545,146.64,755,794,0
3312556,154.12,755,788,0
3312566,162.96,755,795,0
3312576,172.23,755,788,0
3312586,181.33,755,794,0
3312596,189.72,755,788,0
3312606,197.04,755,795,0
3312616,203.16,755,788,0
3312626,208.00,755,794,0
3312636,211.68,755,788,0
3312646,214.35,755,795,0
3312656,216.17,755,788,0
3312666,217.24,755,794,0
3312676,217.89,755,789,0
3312686,218.27,755,794,0
3312696,218.57,755,788,0
3312706,218.79,755,794,0
3312716,218.98,755,788,0
3312727,219.20,755,794,0
3312737,219.65,755,789,0
3312747,220.14,755,794,0
3312757,220.74,755,790,0
3312768,221.38,755,794,0
3312777,222.38,755,789,0
3312787,224.11,755,794,0
3312797,227.50,755,790,0
3312807,233.78,755,794,0
3312817,244.78,755,789,0
3312827,262.84,755,794,0
3312837,290.88,755,789,0
3312847,331.33,755,794,0
3312857,382.49,755,789,0
3312876,439.98,753,788,0
3312879,500.07,753,792,0
3312888,559.32,753,794,0
3312898,614.13,753,790,0
3312908,660.76,753,794,0
3312918,695.93,753,790,0
3312928,720.55,753,794,0
3312939,737.79,753,792,0
3312948,749.85,753,794,0
3312958,758.30,753,791,0
3312968,764.21,753,794,0
3312978,768.34,753,791,0
3312988,771.24,753,794,0
3312998,773.27,753,791,0
3313008,774.69,753,794,0
3313018,775.68,753,791,0
3313028,776.38,753,794,0
3313038,776.86,753,791,0
3313048,777.20,753,793,0
3313058,777.44,753,791,0
3313068,777.61,753,794,0
3313078,777.73,753,791,0
3313088,774.55,753,794,0
3313098,763.16,753,791,0
3313108,740.35,753,793,0
3313118,705.36,753,791,0
3313128,657.81,753,793,0
3313138,598.55,753,792,0
3313148,528.83,753,793,0
3313158,454.01,753,791,0
3313168,380.81,753,793,0
3313178,314.44,753,792,0
3313188,257.35,753,793,0
3313198,211.43,753,791,0
3313208,176.97,753,794,0
3313218,153.79,753,792,0
3313228,140.31,753,794,0
3313239,135.25,753,792,0
3313249,136.63,753,793,0
3313259,142.91,753,792,0
3313269,152.28,753,792,0
3313280,163.47,753,793,0
3313289,175.03,753,793,0
3313299,186.25,753,792,0
3313309,196.20,753,792,0
3313319,204.71,753,793,0
3313329,211.31,753,792,0
3313339,216.28,753,793,0
3313349,219.45,753,793,0
3313359,221.29,753,793,0
3313369,221.84,753,793,0
3313379,221.63,753,793,0
3313389,220.63,753,792,0
3313399,219.41,753,793,0
3313409,217.92,753,793,0
3313419,216.66,753,793,0
3313429,215.52,753,792,0
3313439,214.80,753,793,0
3313449,214.35,753,792,0
3313459,214.50,753,793,0
3313469,214.95,753,792,0
3313479,215.91,753,793,0
3313489,217.01,753,792,0
3313499,218.38,753,793,0
3313509,219.76,753,793,0
3313519,221.46,753,793,0
3313529,223.42,753,792,0
3313539,226.25,753,793,0
3313549,230.59,753,792,0
3313559,238.04,753,793,0
3313569,250.16,753,792,0
3313580,269.35,753,794,0
3313590,297.62,753,791,0
3313600,337.03,753,794,0
3313619,386.99,743,793,0
3313623,443.31,743,794,0
3313631,502.02,743,790,0
3313641,559.83,743,794,0
3313651,613.15,743,789,0
3313661,659.01,743,794,0
3313671,694.57,743,790,0
3313681,719.52,743,794,0
3313691,736.98,743,789,0
3313701,749.24,743,795,0
3313711,757.83,743,790,0
3313721,763.88,743,794,0
3313731,768.11,743,789,0
3313741,771.08,743,794,0
3313751,773.16,743,790,0
3313761,774.61,743,794,0
3313771,775.63,743,789,0
3313781,776.34,743,794,0
3313792,774.78,743,788,0
3313801,767.35,743,794,0
3313811,750.79,743,789,0
3313821,723.42,743,795,0
3313831,684.47,743,789,0
3313841,634.53,743,794,0
3313851,574.20,743,790,0
3313861,506.85,743,794,0
3313871,437.68,743,789,0
3313881,371.86,743,794,0
3313891,312.76,743,789,0
3313901,262.86,743,794,0
3313911,222.96,743,789,0
3313921,193.70,743,794,0
3313931,174.63,743,789,0
3313941,164.97,743,794,0
3313951,163.14,743,789,0
3313961,167.64,743,794,0
3313971,176.62,743,789,0
3313981,188.56,743,794,0
3313991,201.81,743,789,0
3314001,215.19,743,794,0
3314011,227.52,743,789,0
3314021,238.25,743,794,0
3314031,246.79,743,789,0
3314041,253.15,743,794,0
3314051,257.18,743,790,0
3314061,259.27,743,794,0
3314071,259.49,743,789,0
3314081,258.44,743,795,0
3314092,256.38,743,789,0
3314102,253.87,743,794,0
3314112,251.12,743,789,0
3314122,248.64,743,794,0
3314132,246.52,743,789,0
3314142,245.21,743,794,0
3314152,244.59,743,788,0
3314162,244.80,743,794,0
3314172,245.72,743,788,0
3314182,247.30,743,794,0
3314192,249.35,743,789,0
3314202,251.86,743,794,0
3314212,254.47,743,788,0
3314222,257.20,743,794,0
3314232,259.76,743,789,0
3314242,262.10,743,794,0
3314252,264.17,743,789,0
3314263,265.92,743,794,0
3314273,267.36,743,788,0
3314283,268.92,743,794,0
3314293,271.22,743,788,0
3314304,275.44,743,794,0
3314313,282.81,743,789,0
3314323,295.29,743,794,0
3314333,315.01,743,788,0
3314343,343.85,743,795,0
3314362,382.68,743,794,0
3314365,430.35,743,794,0
3314374,482.83,743,788,0
3314384,536.84,743,794,0
3314394,589.00,743,788,0
3314404,636.23,743,794,0
3314414,675.85,743,788,0
3314424,706.19,743,794,0
3314434,727.43,743,788,0
3314444,742.30,743,795,0
3314454,752.76,743,788,0
3314464,760.07,743,795,0
3314475,765.19,743,788,0
3314484,768.82,743,795,0
3314494,771.36,743,788,0
3314504,773.14,743,794,0
3314514,774.43,743,789,0
3314524,775.24,743,795,0
3314534,771.35,743,788,0
3314544,759.85,743,794,0
3314554,738.89,743,788,0
3314564,707.90,743,794,0
3314574,666.57,743,788,0
3314584,615.27,743,794,0
3314594,554.98,743,789,0
3314604,491.47,743,794,0
3314614,429.27,743,789,0
3314624,371.72,743,794,0
3314634,321.10,743,789,0
3314644,279.16,743,794,0
3314654,246.71,743,789,0
3314664,223.87,743,794,0
3314674,210.11,743,789,0
3314684,204.25,743,794,0
3314694,205.07,743,788,0
3314704,211.01,743,794,0
3314714,220.56,743,789,0
3314724,232.27,743,794,0
3314734,244.87,743,788,0
3314744,257.08,743,794,0
3314754,268.24,743,789,0
3314764,277.73,743,794,0
3314775,285.22,743,790,0
3314785,290.43,743,794,0
3314795,293.56,743,790,0
3314805,294.63,743,794,0
3314816,294.10,743,791,0
3314825,292.18,743,794,0
3314835,289.30,743,790,0
3314845,285.65,743,794,0
3314855,281.86,743,791,0
3314865,277.91,743,794,0
3314875,274.25,743,790,0
3314885,270.92,743,794,0
3314895,268.20,743,791,0
3314905,266.08,743,794,0
3314915,264.77,743,790,0
3314925,264.03,743,794,0
3314935,264.10,743,791,0
3314945,264.67,743,794,0
3314955,265.89,743,790,0
3314965,267.42,743,794,0
3314975,269.35,743,791,0
3314985,271.39,743,793,0
3314995,273.59,743,790,0
3315005,275.60,743,794,0
3315015,277.65,743,791,0
3315025,279.38,743,794,0
3315035,281.11,743,790,0
3315045,282.66,743,794,0
3315055,284.73,743,791,0
3315065,287.90,743,794,0
3315075,293.37,743,790,0
3315085,302.60,743,794,0
3315095,317.81,743,791,0
3315105,340.97,743,793,0
3315125,374.23,763,793,0
3315128,417.75,763,791,0
3315137,467.58,763,793,0
3315147,520.34,763,791,0
3315158,572.86,763,793,0
3315167,621.98,763,792,0
3315177,664.71,763,792,0
3315187,698.40,763,792,0
3315197,722.02,763,793,0
3315207,738.56,763,792,0
3315217,750.18,763,793,0
3315227,758.31,763,791,0
3315237,764.00,763,793,0
3315247,767.99,763,792,0
3315257,770.82,763,793,0
3315267,772.76,763,792,0
3315277,774.12,763,793,0
3315287,775.03,763,792,0
3315297,775.66,763,793,0
3315307,776.11,763,792,0
3315317,776.42,763,793,0
3315328,775.82,763,791,0
3315337,770.43,763,793,0
3315347,756.89,763,792,0
3315357,733.56,763,793,0
3315367,699.67,763,791,0
3315377,655.88,763,793,0
3315387,602.86,763,792,0
3315397,542.82,763,793,0
3315407,481.07,763,791,0
3315417,422.81,763,793,0
3315427,371.05,763,792,0
3315437,328.14,763,793,0
3315447,294.41,763,791,0
3315457,270.29,763,793,0
3315467,254.86,763,792,0
3315477,247.36,763,794,0
3315487,246.05,763,791,0
3315497,249.68,763,794,0
3315507,256.46,763,792,0
3315517,265.32,763,794,0
3315527,274.78,763,791,0
3315537,284.11,763,794,0
3315547,292.34,763,792,0
3315557,299.27,763,794,0
3315567,304.37,763,791,0
3315577,307.82,763,794,0
3315587,309.42,763,792,0
3315597,309.63,763,793,0
3315607,308.42,763,791,0
3315617,306.23,763,794,0
3315628,303.16,763,791,0
3315638,299.81,763,794,0
3315648,296.18,763,790,0
3315658,292.70,763,794,0
3315668,289.28,763,789,0
3315678,286.41,763,794,0
3315688,283.97,763,790,0
3315698,282.22,763,794,0
3315708,280.83,763,790,0
3315718,280.11,763,794,0
3315728,279.69,763,790,0
3315738,279.74,763,795,0
3315748,279.95,763,790,0
3315758,280.52,763,794,0
3315768,281.31,763,790,0
3315778,282.89,763,795,0
3315788,285.62,763,789,0
3315799,290.96,763,794,0
3315809,300.32,763,789,0
3315819,315.91,763,794,0
3315829,339.72,763,789,0
3315840,373.96,763,795,0
3315858,418.29,733,794,0
3315861,468.86,733,794,0
3315870,522.13,733,788,0
3315880,575.02,733,794,0
3315890,624.21,733,788,0
3315900,666.75,733,794,0
3315910,699.91,733,788,0
3315920,723.17,733,794,0
3315930,739.44,733,788,0
3315940,750.84,733,794,0
3315950,758.77,733,788,0
3315960,764.37,733,794,0
3315970,768.29,733,788,0
3315980,770.99,733,794,0
3315990,772.83,733,788,0
3316000,774.17,733,794,0
3316011,775.10,733,788,0
3316020,775.76,733,795,0
3316030,776.22,733,788,0
3316040,776.54,733,795,0
3316050,776.76,733,788,0
3316060,775.93,733,794,0
3316070,769.40,733,788,0
3316080,754.23,733,794,0
3316090,728.79,733,788,0
3316100,692.94,733,794,0
3316110,647.02,733,788,0
3316120,591.98,733,794,0
3316130,530.19,733,788,0
3316140,467.99,733,794,0
3316150,409.96,733,789,0
3316160,359.27,733,794,0
3316170,317.41,733,788,0
3316180,285.23,733,794,0
3316190,262.53,733,788,0
3316200,248.57,733,795,0
3316210,241.97,733,788,0
3316220,241.29,733,794,0
3316230,244.98,733,788,0
3316240,251.58,733,794,0
3316250,259.77,733,788,0
3316260,268.49,733,794,0
3316270,276.92,733,788,0
3316280,284.48,733,795,0
3316290,290.72,733,788,0
3316300,295.56,733,794,0
3316311,298.82,733,788,0
3316321,300.63,733,794,0
3316331,301.13,733,788,0
3316341,300.49,733,794,0
3316352,298.93,733,788,0
3316361,296.81,733,794,0
3316371,294.34,733,788,0
3316381,291.75,733,795,0
3316391,289.21,733,788,0
3316401,286.92,733,794,0
3316411,285.06,733,788,0
3316421,283.67,733,794,0
3316431,282.78,733,789,0
3316441,282.29,733,794,0
3316451,282.29,733,788,0
3316461,282.63,733,795,0
3316471,283.30,733,788,0
3316481,284.11,733,794,0
3316491,285.02,733,788,0
3316501,285.96,733,794,0
3316511,287.08,733,788,0
3316521,288.56,733,794,0
3316531,291.01,733,788,0
3316541,295.46,733,795,0
3316551,303.68,733,789,0
3316561,317.79,733,794,0
3316571,339.84,733,788,0
3316581,372.20,733,794,0
3316600,415.17,742,794,0
3316603,464.88,742,794,0
3316612,517.88,742,788,0
3316622,570.80,742,794,0
3316632,620.41,742,789,0
3316642,663.83,742,794,0
3316652,697.99,742,789,0
3316662,721.91,742,794,0
3316672,738.61,742,789,0
3316682,750.30,742,794,0
3316692,758.52,742,790,0
3316702,764.24,742,794,0
3316712,768.19,742,789,0
3316722,770.92,742,794,0
3316732,772.87,742,790,0
3316742,774.28,742,794,0
3316752,775.23,742,789,0
3316762,775.89,742,794,0
3316772,776.39,742,790,0
3316782,776.79,742,794,0
3316792,777.07,742,789,0
3316802,777.26,742,794,0
3316812,777.40,742,790,0
3316823,777.54,742,794,0
3316833,777.59,742,790,0
3316843,777.63,742,793,0
3316853,774.27,742,791,0
3316864,763.34,742,793,0
3316873,743.06,742,790,0
3316883,712.22,742,793,0
3316893,670.93,742,791,0
3316903,619.86,742,793,0
3316913,560.46,742,791,0
3316923,497.45,742,794,0
3316933,436.63,742,791,0
3316943,381.11,742,793,0
3316953,333.51,742,791,0
3316963,294.83,742,794,0
3316973,265.52,742,791,0
3316983,244.75,742,793,0
3316993,231.71,742,791,0
3317003,225.07,742,794,0
3317013,223.76,742,791,0
3317023,226.32,742,793,0
3317033,231.75,742,792,0
3317043,238.68,742,794,0
3317053,246.41,742,791,0
3317063,254.04,742,793,0
3317073,261.27,742,792,0
3317083,267.40,742,794,0
3317093,272.43,742,791,0
3317103,276.03,742,793,0
3317113,278.46,742,792,0
3317123,279.65,742,794,0
3317133,280.01,742,791,0
3317143,279.50,742,793,0
3317153,278.70,742,792,0
3317164,277.64,742,793,0
3317174,276.59,742,792,0
3317184,275.47,742,793,0
3317194,274.64,742,793,0
3317204,273.89,742,792,0
3317214,273.50,742,792,0
3317224,273.13,742,793,0
3317234,272.96,742,793,0
3317244,272.76,742,792,0
3317254,272.88,742,793,0
3317264,273.00,742,793,0
3317274,273.77,742,793,0
3317284,275.55,742,792,0
3317294,279.59,742,793,0
3317304,287.25,742,793,0
3317314,301.02,742,793,0
3317324,322.96,742,792,0
3317335,356.01,742,793,0
3317345,400.15,742,791,0
3317364,451.36,764,790,0
3317367,506.11,764,789,0
3317377,561.19,764,794,0
3317387,613.08,764,789,0
3317397,658.61,764,795,0
3317407,694.34,764,788,0
3317417,719.40,764,794,0
3317427,736.98,764,789,0
3317437,749.28,764,795,0
3317447,757.90,764,788,0
3317457,763.93,764,794,0
3317467,768.15,764,789,0
3317477,771.11,764,794,0
3317487,773.17,764,788,0
3317497,774.62,764,795,0
3317507,775.64,764,788,0
3317517,776.34,764,794,0
3317527,776.84,764,788,0
3317537,777.19,764,795,0
3317548,777.43,764,788,0
3317558,777.60,764,795,0
3317568,777.72,764,788,0
3317578,777.81,764,795,0
3317588,777.86,764,788,0
3317598,777.90,764,795,0
3317608,777.93,764,788,0
3317618,775.51,764,794,0
3317628,766.10,764,788,0
3317638,747.51,764,794,0
3317648,718.26,764,788,0
3317658,678.20,764,795,0
3317668,627.91,764,788,0
3317678,568.71,764,795,0
3317688,504.25,764,788,0
3317698,440.66,764,794,0
3317708,381.62,764,788,0
3317719,330.05,764,794,0
3317729,287.35,764,788,0
3317739,254.07,764,795,0
3317749,229.84,764,788,0
3317760,214.07,764,794,0
3317769,205.61,764,788,0
3317779,203.20,764,795,0
3317789,205.54,764,788,0
3317799,211.38,764,794,0
3317809,219.32,764,788,0
3317819,228.27,764,795,0
3317829,237.32,764,788,0
3317839,245.75,764,794,0
3317849,253.07,764,788,0
3317859,258.92,764,794,0
3317869,263.14,764,788,0
3317879,265.84,764,794,0
3317889,267.09,764,788,0
3317899,267.06,764,794,0
3317909,266.14,764,788,0
3317919,264.52,764,795,0
3317929,262.56,764,788,0
3317939,260.51,764,794,0
3317949,258.55,764,788,0
3317959,256.85,764,794,0
3317969,255.56,764,788,0
3317979,254.67,764,794,0
3317989,254.29,764,788,0
3317999,254.25,764,794,0
3318009,254.52,764,788,0
3318019,255.00,764,794,0
3318029,255.73,764,788,0
3318039,256.80,764,794,0
3318049,258.62,764,789,0
3318060,261.86,764,794,0
3318070,267.94,764,789,0
3318080,278.63,764,794,0
3318090,296.27,764,790,0
3318100,323.36,764,794,0
3318110,361.74,764,789,0
3318120,409.90,764,794,0
3318139,463.97,775,793,0
3318142,520.34,775,793,0
3318151,575.61,775,790,0
3318161,626.38,775,794,0
3318171,669.34,775,790,0
3318181,701.90,775,794,0
3318191,724.73,775,790,0
3318201,740.71,775,794,0
3318211,751.90,775,790,0
3318221,759.73,775,793,0
3318231,765.21,775,790,0
3318241,769.05,775,794,0
3318251,771.73,775,790,0
3318261,773.61,775,793,0
3318272,774.93,775,791,0
3318281,775.85,775,794,0
3318291,776.50,775,790,0
3318301,776.95,775,793,0
3318311,777.26,775,791,0
3318321,777.48,775,794,0
3318331,777.64,775,790,0
3318341,777.75,775,793,0
3318351,777.82,775,791,0
3318361,777.88,775,794,0
3318371,777.91,775,790,0
3318381,777.94,775,793,0
3318391,774.83,775,791,0
3318401,764.64,775,794,0
3318411,744.73,775,791,0
3318421,713.70,775,793,0
3318431,671.62,775,791,0
3318441,619.10,775,793,0
3318451,557.66,775,791,0
3318461,491.67,775,794,0
3318471,426.80,775,792,0
3318481,367.08,775,793,0
3318491,315.45,775,791,0
3318501,273.02,775,793,0
3318511,240.23,775,792,0
3318521,216.33,775,793,0
3318531,200.72,775,791,0
3318541,192.02,775,794,0
3318551,189.23,775,791,0
3318561,190.79,775,793,0
3318572,195.65,775,791,0
3318582,202.48,775,793,0
3318592,210.52,775,792,0
3318602,218.77,775,793,0
3318612,226.81,775,792,0
3318622,233.89,775,793,0
3318632,239.97,775,793,0
3318642,244.61,775,792,0
3318652,248.11,775,793,0
3318662,250.26,775,793,0
3318672,251.56,775,793,0
3318682,251.90,775,792,0
3318692,251.80,775,793,0
3318702,251.26,775,793,0
3318712,250.76,775,792,0
3318722,250.14,775,793,0
3318732,249.80,775,793,0
3318743,249.43,775,792,0
3318753,249.39,775,794,0
3318763,249.40,775,791,0
3318773,249.71,775,794,0
3318784,250.01,775,790,0
3318793,250.56,775,794,0
3318803,251.08,775,791,0
3318813,251.87,775,793,0
3318823,252.77,775,791,0
3318833,254.34,775,794,0
3318843,256.94,775,791,0
3318853,262.01,775,794,0
3318863,270.88,775,790,0
3318873,285.57,775,793,0
3318883,308.29,775,791,0
3318893,341.72,775,794,0
3318903,386.76,775,790,0
3318922,439.24,783,790,0
3318925,495.27,783,789,0
3318934,551.55,783,794,0
3318944,604.91,783,789,0
3318955,652.12,783,794,0
3318964,689.84,783,790,0
3318974,716.29,783,794,0
3318984,734.80,783,789,0
3318994,747.76,783,795,0
3319004,756.83,783,790,0
3319014,763.18,783,794,0
3319024,767.63,783,789,0
3319034,770.74,783,794,0
3319044,772.92,783,790,0
3319054,774.44,783,794,0
3319064,775.51,783,789,0
3319074,776.26,783,794,0
3319084,776.78,783,790,0
3319094,777.15,783,794,0
3319104,777.40,783,789,0
3319114,777.58,783,794,0
3319124,777.71,783,789,0
3319134,777.79,783,794,0
3319144,777.86,783,789,0
3319154,777.90,783,794,0
3319164,777.93,783,789,0
3319174,774.99,783,794,0
3319184,764.62,783,789,0
3319194,744.29,783,794,0
3319204,712.88,783,788,0
3319214,670.79,783,794,0
3319224,618.48,783,789,0
3319234,557.22,783,794,0
3319244,491.37,783,789,0
3319255,427.02,783,795,0
3319265,368.08,783,789,0
3319275,317.23,783,794,0
3319285,275.20,783,789,0
3319296,242.61,783,794,0
3319305,218.86,783,789,0
3319315,203.26,783,794,0
3319325,194.44,783,788,0
3319335,191.35,783,794,0
3319345,192.44,783,789,0
3319355,196.64,783,794,0
3319365,202.70,783,788,0
3319375,209.91,783,794,0
3319385,217.31,783,789,0
3319395,224.54,783,794,0
3319405,230.98,783,788,0
3319415,236.51,783,795,0
3319425,240.86,783,788,0
3319435,244.20,783,795,0
3319445,246.41,783,789,0
3319455,247.79,783,794,0
3319465,248.37,783,788,0
3319475,248.51,783,795,0
3319485,248.27,783,789,0
3319495,247.98,783,794,0
3319505,247.60,783,788,0
3319515,247.42,783,794,0
3319525,247.29,783,788,0
3319535,247.33,783,794,0
3319545,247.49,783,788,0
3319555,247.90,783,794,0
3319565,248.40,783,788,0
3319575,249.05,783,794,0
3319585,249.72,783,788,0
3319596,250.49,783,794,0
3319606,251.33,783,788,0
3319616,252.35,783,794,0
3319626,253.74,783,788,0
3319636,256.09,783,795,0
3319646,260.31,783,788,0
3319656,267.89,783,794,0
3319666,280.86,783,788,0
3319676,301.48,783,795,0
3319686,331.63,783,788,0
3319705,373.49,783,787,0
3319708,423.95,783,790,0
3319717,479.13,783,794,0
3319727,535.57,783,788,0
3319737,589.83,783,795,0
3319747,638.65,783,788,0
3319757,679.30,783,795,0
3319767,708.87,783,787,0
3319777,729.56,783,795,0
3319787,744.09,783,788,0
3319797,754.27,783,794,0
3319808,761.39,783,788,0
3319817,766.37,783,794,0
3319827,769.86,783,788,0
3319837,772.30,783,795,0
3319847,774.01,783,788,0
3319857,775.21,783,795,0
3319867,776.05,783,788,0
3319877,776.63,783,794,0
3319887,777.04,783,788,0
3319897,777.33,783,795,0
3319907,777.53,783,788,0
3319917,777.67,783,795,0
3319927,777.77,783,788,0
3319937,777.84,783,794,0
3319947,777.89,783,788,0
3319957,775.78,783,795,0
3319967,766.93,783,788,0
3319977,748.44,783,794,0
3319987,719.46,783,788,0
3319997,679.64,783,794,0
3320007,629.56,783,788,0
3320017,570.25,783,794,0
3320027,505.46,783,788,0
3320037,441.25,783,794,0
3320047,382.08,783,788,0
3320057,330.11,783,794,0
3320067,287.01,783,789,0
3320077,253.15,783,795,0
3320087,228.29,783,789,0
3320097,211.44,783,794,0
3320108,201.54,783,789,0
3320118,197.26,783,794,0
3320128,197.40,783,790,0
3320138,200.58,783,794,0
3320148,205.85,783,790,0
3320158,212.19,783,794,0
3320168,218.91,783,790,0
3320178,225.32,783,794,0
3320188,231.14,783,791,0
3320198,236.03,783,794,0
3320208,240.00,783,790,0
3320218,242.83,783,794,0
3320228,244.81,783,791,0
3320238,245.85,783,794,0
3320248,246.33,783,790,0
3320258,246.23,783,794,0
3320268,245.90,783,791,0
3320279,245.37,783,794,0
3320289,245.05,783,791,0
3320299,244.73,783,794,0
3320309,244.81,783,792,0
3320320,245.00,783,793,0
3320329,245.56,783,791,0
3320339,246.20,783,794,0
3320349,247.13,783,791,0
3320359,247.99,783,793,0
3320369,249.02,783,791,0
3320379,249.91,783,794,0
3320389,251.01,783,792,0
3320399,251.95,783,793,0
3320409,253.17,783,791,0
3320419,254.79,783,794,0
3320429,257.89,783,792,0
3320439,263.45,783,793,0
3320449,273.18,783,791,0
3320459,288.85,783,793,0
3320469,313.20,783,791,0
3320479,348.19,783,793,0
3320499,394.38,793,792,0
3320502,447.28,793,790,0
3320511,503.34,793,793,0
3320521,559.21,793,791,0
3320531,611.73,793,794,0
3320541,657.50,793,791,0
3320551,693.65,793,794,0
3320561,718.95,793,791,0
3320571,736.67,793,794,0
3320581,749.07,793,791,0
3320591,757.75,793,794,0
3320601,763.82,793,790,0
3320611,768.08,793,794,0
3320621,771.05,793,791,0
3320631,773.14,793,794,0
3320641,774.60,793,790,0
3320651,775.62,793,794,0
3320662,776.33,793,789,0
3320671,776.83,793,794,0
3320681,777.18,793,791,0
3320691,777.43,793,794,0
3320701,777.60,793,790,0
3320711,777.72,793,794,0
3320721,777.80,793,791,0
3320731,777.86,793,794,0
3320741,777.86,793,790,0
3320751,773.10,793,793,0
3320761,760.04,793,791,0
3320771,736.97,793,794,0
3320781,703.21,793,790,0
3320791,659.43,793,793,0
3320801,606.33,793,791,0
3320811,545.29,793,794,0
3320821,482.29,793,790,0
3320832,422.42,793,794,0
3320841,368.72,793,791,0
3320851,323.20,793,794,0
3320861,286.11,793,790,0
3320871,257.71,793,794,0
3320881,237.10,793,791,0
3320891,223.61,793,794,0
3320901,215.93,793,791,0
3320911,212.99,793,794,0
3320921,213.34,793,791,0
3320931,216.15,793,794,0
3320941,220.31,793,791,0
3320951,225.36,793,794,0
3320961,230.44,793,791,0
3320971,235.28,793,794,0
3320981,239.31,793,790,0
3320991,242.73,793,795,0
3321001,245.21,793,790,0
3321011,246.99,793,794,0
3321021,247.94,793,790,0
3321031,248.38,793,794,0
3321041,248.31,793,790,0
3321051,248.26,793,794,0
3321061,248.05,793,790,0
3321071,248.12,793,794,0
3321081,248.39,793,790,0
3321091,249.13,793,794,0
3321101,250.16,793,791,0
3321111,251.70,793,794,0
3321121,253.33,793,790,0
3321132,255.33,793,794,0
3321142,257.33,793,789,0
3321152,259.42,793,794,0
3321162,261.26,793,789,0
3321172,262.99,793,795,0
3321182,264.32,793,789,0
3321192,265.47,793,795,0
3321202,266.23,793,788,0
3321212,267.10,793,794,0
3321222,268.40,793,789,0
3321232,271.32,793,794,0
3321242,277.27,793,789,0
3321252,288.33,793,795,0
3321262,306.19,793,789,0
3321281,333.47,783,788,0
3321284,372.98,783,788,0
3321293,421.71,783,795,0
3321303,475.67,783,788,0
3321313,531.35,783,794,0
3321323,585.33,783,788,0
3321333,634.86,783,795,0
3321344,676.65,783,788,0
3321353,707.05,783,794,0
3321363,728.34,783,788,0
3321373,743.24,783,795,0
3321383,753.67,783,787,0
3321393,760.97,783,795,0
3321403,766.08,783,788,0
3321413,769.65,783,794,0
3321423,772.16,783,788,0
3321433,773.91,783,795,0
3321443,775.14,783,788,0
3321453,776.00,783,794,0
3321463,776.60,783,788,0
3321473,777.02,783,795,0
3321483,777.31,783,788,0
3321493,777.52,783,795,0
3321503,777.66,783,788,0
3321513,774.38,783,794,0
3321523,764.06,783,788,0
3321533,744.16,783,795,0
3321543,713.34,783,788,0
3321553,671.50,783,794,0
3321563,619.45,783,788,0
3321573,558.33,783,794,0
3321583,492.96,783,788,0
3321593,428.60,783,794,0
3321603,369.40,783,789,0
3321613,318.28,783,795,0
3321623,276.63,783,788,0
3321633,244.72,783,794,0
3321644,222.22,783,788,0
3321654,208.36,783,794,0
3321664,201.78,783,788,0
3321674,201.03,783,794,0
3321684,204.54,783,788,0
3321694,210.85,783,794,0
3321704,218.65,783,788,0
3321714,226.98,783,794,0
3321724,234.92,783,788,0
3321734,241.93,783,794,0
3321744,247.69,783,788,0
3321754,251.98,783,794,0
3321764,254.82,783,788,0
3321774,256.29,783,794,0
3321784,256.50,783,788,0
3321794,255.66,783,794,0
3321804,254.01,783,788,0
3321815,251.69,783,795,0
3321825,249.00,783,788,0
3321835,246.17,783,794,0
3321845,243.42,783,789,0
3321856,240.85,783,794,0
3321865,238.67,783,788,0
3321875,236.88,783,794,0
3321885,235.63,783,789,0
3321895,234.88,783,794,0
3321905,234.62,783,788,0
3321915,234.69,783,794,0
3321925,235.13,783,789,0
3321935,235.65,783,794,0
3321945,236.35,783,788,0
3321955,237.06,783,795,0
3321965,237.86,783,789,0
3321975,238.84,783,794,0
3321985,240.52,783,788,0
3321995,243.53,783,794,0
3322005,249.20,783,789,0
3322015,258.91,783,794,0
3322025,274.71,783,789,0
3322035,297.98,783,794,0
3322045,330.60,783,789,0
3322064,373.71,783,788,0
3322067,425.10,783,792,0
3322076,480.65,783,794,0
3322086,536.81,783,790,0
3322096,590.18,783,794,0
3322106,638.26,783,791,0
3322116,678.29,783,794,0
3322126,708.21,783,789,0
3322136,729.10,783,794,0
3322146,743.73,783,791,0
3322156,753.97,783,794,0
3322166,761.13,783,790,0
3322176,766.15,783,794,0
3322186,769.66,783,790,0
3322196,772.12,783,793,0
3322206,773.84,783,789,0
3322216,775.05,783,794,0
3322226,775.89,783,791,0
3322236,773.22,783,793,0
3322246,764.41,783,790,0
3322256,747.06,783,794,0
3322266,720.04,783,790,0
3322276,683.00,783,793,0
3322286,636.54,783,790,0
3322296,581.31,783,794,0
3322306,521.82,783,791,0
3322316,462.04,783,793,0
3322327,406.06,783,791,0
3322337,356.33,783,793,0
3322347,314.74,783,792,0
3322357,281.61,783,793,0
3322368,257.34,783,792,0
3322377,241.17,783,794,0
3322387,232.37,783,792,0
3322397,229.43,783,792,0
3322407,231.23,783,793,0
3322417,236.05,783,793,0
3322427,242.89,783,792,0
3322437,250.34,783,793,0
3322447,257.78,783,792,0
3322457,264.23,783,793,0
3322467,269.56,783,792,0
3322477,273.16,783,793,0
3322487,275.30,783,792,0
3322497,275.81,783,793,0
3322507,275.14,783,792,0
3322517,273.21,783,792,0
3322527,270.62,783,792,0
3322537,267.22,783,793,0
3322547,263.68,783,792,0
3322557,259.92,783,793,0
3322567,256.34,783,792,0
3322577,252.86,783,792,0
3322587,249.90,783,792,0
3322597,247.31,783,793,0
3322607,245.51,783,792,0
3322617,244.15,783,792,0
3322627,243.55,783,792,0
3322637,243.47,783,793,0
3322647,244.14,783,792,0
3322657,245.22,783,792,0
3322668,246.86,783,793,0
3322678,248.71,783,791,0
3322688,250.89,783,793,0
3322698,252.98,783,791,0
3322708,255.13,783,794,0
3322718,256.93,783,792,0
3322728,258.75,783,793,0
3322738,260.50,783,791,0
3322748,263.05,783,794,0
3322758,266.98,783,792,0
3322768,273.88,783,794,0
3322778,285.15,783,791,0
3322788,302.93,783,794,0
3322798,328.32,783,791,0
3322817,363.07,753,790,0
3322820,408.09,753,789,0
3322829,459.45,753,794,0
3322839,513.36,753,790,0
3322849,566.61,753,794,0
3322859,616.05,753,790,0
3322869,659.54,753,794,0
3322880,694.65,753,789,0
3322889,719.35,753,794,0
3322899,736.65,753,790,0
3322909,748.80,753,794,0
3322919,757.30,753,789,0
3322929,763.25,753,794,0
3322939,767.42,753,789,0
3322949,770.34,753,794,0
3322959,772.38,753,789,0
3322969,770.98,753,794,0
3322979,763.57,753,790,0
3322989,748.53,753,794,0
3322999,724.67,753,789,0
3323009,692.07,753,794,0
3323019,650.56,753,790,0
3323029,600.77,753,794,0
3323039,546.28,753,790,0
3323049,491.04,753,794,0
3323059,438.06,753,790,0
3323069,390.04,753,794,0
3323079,348.11,753,790,0
3323089,313.75,753,794,0
3323099,287.17,753,790,0
3323109,268.47,753,794,0
3323119,256.93,753,789,0
3323129,251.77,753,794,0
3323139,251.58,753,790,0
3323149,255.35,753,794,0
3323159,261.59,753,789,0
3323169,269.34,753,794,0
3323180,277.38,753,789,0
3323190,284.98,753,795,0
3323200,291.37,753,789,0
3323210,296.27,753,794,0
3323220,299.32,753,788,0
3323230,300.64,753,794,0
3323240,300.19,753,789,0
3323250,298.33,753,795,0
3323260,295.23,753,788,0
3323270,291.31,753,795,0
3323280,286.71,753,789,0
3323290,281.79,753,794,0
3323300,276.62,753,788,0
3323310,271.59,753,794,0
3323320,266.74,753,789,0
3323330,262.36,753,794,0
3323340,258.40,753,788,0
3323351,255.06,753,794,0
3323361,252.34,753,788,0
3323371,250.40,753,794,0
3323381,249.16,753,788,0
3323392,248.64,753,794,0
3323401,248.62,753,789,0
3323411,249.21,753,794,0
3323421,250.26,753,788,0
3323431,251.72,753,794,0
3323441,253.44,753,788,0
3323451,255.28,753,794,0
3323461,257.25,753,788,0
3323471,259.40,753,794,0
3323481,261.85,753,788,0
3323491,265.07,753,794,0
3323501,269.81,753,788,0
3323511,277.15,753,794,0
3323521,288.33,753,788,0
3323531,305.08,753,794,0
3323541,329.14,753,788,0
3323551,361.93,753,794,0
3323561,404.08,753,788,0
3323580,453.17,763,787,0
3323583,505.49,763,789,0
3323592,557.97,763,794,0
3323602,607.57,763,788,0
3323612,651.58,763,794,0
3323622,687.75,763,788,0
3323632,714.52,763,794,0
3323642,733.27,763,788,0
3323652,746.39,763,795,0
3323662,755.57,763,788,0
3323672,762.00,763,794,0
3323682,766.50,763,788,0
3323692,769.65,763,795,0
3323702,770.14,763,788,0
3323712,765.34,763,795,0
3323722,753.45,763,788,0
3323732,733.17,763,795,0
3323742,704.28,763,788,0
3323752,666.57,763,794,0
3323762,620.50,763,788,0
3323772,568.49,763,794,0
3323782,514.64,763,788,0
3323792,462.12,763,794,0
3323802,413.74,763,788,0
3323812,371.09,763,794,0
3323822,335.62,763,788,0
3323832,307.96,763,794,0
3323842,288.39,763,788,0
3323852,276.36,763,794,0
3323863,271.19,763,789,0
3323873,271.69,763,794,0
3323883,276.63,763,790,0
3323893,284.71,763,794,0
3323904,294.74,763,790,0
3323913,305.40,763,794,0
3323923,315.78,763,789,0
3323933,325.02,763,794,0
3323943,332.73,763,790,0
3323953,338.55,763,795,0
3323963,342.42,763,789,0
3323973,344.22,763,794,0
3323983,344.24,763,790,0
3323993,342.67,763,795,0
3324003,339.94,763,789,0
3324013,336.19,763,794,0
3324023,331.89,763,790,0
3324033,327.25,763,794,0
3324043,322.67,763,789,0
3324053,318.27,763,794,0
3324063,314.38,763,790,0
3324073,310.96,763,794,0
3324083,308.27,763,789,0
3324093,306.18,763,794,0
3324103,304.75,763,790,0
3324113,303.80,763,794,0
3324123,303.43,763,789,0
3324133,303.34,763,794,0
3324143,303.58,763,790,0
3324153,303.88,763,794,0
3324163,304.39,763,789,0
3324173,305.17,763,794,0
3324183,306.88,763,790,0
3324193,310.21,763,794,0
3324204,316.58,763,790,0
3324214,327.46,763,794,0
3324224,345.02,763,791,0
3324234,370.99,763,793,0
3324244,406.99,763,791,0
3324263,451.35,683,790,0
3324266,500.45,683,793,0
3324275,551.01,683,792,0
3324285,600.12,683,792,0
3324295,644.79,683,793,0
3324305,682.44,683,792,0
3324315,710.81,683,792,0
3324325,730.66,683,792,0
3324335,744.56,683,793,0
3324345,754.30,683,792,0
3324355,761.11,683,792,0
3324365,765.87,683,792,0
3324375,769.21,683,793,0
3324385,771.55,683,792,0
3324395,773.18,683,792,0
3324405,774.33,683,792,0
3324416,772.90,683,792,0
3324425,766.03,683,792,0
3324435,751.11,683,792,0
3324445,726.90,683,792,0
3324455,692.82,683,792,0
3324465,649.63,683,792,0
3324475,597.93,683,793,0
3324485,541.29,683,792,0
3324495,483.99,683,792,0
3324505,430.38,683,792,0
3324515,383.16,683,793,0
3324525,344.46,683,793,0
3324535,314.49,683,792,0
3324545,293.60,683,792,0
3324555,280.99,683,793,0
3324565,275.94,683,792,0
3324575,276.81,683,792,0
3324585,282.27,683,793,0
3324595,290.55,683,793,0
3324605,300.54,683,793,0
3324615,310.88,683,792,0
3324625,320.77,683,793,0
3324635,329.28,683,793,0
3324645,336.14,683,792,0
3324655,340.86,683,792,0
3324665,343.64,683,793,0
3324675,344.39,683,793,0
3324685,343.59,683,793,0
3324695,341.18,683,792,0
3324705,337.70,683,793,0
3324716,333.25,683,791,0
3324726,328.46,683,794,0
3324736,323.35,683,791,0
3324746,318.40,683,794,0
3324756,313.57,683,790,0
3324766,309.37,683,793,0
3324776,305.57,683,791,0
3324786,302.57,683,794,0
3324796,300.04,683,790,0
3324806,298.27,683,794,0
3324816,296.95,683,791,0
3324826,296.32,683,793,0
3324836,296.31,683,791,0
3324846,297.63,683,793,0
3324856,300.74,683,791,0
3324866,307.25,683,794,0
3324876,318.70,683,791,0
3324887,337.56,683,794,0
3324897,365.98,683,789,0
3324907,406.01,683,794,0
3324917,453.54,683,789,0
3324937,505.28,673,788,0
3324940,557.95,673,788,0
3324949,608.54,673,795,0
3324959,653.76,673,788,0
3324969,690.69,673,795,0
3324979,716.67,673,788,0
3324989,734.90,673,794,0
3324999,747.70,673,788,0
3325009,756.70,673,794,0
3325019,763.05,673,788,0
3325029,767.49,673,794,0
3325039,770.60,673,788,0
3325049,772.74,673,795,0
3325059,774.19,673,788,0
3325069,775.20,673,794,0
3325079,775.91,673,788,0
3325089,776.41,673,794,0
3325100,776.76,673,788,0
3325110,776.96,673,794,0
3325120,777.10,673,788,0
3325130,777.20,673,794,0
3325140,777.27,673,787,0
3325150,774.10,673,794,0
3325160,763.87,673,788,0
3325170,744.45,673,794,0
3325180,715.00,673,788,0
3325190,675.92,673,794,0
3325200,627.86,673,788,0
3325210,571.93,673,794,0
3325220,512.76,673,788,0
3325230,455.71,673,794,0
3325240,404.28,673,788,0
3325250,360.61,673,794,0
3325260,325.37,673,788,0
3325271,298.73,673,795,0
3325281,280.21,673,789,0
3325291,268.75,673,794,0
3325301,263.12,673,789,0
3325312,262.02,673,794,0
3325321,264.15,673,789,0
3325331,268.31,673,794,0
3325341,273.62,673,789,0
3325351,279.17,673,794,0
3325361,284.52,673,788,0
3325371,289.12,673,794,0
3325381,292.86,673,789,0
3325391,295.47,673,794,0
3325401,297.09,673,789,0
3325411,297.62,673,794,0
3325421,297.30,673,789,0
3325431,296.18,673,794,0
3325441,294.59,673,789,0
3325451,292.57,673,795,0
3325461,290.43,673,789,0
3325471,288.07,673,795,0
3325481,285.78,673,790,0
3325491,283.62,673,794,0
3325501,281.93,673,789,0
3325511,281.09,673,794,0
3325521,282.09,673,790,0
3325531,286.05,673,794,0
3325541,295.12,673,789,0
3325551,311.50,673,794,0
3325561,338.01,673,790,0
3325571,376.40,673,795,0
3325581,424.11,673,788,0
3325591,477.22,673,794,0
3325611,532.53,674,794,0
3325614,586.54,674,793,0
3325623,635.88,674,791,0
3325633,676.93,674,793,0
3325643,707.16,674,792,0
3325654,728.37,674,792,0
3325663,743.26,674,791,0
3325673,753.68,674,793,0
3325683,760.98,674,792,0
3325693,766.08,674,793,0
3325703,769.66,674,791,0
3325713,772.16,674,793,0
3325723,773.91,674,792,0
3325733,775.14,674,793,0
3325743,776.00,674,791,0
3325753,776.60,674,792,0
3325763,777.02,674,792,0
3325773,777.31,674,792,0
3325783,777.52,674,791,0
3325793,777.62,674,793,0
3325803,777.69,674,791,0
3325813,777.74,674,792,0
3325824,777.78,674,793,0
3325833,777.76,674,793,0
3325843,777.74,674,792,0
3325853,773.41,674,793,0
3325863,761.76,674,792,0
3325873,741.22,674,793,0
3325883,711.24,674,792,0
3325893,671.82,674,793,0
3325903,623.92,674,792,0
3325913,568.53,674,793,0
3325923,511.28,674,792,0
3325933,456.26,674,793,0
3325943,406.29,674,793,0
3325953,362.88,674,793,0
3325963,327.00,674,792,0
3325973,298.33,674,793,0
3325983,276.54,674,792,0
3325993,260.70,674,792,0
3326003,250.24,674,792,0
3326013,244.00,674,793,0
3326023,241.39,674,792,0
3326033,241.36,674,792,0
3326043,243.43,674,792,0
3326053,246.73,674,793,0
3326063,250.97,674,793,0
3326073,255.44,674,792,0
3326083,260.02,674,792,0
3326093,264.13,674,793,0
3326103,267.82,674,792,0
3326113,270.70,674,792,0
3326124,273.02,674,793,0
3326134,274.43,674,792,0
3326144,275.16,674,794,0
3326154,274.98,674,791,0
3326164,274.30,674,794,0
3326174,273.10,674,792,0
3326184,272.25,674,793,0
3326194,272.52,674,791,0
3326204,275.96,674,794,0
3326214,284.33,674,792,0
3326224,300.90,674,794,0
3326234,328.58,674,791,0
3326244,369.93,674,794,0
3326254,420.39,674,792,0
3326264,476.29,674,793,0
3326274,533.85,674,791,0
3326284,589.91,674,794,0
3326304,640.42,694,793,0
3326307,681.69,694,795,0
3326316,710.63,694,789,0
3326326,730.88,694,795,0
3326337,745.06,694,788,0
3326347,754.99,694,795,0
3326357,761.93,694,788,0
3326367,766.80,694,795,0
3326377,770.16,694,788,0
3326387,772.51,694,794,0
3326397,774.16,694,788,0
3326407,775.31,694,795,0
3326417,776.16,694,788,0
3326427,776.75,694,795,0
3326437,777.17,694,788,0
3326447,777.46,694,795,0
3326457,777.67,694,788,0
3326467,777.81,694,794,0
3326477,777.91,694,788,0
3326487,777.94,694,795,0
3326497,777.96,694,788,0
3326508,777.97,694,794,0
3326518,777.98,694,788,0
3326528,772.88,694,795,0
3326538,758.65,694,788,0
3326548,733.12,694,794,0
3326558,696.02,694,788,0
3326568,647.50,694,794,0
3326578,588.50,694,788,0
3326588,520.47,694,794,0
3326598,450.21,694,788,0
3326608,383.42,694,794,0
3326618,323.81,694,788,0
3326628,273.04,694,794,0
3326638,232.14,694,788,0
3326648,201.07,694,794,0
3326658,179.15,694,788,0
3326668,165.13,694,794,0
3326679,157.68,694,788,0
3326689,155.38,694,794,0
3326699,156.93,694,788,0
3326709,161.07,694,794,0
3326720,166.83,694,789,0
3326729,173.27,694,794,0
3326739,179.79,694,789,0
3326749,185.89,694,794,0
3326759,191.24,694,789,0
3326769,195.58,694,794,0
3326779,198.88,694,789,0
3326789,201.06,694,794,0
3326799,202.37,694,789,0
3326809,202.82,694,794,0
3326819,202.74,694,788,0
3326829,202.35,694,795,0
3326839,201.94,694,789,0
3326849,201.75,694,794,0
3326859,202.04,694,789,0
3326869,202.97,694,794,0
3326879,204.91,694,789,0
3326889,208.15,694,794,0
3326899,213.38,694,788,0
3326909,221.75,694,794,0
3326919,235.07,694,789,0
3326929,255.58,694,794,0
3326939,285.36,694,788,0
3326949,326.95,694,794,0
3326959,378.95,694,788,0
3326969,437.17,694,794,0
3326988,497.85,684,794,0
3326991,557.38,684,794,0
3327000,612.16,684,789,0
3327010,659.09,684,794,0
3327020,694.80,684,789,0
3327030,719.81,684,794,0
3327040,737.31,684,789,0
3327050,749.56,684,794,0
3327060,758.13,684,790,0
3327070,764.14,684,794,0
3327080,768.34,684,790,0
3327090,771.24,684,794,0
3327100,773.27,684,790,0
3327110,774.69,684,794,0
3327120,775.68,684,789,0
3327130,776.38,684,794,0
3327140,776.86,684,790,0
3327150,777.20,684,794,0
3327160,777.44,684,789,0
3327170,777.61,684,794,0
3327180,777.73,684,791,0
3327191,777.81,684,794,0
3327201,777.87,684,791,0
3327211,774.65,684,793,0
3327221,762.97,684,791,0
3327232,739.71,684,793,0
3327241,704.22,684,791,0
3327251,656.37,684,793,0
3327261,597.29,684,792,0
3327271,528.54,684,793,0
3327281,455.57,684,791,0
3327291,385.45,684,793,0
3327301,323.39,684,792,0
3327311,271.63,684,793,0
3327321,231.84,684,791,0
3327331,203.90,684,794,0
3327341,187.13,684,791,0
3327351,179.72,684,793,0
3327361,180.02,684,791,0
3327371,185.88,684,794,0
3327381,195.60,684,791,0
3327391,207.25,684,793,0
3327401,219.52,684,792,0
3327411,230.98,684,794,0
3327421,240.93,684,791,0
3327431,248.62,684,793,0
3327441,253.88,684,792,0
3327451,256.44,684,793,0
3327461,256.52,684,792,0
3327471,254.14,684,793,0
3327481,249.85,684,792,0
3327491,243.98,684,794,0
3327501,237.22,684,791,0
3327511,229.87,684,793,0
3327521,222.58,684,792,0
3327532,215.59,684,792,0
3327542,209.54,684,793,0
3327552,204.45,684,792,0
3327562,200.67,684,793,0
3327572,198.03,684,792,0
3327582,196.91,684,793,0
3327592,197.36,684,793,0
3327602,200.47,684,793,0
3327612,207.27,684,792,0
3327622,219.70,684,793,0
3327632,239.94,684,792,0
3327642,271.20,684,793,0
3327652,315.92,684,792,0
3327662,371.15,684,792,0
3327681,432.35,693,792,0
3327684,495.71,693,794,0
3327693,557.60,693,790,0
3327703,614.33,693,793,0
3327713,661.85,693,791,0
3327723,696.69,693,793,0
3327733,721.09,693,790,0
3327744,738.16,693,794,0
3327753,750.11,693,791,0
3327763,758.48,693,793,0
3327773,764.33,693,790,0
3327783,768.43,693,794,0
3327793,771.30,693,791,0
3327803,773.36,693,793,0
3327813,774.79,693,790,0
3327823,775.80,693,794,0
3327833,776.50,693,791,0
3327843,776.99,693,793,0
3327853,777.34,693,790,0
3327863,777.58,693,794,0
3327873,777.71,693,791,0
3327883,777.79,693,793,0
3327893,777.86,693,790,0
3327903,773.83,693,794,0
3327913,760.55,693,790,0
3327923,735.83,693,793,0
3327933,698.21,693,790,0
3327943,647.83,693,794,0
3327953,585.57,693,790,0
3327963,513.40,693,794,0
3327973,437.08,693,791,0
3327983,363.90,693,794,0
3327993,297.84,693,790,0
3328003,242.26,693,793,0
3328013,198.38,693,791,0
3328023,166.60,693,794,0
3328033,145.63,693,790,0
3328044,134.56,693,794,0
3328054,131.39,693,789,0
3328064,134.53,693,794,0
3328074,141.87,693,789,0
3328084,152.02,693,794,0
3328094,163.33,693,789,0
3328104,174.93,693,795,0
3328114,185.71,693,789,0
3328124,195.31,693,794,0
3328134,203.23,693,790,0
3328144,209.59,693,794,0
3328154,214.13,693,789,0
3328164,217.26,693,794,0
3328174,218.98,693,790,0
3328184,219.67,693,794,0
3328194,219.43,693,789,0
3328204,218.74,693,795,0
3328215,217.66,693,789,0
3328225,216.65,693,794,0
3328235,215.68,693,788,0
3328245,215.09,693,794,0
3328256,214.85,693,788,0
3328265,215.15,693,794,0
3328275,215.84,693,788,0
3328285,217.08,693,794,0
3328295,218.99,693,788,0
3328305,222.12,693,794,0
3328315,227.31,693,788,0
3328325,236.39,693,794,0
3328335,251.66,693,788,0
3328345,275.50,693,795,0
3328355,310.92,693,788,0
3328365,358.86,693,794,0
3328385,414.79,703,794,0
3328388,474.98,703,794,0
3328397,535.63,703,787,0
3328407,593.00,703,794,0
3328417,643.74,703,788,0
3328428,684.06,703,794,0
3328438,712.29,703,788,0
3328448,732.04,703,795,0
3328458,745.83,703,788,0
3328468,755.48,703,794,0
3328478,762.24,703,788,0
3328488,766.97,703,794,0
3328498,770.28,703,789,0
3328508,772.59,703,794,0
3328518,774.22,703,788,0
3328528,775.35,703,795,0
3328538,776.15,703,789,0
3328548,776.70,703,794,0
3328558,777.09,703,788,0
3328568,777.36,703,794,0
3328578,777.55,703,789,0
3328588,777.69,703,794,0
3328599,777.78,703,789,0
3328609,777.85,703,794,0
3328619,777.89,703,790,0
3328629,773.94,703,793,0
3328640,761.23,703,791,0
3328649,737.42,703,794,0
3328659,701.38,703,790,0
3328669,653.05,703,794,0
3328679,593.46,703,791,0
3328689,524.20,703,794,0
3328699,451.07,703,790,0
3328709,380.55,703,794,0
3328719,316.83,703,791,0
3328729,262.49,703,794,0
3328739,219.10,703,790,0
3328749,186.63,703,794,0
3328759,164.45,703,791,0
3328769,151.20,703,794,0
3328779,145.61,703,790,0
3328789,145.99,703,794,0
3328799,150.96,703,791,0
3328809,158.90,703,794,0
3328819,168.75,703,790,0
3328829,179.24,703,794,0
3328839,189.79,703,791,0
3328849,199.63,703,793,0
3328859,208.48,703,790,0
3328869,215.97,703,794,0
3328879,222.15,703,790,0
3328889,226.86,703,793,0
3328899,230.42,703,790,0
3328909,232.78,703,794,0
3328919,234.34,703,791,0
3328929,235.10,703,793,0
3328940,235.50,703,791,0
3328950,235.52,703,793,0
3328960,235.54,703,792,0
3328970,235.46,703,793,0
3328980,235.62,703,792,0
3328990,235.91,703,793,0
3329000,236.75,703,792,0
3329010,238.15,703,792,0
3329020,241.19,703,793,0
3329030,246.71,703,793,0
3329040,256.78,703,792,0
3329050,273.69,703,793,0
3329060,300.74,703,793,0
3329070,339.95,703,793,0
3329080,389.81,703,792,0
3329099,445.96,715,791,0
3329102,505.12,715,794,0
3329111,563.54,715,792,0
3329121,617.63,715,793,0
3329131,663.34,715,791,0
3329141,697.78,715,793,0
3329152,721.89,715,791,0
3329161,738.77,715,792,0
3329171,750.54,715,792,0
3329181,758.78,715,793,0
3329191,764.54,715,791,0
3329201,768.58,715,793,0
3329211,771.41,715,791,0
3329221,773.43,715,793,0
3329231,774.84,715,791,0
3329241,775.83,715,793,0
3329251,776.53,715,791,0
3329261,777.01,715,793,0
3329271,777.35,715,791,0
3329281,777.59,715,793,0
3329291,777.71,715,791,0
3329301,777.80,715,793,0
3329311,777.86,715,791,0
3329321,777.90,715,794,0
3329331,777.93,715,791,0
3329341,776.49,715,793,0
3329351,767.90,715,791,0
3329361,748.86,715,794,0
3329371,718.13,715,792,0
3329381,675.36,715,793,0
3329391,621.00,715,791,0
3329401,556.37,715,794,0
3329411,484.43,715,792,0
3329421,412.64,715,793,0
3329431,345.85,715,792,0
3329441,286.92,715,794,0
3329452,237.45,715,791,0
3329462,198.23,715,794,0
3329472,168.67,715,790,0
3329482,148.16,715,794,0
3329492,135.25,715,790,0
3329502,128.88,715,794,0
3329512,127.50,715,791,0
3329522,130.05,715,794,0
3329532,135.13,715,789,0
3329542,142.04,715,794,0
3329552,149.70,715,790,0
3329562,157.80,715,794,0
3329572,165.58,715,790,0
3329582,172.90,715,794,0
3329592,179.40,715,790,0
3329602,185.20,715,794,0
3329612,190.07,715,790,0
3329623,194.25,715,794,0
3329633,197.52,715,789,0
3329643,200.23,715,794,0
3329653,202.31,715,788,0
3329664,204.01,715,795,0
3329673,205.25,715,789,0
3329683,206.25,715,794,0
3329693,206.86,715,789,0
3329703,207.24,715,794,0
3329713,207.26,715,789,0
3329723,207.01,715,794,0
3329733,206.36,715,789,0
3329743,205.61,715,795,0
3329753,204.83,715,789,0
3329763,204.75,715,794,0
3329773,206.28,715,789,0
3329783,211.26,715,794,0
3329793,221.38,715,789,0
3329803,239.52,715,794,0
3329813,268.38,715,789,0
3329823,310.74,715,794,0
3329843,364.39,743,794,0
3329846,424.87,743,795,0
3329855,487.95,743,788,0
3329865,550.15,743,795,0
3329875,607.45,743,788,0
3329885,656.13,743,794,0
3329895,692.69,743,788,0
3329905,718.28,743,794,0
