Time,PPG,IBI,GSR,GSR_Event
2928666,318.59,653,767,0
2928676,324.50,653,768,0
2928686,334.38,653,768,0
2928696,350.81,653,769,0
2928706,375.72,653,768,0
2928716,410.99,653,769,0
2928736,454.11,653,768,0
2928739,502.93,653,769,0
2928748,553.48,653,767,0
2928758,602.88,653,769,0
2928769,647.62,653,768,0
2928779,684.85,653,770,0
2928789,712.19,653,767,0
2928799,731.33,653,769,0
2928809,744.73,653,767,0
2928819,754.11,653,769,0
2928829,760.68,653,767,0
2928839,765.28,653,770,0
2928849,768.49,653,767,0
2928859,770.75,653,769,0
2928869,772.32,653,767,0
2928879,773.43,653,769,0
2928889,774.20,653,767,0
2928899,774.74,653,770,0
2928909,775.12,653,767,0
2928919,775.38,653,769,0
2928929,775.57,653,767,0
2928940,775.70,653,770,0
2928950,771.12,653,767,0
2928960,758.74,653,769,0
2928970,736.96,653,767,0
2928980,705.21,653,769,0
2928990,664.09,653,767,0
2929000,614.27,653,769,0
2929010,556.89,653,767,0
2929020,497.95,653,769,0
2929030,442.08,653,767,0
2929040,392.25,653,769,0
2929050,350.44,653,767,0
2929060,317.09,653,769,0
2929070,292.38,653,767,0
2929080,275.81,653,769,0
2929090,266.61,653,767,0
2929100,263.51,653,770,0
2929111,265.37,653,767,0
2929121,270.70,653,769,0
2929131,278.51,653,767,0
2929141,287.70,653,769,0
2929152,297.52,653,767,0
2929161,307.09,653,769,0
2929171,316.06,653,767,0
2929181,323.89,653,769,0
2929191,330.52,653,767,0
2929201,335.59,653,769,0
2929211,339.27,653,767,0
2929221,341.38,653,769,0
2929231,342.16,653,767,0
2929241,341.47,653,769,0
2929251,339.57,653,767,0
2929261,336.44,653,769,0
2929271,332.45,653,767,0
2929281,327.65,653,770,0
2929291,322.44,653,767,0
2929301,316.95,653,769,0
2929311,311.78,653,767,0
2929321,307.26,653,769,0
2929331,304.18,653,767,0
2929341,303.27,653,770,0
2929351,306.15,653,767,0
2929361,314.37,653,769,0
2929371,329.60,653,767,0
2929381,353.38,653,769,0
2929391,387.12,653,767,0
2929401,430.67,653,769,0
2929411,480.18,653,767,0
2929430,531.90,694,767,0
2929433,582.59,694,769,0
2929442,629.47,694,769,0
2929452,669.91,694,767,0
2929462,701.70,694,769,0
2929472,723.99,694,768,0
2929482,739.59,694,769,0
2929492,750.51,694,767,0
2929502,758.16,694,769,0
2929512,763.51,694,767,0
2929522,767.26,694,769,0
2929532,769.88,694,767,0
2929542,771.72,694,769,0
2929552,773.00,694,768,0
2929562,773.90,694,769,0
2929572,774.53,694,767,0
2929582,774.97,694,769,0
2929592,774.12,694,768,0
2929602,767.44,694,769,0
2929612,752.18,694,767,0
2929623,726.67,694,769,0
2929633,690.68,694,768,0
2929643,644.45,694,768,0
2929653,589.16,694,767,0
2929664,527.14,694,768,0
2929673,464.83,694,767,0
2929683,406.38,694,769,0
2929693,355.26,694,767,0
2929703,312.93,694,769,0
2929713,280.42,694,768,0
2929723,257.37,694,768,0
2929733,243.46,694,767,0
2929743,237.19,694,768,0
2929753,237.52,694,767,0
2929763,242.63,694,769,0
2929773,251.44,694,768,0
2929783,262.33,694,769,0
2929793,274.40,694,767,0
2929803,286.37,694,769,0
2929813,297.83,694,768,0
2929823,307.95,694,769,0
2929833,316.67,694,768,0
2929843,323.49,694,768,0
2929853,328.75,694,768,0
2929863,332.17,694,769,0
2929873,334.22,694,768,0
2929883,334.75,694,769,0
2929893,334.35,694,767,0
2929903,332.88,694,769,0
2929913,330.81,694,767,0
2929923,328.04,694,769,0
2929933,325.07,694,767,0
2929943,321.66,694,768,0
2929953,318.29,694,767,0
2929964,314.73,694,768,0
2929974,311.60,694,768,0
2929984,308.85,694,768,0
2929994,307.31,694,768,0
2930004,307.22,694,768,0
2930014,309.77,694,768,0
2930024,316.05,694,768,0
2930034,328.42,694,768,0
2930044,348.48,694,768,0
2930054,377.91,694,768,0
2930064,417.71,694,768,0
2930074,464.64,694,768,0
2930084,515.27,694,768,0
2930103,566.54,673,768,0
2930106,615.02,673,767,0
2930115,657.96,673,769,0
2930125,692.94,673,767,0
2930135,717.90,673,768,0
2930145,735.37,673,768,0
2930155,747.65,673,769,0
2930165,756.24,673,767,0
2930176,762.30,673,769,0
2930185,766.49,673,767,0
2930195,769.43,673,768,0
2930205,771.53,673,768,0
2930215,773.00,673,769,0
2930225,773.99,673,767,0
2930235,774.68,673,769,0
2930245,775.12,673,767,0
2930255,775.47,673,769,0
2930265,775.71,673,767,0
2930275,775.88,673,769,0
2930285,776.00,673,767,0
2930295,776.09,673,769,0
2930305,772.81,673,767,0
2930315,762.06,673,769,0
2930325,741.22,673,767,0
2930335,709.35,673,768,0
2930345,666.35,673,767,0
2930355,613.40,673,769,0
2930365,551.57,673,767,0
2930375,485.78,673,768,0
2930385,421.60,673,767,0
2930395,363.39,673,768,0
2930405,313.43,673,767,0
2930415,273.32,673,768,0
2930425,242.88,673,767,0
2930435,222.00,673,768,0
2930445,209.57,673,767,0
2930455,204.73,673,768,0
2930465,205.80,673,767,0
2930476,211.69,673,769,0
2930486,220.61,673,767,0
2930496,231.61,673,769,0
2930506,243.34,673,767,0
2930516,255.24,673,769,0
2930526,266.27,673,767,0
2930536,276.26,673,769,0
2930546,284.62,673,767,0
2930556,291.55,673,769,0
2930566,296.70,673,767,0
2930576,300.48,673,769,0
2930586,302.73,673,767,0
2930596,303.93,673,769,0
2930606,303.99,673,767,0
2930616,303.39,673,769,0
2930626,302.08,673,767,0
2930636,300.51,673,769,0
2930647,298.64,673,767,0
2930657,296.82,673,769,0
2930667,295.03,673,767,0
2930677,293.65,673,769,0
2930688,292.77,673,767,0
2930697,292.92,673,769,0
2930707,294.40,673,766,0
2930717,298.27,673,769,0
2930727,305.77,673,767,0
2930737,318.70,673,769,0
2930747,339.02,673,767,0
2930757,368.88,673,769,0
2930767,409.80,673,767,0
2930777,457.86,673,769,0
2930787,509.59,673,767,0
2930806,561.87,703,766,0
2930809,611.75,703,767,0
2930818,656.18,703,769,0
2930828,692.17,703,767,0
2930838,717.45,703,769,0
2930848,735.19,703,767,0
2930859,747.64,703,770,0
2930868,756.37,703,767,0
2930878,762.47,703,769,0
2930888,766.74,703,766,0
2930898,769.78,703,770,0
2930908,771.86,703,767,0
2930918,773.27,703,769,0
2930928,774.22,703,766,0
2930938,774.88,703,769,0
2930948,775.35,703,767,0
2930958,775.67,703,769,0
2930968,775.90,703,767,0
2930978,776.06,703,769,0
2930988,776.17,703,767,0
2930998,776.29,703,769,0
2931008,776.42,703,767,0
2931018,776.46,703,769,0
2931028,771.74,703,766,0
2931038,759.47,703,769,0
2931048,737.73,703,766,0
2931058,705.84,703,769,0
2931068,663.97,703,766,0
2931078,613.15,703,769,0
2931088,554.52,703,766,0
2931098,494.15,703,769,0
2931108,436.29,703,766,0
2931118,384.39,703,768,0
2931128,340.39,703,767,0
2931138,305.26,703,769,0
2931148,278.95,703,766,0
2931159,261.14,703,768,0
2931169,250.98,703,766,0
2931179,247.26,703,769,0
2931189,248.64,703,766,0
2931200,253.68,703,768,0
2931209,261.02,703,767,0
2931219,269.41,703,769,0
2931229,277.82,703,766,0
2931239,285.24,703,769,0
2931249,291.30,703,766,0
2931259,295.49,703,769,0
2931269,297.83,703,766,0
2931279,298.27,703,769,0
2931289,297.07,703,766,0
2931299,294.57,703,769,0
2931309,291.27,703,766,0
2931319,287.37,703,768,0
2931329,283.45,703,766,0
2931339,279.80,703,769,0
2931349,276.82,703,767,0
2931359,274.60,703,769,0
2931369,273.26,703,767,0
2931379,272.76,703,769,0
2931389,273.13,703,767,0
2931399,274.16,703,768,0
2931409,275.74,703,766,0
2931419,277.70,703,769,0
2931429,280.15,703,767,0
2931439,283.19,703,769,0
2931449,287.38,703,766,0
2931459,293.31,703,769,0
2931469,302.51,703,766,0
2931479,316.93,703,769,0
2931489,338.81,703,767,0
2931500,370.37,703,769,0
2931519,412.51,713,769,0
2931522,461.30,713,769,0
2931531,513.63,713,767,0
2931542,566.24,713,768,0
2931551,616.05,713,767,0
2931561,659.97,713,769,0
2931571,694.99,713,767,0
2931581,719.55,713,768,0
2931591,736.74,713,767,0
2931601,748.73,713,769,0
2931611,757.17,713,767,0
2931621,763.03,713,769,0
2931631,767.14,713,767,0
2931641,770.01,713,769,0
2931651,772.02,713,767,0
2931661,773.43,713,768,0
2931671,774.46,713,767,0
2931681,775.13,713,769,0
2931691,775.65,713,767,0
2931701,776.01,713,769,0
2931712,776.27,713,767,0
2931721,776.44,713,769,0
2931731,776.57,713,767,0
2931741,776.65,713,769,0
2931751,776.76,713,767,0
2931761,776.83,713,769,0
2931771,776.80,713,767,0
2931781,770.64,713,769,0
2931791,755.24,713,767,0
2931801,729.11,713,768,0
2931811,691.75,713,767,0
2931821,643.31,713,768,0
2931831,584.93,713,767,0
2931841,518.05,713,768,0
2931851,450.36,713,767,0
2931861,386.44,713,768,0
2931871,329.57,713,767,0
2931881,281.57,713,768,0
2931891,243.64,713,766,0
2931901,215.55,713,769,0
2931911,197.00,713,767,0
2931921,186.67,713,769,0
2931931,183.55,713,767,0
2931941,185.92,713,768,0
2931951,192.63,713,767,0
2931961,202.12,713,768,0
2931971,213.36,713,766,0
2931981,224.99,713,769,0
2931991,236.48,713,767,0
2932001,247.01,713,769,0
2932012,256.26,713,767,0
2932022,263.68,713,768,0
2932032,269.39,713,767,0
2932042,273.22,713,768,0
2932052,275.47,713,767,0
2932062,276.14,713,768,0
2932072,275.67,713,767,0
2932082,274.10,713,768,0
2932092,272.01,713,767,0
2932102,269.31,713,768,0
2932112,266.56,713,767,0
2932122,263.56,713,768,0
2932132,260.82,713,767,0
2932142,258.18,713,768,0
2932152,256.02,713,767,0
2932162,254.13,713,768,0
2932172,252.98,713,767,0
2932183,252.34,713,768,0
2932193,252.75,713,767,0
2932203,254.03,713,768,0
2932213,256.80,713,768,0
2932224,261.23,713,767,0
2932233,268.19,713,768,0
2932243,278.55,713,768,0
2932253,294.41,713,768,0
2932263,317.43,713,768,0
2932273,349.23,713,768,0
2932283,390.99,713,768,0
2932293,440.32,713,768,0
2932313,493.58,793,767,0
2932316,547.75,793,769,0
2932325,599.34,793,767,0
2932335,645.39,793,769,0
2932345,683.51,793,767,0
2932355,711.51,793,769,0
2932365,731.11,793,767,0
2932375,744.88,793,768,0
2932385,754.52,793,767,0
2932396,761.26,793,769,0
2932406,765.98,793,767,0
2932416,769.29,793,769,0
2932426,771.60,793,767,0
2932436,773.22,793,769,0
2932446,774.35,793,767,0
2932456,775.15,793,769,0
2932466,775.70,793,767,0
2932476,776.05,793,769,0
2932486,776.25,793,767,0
2932496,775.27,793,769,0
2932506,768.03,793,767,0
2932516,751.35,793,769,0
2932526,723.86,793,767,0
2932536,685.03,793,768,0
2932546,635.09,793,766,0
2932556,575.15,793,769,0
2932567,507.56,793,766,0
2932577,439.21,793,769,0
2932587,375.03,793,766,0
2932597,318.11,793,769,0
2932608,270.50,793,766,0
2932617,233.28,793,769,0
2932627,206.33,793,766,0
2932637,189.21,793,769,0
2932647,180.71,793,766,0
2932657,179.29,793,769,0
2932667,183.41,793,766,0
2932677,191.56,793,768,0
2932687,202.32,793,766,0
2932697,214.52,793,769,0
2932707,227.01,793,766,0
2932717,238.96,793,769,0
2932727,249.82,793,766,0
2932737,259.21,793,769,0
2932747,266.82,793,767,0
2932757,272.62,793,769,0
2932767,276.55,793,766,0
2932777,278.78,793,769,0
2932787,279.53,793,766,0
2932797,279.16,793,769,0
2932807,277.91,793,767,0
2932817,276.10,793,769,0
2932827,273.97,793,766,0
2932837,271.92,793,768,0
2932847,270.14,793,767,0
2932857,268.86,793,769,0
2932867,268.09,793,767,0
2932877,268.02,793,769,0
2932887,268.70,793,767,0
2932897,270.20,793,769,0
2932908,272.46,793,766,0
2932918,275.41,793,769,0
2932928,278.97,793,766,0
2932938,283.05,793,768,0
2932948,287.49,793,766,0
2932958,292.19,793,769,0
2932968,297.06,793,766,0
2932978,302.01,793,769,0
2932988,307.19,793,766,0
2932998,312.71,793,769,0
2933008,318.97,793,766,0
2933018,326.52,793,769,0
2933028,336.48,793,766,0
2933038,350.13,793,769,0
2933048,369.55,793,766,0
2933067,396.47,755,766,0
2933070,433.06,755,767,0
2933079,476.33,755,769,0
2933089,523.24,755,766,0
2933099,571.04,755,769,0
2933109,617.23,755,767,0
2933120,658.86,755,769,0
2933129,693.45,755,766,0
2933139,718.25,755,769,0
2933149,735.62,755,767,0
2933159,747.78,755,769,0
2933169,756.29,755,766,0
2933179,762.24,755,769,0
2933189,766.46,755,767,0
2933199,769.45,755,769,0
2933209,771.59,755,767,0
2933219,773.08,755,769,0
2933229,774.13,755,766,0
2933239,774.86,755,769,0
2933249,775.33,755,766,0
2933259,771.03,755,769,0
2933269,758.64,755,767,0
2933279,736.07,755,769,0
2933289,702.62,755,766,0
2933299,658.51,755,769,0
2933309,604.36,755,766,0
2933319,541.21,755,768,0
2933329,475.14,755,767,0
2933339,411.12,755,769,0
2933349,352.88,755,766,0
2933359,302.65,755,768,0
2933369,261.65,755,767,0
2933379,230.30,755,769,0
2933389,208.52,755,766,0
2933399,195.42,755,769,0
2933409,189.98,755,766,0
2933420,190.67,755,769,0
2933430,196.30,755,767,0
2933440,205.17,755,768,0
2933450,216.26,755,767,0
2933460,228.22,755,768,0
2933470,240.29,755,766,0
2933480,251.47,755,768,0
2933490,261.57,755,767,0
2933500,269.93,755,769,0
2933510,276.77,755,767,0
2933520,281.76,755,769,0
2933530,285.35,755,767,0
2933540,287.47,755,768,0
2933550,288.70,755,766,0
2933560,288.96,755,769,0
2933570,288.89,755,767,0
2933580,288.41,755,768,0
2933591,288.07,755,767,0
2933601,287.71,755,768,0
2933611,287.84,755,767,0
2933621,288.19,755,768,0
2933632,289.16,755,767,0
2933641,290.44,755,768,0
2933651,292.37,755,767,0
2933661,294.53,755,768,0
2933671,297.28,755,767,0
2933681,300.16,755,768,0
2933691,303.45,755,767,0
2933701,306.79,755,769,0
2933711,310.41,755,767,0
2933721,313.89,755,768,0
2933731,317.52,755,767,0
2933741,320.88,755,768,0
2933751,324.30,755,767,0
2933761,327.42,755,768,0
2933771,330.60,755,767,0
2933781,333.59,755,768,0
2933791,336.84,755,767,0
2933801,340.27,755,768,0
2933811,344.48,755,767,0
2933821,349.61,755,768,0
2933831,356.67,755,767,0
2933851,366.24,783,766,0
2933854,380.52,783,769,0
2933863,400.34,783,767,0
2933873,426.98,783,768,0
2933883,460.46,783,767,0
2933893,500.31,783,768,0
2933903,543.37,783,767,0
2933913,587.23,783,768,0
2933923,628.65,783,767,0
2933933,665.74,783,768,0
2933943,696.59,783,767,0
2933953,720.41,783,768,0
2933963,737.09,783,767,0
2933974,748.76,783,768,0
2933983,755.39,783,768,0
2933993,756.00,783,768,0
2934003,749.40,783,767,0
2934013,734.92,783,768,0
2934023,712.23,783,767,0
2934033,681.26,783,768,0
2934043,642.06,783,767,0
2934053,596.74,783,768,0
2934063,548.09,783,767,0
2934073,498.99,783,768,0
2934083,451.42,783,767,0
2934093,407.28,783,768,0
2934103,367.77,783,767,0
2934113,334.19,783,768,0
2934123,306.79,783,767,0
2934133,285.81,783,768,0
2934144,270.83,783,767,0
2934153,261.66,783,768,0
2934163,257.35,783,767,0
2934173,257.33,783,768,0
2934183,260.40,783,767,0
2934193,266.03,783,768,0
2934203,273.05,783,767,0
2934213,281.00,783,768,0
2934223,289.02,783,767,0
2934233,296.90,783,768,0
2934243,304.00,783,767,0
2934253,310.34,783,768,0
2934263,315.55,783,767,0
2934273,319.89,783,768,0
2934283,323.14,783,767,0
2934293,325.67,783,768,0
2934303,327.27,783,767,0
2934313,328.47,783,768,0
2934323,329.14,783,767,0
2934333,329.70,783,768,0
2934343,330.01,783,767,0
2934353,330.43,783,769,0
2934363,330.82,783,767,0
2934373,331.51,783,768,0
2934383,332.22,783,767,0
2934393,333.31,783,768,0
2934403,334.42,783,767,0
2934413,335.83,783,768,0
2934423,337.26,783,767,0
2934433,338.89,783,768,0
2934444,340.51,783,767,0
2934454,342.33,783,768,0
2934464,344.03,783,767,0
2934474,345.91,783,768,0
2934484,347.69,783,766,0
2934494,349.71,783,768,0
2934504,351.77,783,767,0
2934514,354.33,783,768,0
2934524,357.44,783,766,0
2934534,361.64,783,768,0
2934544,367.19,783,767,0
2934554,375.23,783,769,0
2934564,386.61,783,766,0
2934574,402.92,783,769,0
2934593,425.28,743,768,0
2934596,455.41,743,769,0
2934605,492.61,743,766,0
2934615,534.00,743,769,0
2934625,576.77,743,766,0
2934635,618.67,743,769,0
2934645,657.30,743,766,0
2934656,690.59,743,769,0
2934665,716.22,743,766,0
2934675,734.19,743,769,0
2934685,746.78,743,767,0
2934695,755.59,743,769,0
2934705,761.75,743,766,0
2934715,766.07,743,769,0
2934725,765.84,743,766,0
2934735,759.33,743,769,0
2934745,745.39,743,766,0
2934755,723.24,743,769,0
2934765,692.48,743,766,0
2934775,653.30,743,769,0
2934785,606.28,743,766,0
2934795,555.49,743,769,0
2934805,503.92,743,766,0
2934815,454.06,743,769,0
2934825,408.10,743,766,0
2934835,367.78,743,769,0
2934845,334.08,743,766,0
2934855,307.52,743,768,0
2934865,288.08,743,766,0
2934875,275.54,743,769,0
2934885,269.25,743,766,0
2934895,268.40,743,768,0
2934905,271.88,743,766,0
2934915,278.65,743,768,0
2934925,287.37,743,766,0
2934935,297.24,743,769,0
2934945,307.33,743,766,0
2934956,316.96,743,768,0
2934966,325.46,743,766,0
2934976,332.52,743,768,0
2934986,337.85,743,765,0
2934996,341.54,743,769,0
2935006,343.52,743,766,0
2935016,343.96,743,768,0
2935026,343.03,743,765,0
2935036,341.09,743,769,0
2935046,338.41,743,766,0
2935056,335.37,743,769,0
2935066,332.22,743,765,0
2935076,329.24,743,769,0
2935086,326.68,743,766,0
2935096,324.76,743,769,0
2935106,323.46,743,766,0
2935116,322.94,743,769,0
2935127,323.13,743,765,0
2935137,323.99,743,769,0
2935147,325.41,743,765,0
2935157,327.26,743,769,0
2935168,329.41,743,766,0
2935177,331.81,743,769,0
2935187,334.31,743,765,0
2935197,336.88,743,769,0
2935207,339.70,743,766,0
2935217,343.05,743,769,0
2935227,347.79,743,765,0
2935237,355.40,743,769,0
2935247,368.43,743,766,0
2935257,389.30,743,769,0
2935267,420.50,743,766,0
2935286,460.21,693,765,0
2935289,505.44,693,767,0
2935298,553.40,693,769,0
2935308,601.23,693,766,0
2935318,645.52,693,768,0
2935328,683.17,693,766,0
2935339,711.14,693,768,0
2935348,730.73,693,766,0
2935358,744.44,693,769,0
2935368,754.08,693,766,0
2935378,760.83,693,769,0
2935388,765.51,693,766,0
2935398,768.78,693,768,0
2935408,771.08,693,766,0
2935418,772.68,693,769,0
2935428,773.76,693,766,0
2935438,774.48,693,768,0
2935448,775.02,693,766,0
2935458,775.40,693,769,0
2935468,775.62,693,765,0
2935478,770.98,693,768,0
2935488,758.30,693,766,0
2935498,735.67,693,768,0
2935508,702.47,693,766,0
2935518,659.13,693,768,0
2935528,606.55,693,766,0
2935538,545.87,693,769,0
2935548,483.51,693,766,0
2935558,424.21,693,768,0
2935568,371.56,693,765,0
2935578,327.55,693,769,0
2935588,293.06,693,765,0
2935598,268.05,693,768,0
2935608,252.27,693,766,0
2935618,244.52,693,768,0
2935628,243.67,693,766,0
2935639,248.06,693,768,0
2935649,256.40,693,766,0
2935659,267.04,693,768,0
2935669,279.02,693,766,0
2935680,291.06,693,768,0
2935689,302.49,693,766,0
2935699,312.41,693,768,0
2935709,320.73,693,766,0
2935719,326.94,693,768,0
2935729,331.37,693,766,0
2935739,333.87,693,768,0
2935749,334.94,693,766,0
2935759,334.62,693,768,0
2935769,333.53,693,766,0
2935779,331.74,693,768,0
2935789,329.81,693,766,0
2935799,327.64,693,768,0
2935809,325.73,693,766,0
2935819,324.01,693,768,0
2935829,322.85,693,766,0
2935839,322.00,693,768,0
2935849,321.74,693,766,0
2935859,321.86,693,768,0
2935869,322.59,693,766,0
2935879,323.57,693,768,0
2935889,325.03,693,766,0
2935899,326.65,693,768,0
2935909,328.77,693,766,0
2935919,331.19,693,768,0
2935929,334.52,693,766,0
2935939,339.04,693,768,0
2935949,346.23,693,766,0
2935959,357.69,693,768,0
2935969,376.12,693,766,0
2935980,403.39,693,768,0
2935990,440.77,693,767,0
2936009,484.55,723,766,0
2936012,532.09,723,768,0
2936022,580.45,723,767,0
2936031,626.68,723,767,0
2936041,667.49,723,768,0
2936051,700.22,723,767,0
2936061,723.17,723,767,0
2936071,739.23,723,767,0
2936081,750.43,723,768,0
2936091,758.27,723,767,0
2936101,763.76,723,767,0
2936111,767.61,723,767,0
2936121,770.25,723,768,0
2936131,772.11,723,767,0
2936141,773.40,723,767,0
2936151,774.35,723,767,0
2936161,774.98,723,768,0
2936171,775.45,723,766,0
2936181,775.75,723,767,0
2936192,774.88,723,767,0
2936201,768.66,723,768,0
2936211,754.28,723,767,0
2936221,729.68,723,767,0
2936231,694.50,723,767,0
2936241,649.10,723,767,0
2936251,594.42,723,767,0
2936261,532.71,723,767,0
2936271,469.80,723,767,0
2936281,410.03,723,767,0
2936291,357.18,723,766,0
2936301,312.90,723,767,0
2936311,278.21,723,767,0
2936321,252.95,723,767,0
2936331,236.89,723,766,0
2936341,228.78,723,767,0
2936351,227.65,723,767,0
2936361,231.74,723,767,0
2936371,239.87,723,767,0
2936381,250.37,723,767,0
2936391,262.43,723,767,0
2936401,274.60,723,767,0
2936411,286.38,723,766,0
2936421,296.81,723,767,0
2936431,305.78,723,767,0
2936441,312.83,723,767,0
2936451,318.20,723,767,0
2936461,321.69,723,768,0
2936471,323.80,723,767,0
2936481,324.37,723,767,0
2936492,324.01,723,767,0
2936502,322.63,723,767,0
2936512,320.90,723,768,0
2936522,318.74,723,766,0
2936532,316.64,723,768,0
2936542,314.52,723,767,0
2936552,312.95,723,768,0
2936562,311.72,723,766,0
2936572,311.20,723,768,0
2936582,311.10,723,767,0
2936592,311.76,723,768,0
2936602,312.77,723,767,0
2936612,314.43,723,768,0
2936622,316.23,723,767,0
2936632,318.39,723,768,0
2936642,320.59,723,766,0
2936652,323.02,723,768,0
2936663,325.37,723,766,0
2936673,328.09,723,768,0
2936683,331.19,723,766,0
2936693,335.68,723,768,0
2936704,342.55,723,766,0
2936713,353.61,723,768,0
2936723,370.96,723,766,0
2936733,397.03,723,768,0
2936753,433.23,743,768,0
2936756,476.62,743,770,0
2936765,523.96,743,766,0
2936775,572.40,743,768,0
2936785,619.12,743,765,0
2936795,661.09,743,769,0
2936805,695.35,743,766,0
2936815,719.76,743,769,0
2936825,736.84,743,765,0
2936835,748.81,743,769,0
2936845,757.18,743,766,0
2936855,763.00,743,768,0
2936865,767.07,743,765,0
2936876,769.88,743,769,0
2936886,771.89,743,766,0
2936896,773.25,743,769,0
2936906,774.20,743,765,0
2936916,774.91,743,769,0
2936926,775.41,743,766,0
2936936,775.72,743,769,0
2936946,775.97,743,765,0
2936956,772.85,743,769,0
2936966,763.00,743,765,0
2936976,743.75,743,769,0
2936986,713.91,743,765,0
2936996,673.35,743,769,0
2937006,622.93,743,765,0
2937016,563.64,743,769,0
2937026,500.15,743,765,0
2937036,437.49,743,769,0
2937047,379.96,743,765,0
2937057,330.26,743,768,0
2937067,290.06,743,765,0
2937077,259.62,743,768,0
2937088,238.86,743,766,0
2937097,226.86,743,769,0
2937107,222.49,743,765,0
2937117,224.23,743,768,0
2937127,230.67,743,766,0
2937137,240.07,743,768,0
2937147,251.19,743,765,0
2937157,262.75,743,769,0
2937167,274.10,743,765,0
2937177,284.40,743,769,0
2937187,293.23,743,765,0
2937197,300.24,743,768,0
2937207,305.56,743,766,0
2937217,309.12,743,768,0
2937227,311.14,743,765,0
2937237,311.70,743,768,0
2937247,311.23,743,766,0
2937257,309.88,743,769,0
2937267,308.11,743,765,0
2937277,305.98,743,769,0
2937287,303.89,743,766,0
2937297,301.91,743,768,0
2937307,300.35,743,765,0
2937317,299.17,743,768,0
2937327,298.65,743,765,0
2937337,298.63,743,769,0
2937347,299.25,743,765,0
2937357,300.38,743,769,0
2937367,302.06,743,765,0
2937377,304.10,743,768,0
2937388,306.51,743,765,0
2937398,309.02,743,768,0
2937408,311.75,743,766,0
2937418,314.44,743,768,0
2937428,317.14,743,766,0
2937438,319.63,743,768,0
2937448,322.05,743,766,0
2937458,324.18,743,768,0
2937468,326.31,743,766,0
2937478,328.19,743,768,0
2937488,330.23,743,766,0
2937498,332.61,743,768,0
2937508,336.07,743,766,0
2937518,341.28,743,768,0
2937528,350.19,743,766,0
2937547,364.83,795,766,0
2937550,388.63,795,767,0
2937559,422.00,795,768,0
2937569,463.48,795,766,0
2937579,509.84,795,768,0
2937589,558.44,795,766,0
2937600,606.22,795,768,0
2937609,650.13,795,766,0
2937619,686.18,795,768,0
2937629,713.21,795,766,0
2937639,732.17,795,768,0
2937649,745.49,795,766,0
2937659,754.86,795,768,0
2937669,761.42,795,766,0
2937679,766.01,795,768,0
2937689,769.22,795,767,0
2937699,771.47,795,768,0
2937709,773.00,795,767,0
2937719,774.07,795,768,0
2937729,774.82,795,766,0
2937739,775.39,795,768,0
2937749,775.74,795,766,0
2937759,773.12,795,768,0
2937769,763.91,795,766,0
2937779,746.02,795,768,0
2937789,718.20,795,766,0
2937799,680.08,795,768,0
2937809,632.32,795,766,0
2937819,575.99,795,768,0
2937829,515.35,795,766,0
2937839,455.42,795,767,0
2937849,400.05,795,766,0
2937859,351.78,795,768,0
2937869,312.42,795,766,0
2937879,282.33,795,767,0
2937889,261.58,795,766,0
2937900,249.23,795,768,0
2937910,244.49,795,766,0
2937920,245.67,795,767,0
2937930,251.64,795,767,0
2937940,260.66,795,767,0
2937950,271.61,795,767,0
2937960,282.95,795,767,0
2937970,294.07,795,767,0
2937980,303.95,795,767,0
2937990,312.41,795,767,0
2938000,318.80,795,767,0
2938010,323.44,795,767,0
2938020,326.14,795,767,0
2938030,327.38,795,767,0
2938040,327.05,795,768,0
2938050,325.80,795,767,0
2938060,323.54,795,767,0
2938071,320.94,795,767,0
2938081,317.87,795,767,0
2938091,314.95,795,767,0
2938101,312.14,795,767,0
2938112,309.87,795,768,0
2938121,307.89,795,767,0
2938131,306.64,795,768,0
2938141,305.89,795,766,0
2938151,305.97,795,768,0
2938161,306.40,795,767,0
2938171,307.40,795,767,0
2938181,308.61,795,767,0
2938191,310.27,795,768,0
2938201,311.99,795,767,0
2938211,314.01,795,767,0
2938221,316.02,795,767,0
2938231,318.50,795,768,0
2938241,321.22,795,767,0
2938251,324.97,795,767,0
2938261,330.29,795,767,0
2938271,338.90,795,768,0
2938281,352.35,795,766,0
2938291,372.60,795,767,0
2938301,401.31,795,767,0
2938320,440.04,773,766,0
2938323,485.03,773,766,0
2938332,533.32,773,768,0
2938342,581.78,773,767,0
2938352,627.53,773,768,0
2938362,667.92,773,766,0
2938372,700.51,773,768,0
2938382,723.37,773,767,0
2938392,739.33,773,768,0
2938402,750.50,773,766,0
2938412,758.32,773,768,0
2938422,763.84,773,767,0
2938432,767.75,773,768,0
2938442,770.48,773,766,0
2938452,772.39,773,768,0
2938462,773.73,773,766,0
2938472,774.67,773,768,0
2938482,775.33,773,766,0
2938492,775.79,773,768,0
2938502,776.06,773,767,0
2938512,774.84,773,768,0
2938522,767.56,773,766,0
2938532,751.54,773,768,0
2938542,725.40,773,766,0
2938552,688.77,773,768,0
2938562,641.74,773,766,0
2938572,585.42,773,767,0
2938583,522.38,773,766,0
2938593,458.92,773,768,0
2938603,399.37,773,766,0
2938613,346.76,773,768,0
2938624,302.86,773,765,0
2938633,268.87,773,768,0
2938643,244.66,773,766,0
2938653,229.80,773,768,0
2938663,222.96,773,766,0
2938673,222.84,773,768,0
2938683,227.78,773,766,0
2938693,236.42,773,768,0
2938703,247.22,773,765,0
2938713,259.11,773,768,0
2938723,270.86,773,766,0
2938733,281.96,773,768,0
2938743,291.74,773,766,0
2938753,300.01,773,768,0
2938763,306.39,773,766,0
2938773,311.03,773,768,0
2938783,313.89,773,765,0
2938793,315.38,773,769,0
2938803,315.48,773,766,0
2938813,314.65,773,768,0
2938823,313.00,773,766,0
2938833,311.03,773,769,0
2938843,308.83,773,766,0
2938853,306.74,773,768,0
2938863,304.80,773,766,0
2938873,303.36,773,768,0
2938883,302.31,773,766,0
2938893,301.88,773,768,0
2938903,301.87,773,766,0
2938913,302.42,773,768,0
2938924,303.41,773,766,0
2938934,304.83,773,768,0
2938944,306.51,773,766,0
2938954,308.50,773,768,0
2938964,310.58,773,765,0
2938974,312.76,773,768,0
2938984,314.89,773,766,0
2938994,317.02,773,769,0
2939004,319.16,773,765,0
2939014,321.43,773,769,0
2939024,324.08,773,765,0
2939034,327.87,773,769,0
2939044,334.00,773,766,0
2939054,344.07,773,768,0
2939064,360.25,773,766,0
2939074,384.86,773,769,0
2939094,419.74,773,768,0
2939097,462.64,773,769,0
2939106,510.23,773,765,0
2939116,559.49,773,769,0
2939126,607.56,773,766,0
2939137,651.28,773,769,0
2939147,687.71,773,766,0
2939157,714.45,773,768,0
2939167,733.17,773,766,0
2939177,746.28,773,768,0
2939187,755.45,773,765,0
2939197,761.87,773,768,0
2939207,766.41,773,766,0
2939217,769.59,773,768,0
2939227,771.81,773,766,0
2939237,773.37,773,769,0
2939247,774.46,773,766,0
2939257,775.22,773,768,0
2939267,775.75,773,766,0
2939277,776.13,773,768,0
2939287,776.39,773,766,0
2939297,776.57,773,768,0
2939308,776.70,773,766,0
2939318,772.08,773,768,0
2939328,759.24,773,766,0
2939338,735.94,773,768,0
2939348,701.59,773,766,0
2939358,656.54,773,768,0
2939368,601.65,773,766,0
2939378,538.11,773,768,0
2939388,472.38,773,766,0
2939398,409.48,773,768,0
2939408,353.41,773,766,0
2939418,306.10,773,768,0
2939428,268.65,773,766,0
2939438,241.03,773,768,0
2939448,223.06,773,766,0
2939458,213.44,773,768,0
2939468,211.13,773,766,0
2939479,214.30,773,768,0
2939489,221.84,773,766,0
2939499,231.96,773,768,0
2939509,243.80,773,766,0
2939520,255.86,773,767,0
2939529,267.60,773,766,0
2939539,278.14,773,768,0
2939549,287.40,773,766,0
2939559,294.78,773,767,0
2939569,300.54,773,766,0
2939579,304.41,773,768,0
2939589,306.86,773,766,0
2939599,307.80,773,767,0
2939609,307.77,773,766,0
2939619,306.73,773,768,0
2939629,305.27,773,766,0
2939639,303.34,773,767,0
2939649,301.53,773,766,0
2939659,299.70,773,768,0
2939669,298.33,773,766,0
2939679,297.16,773,767,0
2939689,296.60,773,767,0
2939699,296.42,773,768,0
2939709,296.89,773,766,0
2939719,297.70,773,767,0
2939729,299.16,773,767,0
2939739,300.83,773,768,0
2939749,302.94,773,766,0
2939759,305.14,773,768,0
2939769,307.54,773,767,0
2939779,309.82,773,768,0
2939789,312.19,773,766,0
2939799,314.23,773,767,0
2939809,316.35,773,767,0
2939820,318.34,773,767,0
2939830,320.77,773,767,0
2939840,323.92,773,767,0
2939850,329.18,773,768,0
2939860,337.95,773,767,0
2939870,352.37,773,767,0
2939889,374.50,796,767,0
2939892,407.74,796,768,0
2939901,449.64,796,766,0
2939911,497.02,796,768,0
2939921,546.73,796,766,0
2939931,595.84,796,768,0
2939941,641.44,796,767,0
2939951,680.53,796,768,0
2939961,709.34,796,767,0
2939971,729.55,796,768,0
2939981,743.74,796,767,0
2939991,753.68,796,768,0
2940001,760.63,796,767,0
2940011,765.50,796,768,0
2940021,768.95,796,767,0
2940032,771.36,796,768,0
2940041,773.06,796,766,0
2940051,774.24,796,768,0
2940061,775.07,796,767,0
2940071,775.65,796,768,0
2940081,776.05,796,766,0
2940091,776.34,796,768,0
2940101,776.54,796,766,0
2940111,776.68,796,768,0
2940121,776.77,796,767,0
2940131,776.84,796,768,0
2940141,772.90,796,767,0
2940151,761.15,796,768,0
2940161,739.50,796,766,0
2940171,707.08,796,768,0
2940181,663.68,796,766,0
2940191,610.21,796,768,0
2940201,547.75,796,766,0
2940211,482.12,796,768,0
2940221,418.57,796,766,0
2940231,360.93,796,768,0
2940241,311.41,796,766,0
2940251,271.60,796,768,0
2940261,241.55,796,767,0
2940271,221.11,796,768,0
2940281,208.91,796,766,0
2940291,203.96,796,768,0
2940301,204.62,796,766,0
2940311,209.79,796,768,0
2940321,217.82,796,766,0
2940332,227.78,796,768,0
2940342,238.39,796,766,0
2940352,249.07,796,768,0
2940362,259.04,796,765,0
2940372,268.07,796,768,0
2940382,275.55,796,766,0
2940392,281.73,796,768,0
2940402,286.31,796,765,0
2940412,289.60,796,768,0
2940422,291.56,796,766,0
2940432,292.59,796,768,0
2940442,292.67,796,765,0
2940452,292.30,796,769,0
2940462,291.40,796,766,0
2940472,290.46,796,768,0
2940482,289.51,796,765,0
2940492,288.84,796,768,0
2940503,288.42,796,765,0
2940513,288.55,796,768,0
2940523,289.07,796,765,0
2940533,290.16,796,768,0
2940544,291.66,796,765,0
2940553,293.56,796,768,0
2940563,295.71,796,765,0
2940573,298.11,796,768,0
2940583,300.56,796,765,0
2940593,303.09,796,768,0
2940603,305.47,796,765,0
2940613,307.68,796,768,0
2940623,309.71,796,765,0
2940633,311.59,796,768,0
2940643,313.26,796,765,0
2940653,314.90,796,768,0
2940663,316.68,796,765,0
2940673,319.26,796,768,0
2940683,323.43,796,766,0
2940693,330.71,796,768,0
2940703,343.14,796,765,0
2940723,363.20,833,765,0
2940726,393.91,833,765,0
2940735,434.48,833,768,0
2940745,481.35,833,765,0
2940755,531.52,833,769,0
2940765,581.93,833,765,0
2940775,629.48,833,769,0
2940785,670.99,833,765,0
2940795,702.75,833,769,0
2940805,725.03,833,765,0
2940815,740.62,833,768,0
2940825,751.53,833,766,0
2940835,759.17,833,769,0
2940845,764.52,833,765,0
2940855,768.26,833,769,0
2940865,770.89,833,765,0
2940875,772.72,833,769,0
2940886,774.00,833,765,0
2940895,774.90,833,769,0
2940905,775.53,833,766,0
2940915,775.97,833,769,0
2940925,776.28,833,765,0
2940935,776.50,833,768,0
2940945,776.65,833,766,0
2940955,776.75,833,769,0
2940965,776.83,833,766,0
2940975,776.88,833,768,0
2940985,772.20,833,765,0
2940995,758.98,833,768,0
2941005,735.16,833,765,0
2941015,700.31,833,768,0
2941025,654.58,833,765,0
2941035,598.73,833,768,0
2941045,534.10,833,765,0
2941056,466.95,833,768,0
2941065,402.90,833,765,0
2941075,345.54,833,768,0
2941085,296.82,833,765,0
2941095,257.83,833,768,0
2941105,228.83,833,765,0
2941115,209.25,833,768,0
2941125,198.20,833,765,0
2941135,194.16,833,768,0
2941145,195.78,833,765,0
2941155,201.63,833,768,0
2941165,210.44,833,765,0
2941175,220.94,833,768,0
2941185,232.14,833,765,0
2941195,243.16,833,768,0
2941205,253.48,833,765,0
2941215,262.59,833,768,0
2941225,270.30,833,765,0
2941235,276.38,833,769,0
2941245,281.02,833,765,0
2941255,284.23,833,768,0
2941265,286.26,833,766,0
2941275,287.21,833,770,0
2941285,287.45,833,767,0
2941295,287.10,833,769,0
2941305,286.51,833,767,0
2941315,285.72,833,770,0
2941325,285.03,833,768,0
2941335,284.42,833,770,0
2941345,284.21,833,767,0
2941356,284.32,833,769,0
2941366,284.91,833,767,0
2941376,285.75,833,769,0
2941386,287.07,833,768,0
2941396,288.63,833,770,0
2941406,290.63,833,768,0
2941416,292.75,833,770,0
2941426,295.19,833,768,0
2941436,297.57,833,770,0
2941446,300.19,833,768,0
2941456,302.70,833,769,0
2941466,305.36,833,768,0
2941476,307.83,833,769,0
2941486,310.32,833,767,0
2941496,312.54,833,769,0
2941506,314.73,833,767,0
2941516,316.61,833,769,0
2941527,318.44,833,767,0
2941537,319.90,833,769,0
2941547,321.34,833,767,0
2941557,322.57,833,768,0
2941568,324.11,833,767,0
2941586,325.96,864,766,0
2941589,329.36,864,768,0
2941598,335.04,864,769,0
2941608,345.27,864,768,0
2941618,361.56,864,769,0
2941628,386.59,864,768,0
2941638,421.90,864,769,0
2941648,465.22,864,768,0
2941658,512.85,864,769,0
2941668,562.18,864,767,0
2941678,609.87,864,768,0
2941688,653.32,864,768,0
2941698,689.35,864,769,0
2941708,715.61,864,767,0
2941718,733.98,864,769,0
2941728,746.89,864,768,0
2941739,755.92,864,768,0
2941748,762.24,864,768,0
2941758,766.67,864,769,0
2941768,769.77,864,768,0
2941778,771.94,864,769,0
2941788,773.46,864,768,0
2941798,774.52,864,769,0
2941808,775.26,864,768,0
2941818,775.78,864,768,0
2941828,776.15,864,768,0
2941838,776.40,864,769,0
2941848,776.58,864,768,0
2941858,776.71,864,769,0
2941868,776.80,864,768,0
2941878,773.26,864,769,0
2941888,762.17,864,768,0
2941898,740.94,864,769,0
2941908,708.82,864,768,0
2941918,665.97,864,769,0
2941928,613.22,864,768,0
2941938,551.57,864,769,0
2941948,486.26,864,768,0
2941958,422.71,864,769,0
2941968,365.32,864,768,0
2941978,316.16,864,769,0
2941988,276.55,864,767,0
2941998,246.51,864,768,0
2942008,226.05,864,767,0
2942018,213.99,864,768,0
2942028,209.36,864,767,0
2942039,210.37,864,768,0
2942049,215.96,864,768,0
2942059,224.33,864,768,0
2942069,234.60,864,768,0
2942080,245.44,864,767,0
2942089,256.23,864,768,0
2942099,266.11,864,768,0
2942109,274.90,864,768,0
2942119,282.00,864,768,0
2942129,287.75,864,769,0
2942139,291.85,864,768,0
2942149,294.77,864,769,0
2942159,296.34,864,769,0
2942169,297.05,864,769,0
2942179,296.86,864,769,0
2942189,296.39,864,769,0
2942199,295.42,864,769,0
2942209,294.52,864,769,0
2942219,293.46,864,768,0
2942229,292.81,864,769,0
2942239,292.22,864,768,0
2942249,292.20,864,769,0
2942259,292.35,864,768,0
2942269,293.02,864,769,0
2942279,293.83,864,768,0
2942289,295.12,864,769,0
2942299,296.46,864,769,0
2942309,298.25,864,768,0
2942319,300.02,864,768,0
2942329,302.11,864,769,0
2942339,304.18,864,769,0
2942349,306.52,864,769,0
2942359,308.77,864,768,0
2942369,311.19,864,769,0
2942380,313.41,864,768,0
2942390,315.77,864,769,0
2942400,317.90,864,768,0
2942410,320.11,864,769,0
2942420,322.05,864,768,0
2942430,323.96,864,769,0
2942440,325.52,864,768,0
2942450,327.08,864,769,0
2942460,328.25,864,769,0
2942479,329.51,893,768,0
2942482,330.73,893,767,0
2942491,332.39,893,769,0
2942501,334.80,893,768,0
2942511,339.02,893,770,0
2942521,346.26,893,768,0
2942531,358.95,893,770,0
2942541,379.07,893,769,0
2942551,408.32,893,770,0
2942561,447.09,893,768,0
2942571,492.02,893,770,0
2942581,540.10,893,768,0
2942592,588.46,893,770,0
2942601,633.75,893,768,0
2942611,673.04,893,770,0
2942621,704.10,893,768,0
2942631,725.88,893,770,0
2942641,741.09,893,768,0
2942651,751.73,893,770,0
2942661,759.19,893,768,0
2942671,764.44,893,769,0
2942681,768.13,893,767,0
2942691,770.70,893,769,0
2942701,772.51,893,768,0
2942711,773.81,893,769,0
2942721,774.68,893,768,0
2942731,775.29,893,769,0
2942741,775.72,893,768,0
2942751,776.06,893,769,0
2942761,773.47,893,767,0
2942771,764.63,893,769,0
2942781,746.74,893,767,0
2942791,718.62,893,769,0
2942801,679.82,893,767,0
2942811,631.14,893,769,0
2942821,573.42,893,767,0
2942831,510.98,893,769,0
2942841,448.63,893,767,0
2942851,390.92,893,769,0
2942861,340.55,893,767,0
2942871,299.37,893,769,0
2942881,267.67,893,767,0
2942892,245.66,893,769,0
2942902,232.43,893,766,0
2942912,227.07,893,769,0
2942922,227.99,893,767,0
2942932,233.82,893,769,0
2942942,242.92,893,766,0
2942952,254.09,893,769,0
2942962,266.02,893,766,0
2942972,277.80,893,769,0
2942982,288.62,893,766,0
2942992,298.07,893,769,0
2943002,305.85,893,766,0
2943012,311.85,893,769,0
2943022,316.05,893,767,0
2943032,318.61,893,769,0
2943042,319.71,893,767,0
2943052,319.63,893,768,0
2943063,318.54,893,766,0
2943073,316.79,893,769,0
2943083,314.71,893,766,0
2943093,312.48,893,769,0
2943104,310.37,893,766,0
2943113,308.54,893,769,0
2943123,307.14,893,766,0
2943133,306.24,893,769,0
2943143,305.82,893,766,0
2943153,305.88,893,769,0
2943163,306.39,893,766,0
2943173,307.30,893,769,0
2943183,308.58,893,766,0
2943193,310.12,893,769,0
2943203,311.93,893,766,0
2943213,313.96,893,769,0
2943223,316.16,893,766,0
2943233,318.47,893,769,0
2943243,320.81,893,766,0
2943253,323.14,893,769,0
2943263,325.37,893,766,0
2943273,327.44,893,769,0
2943283,329.33,893,766,0
2943293,330.99,893,769,0
2943303,332.45,893,766,0
2943313,333.73,893,769,0
2943323,334.79,893,766,0
2943333,335.71,893,769,0
2943343,336.57,893,766,0
2943353,337.39,893,769,0
2943363,338.34,893,766,0
2943373,339.57,893,769,0
2943383,341.63,893,766,0
2943403,345.38,923,765,0
2943406,352.94,923,766,0
2943415,365.90,923,769,0
2943425,386.59,923,766,0
2943435,416.54,923,769,0
2943446,455.76,923,767,0
2943455,500.75,923,768,0
2943465,548.70,923,767,0
2943475,596.06,923,769,0
2943485,640.18,923,767,0
2943495,678.06,923,769,0
2943505,707.57,923,767,0
2943515,728.23,923,769,0
2943525,742.73,923,767,0
2943535,752.84,923,769,0
2943545,759.96,923,767,0
2943555,764.99,923,769,0
2943565,768.55,923,767,0
2943575,771.04,923,769,0
2943585,772.79,923,766,0
2943595,773.96,923,769,0
2943605,774.83,923,767,0
2943616,773.68,923,768,0
2943625,767.39,923,767,0
2943635,753.17,923,769,0
2943645,729.51,923,767,0
2943655,695.71,923,768,0
2943665,652.38,923,766,0
2943675,600.03,923,769,0
2943685,541.56,923,766,0
2943695,481.44,923,768,0
2943705,424.13,923,766,0
2943715,372.58,923,769,0
2943725,328.99,923,767,0
2943735,294.02,923,769,0
2943745,268.22,923,766,0
2943755,251.09,923,769,0
2943765,242.15,923,766,0
2943775,240.01,923,769,0
2943785,243.60,923,767,0
2943795,251.27,923,769,0
2943805,261.77,923,767,0
2943815,273.71,923,769,0
2943825,286.27,923,767,0
2943835,298.27,923,769,0
2943845,309.25,923,767,0
2943855,318.47,923,769,0
2943865,325.96,923,767,0
2943875,331.46,923,769,0
2943885,335.22,923,767,0
2943895,337.13,923,769,0
2943905,337.65,923,766,0
2943916,336.85,923,769,0
2943926,335.27,923,767,0
2943936,332.96,923,768,0
2943946,330.44,923,767,0
2943956,327.61,923,768,0
2943966,324.98,923,767,0
2943976,322.50,923,768,0
2943986,320.55,923,767,0
2943996,318.93,923,768,0
2944006,317.96,923,767,0
2944016,317.29,923,768,0
2944026,317.29,923,767,0
2944036,317.59,923,768,0
2944046,318.44,923,767,0
2944056,319.47,923,768,0
2944066,320.87,923,767,0
2944076,322.28,923,769,0
2944087,324.04,923,767,0
2944097,325.70,923,768,0
2944107,327.55,923,767,0
2944117,329.23,923,768,0
2944128,331.00,923,768,0
2944137,332.59,923,768,0
2944147,334.30,923,767,0
2944157,335.66,923,768,0
2944167,337.09,923,768,0
2944177,338.22,923,768,0
2944187,339.31,923,767,0
2944197,340.08,923,768,0
2944207,340.95,923,767,0
2944217,341.57,923,768,0
2944227,342.38,923,767,0
2944237,343.21,923,768,0
2944247,344.60,923,767,0
2944257,346.48,923,768,0
2944267,349.76,923,767,0
2944277,355.02,923,768,0
2944296,364.27,894,768,0
2944300,380.05,894,767,0
2944308,403.60,894,768,0
2944318,435.87,894,767,0
2944328,476.06,894,768,0
2944338,520.87,894,767,0
2944348,567.67,894,768,0
2944358,613.37,894,767,0
2944368,654.40,894,768,0
2944378,688.91,894,767,0
2944388,715.12,894,767,0
2944398,733.47,894,768,0
2944408,746.36,894,768,0
2944418,755.38,894,767,0
2944428,761.69,894,767,0
2944438,766.07,894,767,0
2944448,769.09,894,768,0
2944458,771.21,894,767,0
2944468,772.05,894,768,0
2944478,768.47,894,767,0
2944488,758.26,894,768,0
2944498,739.63,894,767,0
2944508,711.88,894,768,0
2944518,675.06,894,767,0
2944528,629.61,894,768,0
2944538,576.84,894,767,0
2944548,521.26,894,768,0
2944558,466.50,894,767,0
2944568,415.86,894,768,0
2944578,371.25,894,767,0
2944588,334.06,894,768,0
2944599,304.86,894,767,0
2944609,284.07,894,768,0
2944619,271.06,894,767,0
2944629,265.22,894,768,0
2944640,265.24,894,767,0
2944649,270.18,894,769,0
2944659,278.48,894,767,0
2944669,289.22,894,769,0
2944679,300.99,894,767,0
2944689,313.12,894,769,0
2944699,324.53,894,767,0
2944709,334.91,894,768,0
2944719,343.64,894,767,0
2944729,350.86,894,768,0
2944739,356.00,894,767,0
2944749,359.39,894,768,0
2944759,360.81,894,766,0
2944769,360.91,894,768,0
2944779,359.65,894,767,0
2944789,357.61,894,768,0
2944799,354.69,894,767,0
2944809,351.65,894,769,0
2944819,348.46,894,767,0
2944829,345.58,894,768,0
2944839,342.79,894,767,0
2944849,340.54,894,768,0
2944859,338.62,894,767,0
2944869,337.36,894,768,0
2944879,336.44,894,767,0
2944889,336.09,894,768,0
2944899,335.98,894,767,0
2944909,336.41,894,768,0
2944919,337.02,894,767,0
2944929,338.04,894,768,0
2944940,339.10,894,767,0
2944950,340.36,894,768,0
2944960,341.53,894,766,0
2944970,342.83,894,768,0
2944980,343.95,894,766,0
2944990,345.21,894,768,0
2945000,346.35,894,766,0
2945010,347.87,894,768,0
2945020,350.01,894,766,0
2945030,353.65,894,768,0
2945040,359.84,894,766,0
2945050,370.52,894,769,0
2945060,387.38,894,767,0
2945079,411.99,783,766,0
2945082,446.11,783,766,0
2945091,487.30,783,769,0
2945101,532.38,783,766,0
2945111,578.60,783,769,0
2945121,622.95,783,767,0
2945131,662.78,783,769,0
2945141,695.97,783,767,0
2945152,720.07,783,769,0
2945161,736.89,783,767,0
2945171,748.71,783,770,0
2945181,757.02,783,768,0
2945191,762.85,783,769,0
2945201,766.88,783,767,0
2945211,769.74,783,769,0
2945221,771.75,783,767,0
2945231,772.30,783,770,0
2945241,768.39,783,767,0
2945251,757.65,783,769,0
2945261,738.42,783,767,0
2945271,710.01,783,769,0
2945281,672.42,783,767,0
2945291,626.14,783,768,0
2945301,572.74,783,767,0
2945311,516.50,783,769,0
2945321,461.24,783,767,0
2945331,410.17,783,769,0
2945341,365.29,783,767,0
2945351,327.92,783,769,0
2945361,298.76,783,767,0
2945371,277.96,783,769,0
2945381,265.11,783,767,0
2945391,259.51,783,769,0
2945401,259.91,783,767,0
2945411,265.17,783,769,0
2945421,273.90,783,767,0
2945431,284.90,783,769,0
2945441,297.02,783,767,0
2945452,309.23,783,769,0
2945462,320.69,783,766,0
2945472,330.81,783,769,0
2945482,339.31,783,766,0
2945492,345.90,783,769,0
2945502,350.52,783,766,0
2945512,353.32,783,769,0
2945522,354.47,783,766,0
2945532,354.16,783,769,0
2945542,352.78,783,766,0
2945552,350.57,783,769,0
2945562,347.87,783,766,0
2945572,344.87,783,769,0
2945582,341.78,783,766,0
2945592,338.80,783,769,0
2945602,336.16,783,766,0
2945612,333.88,783,769,0
2945623,332.08,783,766,0
2945633,330.77,783,769,0
2945643,330.07,783,766,0
2945653,329.79,783,769,0
2945664,330.07,783,766,0
2945673,330.69,783,769,0
2945683,331.73,783,767,0
2945693,332.97,783,769,0
2945703,334.48,783,767,0
2945713,336.05,783,769,0
2945723,337.83,783,767,0
2945733,339.60,783,769,0
2945743,341.56,783,767,0
2945753,343.62,783,769,0
2945763,346.26,783,767,0
2945773,349.91,783,769,0
2945783,355.94,783,767,0
2945793,365.60,783,769,0
2945803,381.11,783,767,0
2945813,404.35,783,770,0
2945832,436.98,753,768,0
2945836,477.32,753,769,0
2945844,522.22,753,767,0
2945854,568.66,753,769,0
2945864,614.06,753,766,0
2945874,655.40,753,769,0
2945884,690.04,753,767,0
2945894,715.87,753,769,0
2945904,733.95,753,767,0
2945914,746.65,753,769,0
2945924,755.58,753,766,0
2945934,761.84,753,768,0
2945944,766.21,753,767,0
2945954,769.32,753,769,0
2945964,771.54,753,766,0
2945974,773.09,753,769,0
2945984,774.18,753,766,0
2945994,774.94,753,768,0
2946004,775.51,753,766,0
2946014,772.92,753,768,0
2946024,763.77,753,765,0
2946034,745.88,753,768,0
2946044,718.27,753,766,0
2946054,680.95,753,768,0
2946064,634.34,753,765,0
2946074,579.25,753,768,0
2946084,520.12,753,766,0
2946094,461.67,753,768,0
2946104,407.64,753,765,0
2946114,360.43,753,768,0
2946124,321.47,753,766,0
2946135,291.38,753,768,0
2946145,270.39,753,766,0
2946155,257.63,753,768,0
2946165,252.38,753,766,0
2946176,253.21,753,768,0
2946185,258.89,753,766,0
2946195,267.75,753,768,0
2946205,278.76,753,766,0
2946215,290.49,753,768,0
2946225,302.30,753,766,0
2946235,313.14,753,768,0
2946245,322.78,753,767,0
2946255,330.65,753,768,0
2946265,336.88,753,766,0
2946275,341.12,753,768,0
2946285,343.70,753,767,0
2946295,344.52,753,768,0
2946305,344.06,753,766,0
2946315,342.33,753,768,0
2946325,339.96,753,767,0
2946335,336.97,753,768,0
2946345,333.98,753,767,0
2946355,330.94,753,768,0
2946365,328.35,753,767,0
2946375,326.10,753,768,0
2946385,324.57,753,766,0
2946395,323.46,753,768,0
2946405,323.06,753,767,0
2946415,323.00,753,768,0
2946425,323.56,753,767,0
2946435,324.38,753,768,0
2946445,325.63,753,767,0
2946455,326.99,753,768,0
2946465,328.62,753,767,0
2946476,330.15,753,768,0
2946486,331.90,753,767,0
2946496,333.52,753,768,0
2946506,335.42,753,767,0
2946516,337.44,753,768,0
2946526,340.26,753,767,0
2946536,344.38,753,768,0
2946546,351.43,753,767,0
2946556,362.91,753,767,0
2946566,380.98,753,768,0
2946576,407.30,753,769,0
2946595,443.81,763,768,0
2946598,486.90,763,768,0
2946607,533.64,763,768,0
2946617,581.06,763,769,0
2946627,626.34,763,768,0
2946637,666.70,763,768,0
2946647,699.62,763,768,0
2946657,722.79,763,768,0
2946667,739.01,763,768,0
2946677,750.41,763,767,0
2946688,758.38,763,768,0
2946697,763.97,763,768,0
2946707,767.88,763,768,0
2946717,770.61,763,767,0
2946727,772.53,763,769,0
2946737,773.83,763,768,0
2946747,774.74,763,768,0
2946757,775.37,763,767,0
2946767,775.82,763,768,0
2946777,776.13,763,768,0
2946787,776.35,763,768,0
2946797,776.50,763,767,0
2946807,776.09,763,768,0
2946817,770.71,763,768,0
2946827,757.34,763,768,0
2946837,734.01,763,767,0
2946847,700.28,763,768,0
2946857,656.31,763,767,0
2946867,603.29,763,767,0
2946877,542.82,763,767,0
2946887,480.90,763,768,0
2946897,421.96,763,767,0
2946907,369.64,763,768,0
2946917,325.61,763,768,0
2946927,291.01,763,768,0
2946937,265.51,763,767,0
2946947,248.90,763,768,0
2946957,239.84,763,768,0
2946967,237.49,763,768,0
2946977,240.09,763,768,0
2946988,246.62,763,768,0
2946998,255.47,763,767,0
2947008,265.75,763,768,0
2947018,276.19,763,767,0
2947028,286.42,763,769,0
2947038,295.47,763,767,0
2947048,303.30,763,768,0
2947058,309.38,763,767,0
2947068,314.02,763,768,0
2947078,316.97,763,767,0
2947088,318.70,763,768,0
2947098,319.04,763,767,0
2947108,318.60,763,768,0
2947118,317.35,763,767,0
2947128,315.83,763,768,0
2947138,313.95,763,767,0
2947148,312.25,763,769,0
2947159,310.55,763,767,0
2947169,309.31,763,768,0
2947179,308.32,763,767,0
2947189,307.88,763,768,0
2947200,307.74,763,765,0
2947209,308.16,763,768,0
2947219,308.84,763,766,0
2947229,310.00,763,768,0
2947239,311.37,763,766,0
2947249,313.11,763,768,0
2947259,314.96,763,766,0
2947269,317.03,763,768,0
2947279,319.08,763,766,0
2947289,321.24,763,768,0
2947299,323.27,763,767,0
2947309,325.29,763,768,0
2947319,327.09,763,766,0
2947329,328.82,763,768,0
2947339,330.33,763,767,0
2947349,331.90,763,769,0
2947359,333.60,763,767,0
2947369,336.16,763,769,0
2947379,340.19,763,766,0
2947389,347.42,763,769,0
2947408,359.68,813,768,0
2947411,380.35,813,769,0
2947420,410.28,813,767,0
2947430,449.63,813,769,0
2947440,494.83,813,767,0
2947450,543.18,813,769,0
2947460,591.60,813,767,0
2947470,637.15,813,769,0
2947480,675.84,813,767,0
2947490,706.11,813,769,0
2947500,727.33,813,767,0
2947510,742.23,813,769,0
2947520,752.66,813,767,0
2947530,759.96,813,769,0
2947540,765.07,813,767,0
2947550,768.65,813,769,0
2947560,771.16,813,767,0
2947570,772.91,813,769,0
2947580,774.14,813,767,0
2947590,775.00,813,769,0
2947600,775.60,813,767,0
2947610,776.02,813,769,0
2947620,776.31,813,767,0
2947630,776.52,813,769,0
2947640,776.66,813,767,0
2947650,776.76,813,769,0
2947660,776.83,813,766,0
2947671,776.88,813,769,0
2947681,772.55,813,766,0
2947691,760.13,813,769,0
2947701,737.63,813,766,0
2947712,704.31,813,769,0
2947721,660.59,813,765,0
2947731,607.18,813,768,0
2947741,545.37,813,765,0
2947751,481.02,813,769,0
2947761,419.38,813,765,0
2947771,364.03,813,769,0
2947781,317.13,813,765,0
2947791,279.51,813,768,0
2947801,251.37,813,766,0
2947811,232.23,813,769,0
2947821,221.15,813,766,0
2947831,216.95,813,769,0
2947841,218.16,813,765,0
2947851,223.38,813,769,0
2947861,231.37,813,765,0
2947871,241.03,813,769,0
2947881,251.39,813,765,0
2947891,261.65,813,768,0
2947901,271.18,813,765,0
2947911,279.66,813,768,0
2947921,286.83,813,766,0
2947931,292.54,813,768,0
2947941,296.75,813,766,0
2947951,299.52,813,769,0
2947961,301.08,813,766,0
2947971,301.66,813,769,0
2947981,301.50,813,766,0
2947991,300.84,813,769,0
2948001,299.90,813,765,0
2948012,298.90,813,769,0
2948022,298.03,813,766,0
2948032,297.34,813,769,0
2948042,296.98,813,766,0
2948052,296.94,813,769,0
2948062,297.35,813,766,0
2948072,298.10,813,769,0
2948082,299.27,813,766,0
2948092,300.73,813,769,0
2948102,302.53,813,766,0
2948112,304.43,813,769,0
2948122,306.53,813,766,0
2948132,308.60,813,769,0
2948142,310.73,813,766,0
2948152,312.74,813,769,0
2948162,314.75,813,766,0
2948172,316.62,813,769,0
2948183,318.45,813,766,0
2948193,320.03,813,768,0
2948203,321.56,813,767,0
2948213,322.81,813,768,0
2948224,324.02,813,766,0
2948233,325.04,813,768,0
2948243,326.15,813,767,0
2948253,327.34,813,768,0
2948263,329.30,813,767,0
2948282,332.38,874,775,0
2948285,338.39,874,777,0
2948294,348.65,874,778,0
2948304,365.64,874,779,0
2948314,390.99,874,780,0
2948324,426.74,874,780,0
2948334,469.93,874,780,0
2948344,517.65,874,783,0
2948354,566.48,874,781,0
2948364,613.78,874,787,0
2948374,656.28,874,781,0
2948384,691.55,874,783,0
2948395,717.10,874,780,0
2948404,735.03,874,780,0
2948414,747.58,874,780,0
2948424,756.40,874,780,0
2948434,762.58,874,780,0
2948444,766.91,874,781,0
2948454,769.94,874,780,0
2948464,772.01,874,781,0
2948474,773.47,874,780,0
2948484,774.48,874,781,0
2948494,775.15,874,780,0
2948504,775.62,874,781,0
2948514,775.91,874,780,0
2948524,776.11,874,781,0
2948534,776.29,874,780,0
2948544,776.37,874,781,0
2948554,776.39,874,780,0
2948564,773.40,874,781,0
2948574,763.68,874,780,0
2948584,744.62,874,781,0
2948594,714.82,874,780,0
2948604,674.25,874,782,0
2948614,623.73,874,780,0
2948624,564.41,874,781,0
2948634,500.60,874,780,0
2948644,437.68,874,782,0
2948654,379.79,874,780,0
2948664,329.80,874,782,0
2948674,288.97,874,780,0
2948684,257.69,874,783,0
2948695,235.67,874,780,0
2948705,222.31,874,783,0
2948715,216.26,874,780,0
2948725,216.31,874,784,0
2948736,220.93,874,780,0
2948745,228.88,874,784,0
2948755,238.77,874,780,0
2948765,249.64,874,784,0
2948775,260.42,874,781,0
2948785,270.58,874,784,0
2948795,279.49,874,780,0
2948805,287.06,874,784,0
2948815,293.04,874,780,0
2948825,297.57,874,783,0
2948835,300.53,874,781,0
2948845,302.26,874,784,0
2948855,302.82,874,780,0
2948865,302.66,874,784,0
2948875,301.82,874,780,0
2948885,300.67,874,785,0
2948895,299.31,874,780,0
2948905,298.06,874,784,0
2948915,296.89,874,780,0
2948925,296.11,874,784,0
2948935,295.56,874,780,0
2948945,295.48,874,783,0
2948955,295.68,874,780,0
2948965,296.29,874,783,0
2948975,297.14,874,780,0
2948985,298.39,874,787,0
2948995,299.81,874,781,0
2949005,301.58,874,788,0
2949015,303.47,874,780,0
2949025,305.60,874,788,0
2949036,307.78,874,782,0
2949046,310.07,874,790,0
2949056,312.32,874,782,0
2949066,314.54,874,791,0
2949076,316.61,874,783,0
2949086,318.61,874,790,0
2949096,320.36,874,782,0
2949106,321.96,874,788,0
2949116,323.39,874,781,0
2949126,324.77,874,787,0
2949136,326.04,874,781,0
2949146,327.36,874,785,0
2949166,328.79,883,784,0
2949169,331.08,883,784,0
2949178,334.83,883,781,0
2949188,341.31,883,785,0
2949198,352.27,883,782,0
2949208,369.55,883,787,0
2949218,395.14,883,783,0
2949228,430.76,883,787,0
2949238,473.64,883,782,0
2949249,520.68,883,784,0
2949259,568.90,883,782,0
2949269,615.30,883,783,0
2949279,657.21,883,781,0
2949289,691.95,883,782,0
2949299,717.25,883,781,0
2949309,734.96,883,783,0
2949319,747.36,883,781,0
2949329,756.08,883,783,0
2949339,762.18,883,781,0
2949349,766.50,883,783,0
2949359,769.52,883,781,0
2949369,771.68,883,782,0
2949379,773.23,883,781,0
2949389,774.36,883,782,0
2949399,775.11,883,781,0
2949409,775.63,883,782,0
2949420,776.00,883,782,0
2949430,776.26,883,782,0
2949440,772.07,883,781,0
2949450,760.09,883,781,0
2949460,738.29,883,781,0
2949470,706.28,883,781,0
2949480,663.89,883,780,0
2949490,611.85,883,781,0
2949500,551.30,883,780,0
2949510,488.17,883,781,0
2949520,427.34,883,780,0
2949530,372.56,883,770,0
2949540,325.80,883,766,0
2949550,288.36,883,768,0
2949560,260.57,883,764,0
2949570,242.10,883,768,0
2949580,231.95,883,764,0
2949591,229.01,883,767,0
2949601,231.79,883,764,0
2949611,238.71,883,767,0
2949621,248.48,883,764,0
2949632,259.82,883,767,0
2949641,271.71,883,764,0
2949651,283.24,883,767,0
2949661,293.79,883,764,0
2949671,302.81,883,767,0
2949681,310.16,883,764,0
2949691,315.68,883,767,0
2949701,319.46,883,764,0
2949711,321.55,883,767,0
2949721,322.24,883,764,0
2949731,321.74,883,767,0
2949741,320.45,883,764,0
2949751,318.51,883,767,0
2949761,316.30,883,764,0
2949771,314.03,883,767,0
2949781,311.96,883,764,0
2949791,310.22,883,767,0
2949801,308.91,883,764,0
2949811,308.04,883,767,0
2949821,307.77,883,764,0
2949831,308.01,883,768,0
2949841,308.82,883,764,0
2949851,310.07,883,767,0
2949861,311.72,883,764,0
2949871,313.65,883,768,0
2949881,315.85,883,764,0
2949891,318.13,883,767,0
2949901,320.45,883,764,0
2949911,322.67,883,767,0
2949921,324.87,883,764,0
2949932,326.88,883,767,0
2949942,328.76,883,764,0
2949952,330.33,883,767,0
2949962,331.82,883,765,0
2949972,333.11,883,767,0
2949982,334.49,883,764,0
2949992,336.06,883,767,0
2950002,338.70,883,765,0
2950012,343.29,883,767,0
2950022,351.35,883,764,0
2950041,364.53,876,764,0
2950044,385.88,876,766,0
2950053,416.18,876,767,0
2950063,455.68,876,765,0
2950073,500.73,876,767,0
2950083,548.34,876,765,0
2950093,595.77,876,767,0
2950103,640.19,876,765,0
2950113,677.98,876,767,0
2950123,707.64,876,765,0
2950133,728.36,876,767,0
2950144,742.87,876,765,0
2950153,753.07,876,767,0
2950163,760.20,876,765,0
2950173,765.20,876,767,0
2950183,768.70,876,765,0
2950193,771.14,876,767,0
2950203,772.90,876,765,0
2950213,774.09,876,767,0
2950223,774.92,876,765,0
2950233,773.61,876,767,0
2950243,766.62,876,765,0
2950253,751.30,876,767,0
2950263,726.35,876,765,0
2950273,691.53,876,767,0
2950283,647.10,876,765,0
2950293,593.54,876,767,0
2950303,534.02,876,765,0
2950313,473.46,876,767,0
2950323,416.28,876,765,0
2950333,365.19,876,767,0
2950343,321.98,876,765,0
2950353,287.61,876,767,0
2950363,262.70,876,765,0
2950373,246.63,876,767,0
2950383,238.90,876,765,0
2950393,237.90,876,767,0
2950403,242.47,876,765,0
2950413,250.95,876,767,0
2950423,262.11,876,765,0
2950433,274.42,876,767,0
2950444,287.06,876,765,0
2950454,298.79,876,767,0
2950464,309.27,876,765,0
2950474,317.89,876,766,0
2950484,324.73,876,766,0
2950494,329.49,876,767,0
2950504,332.60,876,765,0
2950514,333.92,876,767,0
2950524,334.03,876,766,0
2950534,332.95,876,767,0
2950544,331.21,876,765,0
2950554,328.79,876,767,0
2950564,326.19,876,765,0
2950574,323.31,876,767,0
2950584,320.64,876,765,0
2950594,318.05,876,767,0
2950604,315.94,876,766,0
2950615,314.15,876,766,0
2950625,312.99,876,766,0
2950635,312.27,876,766,0
2950645,312.23,876,767,0
2950656,312.55,876,766,0
2950665,313.50,876,766,0
2950675,314.68,876,766,0
2950685,316.27,876,766,0
2950695,317.95,876,766,0
2950705,319.85,876,766,0
2950715,321.61,876,766,0
2950725,323.48,876,766,0
2950735,325.14,876,766,0
2950745,326.85,876,766,0
2950755,328.40,876,766,0
2950765,330.21,876,766,0
2950775,332.29,876,766,0
2950785,335.46,876,766,0
2950795,340.46,876,766,0
2950805,349.07,876,766,0
2950815,362.93,876,766,0
2950835,384.34,793,764,0
2950838,415.52,793,765,0
2950847,455.65,793,767,0
2950857,501.18,793,765,0
2950867,549.26,793,767,0
2950877,596.88,793,765,0
2950887,641.27,793,767,0
2950897,679.55,793,765,0
2950907,708.70,793,767,0
2950917,729.10,793,765,0
2950927,743.43,793,767,0
2950937,753.50,793,765,0
2950947,760.51,793,767,0
2950957,765.41,793,765,0
2950967,768.85,793,767,0
2950977,771.25,793,765,0
2950987,772.89,793,767,0
2950998,774.04,793,765,0
2951007,774.84,793,767,0
2951017,775.44,793,765,0
2951027,775.83,793,767,0
2951037,772.06,793,765,0
2951047,761.46,793,767,0
2951057,741.65,793,765,0
2951067,711.58,793,767,0
2951077,671.04,793,764,0
2951087,620.93,793,767,0
2951097,562.15,793,765,0
2951107,500.13,793,767,0
2951117,439.06,793,764,0
2951127,383.07,793,767,0
2951137,334.54,793,765,0
2951147,295.20,793,767,0
2951157,265.23,793,764,0
2951168,244.76,793,767,0
2951177,232.88,793,765,0
2951187,228.63,793,767,0
2951197,230.45,793,764,0
2951207,237.13,793,767,0
2951217,246.91,793,765,0
2951227,258.63,793,767,0
2951237,271.00,793,764,0
2951247,283.26,793,767,0
2951257,294.49,793,765,0
2951267,304.33,793,767,0
2951277,312.29,793,764,0
2951287,318.46,793,767,0
2951297,322.69,793,765,0
2951307,325.27,793,767,0
2951317,326.22,793,764,0
2951327,325.98,793,767,0
2951337,324.70,793,764,0
2951347,322.82,793,767,0
2951357,320.43,793,765,0
2951367,317.94,793,767,0
2951377,315.43,793,765,0
2951387,313.25,793,767,0
2951397,311.29,793,764,0
2951407,309.91,793,768,0
2951417,309.00,793,765,0
2951427,308.74,793,767,0
2951437,308.90,793,765,0
2951447,309.62,793,767,0
2951457,310.68,793,764,0
2951468,312.23,793,768,0
2951478,313.96,793,764,0
2951488,315.99,793,767,0
2951498,318.05,793,764,0
2951508,320.31,793,768,0
2951518,322.44,793,764,0
2951528,324.54,793,768,0
2951538,326.48,793,764,0
2951548,328.31,793,767,0
2951558,329.89,793,764,0
2951568,331.33,793,767,0
2951578,332.56,793,764,0
2951588,333.85,793,767,0
2951598,335.27,793,764,0
2951608,337.24,793,767,0
2951618,340.39,793,764,0
2951628,345.93,793,767,0
2951639,355.63,793,764,0
2951658,371.73,824,764,0
2951661,397.14,824,764,0
2951670,432.84,824,768,0
2951681,475.75,824,764,0
2951691,522.92,824,767,0
2951701,571.50,824,764,0
2951711,618.54,824,767,0
2951721,660.98,824,764,0
2951731,695.18,824,768,0
2951741,719.69,824,764,0
2951751,736.88,824,767,0
2951761,748.92,824,764,0
2951771,757.34,824,768,0
2951781,763.24,824,764,0
2951791,767.37,824,768,0
2951801,770.26,824,765,0
2951811,772.28,824,768,0
2951821,773.70,824,764,0
2951831,774.69,824,768,0
2951841,775.34,824,764,0
2951852,775.79,824,767,0
2951862,776.11,824,765,0
2951872,776.34,824,767,0
2951882,774.18,824,765,0
2951892,765.38,824,767,0
2951902,747.91,824,765,0
2951912,720.21,824,767,0
2951922,681.96,824,765,0
2951932,633.46,824,767,0
2951942,576.06,824,765,0
2951952,513.30,824,767,0
2951962,451.15,824,765,0
2951972,393.16,824,767,0
2951982,342.54,824,765,0
2951992,300.85,824,767,0
2952002,269.14,824,765,0
2952012,246.77,824,767,0
2952023,233.42,824,765,0
2952033,227.73,824,767,0
2952043,228.49,824,765,0
2952053,234.09,824,766,0
2952064,243.19,824,765,0
2952073,254.15,824,767,0
2952083,266.15,824,765,0
2952093,277.89,824,767,0
2952103,288.89,824,765,0
2952113,298.44,824,767,0
2952123,306.45,824,765,0
2952133,312.57,824,766,0
2952143,317.12,824,765,0
2952153,319.91,824,767,0
2952163,321.44,824,765,0
2952173,321.61,824,766,0
2952183,321.00,824,765,0
2952193,319.58,824,767,0
2952203,317.95,824,765,0
2952213,315.99,824,766,0
2952223,314.20,824,765,0
2952233,312.38,824,766,0
2952243,311.02,824,765,0
2952253,309.86,824,766,0
2952263,309.30,824,765,0
2952273,309.04,824,766,0
2952283,309.37,824,765,0
2952293,309.95,824,766,0
2952303,311.03,824,765,0
2952313,312.27,824,766,0
2952323,313.90,824,765,0
2952333,315.47,824,767,0
2952343,317.30,824,765,0
2952353,319.05,824,766,0
2952364,320.97,824,765,0
2952374,322.73,824,766,0
2952384,324.61,824,766,0
2952394,326.27,824,766,0
2952404,328.08,824,766,0
2952414,329.60,824,766,0
2952424,331.13,824,766,0
2952434,332.42,824,766,0
2952444,333.84,824,766,0
2952454,335.21,824,766,0
2952464,337.25,824,765,0
2952474,340.26,824,766,0
2952484,345.75,824,766,0
2952503,354.87,845,765,0
2952506,370.90,845,767,0
2952515,395.23,845,765,0
2952525,429.79,845,767,0
2952535,471.89,845,766,0
2952545,518.60,845,767,0
2952555,566.85,845,765,0
2952565,614.12,845,767,0
2952576,656.43,845,765,0
2952585,691.53,845,767,0
2952595,717.13,845,765,0
2952605,735.09,845,767,0
2952615,747.66,845,765,0
2952625,756.46,845,766,0
2952635,762.62,845,765,0
2952645,766.94,845,767,0
2952655,769.96,845,765,0
2952665,772.07,845,766,0
2952675,773.55,845,765,0
2952685,774.58,845,767,0
2952695,775.31,845,765,0
2952705,775.82,845,767,0
2952715,776.17,845,765,0
2952725,776.42,845,767,0
2952735,773.08,845,765,0
2952745,762.64,845,767,0
2952755,743.16,845,765,0
2952765,713.54,845,767,0
2952775,673.44,845,765,0
2952785,623.55,845,766,0
2952795,564.97,845,765,0
2952805,502.71,845,766,0
2952815,441.72,845,765,0
2952825,385.66,845,766,0
2952835,337.04,845,765,0
2952845,297.68,845,766,0
2952855,267.91,845,765,0
2952865,247.66,845,766,0
2952876,235.94,845,765,0
2952886,231.84,845,767,0
2952896,233.77,845,765,0
2952906,240.44,845,767,0
2952916,250.17,845,764,0
2952926,261.77,845,767,0
2952936,273.88,845,765,0
2952946,285.79,845,767,0
2952956,296.52,845,764,0
2952966,305.88,845,767,0
2952976,313.42,845,764,0
2952986,319.21,845,767,0
2952996,323.13,845,764,0
2953006,325.53,845,767,0
2953016,326.40,845,765,0
2953026,326.24,845,767,0
2953036,325.05,845,764,0
2953047,323.28,845,767,0
2953057,321.01,845,764,0
2953067,318.65,845,767,0
2953077,316.18,845,764,0
2953088,314.03,845,767,0
2953097,312.13,845,764,0
2953107,310.72,845,767,0
2953117,309.82,845,764,0
2953127,309.49,845,767,0
2953137,309.64,845,764,0
2953147,310.35,845,767,0
2953157,311.49,845,764,0
2953167,313.06,845,767,0
2953177,314.84,845,764,0
2953187,316.77,845,767,0
2953197,318.77,845,764,0
2953207,320.85,845,767,0
2953217,322.87,845,764,0
2953227,324.84,845,767,0
2953237,326.64,845,764,0
2953247,328.38,845,767,0
2953257,329.94,845,764,0
2953267,331.37,845,767,0
2953277,332.59,845,764,0
2953287,333.78,845,767,0
2953297,334.92,845,764,0
2953307,336.27,845,767,0
2953317,338.12,845,764,0
2953327,341.25,845,767,0
2953337,346.79,845,764,0
2953347,356.28,845,767,0
2953366,371.67,863,767,0
2953369,395.85,863,767,0
2953378,429.76,863,764,0
2953388,471.44,863,768,0
2953398,517.68,863,764,0
2953408,565.52,863,768,0
2953418,612.25,863,764,0
2953428,654.95,863,767,0
2953438,690.06,863,764,0
2953448,716.06,863,768,0
2953458,734.30,863,764,0
2953468,747.07,863,767,0
2953478,756.05,863,764,0
2953488,762.33,863,768,0
2953498,766.73,863,764,0
2953508,769.81,863,768,0
2953518,771.97,863,764,0
2953528,773.48,863,767,0
2953538,774.53,863,764,0
2953548,775.27,863,768,0
2953559,775.79,863,764,0
2953569,775.04,863,767,0
2953579,768.90,863,764,0
2953589,754.53,863,767,0
2953600,730.41,863,764,0
2953609,696.26,863,767,0
2953619,652.21,863,764,0
2953629,598.96,863,767,0
2953639,538.89,863,764,0
2953649,477.68,863,767,0
2953659,419.70,863,764,0
2953669,368.02,863,767,0
2953679,324.39,863,763,0
2953689,289.77,863,767,0
2953699,264.51,863,763,0
2953709,248.16,863,767,0
2953719,239.80,863,764,0
2953729,238.19,863,767,0
2953739,241.99,863,763,0
2953749,249.71,863,767,0
2953759,260.17,863,763,0
2953769,272.07,863,768,0
2953779,284.39,863,764,0
2953789,296.19,863,767,0
2953799,306.93,863,764,0
2953809,316.08,863,767,0
2953819,323.51,863,764,0
2953829,329.06,863,767,0
2953839,332.77,863,764,0
2953849,334.73,863,767,0
2953859,335.28,863,764,0
2953869,334.64,863,767,0
2953879,333.20,863,764,0
2953889,331.13,863,767,0
2953900,328.78,863,764,0
2953910,326.40,863,767,0
2953920,324.27,863,763,0
2953930,322.34,863,767,0
2953940,320.87,863,764,0
2953950,319.79,863,767,0
2953960,319.26,863,764,0
2953970,319.09,863,767,0
2953980,319.41,863,764,0
2953990,320.01,863,767,0
2954000,321.04,863,763,0
2954010,322.23,863,767,0
2954020,323.74,863,764,0
2954030,325.32,863,767,0
2954040,327.02,863,764,0
2954050,328.69,863,767,0
2954060,330.45,863,764,0
2954071,332.07,863,767,0
2954081,333.81,863,764,0
2954091,335.54,863,767,0
2954101,337.78,863,765,0
2954112,340.93,863,767,0
2954121,345.96,863,764,0
2954131,354.16,863,767,0
2954141,367.57,863,765,0
2954161,387.84,794,764,0
2954164,417.46,794,766,0
2954173,456.11,794,766,0
2954183,500.43,794,766,0
2954193,547.49,794,766,0
2954203,594.48,794,765,0
2954213,638.48,794,766,0
2954223,676.95,794,766,0
2954233,706.88,794,766,0
2954243,727.87,794,765,0
2954253,742.61,794,766,0
2954263,752.93,794,766,0
2954273,760.15,794,766,0
2954284,765.16,794,766,0
2954294,768.67,794,765,0
2954304,771.13,794,767,0
2954314,772.85,794,765,0
2954324,774.05,794,767,0
2954334,771.81,794,765,0
2954344,763.25,794,767,0
2954354,746.20,794,765,0
2954364,719.66,794,767,0
2954374,683.50,794,765,0
2954384,638.14,794,766,0
2954394,584.14,794,765,0
2954404,525.90,794,767,0
2954414,467.73,794,765,0
2954424,413.47,794,766,0
2954434,365.41,794,765,0
2954444,325.17,794,767,0
2954455,293.45,794,764,0
2954465,270.82,794,766,0
2954475,256.64,794,765,0
2954485,250.24,794,767,0
2954496,250.25,794,764,0
2954505,255.53,794,766,0
2954515,264.42,794,765,0
2954525,275.82,794,767,0
2954535,288.22,794,764,0
2954545,300.79,794,767,0
2954555,312.43,794,765,0
2954565,322.71,794,767,0
2954575,331.16,794,764,0
2954585,337.84,794,767,0
2954595,342.43,794,765,0
2954605,345.26,794,767,0
2954615,346.29,794,764,0
2954625,346.12,794,767,0
2954635,344.71,794,765,0
2954645,342.57,794,767,0
2954655,339.79,794,764,0
2954665,336.81,794,767,0
2954675,333.74,794,765,0
2954685,330.90,794,767,0
2954695,328.23,794,764,0
2954705,326.15,794,767,0
2954715,324.47,794,765,0
2954725,323.39,794,767,0
2954735,322.72,794,764,0
2954745,322.59,794,767,0
2954755,322.80,794,765,0
2954765,323.46,794,767,0
2954775,324.26,794,764,0
2954785,325.38,794,767,0
2954796,326.60,794,764,0
2954806,328.05,794,767,0
2954816,329.53,794,764,0
2954826,331.34,794,767,0
2954836,333.60,794,764,0
2954846,336.93,794,767,0
2954856,342.10,794,764,0
2954866,350.72,794,767,0
2954876,364.52,794,770,0
2954886,384.94,794,777,0
2954896,413.58,794,778,0
2954915,451.68,755,778,0
2954918,495.75,755,779,0
2954927,542.75,755,779,0
2954937,589.58,755,779,0
2954947,633.42,755,780,0
2954957,672.17,755,780,0
2954967,703.45,755,780,0
2954977,725.43,755,780,0
2954987,740.81,755,780,0
2954997,751.54,755,779,0
2955008,759.05,755,780,0
2955017,764.31,755,779,0
2955027,767.99,755,781,0
2955037,770.56,755,780,0
2955047,772.36,755,780,0
2955057,773.58,755,780,0
2955067,774.44,755,781,0
2955077,775.08,755,780,0
2955087,772.44,755,781,0
2955097,763.52,755,780,0
2955107,745.97,755,780,0
2955117,718.55,755,780,0
2955127,681.05,755,780,0
2955137,634.11,755,780,0
2955147,578.49,755,781,0
2955157,518.52,755,780,0
2955167,458.70,755,781,0
2955177,402.99,755,780,0
2955187,354.14,755,780,0
2955197,313.77,755,780,0
2955207,282.51,755,780,0
2955217,260.46,755,780,0
2955227,247.12,755,780,0
2955237,241.47,755,780,0
2955247,242.27,755,781,0
2955257,248.06,755,780,0
2955267,257.39,755,781,0
2955277,268.84,755,781,0
2955287,281.23,755,781,0
2955297,293.55,755,781,0
2955308,304.96,755,781,0
2955318,314.87,755,781,0
2955328,322.97,755,781,0
2955338,329.15,755,782,0
2955348,333.39,755,780,0
2955358,335.80,755,781,0
2955368,336.63,755,781,0
2955378,336.23,755,780,0
2955388,334.83,755,780,0
2955398,332.78,755,781,0
2955408,330.28,755,780,0
2955418,327.58,755,780,0
2955428,324.92,755,780,0
2955438,322.46,755,781,0
2955448,320.31,755,781,0
2955458,318.63,755,781,0
2955468,317.41,755,781,0
2955479,316.77,755,783,0
2955489,316.63,755,781,0
2955499,316.95,755,783,0
2955509,317.70,755,781,0
2955520,318.82,755,784,0
2955529,320.11,755,781,0
2955539,321.62,755,784,0
2955549,323.15,755,781,0
2955559,324.82,755,782,0
2955569,326.59,755,780,0
2955579,328.73,755,782,0
2955589,331.55,755,780,0
2955599,336.10,755,782,0
2955609,343.40,755,781,0
2955619,355.45,755,784,0
2955629,374.17,755,781,0
2955639,401.68,755,784,0
2955658,438.89,743,784,0
2955661,482.85,743,787,0
2955670,530.25,743,781,0
2955680,578.43,743,787,0
2955691,624.29,743,781,0
2955700,665.05,743,784,0
2955710,697.99,743,780,0
2955720,721.56,743,783,0
2955730,738.07,743,781,0
2955740,749.66,743,783,0
2955750,757.73,743,781,0
2955760,763.43,743,784,0
2955770,767.41,743,781,0
2955780,770.25,743,784,0
2955790,772.23,743,780,0
2955800,773.62,743,784,0
2955810,774.59,743,781,0
2955820,775.31,743,783,0
2955830,775.82,743,781,0
2955840,776.13,743,783,0
2955850,776.31,743,781,0
2955860,775.36,743,784,0
2955870,769.12,743,780,0
2955880,754.47,743,783,0
2955890,729.56,743,780,0
2955900,693.90,743,784,0
2955910,648.12,743,781,0
2955920,593.05,743,784,0
2955930,530.90,743,780,0
2955940,467.50,743,785,0
2955950,407.61,743,781,0
2955960,354.67,743,783,0
2955970,310.58,743,780,0
2955980,276.04,743,783,0
2955991,251.08,743,780,0
2956001,235.37,743,782,0
2956011,227.67,743,780,0
2956021,226.79,743,783,0
2956032,231.14,743,780,0
2956041,239.28,743,782,0
2956051,249.70,743,780,0
2956061,261.40,743,783,0
2956071,273.15,743,780,0
2956081,284.29,743,784,0
2956091,294.06,743,780,0
2956101,302.23,743,784,0
2956111,308.55,743,781,0
2956121,313.18,743,785,0
2956131,316.00,743,781,0
2956141,317.41,743,786,0
2956151,317.50,743,781,0
2956161,316.67,743,786,0
2956171,315.10,743,781,0
2956181,313.14,743,787,0
2956191,310.91,743,781,0
2956201,308.79,743,787,0
2956211,306.80,743,781,0
2956221,305.27,743,788,0
2956231,304.16,743,781,0
2956241,303.60,743,788,0
2956251,303.51,743,781,0
2956261,303.95,743,787,0
2956271,304.74,743,781,0
2956281,305.97,743,787,0
2956291,307.40,743,781,0
2956301,309.12,743,787,0
2956311,310.88,743,781,0
2956321,312.76,743,787,0
2956332,314.59,743,781,0
2956342,316.56,743,786,0
2956352,318.62,743,780,0
2956362,321.22,743,785,0
2956372,324.92,743,780,0
2956382,331.03,743,786,0
2956392,341.09,743,781,0
2956402,357.35,743,789,0
2956412,381.80,743,781,0
2956431,416.02,773,780,0
2956434,458.53,773,781,0
2956443,505.90,773,785,0
2956453,555.09,773,781,0
2956463,603.19,773,786,0
2956473,647.10,773,781,0
2956483,684.02,773,786,0
2956493,711.83,773,781,0
2956503,731.29,773,786,0
2956513,744.96,773,781,0
2956523,754.57,773,784,0
2956533,761.30,773,781,0
2956544,766.01,773,784,0
2956553,769.31,773,780,0
2956563,771.62,773,784,0
2956573,773.23,773,781,0
2956583,774.36,773,785,0
2956593,775.15,773,780,0
2956603,775.71,773,785,0
2956613,776.09,773,780,0
2956623,776.37,773,785,0
2956633,776.56,773,781,0
2956643,776.69,773,786,0
2956653,776.05,773,781,0
2956663,769.78,773,787,0
2956673,755.06,773,781,0
2956683,730.01,773,788,0
2956693,693.92,773,781,0
2956703,647.15,773,789,0
2956713,590.57,773,782,0
2956723,526.54,773,789,0
2956733,461.41,773,782,0
2956743,399.70,773,790,0
2956753,344.85,773,782,0
2956763,299.04,773,789,0
2956773,263.07,773,781,0
2956783,237.12,773,787,0
2956793,220.24,773,781,0
2956803,211.51,773,788,0
2956813,209.43,773,780,0
2956823,212.69,773,786,0
2956833,219.72,773,781,0
2956844,229.36,773,785,0
2956854,240.27,773,781,0
2956864,251.55,773,785,0
2956874,262.35,773,781,0
2956884,272.23,773,785,0
2956894,280.65,773,780,0
2956904,287.57,773,786,0
2956914,292.80,773,781,0
2956924,296.54,773,785,0
2956934,298.91,773,781,0
2956944,300.14,773,787,0
2956954,300.44,773,782,0
2956964,300.09,773,786,0
2956974,299.21,773,781,0
2956984,298.12,773,786,0
2956994,296.88,773,781,0
2957004,295.80,773,786,0
2957015,294.92,773,782,0
2957025,294.34,773,785,0
2957035,294.15,773,782,0
2957045,294.45,773,785,0
2957056,295.17,773,782,0
2957065,296.32,773,786,0
2957075,297.77,773,782,0
2957085,299.51,773,785,0
2957095,301.41,773,783,0
2957105,303.48,773,786,0
2957115,305.56,773,783,0
2957125,307.58,773,786,0
2957135,309.50,773,783,0
2957145,311.32,773,786,0
2957155,313.16,773,782,0
2957165,315.29,773,785,0
2957175,318.16,773,782,0
2957185,322.61,773,784,0
2957195,330.10,773,781,0
2957205,342.63,773,784,0
2957215,362.37,773,782,0
2957235,391.36,803,781,0
2957238,430.72,803,785,0
2957247,476.71,803,782,0
2957257,526.17,803,784,0
2957267,576.09,803,782,0
2957277,623.42,803,783,0
2957287,665.16,803,783,0
2957297,698.63,803,784,0
2957307,722.05,803,782,0
2957317,738.45,803,784,0
2957327,749.97,803,783,0
2957337,758.08,803,785,0
2957347,763.76,803,782,0
2957357,767.73,803,783,0
2957367,770.51,803,782,0
2957377,772.46,803,784,0
2957387,773.82,803,782,0
2957398,774.77,803,784,0
2957407,775.44,803,783,0
2957417,775.91,803,784,0
2957427,776.24,803,782,0
2957437,776.47,803,785,0
2957447,776.63,803,783,0
2957457,776.74,803,785,0
2957467,776.82,803,783,0
2957477,771.77,803,785,0
2957487,758.51,803,783,0
2957497,734.92,803,784,0
2957507,700.14,803,783,0
2957517,654.41,803,785,0
2957527,598.83,803,783,0
2957537,534.64,803,784,0
2957547,468.45,803,783,0
2957557,405.01,803,785,0
2957568,348.05,803,782,0
2957577,299.91,803,784,0
2957587,261.62,803,782,0
2957597,233.19,803,783,0
2957607,214.15,803,781,0
2957617,203.48,803,783,0
2957627,199.86,803,781,0
2957637,201.92,803,783,0
2957647,208.20,803,781,0
2957657,217.35,803,782,0
2957667,228.09,803,781,0
2957677,239.46,803,782,0
2957687,250.72,803,781,0
2957697,261.26,803,782,0
2957707,270.61,803,781,0
2957717,278.53,803,783,0
2957727,284.88,803,781,0
2957737,289.68,803,783,0
2957747,292.99,803,782,0
2957757,294.96,803,783,0
2957767,295.79,803,782,0
2957777,295.72,803,784,0
2957787,294.95,803,782,0
2957797,293.76,803,783,0
2957807,292.42,803,782,0
2957817,291.14,803,783,0
2957827,290.02,803,782,0
2957837,289.33,803,782,0
2957847,289.10,803,781,0
2957857,289.42,803,783,0
2957868,290.19,803,781,0
2957878,291.46,803,783,0
2957888,293.04,803,781,0
2957898,295.00,803,784,0
2957908,297.10,803,781,0
2957918,299.34,803,784,0
2957928,301.60,803,781,0
2957938,303.86,803,784,0
2957948,305.96,803,781,0
2957958,307.99,803,783,0
2957968,309.79,803,781,0
2957978,311.44,803,784,0
2957988,312.94,803,781,0
2957998,314.45,803,784,0
2958008,316.25,803,781,0
2958018,319.09,803,785,0
2958028,323.90,803,782,0
2958039,332.50,803,788,0
2958049,346.80,803,782,0
2958068,369.06,834,781,0
2958071,402.08,834,781,0
2958081,444.23,834,790,0
2958091,491.90,834,782,0
2958101,542.16,834,788,0
2958111,591.78,834,781,0
2958121,637.92,834,788,0
2958131,677.54,834,781,0
2958141,707.25,834,788,0
2958151,728.09,834,781,0
2958161,742.72,834,788,0
2958171,752.96,834,782,0
2958181,760.17,834,789,0
2958191,765.22,834,782,0
2958201,768.75,834,789,0
2958211,771.23,834,782,0
2958221,772.96,834,790,0
2958231,774.17,834,782,0
2958241,775.02,834,789,0
2958252,775.61,834,781,0
2958262,776.03,834,786,0
2958272,776.32,834,780,0
2958282,776.52,834,784,0
2958292,776.67,834,781,0
2958302,774.75,834,786,0
2958312,766.04,834,781,0
2958322,747.69,834,788,0
2958332,718.21,834,781,0
2958342,677.77,834,789,0
2958352,626.76,834,781,0
2958362,566.32,834,787,0
2958372,499.92,834,781,0
2958382,434.16,834,789,0
2958392,373.47,834,782,0
2958402,320.96,834,790,0
2958412,277.81,834,782,0
2958423,244.91,834,790,0
2958433,222.05,834,783,0
2958443,208.49,834,790,0
2958453,202.86,834,784,0
2958464,203.76,834,789,0
2958473,209.57,834,782,0
2958483,218.96,834,787,0
2958493,230.41,834,782,0
2958503,242.76,834,785,0
2958513,254.88,834,781,0
2958523,266.10,834,785,0
2958533,275.93,834,781,0
2958543,284.13,834,784,0
2958553,290.44,834,781,0
2958563,295.02,834,784,0
2958573,297.93,834,781,0
2958583,299.58,834,784,0
2958593,300.05,834,781,0
2958603,299.69,834,784,0
2958613,298.67,834,781,0
2958623,297.40,834,784,0
2958633,295.95,834,781,0
2958643,294.64,834,783,0
2958653,293.46,834,781,0
2958663,292.68,834,784,0
2958673,292.26,834,781,0
2958683,292.40,834,785,0
2958693,292.96,834,781,0
2958703,294.05,834,785,0
2958713,295.45,834,781,0
2958723,297.24,834,785,0
2958733,299.23,834,781,0
2958743,301.47,834,784,0
2958753,303.77,834,781,0
2958764,306.11,834,784,0
2958774,308.35,834,781,0
2958784,310.60,834,784,0
2958794,312.86,834,782,0
2958804,315.43,834,784,0
2958814,318.60,834,781,0
2958824,323.39,834,784,0
2958834,331.12,834,782,0
2958844,343.64,834,784,0
2958854,362.56,834,781,0
2958873,389.87,805,781,0
2958876,427.79,805,784,0
2958885,472.77,805,782,0
2958895,521.44,805,782,0
2958905,570.81,805,783,0
2958915,617.88,805,782,0
2958925,660.17,805,783,0
2958935,695.05,805,781,0
2958945,719.63,805,783,0
2958955,736.84,805,781,0
2958965,748.89,805,781,0
2958976,757.32,805,780,0
2958985,763.23,805,781,0
2958995,767.36,805,780,0
2959005,770.25,805,781,0
2959015,772.28,805,780,0
2959025,773.69,805,780,0
2959035,774.69,805,780,0
2959045,775.38,805,780,0
2959055,775.87,805,779,0
2959065,775.01,805,780,0
2959075,768.40,805,780,0
2959085,753.15,805,780,0
2959095,727.57,805,780,0
2959105,691.57,805,781,0
2959115,645.24,805,780,0
2959125,589.37,805,780,0
2959135,526.47,805,779,0
2959145,462.56,805,780,0
2959155,402.22,805,780,0
2959165,348.75,805,780,0
2959175,303.74,805,779,0
2959185,268.42,805,781,0
2959195,242.96,805,781,0
2959205,226.86,805,782,0
2959215,219.10,805,782,0
2959225,218.30,805,783,0
2959235,222.92,805,783,0
2959245,231.43,805,787,0
2959255,242.40,805,788,0
2959265,254.54,805,788,0
2959276,266.85,805,789,0
2959286,278.38,805,786,0
2959296,288.59,805,789,0
2959306,297.12,805,785,0
2959316,303.85,805,790,0
2959326,308.70,805,787,0
2959336,311.92,805,790,0
2959346,313.44,805,787,0
2959356,313.78,805,792,0
2959366,313.03,805,789,0
2959376,311.65,805,791,0
2959386,309.66,805,789,0
2959396,307.49,805,792,0
2959406,305.16,805,790,0
2959416,303.18,805,792,0
2959426,301.41,805,789,0
2959436,300.26,805,791,0
2959447,299.50,805,786,0
2959457,299.39,805,791,0
2959467,299.62,805,786,0
2959477,300.37,805,792,0
2959488,301.33,805,785,0
2959497,302.65,805,791,0
2959507,303.95,805,786,0
2959517,305.47,805,792,0
2959527,307.00,805,784,0
2959537,308.76,805,790,0
2959547,310.59,805,785,0
2959557,312.85,805,791,0
2959567,315.81,805,785,0
2959577,320.33,805,791,0
2959587,327.51,805,785,0
2959597,339.27,805,790,0
2959607,357.41,805,784,0
2959617,383.60,805,789,0
2959636,419.33,763,789,0
2959639,462.90,763,791,0
2959648,510.93,763,784,0
2959659,560.28,763,792,0
2959668,607.85,763,785,0
2959678,650.84,763,793,0
2959688,686.89,763,785,0
2959698,713.79,763,793,0
2959708,732.63,763,785,0
2959718,745.81,763,792,0
2959728,755.08,763,784,0
2959738,761.57,763,793,0
2959748,766.11,763,785,0
2959758,769.34,763,793,0
2959768,771.64,763,786,0
2959778,773.20,763,793,0
2959788,774.26,763,786,0
2959798,774.99,763,793,0
2959808,775.51,763,785,0
2959818,775.83,763,793,0
2959828,773.39,763,785,0
2959838,764.79,763,793,0
2959848,747.07,763,786,0
2959858,718.93,763,793,0
2959868,679.82,763,785,0
2959878,630.55,763,793,0
2959888,571.97,763,785,0
2959898,508.08,763,792,0
2959908,443.90,763,784,0
2959918,384.23,763,793,0
2959928,331.87,763,785,0
2959938,288.88,763,793,0
2959948,255.62,763,785,0
2959959,232.38,763,793,0
2959969,218.42,763,784,0
2959979,212.68,763,793,0
2959989,213.59,763,784,0
2960000,219.71,763,792,0
2960009,229.31,763,784,0
2960019,241.09,763,792,0
2960029,253.62,763,783,0
2960039,266.03,763,793,0
2960049,277.47,763,784,0
2960059,287.53,763,792,0
2960069,295.77,763,783,0
2960079,302.27,763,790,0
2960089,306.90,763,782,0
2960099,309.89,763,789,0
2960109,311.25,763,782,0
2960119,311.39,763,790,0
2960129,310.37,763,783,0
2960139,308.68,763,791,0
2960149,306.42,763,783,0
2960159,303.98,763,792,0
2960169,301.50,763,783,0
2960179,299.33,763,792,0
2960189,297.48,763,783,0
2960199,296.18,763,793,0
2960209,295.40,763,783,0
2960219,295.32,763,792,0
2960229,295.78,763,783,0
2960239,296.83,763,792,0
2960249,298.21,763,783,0
2960259,300.03,763,791,0
2960269,302.04,763,783,0
2960279,304.17,763,792,0
2960289,306.22,763,783,0
2960300,308.30,763,792,0
2960310,310.18,763,782,0
2960320,312.05,763,791,0
2960330,313.84,763,782,0
2960340,315.90,763,791,0
2960350,318.46,763,782,0
2960360,322.26,763,791,0
2960370,328.44,763,782,0
2960380,338.90,763,792,0
2960390,355.30,763,783,0
2960409,379.81,773,782,0
2960412,415.01,773,783,0
2960421,458.29,773,791,0
2960431,506.33,773,783,0
2960441,556.03,773,792,0
2960451,604.37,773,783,0
2960461,648.66,773,793,0
2960471,686.05,773,785,0
2960481,713.25,773,794,0
2960491,732.33,773,785,0
2960501,745.69,773,794,0
2960512,755.08,773,788,0
2960521,761.66,773,794,0
2960531,766.26,773,787,0
2960541,769.48,773,794,0
2960551,771.74,773,787,0
2960561,773.32,773,794,0
2960571,774.42,773,786,0
2960581,775.19,773,794,0
2960591,775.69,773,787,0
2960601,776.04,773,794,0
2960611,776.29,773,787,0
2960621,776.46,773,794,0
2960631,773.79,773,788,0
2960641,764.51,773,794,0
2960651,745.76,773,788,0
2960661,716.17,773,794,0
2960671,675.49,773,788,0
2960681,624.22,773,794,0
2960691,563.72,773,788,0
2960701,498.23,773,794,0
2960711,433.19,773,789,0
2960721,373.09,773,794,0
2960731,320.99,773,788,0
2960741,278.52,773,794,0
2960751,246.44,773,788,0
2960761,224.19,773,794,0
2960771,211.06,773,786,0
2960781,205.82,773,794,0
2960791,207.11,773,786,0
2960801,213.29,773,793,0
2960812,222.89,773,786,0
2960822,234.41,773,793,0
2960832,246.80,773,787,0
2960842,258.99,773,793,0
2960852,270.39,773,786,0
2960862,280.35,773,793,0
2960872,288.69,773,785,0
2960882,295.12,773,792,0
2960892,299.80,773,788,0
2960902,302.73,773,793,0
2960912,304.27,773,787,0
2960922,304.45,773,793,0
2960932,303.71,773,787,0
2960942,302.26,773,793,0
2960952,300.55,773,785,0
2960962,298.67,773,791,0
2960972,296.93,773,785,0
2960983,295.41,773,790,0
2960993,294.38,773,785,0
2961003,293.75,773,790,0
2961013,293.66,773,786,0
2961024,293.97,773,789,0
2961033,294.80,773,785,0
2961043,296.01,773,789,0
2961053,297.60,773,785,0
2961063,299.39,773,788,0
2961073,301.37,773,783,0
2961083,303.40,773,788,0
2961093,305.43,773,784,0
2961103,307.35,773,788,0
2961113,309.18,773,784,0
2961123,310.88,773,788,0
2961133,312.63,773,784,0
2961143,314.63,773,788,0
2961153,317.27,773,783,0
2961163,321.43,773,788,0
2961173,328.54,773,783,0
2961183,340.47,773,787,0
2961193,359.36,773,784,0
2961212,386.76,803,782,0
2961215,425.11,803,787,0
2961224,470.55,803,785,0
2961234,519.84,803,785,0
2961244,569.90,803,786,0
2961254,617.72,803,785,0
2961264,660.27,803,786,0
2961274,695.29,803,786,0
2961284,719.80,803,787,0
2961294,736.96,803,784,0
2961304,748.97,803,785,0
2961314,757.38,803,785,0
2961324,763.27,803,786,0
2961334,767.39,803,784,0
2961344,770.27,803,786,0
2961354,772.29,803,785,0
2961364,773.66,803,784,0
2961374,774.62,803,783,0
2961384,775.29,803,784,0
2961394,775.76,803,783,0
2961404,776.09,803,783,0
2961414,776.32,803,782,0
2961424,776.48,803,784,0
2961434,773.89,803,783,0
2961444,764.24,803,783,0
2961454,745.31,803,782,0
2961464,715.69,803,784,0
2961474,675.03,803,783,0
2961484,623.80,803,783,0
2961495,563.18,803,783,0
2961505,497.42,803,783,0
2961515,432.54,803,784,0
2961525,372.42,803,783,0
2961536,320.22,803,785,0
2961545,277.60,803,783,0
2961555,245.28,803,784,0
2961565,223.04,803,783,0
2961575,210.04,803,785,0
2961585,204.88,803,784,0
2961595,206.12,803,784,0
2961605,212.08,803,783,0
2961615,221.44,803,786,0
2961625,232.75,803,784,0
2961635,244.91,803,785,0
2961645,256.85,803,783,0
2961655,268.00,803,786,0
2961665,277.81,803,784,0
2961675,286.05,803,786,0
2961685,292.51,803,784,0
2961695,297.33,803,787,0
2961705,300.49,803,784,0
2961715,302.36,803,786,0
2961725,303.06,803,784,0
2961735,302.92,803,786,0
2961745,302.08,803,783,0
2961755,300.86,803,785,0
2961765,299.36,803,784,0
2961775,297.84,803,786,0
2961785,296.34,803,783,0
2961795,295.08,803,785,0
2961805,294.12,803,784,0
2961815,293.57,803,786,0
2961825,293.44,803,783,0
2961836,293.82,803,786,0
2961846,294.65,803,782,0
2961856,295.95,803,788,0
2961866,297.60,803,783,0
2961876,299.60,803,790,0
2961886,301.74,803,784,0
2961896,304.04,803,790,0
2961906,306.30,803,784,0
2961916,308.57,803,791,0
2961926,310.63,803,785,0
2961936,312.62,803,791,0
2961946,314.37,803,785,0
2961956,316.14,803,792,0
2961966,317.81,803,786,0
2961976,319.88,803,792,0
2961986,322.70,803,786,0
2961996,327.46,803,792,0
2962007,335.55,803,785,0
2962026,349.23,814,784,0
2962029,371.19,814,784,0
2962038,402.85,814,793,0
2962049,443.78,814,785,0
2962059,490.65,814,793,0
2962069,540.29,814,784,0
2962079,589.79,814,793,0
2962089,635.97,814,784,0
2962099,675.19,814,793,0
2962109,705.65,814,782,0
2962119,727.01,814,790,0
2962129,741.97,814,782,0
2962139,752.43,814,789,0
2962149,759.72,814,781,0
2962159,764.82,814,788,0
2962169,768.43,814,781,0
2962179,770.96,814,787,0
2962189,772.73,814,781,0
2962199,773.97,814,789,0
2962209,774.83,814,781,0
2962220,775.48,814,790,0
2962230,775.94,814,782,0
2962240,776.26,814,791,0
2962250,773.35,814,783,0
2962260,763.39,814,791,0
2962270,744.37,814,782,0
2962280,715.03,814,791,0
2962290,675.08,814,782,0
2962300,625.13,814,790,0
2962310,566.33,814,782,0
2962320,503.28,814,790,0
2962330,441.35,814,782,0
2962340,384.24,814,788,0
2962350,334.63,814,781,0
2962360,294.28,814,788,0
2962370,263.68,814,781,0
2962380,242.65,814,786,0
2962391,230.37,814,781,0
2962401,225.76,814,786,0
2962411,227.29,814,781,0
2962421,233.67,814,786,0
2962432,243.20,814,781,0
2962441,254.67,814,787,0
2962451,266.77,814,782,0
2962461,278.62,814,786,0
2962471,289.45,814,781,0
2962481,298.87,814,786,0
2962491,306.45,814,781,0
2962501,312.27,814,786,0
2962511,316.26,814,781,0
2962521,318.76,814,787,0
2962531,319.73,814,781,0
2962541,319.51,814,786,0
2962551,318.29,814,781,0
2962561,316.49,814,786,0
2962571,314.28,814,781,0
2962581,311.97,814,786,0
2962591,309.62,814,782,0
2962601,307.64,814,786,0
2962611,306.03,814,782,0
2962621,304.95,814,788,0
2962631,304.36,814,782,0
2962641,304.30,814,787,0
2962651,304.68,814,782,0
2962661,305.46,814,788,0
2962671,306.52,814,782,0
2962681,307.87,814,787,0
2962691,309.36,814,782,0
2962701,310.97,814,788,0
2962711,312.56,814,782,0
2962721,314.15,814,787,0
2962732,315.78,814,782,0
2962742,317.60,814,787,0
2962752,319.95,814,783,0
2962762,323.52,814,787,0
2962772,329.58,814,785,0
2962782,339.52,814,789,0
2962792,355.26,814,784,0
2962802,378.76,814,789,0
2962822,411.57,795,787,0
2962825,453.19,795,784,0
2962834,500.02,795,786,0
2962844,548.83,795,785,0
2962854,596.88,795,788,0
2962864,641.19,795,787,0
2962874,679.06,795,787,0
2962884,708.31,795,785,0
2962894,728.75,795,787,0
2962904,743.05,795,785,0
2962914,753.02,795,784,0
2962924,759.96,795,784,0
2962934,764.86,795,786,0
2962945,768.33,795,783,0
2962955,770.76,795,787,0
2962965,772.50,795,783,0
2962975,773.77,795,785,0
2962985,774.69,795,782,0
2962995,775.39,795,783,0
2963005,773.43,795,781,0
2963015,764.98,795,784,0
2963025,747.46,795,782,0
2963035,719.94,795,784,0
2963045,681.90,795,782,0
2963055,633.71,795,786,0
2963065,576.29,795,783,0
2963075,513.54,795,789,0
2963085,450.72,795,785,0
2963095,392.22,795,791,0
2963105,340.47,795,786,0
2963116,297.60,795,791,0
2963126,264.42,795,784,0
2963136,241.19,795,792,0
2963146,226.99,795,785,0
2963156,221.12,795,793,0
2963166,221.90,795,786,0
2963176,228.06,795,793,0
2963186,237.81,795,786,0
2963196,249.87,795,793,0
2963206,262.68,795,787,0
2963216,275.50,795,793,0
2963226,287.27,795,786,0
2963236,297.69,795,794,0
2963246,306.18,795,787,0
2963256,312.86,795,793,0
2963266,317.53,795,787,0
2963276,320.54,795,793,0
2963287,321.88,795,786,0
2963297,321.96,795,794,0
2963307,320.90,795,787,0
2963317,319.13,795,794,0
2963328,316.73,795,786,0
2963337,314.16,795,794,0
2963347,311.45,795,786,0
2963357,309.05,795,794,0
2963367,306.97,795,786,0
2963377,305.44,795,793,0
2963387,304.41,795,786,0
2963397,303.99,795,794,0
2963407,303.99,795,785,0
2963417,304.55,795,794,0
2963427,305.37,795,786,0
2963437,306.55,795,794,0
2963447,307.84,795,785,0
2963457,309.34,795,794,0
2963467,310.83,795,787,0
2963477,312.42,795,794,0
2963487,313.97,795,787,0
2963497,315.73,795,794,0
2963507,317.70,795,788,0
2963517,320.58,795,794,0
2963527,325.03,795,789,0
2963537,332.65,795,794,0
2963547,344.80,795,789,0
2963557,363.67,795,795,0
2963567,391.03,795,789,0
2963587,428.43,765,788,0
2963590,472.92,765,789,0
2963599,521.24,765,794,0
2963609,570.20,765,787,0
2963619,617.20,765,794,0
2963629,659.22,765,787,0
2963639,693.74,765,794,0
2963649,718.68,765,787,0
2963659,736.13,765,795,0
2963670,748.35,765,787,0
2963679,756.94,765,794,0
2963689,762.96,765,786,0
2963699,767.17,765,794,0
2963709,770.12,765,786,0
2963719,772.18,765,794,0
2963729,773.63,765,786,0
2963739,774.64,765,794,0
2963749,775.35,765,786,0
2963759,775.84,765,794,0
2963769,776.19,765,786,0
2963779,775.10,765,794,0
2963789,768.22,765,785,0
2963799,753.07,765,793,0
2963809,727.80,765,785,0
2963819,691.86,765,794,0
2963829,645.45,765,786,0
2963840,589.43,765,794,0
2963849,526.64,765,786,0
2963859,463.02,765,794,0
2963869,402.67,765,786,0
2963879,349.03,765,794,0
2963889,304.10,765,785,0
2963899,268.97,765,794,0
2963909,243.82,765,786,0
2963919,227.89,765,794,0
2963929,220.12,765,786,0
2963939,219.19,765,794,0
2963949,223.67,765,785,0
2963959,232.09,765,794,0
2963969,242.95,765,785,0
2963979,255.00,765,793,0
2963989,267.22,765,785,0
2963999,278.81,765,793,0
2964009,289.20,765,785,0
2964019,297.97,765,793,0
2964029,304.92,765,784,0
2964039,310.09,765,793,0
2964049,313.49,765,784,0
2964059,315.36,765,793,0
2964069,315.89,765,784,0
2964079,315.32,765,793,0
2964089,313.98,765,784,0
2964099,312.10,765,793,0
2964109,309.93,765,784,0
2964119,307.76,765,793,0
2964129,305.74,765,785,0
2964140,304.01,765,793,0
2964150,302.81,765,785,0
2964160,302.05,765,793,0
2964170,301.87,765,786,0
2964180,302.08,765,793,0
2964190,302.70,765,786,0
2964200,303.69,765,793,0
2964210,304.98,765,787,0
2964220,306.40,765,793,0
2964230,308.00,765,786,0
2964240,309.63,765,793,0
2964250,311.41,765,786,0
2964260,313.26,765,792,0
2964270,315.32,765,785,0
2964280,317.84,765,793,0
2964290,321.57,765,785,0
2964300,327.62,765,790,0
2964311,337.72,765,783,0
2964321,353.87,765,787,0
2964331,378.13,765,782,0
2964350,412.16,764,781,0
2964354,454.75,764,785,0
2964363,502.40,764,784,0
2964373,551.99,764,784,0
2964383,600.42,764,784,0
2964393,644.78,764,784,0
2964403,682.31,764,784,0
2964413,710.67,764,784,0
2964423,730.53,764,784,0
2964433,744.43,764,784,0
2964443,754.16,764,783,0
2964453,761.01,764,782,0
2964463,765.81,764,782,0
2964473,769.16,764,782,0
2964483,771.51,764,783,0
2964493,773.16,764,782,0
2964503,774.31,764,782,0
2964513,775.12,764,783,0
2964524,775.68,764,783,0
2964534,776.08,764,783,0
2964544,776.35,764,783,0
2964554,776.55,764,785,0
2964564,772.36,764,782,0
2964574,760.55,764,784,0
2964584,738.74,764,782,0
2964594,705.95,764,785,0
2964604,662.08,764,782,0
2964614,608.18,764,784,0
2964624,545.43,764,783,0
2964634,479.73,764,785,0
2964644,415.95,764,782,0
2964654,358.24,764,783,0
2964664,309.05,764,781,0
2964674,269.91,764,782,0
2964684,240.79,764,781,0
2964695,221.44,764,782,0
2964705,210.81,764,781,0
2964715,207.69,764,782,0
2964725,210.49,764,780,0
2964736,217.75,764,781,0
2964745,227.90,764,780,0
2964755,239.72,764,781,0
2964765,251.97,764,781,0
2964775,263.98,764,784,0
2964785,274.91,764,782,0
2964795,284.37,764,790,0
2964805,291.97,764,786,0
2964815,297.81,764,794,0
2964825,301.85,764,788,0
2964835,304.38,764,793,0
2964845,305.42,764,787,0
2964855,305.43,764,794,0
2964865,304.57,764,788,0
2964875,303.37,764,794,0
2964885,301.84,764,788,0
2964895,300.43,764,793,0
2964905,299.06,764,787,0
2964915,298.06,764,794,0
2964925,297.35,764,781,0
2964935,297.25,764,779,0
2964945,297.52,764,779,0
2964955,298.26,764,777,0
2964965,299.25,764,779,0
2964975,300.59,764,778,0
2964985,302.00,764,778,0
2964995,303.54,764,778,0
2965005,305.01,764,779,0
2965015,306.46,764,778,0
2965025,307.82,764,778,0
2965036,309.21,764,777,0
2965046,310.64,764,780,0
2965056,312.51,764,782,0
2965066,315.18,764,781,0
2965076,319.50,764,791,0
2965086,326.55,764,785,0
2965096,338.26,764,794,0
2965106,356.52,764,787,0
2965116,383.49,764,794,0
2965135,420.20,785,794,0
2965138,464.50,785,795,0
2965147,512.99,785,787,0
2965157,562.71,785,794,0
2965167,610.58,785,789,0
2965177,653.69,785,794,0
2965187,689.27,785,785,0
2965197,715.50,785,793,0
2965207,733.82,785,785,0
2965217,746.65,785,794,0
2965227,755.67,785,786,0
2965237,761.98,785,794,0
2965248,766.40,785,787,0
2965257,769.50,785,794,0
2965267,771.70,785,788,0
2965277,773.29,785,794,0
2965287,774.40,785,788,0
2965297,775.18,785,795,0
2965307,775.73,785,788,0
2965317,776.07,785,794,0
2965327,776.30,785,787,0
2965337,776.47,785,794,0
2965347,772.00,785,788,0
2965357,759.40,785,794,0
2965367,736.48,785,788,0
2965377,702.86,785,794,0
2965387,658.59,785,788,0
2965397,604.33,785,794,0
2965407,541.36,785,789,0
2965417,475.89,785,794,0
2965427,413.18,785,788,0
2965437,357.07,785,794,0
2965447,309.44,785,789,0
2965457,271.72,785,794,0
2965467,244.12,785,789,0
2965477,226.30,785,794,0
2965487,217.16,785,789,0
2965497,215.32,785,795,0
2965507,219.16,785,789,0
2965517,227.30,785,795,0
2965527,238.10,785,788,0
2965537,250.45,785,794,0
2965548,263.13,785,789,0
2965558,275.26,785,794,0
2965568,286.16,785,788,0
2965578,295.54,785,794,0
2965588,303.05,785,789,0
2965598,308.69,785,795,0
2965608,312.43,785,788,0
2965618,314.48,785,794,0
2965628,315.11,785,789,0
2965638,314.69,785,795,0
2965648,313.50,785,789,0
2965658,311.81,785,794,0
2965668,309.89,785,789,0
2965678,308.04,785,794,0
2965688,306.40,785,789,0
2965698,305.12,785,794,0
2965708,304.31,785,789,0
2965719,303.88,785,794,0
2965729,303.96,785,788,0
2965739,304.44,785,795,0
2965749,305.29,785,790,0
2965760,306.45,785,794,0
2965769,307.86,785,790,0
2965779,309.40,785,794,0
2965789,311.25,785,791,0
2965799,313.49,785,794,0
2965809,316.60,785,790,0
2965819,321.43,785,794,0
2965829,329.40,785,791,0
2965839,342.23,785,794,0
2965849,361.49,785,790,0
2965859,389.11,785,794,0
2965869,426.66,785,791,0
2965889,471.34,753,790,0
2965892,519.84,753,793,0
2965901,569.00,753,794,0
2965911,615.89,753,793,0
2965921,658.05,753,794,0
2965932,692.83,753,793,0
2965942,718.04,753,794,0
2965952,735.73,753,793,0
2965962,748.11,753,793,0
2965972,756.78,753,794,0
2965982,762.80,753,793,0
2965992,767.02,753,792,0
2966002,769.97,753,792,0
2966012,772.04,753,792,0
2966022,773.48,753,791,0
2966032,774.49,753,788,0
2966042,775.20,753,787,0
2966052,775.74,753,788,0
2966062,776.12,753,787,0
2966072,773.26,753,784,0
2966082,763.19,753,784,0
2966092,743.42,753,783,0
2966103,712.78,753,783,0
2966113,671.19,753,784,0
2966123,619.23,753,783,0
2966133,558.18,753,785,0
2966144,492.64,753,783,0
2966153,428.42,753,786,0
2966163,369.71,753,784,0
2966173,319.27,753,787,0
2966183,278.51,753,784,0
2966193,248.06,753,787,0
2966203,227.47,753,784,0
2966213,216.06,753,787,0
2966223,212.36,753,784,0
2966233,214.91,753,786,0
2966243,222.09,753,784,0
2966253,232.52,753,788,0
2966263,244.66,753,784,0
2966273,257.49,753,786,0
2966283,269.82,753,784,0
2966293,281.01,753,787,0
2966303,290.57,753,784,0
2966313,298.37,753,789,0
2966323,304.17,753,785,0
2966333,308.23,753,789,0
2966343,310.52,753,787,0
2966353,311.48,753,792,0
2966363,311.25,753,787,0
2966373,310.23,753,788,0
2966383,308.49,753,788,0
2966393,306.50,753,793,0
2966403,304.29,753,791,0
2966413,302.28,753,794,0
2966423,300.35,753,792,0
2966433,298.92,753,794,0
2966444,297.83,753,792,0
2966454,297.32,753,794,0
2966464,297.14,753,792,0
2966474,297.48,753,794,0
2966484,298.11,753,792,0
2966494,299.23,753,794,0
2966504,300.54,753,792,0
2966514,302.35,753,794,0
2966524,304.69,753,792,0
2966534,308.34,753,794,0
2966544,314.06,753,792,0
2966554,323.56,753,794,0
2966564,338.48,753,792,0
2966574,360.66,753,794,0
2966584,391.96,753,793,0
2966594,433.20,753,795,0
2966614,480.50,725,794,0
2966617,530.71,725,795,0
2966626,580.59,725,791,0
2966636,627.30,725,795,0
2966646,668.27,725,791,0
2966657,700.80,725,795,0
2966667,723.58,725,791,0
2966677,739.52,725,795,0
2966687,750.68,725,791,0
2966697,758.53,725,794,0
2966707,764.03,725,791,0
2966717,767.88,725,794,0
2966727,770.61,725,790,0
2966737,772.53,725,795,0
2966747,773.87,725,791,0
2966757,774.81,725,794,0
2966767,775.47,725,791,0
2966777,775.93,725,795,0
2966787,776.21,725,790,0
2966797,776.40,725,794,0
2966807,775.98,725,791,0
2966817,769.90,725,794,0
2966828,754.76,725,791,0
2966838,728.82,725,795,0
2966848,691.54,725,791,0
2966858,643.38,725,795,0
2966868,585.28,725,791,0
2966878,519.45,725,794,0
2966888,452.55,725,791,0
2966898,389.73,725,794,0
2966908,334.39,725,791,0
2966918,288.50,725,794,0
2966928,252.95,725,791,0
2966938,227.77,725,794,0
2966948,212.02,725,791,0
2966958,204.52,725,795,0
2966968,203.80,725,791,0
2966978,208.32,725,794,0
2966988,216.67,725,791,0
2966999,227.40,725,794,0
2967009,239.23,725,792,0
2967019,251.12,725,794,0
2967029,262.40,725,792,0
2967040,272.52,725,794,0
2967049,281.15,725,791,0
2967059,288.01,725,794,0
2967069,293.10,725,792,0
2967079,296.46,725,794,0
2967089,298.42,725,791,0
2967099,299.15,725,794,0
2967109,298.93,725,792,0
2967119,298.05,725,795,0
2967129,296.84,725,791,0
2967139,295.43,725,795,0
2967149,294.19,725,792,0
2967159,293.06,725,795,0
2967169,292.23,725,791,0
2967179,291.73,725,794,0
2967189,291.60,725,792,0
2967199,291.80,725,794,0
2967209,292.38,725,792,0
2967219,293.16,725,794,0
2967229,294.23,725,792,0
2967239,295.53,725,795,0
2967249,297.09,725,792,0
2967259,298.90,725,794,0
2967269,301.33,725,791,0
2967279,305.00,725,794,0
2967289,311.09,725,792,0
2967299,320.92,725,794,0
2967309,336.54,725,792,0
2967319,360.04,725,794,0
2967329,393.67,725,792,0
2967340,436.58,725,795,0
2967359,485.14,746,794,0
2967362,536.05,746,794,0
2967371,586.48,746,794,0
2967382,633.31,746,794,0
2967391,673.63,746,793,0
2967401,704.60,746,794,0
2967411,726.32,746,794,0
2967421,741.52,746,794,0
2967431,752.17,746,793,0
2967441,759.62,746,794,0
2967451,764.83,746,794,0
2967461,768.48,746,794,0
2967471,771.04,746,793,0
2967481,772.83,746,794,0
2967491,774.08,746,794,0
2967501,774.95,746,794,0
2967511,775.57,746,793,0
2967521,776.00,746,794,0
2967531,776.30,746,794,0
2967541,776.51,746,794,0
2967552,776.66,746,794,0
2967561,776.72,746,794,0
2967571,776.76,746,794,0
2967581,771.13,746,794,0
2967591,756.22,746,794,0
2967601,730.44,746,794,0
2967611,693.11,746,794,0
2967621,644.39,746,794,0
2967631,585.47,746,794,0
2967641,517.83,746,794,0
2967651,448.80,746,794,0
2967661,383.63,746,794,0
2967671,325.67,746,794,0
2967681,277.04,746,794,0
2967691,238.93,746,794,0
2967701,211.18,746,794,0
2967711,193.17,746,794,0
2967721,183.69,746,794,0
2967731,181.47,746,794,0
2967741,184.88,746,794,0
2967751,192.59,746,794,0
2967761,203.00,746,794,0
2967771,215.04,746,794,0
2967781,227.46,746,795,0
2967791,239.62,746,794,0
2967801,250.75,746,794,0
2967811,260.55,746,794,0
2967821,268.66,746,794,0
2967831,275.15,746,794,0
2967841,279.82,746,794,0
2967852,283.04,746,794,0
2967862,284.83,746,794,0
2967872,285.65,746,794,0
2967882,285.63,746,793,0
2967892,285.18,746,794,0
2967902,284.40,746,794,0
2967912,283.68,746,794,0
2967922,283.00,746,794,0
2967932,282.66,746,794,0
2967942,282.55,746,794,0
2967952,282.85,746,794,0
2967962,283.37,746,793,0
2967972,284.24,746,794,0
2967982,285.33,746,794,0
2967992,286.73,746,794,0
2968002,288.18,746,794,0
2968012,289.84,746,795,0
2968023,291.56,746,793,0
2968033,293.71,746,794,0
2968043,296.49,746,793,0
2968053,300.93,746,794,0
2968064,308.11,746,792,0
2968073,319.78,746,795,0
2968083,337.84,746,793,0
2968093,364.85,746,795,0
2968103,402.65,746,793,0
2968122,448.61,763,792,0
2968125,499.04,763,792,0
2968134,550.84,763,795,0
2968144,601.08,763,792,0
2968154,646.78,763,795,0
2968164,684.78,763,792,0
2968174,712.44,763,794,0
2968184,731.81,763,792,0
2968194,745.37,763,795,0
2968204,754.86,763,792,0
2968214,761.50,763,794,0
2968224,766.15,763,792,0
2968235,769.40,763,795,0
2968244,771.68,763,792,0
2968254,773.28,763,795,0
2968264,774.39,763,792,0
2968274,775.18,763,794,0
2968284,775.72,763,792,0
2968294,776.11,763,794,0
2968304,776.37,763,791,0
2968314,776.56,763,795,0
2968324,776.69,763,792,0
2968334,776.74,763,794,0
2968344,776.78,763,792,0
2968354,774.83,763,795,0
2968364,766.31,763,792,0
2968374,747.96,763,794,0
2968384,718.06,763,791,0
2968394,676.34,763,794,0
2968404,623.35,763,790,0
2968414,560.46,763,795,0
2968424,491.07,763,790,0
2968434,421.57,763,794,0
2968444,356.90,763,790,0
2968454,300.57,763,794,0
2968464,254.20,763,791,0
2968474,218.66,763,794,0
2968484,193.39,763,790,0
2968494,177.80,763,795,0
2968504,170.49,763,791,0
2968514,170.21,763,794,0
2968524,175.16,763,790,0
2968535,184.07,763,794,0
2968545,195.32,763,790,0
2968555,207.91,763,795,0
2968565,220.67,763,789,0
2968576,232.94,763,794,0
2968585,243.97,763,789,0
2968595,253.58,763,795,0
2968605,261.42,763,789,0
2968615,267.55,763,794,0
2968625,271.89,763,789,0
2968635,274.79,763,795,0
2968645,276.40,763,789,0
2968655,277.09,763,794,0
2968665,277.06,763,789,0
2968675,276.70,763,795,0
2968685,276.15,763,789,0
2968695,275.68,763,794,0
2968705,275.30,763,789,0
2968715,275.25,763,794,0
2968725,275.48,763,788,0
2968735,276.06,763,794,0
2968745,276.82,763,789,0
2968755,277.90,763,795,0
2968765,279.22,763,789,0
2968775,280.74,763,794,0
2968785,282.32,763,789,0
2968795,284.06,763,795,0
2968805,285.89,763,789,0
2968815,288.11,763,795,0
2968825,290.82,763,789,0
2968835,294.73,763,794,0
2968845,300.94,763,789,0
2968855,311.20,763,794,0
2968865,327.34,763,789,0
2968876,351.71,763,795,0
2968886,386.30,763,789,0
2968896,430.35,763,795,0
2968915,480.13,793,794,0
2968919,532.38,793,794,0
2968927,583.86,793,789,0
2968937,631.60,793,795,0
2968947,672.52,793,789,0
2968957,703.87,793,795,0
2968967,725.81,793,789,0
2968977,741.16,793,795,0
2968987,751.92,793,789,0
2968997,759.44,793,795,0
2969007,764.71,793,789,0
2969017,768.40,793,795,0
2969027,770.98,793,789,0
2969037,772.78,793,795,0
2969047,774.05,793,789,0
2969057,774.93,793,794,0
2969067,775.55,793,790,0
2969077,775.99,793,794,0
2969088,776.29,793,791,0
2969097,776.50,793,795,0
2969107,776.65,793,790,0
2969117,776.76,793,795,0
2969127,771.26,793,790,0
2969137,757.04,793,795,0
2969147,731.91,793,790,0
2969157,695.17,793,795,0
2969167,647.12,793,790,0
2969177,588.92,793,794,0
2969187,522.00,793,789,0
2969197,453.52,793,794,0
2969207,388.39,793,790,0
2969217,330.46,793,794,0
2969227,282.02,793,789,0
2969237,244.00,793,795,0
2969247,216.31,793,789,0
2969257,198.31,793,794,0
2969267,188.87,793,789,0
2969277,186.55,793,794,0
2969287,189.86,793,789,0
2969297,197.19,793,794,0
2969307,207.16,793,789,0
2969317,218.47,793,795,0
2969327,230.16,793,789,0
2969337,241.47,793,794,0
2969347,251.78,793,789,0
2969357,260.72,793,794,0
2969367,268.09,793,790,0
2969377,273.85,793,794,0
2969388,278.09,793,790,0
2969398,280.85,793,794,0
2969408,282.44,793,791,0
2969418,282.99,793,794,0
2969428,282.87,793,790,0
2969438,282.22,793,794,0
2969448,281.38,793,790,0
2969458,280.50,793,794,0
2969468,279.83,793,790,0
2969478,279.33,793,794,0
2969488,279.27,793,789,0
2969498,279.49,793,794,0
2969508,280.11,793,790,0
2969518,280.98,793,794,0
2969528,282.10,793,789,0
2969538,283.40,793,795,0
2969548,285.04,793,790,0
2969559,287.00,793,794,0
2969569,289.91,793,790,0
2969579,294.40,793,794,0
2969589,301.91,793,791,0
2969600,314.06,793,794,0
2969609,332.64,793,790,0
2969619,359.75,793,794,0
2969629,397.58,793,791,0
2969639,443.65,793,793,0
2969658,494.46,743,794,0
2969661,546.65,743,792,0
2969670,597.15,743,792,0
2969680,643.22,743,793,0
2969690,681.94,743,792,0
2969700,710.50,743,793,0
2969710,730.49,743,792,0
2969720,744.49,743,792,0
2969730,754.24,743,791,0
2969740,761.07,743,793,0
2969750,765.85,743,792,0
2969760,769.19,743,792,0
2969771,771.54,743,792,0
2969780,773.18,743,793,0
2969790,774.32,743,792,0
2969800,775.13,743,793,0
2969810,775.69,743,792,0
2969820,776.08,743,793,0
2969830,776.36,743,791,0
2969840,776.51,743,792,0
2969850,776.61,743,792,0
2969860,773.04,743,793,0
2969870,761.50,743,791,0
2969880,739.15,743,792,0
2969890,705.03,743,792,0
2969900,659.34,743,793,0
2969910,602.97,743,791,0
2969920,537.02,743,793,0
2969930,466.94,743,792,0
2969940,398.69,743,792,0
2969950,337.07,743,791,0
2969960,284.55,743,792,0
2969970,242.51,743,792,0
2969980,211.16,743,793,0
2969990,190.24,743,791,0
2970000,178.47,743,793,0
2970010,174.77,743,792,0
2970020,177.24,743,792,0
2970030,184.45,743,791,0
2970040,194.60,743,793,0
2970050,206.59,743,792,0
2970060,219.19,743,793,0
2970071,231.73,743,793,0
2970081,243.17,743,792,0
2970091,253.32,743,794,0
2970101,261.71,743,791,0
2970112,268.48,743,793,0
2970121,273.39,743,792,0
2970131,276.88,743,793,0
2970141,278.76,743,791,0
2970151,279.64,743,793,0
2970161,279.54,743,792,0
2970171,278.99,743,793,0
2970181,278.01,743,791,0
2970191,277.06,743,794,0
2970201,275.93,743,792,0
2970211,275.18,743,793,0
2970221,274.61,743,792,0
2970231,274.51,743,794,0
2970241,274.62,743,793,0
2970251,275.25,743,793,0
2970261,276.07,743,792,0
2970271,277.38,743,793,0
2970281,278.77,743,791,0
2970291,280.51,743,793,0
2970301,282.33,743,791,0
2970311,284.59,743,794,0
2970321,287.20,743,790,0
2970331,291.04,743,792,0
2970341,296.90,743,791,0
2970351,306.70,743,793,0
2970361,322.09,743,791,0
2970371,345.21,743,793,0
2970381,378.02,743,791,0
2970391,421.08,743,793,0
2970411,470.39,752,792,0
2970414,522.68,752,794,0
2970423,574.59,752,788,0
2970433,623.14,752,794,0
2970443,665.53,752,787,0
2970454,698.97,752,794,0
2970463,722.38,752,788,0
2970473,738.77,752,794,0
2970483,750.24,752,788,0
2970493,758.27,752,794,0
2970503,763.89,752,789,0
2970513,767.82,752,795,0
2970523,770.57,752,789,0
2970533,772.50,752,794,0
2970543,773.85,752,790,0
2970553,774.80,752,794,0
2970563,775.46,752,789,0
2970573,775.92,752,794,0
2970583,776.24,752,790,0
2970593,776.47,752,795,0
2970603,776.63,752,789,0
2970613,776.74,752,794,0
2970624,776.82,752,789,0
2970633,771.69,752,795,0
2970643,757.25,752,789,0
2970653,731.46,752,794,0
2970663,693.48,752,788,0
2970673,644.05,752,794,0
2970683,583.95,752,788,0
2970693,514.71,752,795,0
2970703,443.18,752,788,0
2970713,375.37,752,794,0
2970723,314.96,752,788,0
2970733,264.53,752,794,0
2970743,224.60,752,789,0
2970753,195.62,752,794,0
2970763,176.70,752,789,0
2970773,166.94,752,794,0
2970783,164.64,752,789,0
2970793,168.48,752,794,0
2970803,176.56,752,789,0
2970813,187.62,752,795,0
2970823,200.12,752,789,0
2970833,213.24,752,795,0
2970843,225.86,752,789,0
2970853,237.60,752,794,0
2970863,247.79,752,789,0
2970873,256.42,752,795,0
2970883,263.24,752,789,0
2970893,268.48,752,794,0
2970903,272.02,752,789,0
2970913,274.29,752,795,0
2970924,275.27,752,789,0
2970934,275.49,752,794,0
2970944,275.09,752,788,0
2970954,274.46,752,794,0
2970964,273.64,752,788,0
2970974,273.06,752,794,0
2970984,272.66,752,789,0
2970994,272.67,752,794,0
2971004,273.03,752,788,0
2971014,273.83,752,794,0
2971024,274.87,752,788,0
2971034,276.24,752,794,0
2971044,277.75,752,789,0
2971054,279.50,752,794,0
2971064,281.32,752,788,0
2971074,283.28,752,795,0
2971084,285.30,752,788,0
2971095,287.69,752,794,0
2971105,290.91,752,788,0
2971115,295.87,752,795,0
2971125,304.01,752,788,0
2971136,317.25,752,795,0
2971145,337.27,752,787,0
2971155,366.46,752,794,0
2971165,406.74,752,787,0
2971185,454.39,774,787,0
2971188,506.04,774,790,0
2971197,558.40,774,795,0
2971207,608.34,774,790,0
2971217,653.19,774,794,0
2971227,689.95,774,789,0
2971237,716.02,774,794,0
2971247,734.32,774,789,0
2971257,747.12,774,794,0
2971267,756.08,774,788,0
2971277,762.36,774,795,0
2971287,766.75,774,789,0
2971297,769.83,774,794,0
2971308,771.98,774,789,0
2971318,773.48,774,794,0
2971328,774.54,774,790,0
2971338,775.28,774,794,0
2971348,775.79,774,791,0
2971358,776.16,774,794,0
2971368,776.41,774,791,0
2971378,776.59,774,794,0
2971388,776.71,774,791,0
2971398,776.80,774,795,0
2971408,772.87,774,791,0
2971418,760.35,774,794,0
2971428,736.76,774,791,0
2971438,701.39,774,794,0
2971448,654.22,774,791,0
2971458,595.95,774,794,0
2971468,528.04,774,791,0
2971479,456.11,774,794,0
2971489,386.74,774,792,0
2971499,324.16,774,794,0
2971509,270.88,774,792,0
2971520,228.27,774,793,0
2971529,196.86,774,792,0
2971539,176.03,774,794,0
2971549,164.88,774,793,0
2971559,161.74,774,793,0
2971569,165.08,774,792,0
2971579,173.03,774,793,0
2971589,184.25,774,793,0
2971599,197.20,774,794,0
2971609,210.90,774,792,0
2971619,224.13,774,794,0
2971629,236.43,774,792,0
2971639,247.19,774,793,0
2971649,256.35,774,792,0
2971659,263.53,774,794,0
2971669,269.03,774,792,0
2971679,272.70,774,793,0
2971689,275.11,774,793,0
2971699,276.19,774,794,0
2971709,276.48,774,792,0
2971719,276.03,774,793,0
2971729,275.34,774,793,0
2971739,274.38,774,793,0
2971749,273.62,774,792,0
2971759,273.01,774,794,0
2971769,272.88,774,792,0
2971779,273.08,774,794,0
2971789,273.83,774,792,0
2971799,274.91,774,793,0
2971809,276.48,774,793,0
2971820,278.26,774,793,0
2971830,280.33,774,793,0
2971840,282.42,774,792,0
2971850,284.69,774,793,0
2971860,286.84,774,791,0
2971870,289.16,774,793,0
2971880,291.55,774,792,0
2971890,294.73,774,793,0
2971900,299.27,774,792,0
2971910,306.47,774,793,0
2971920,317.86,774,792,0
2971930,335.77,774,793,0
2971940,362.11,774,792,0
2971950,398.64,774,793,0
2971969,443.62,785,793,0
2971972,493.53,785,795,0
2971981,545.19,785,791,0
2971991,595.53,785,794,0
2972001,641.36,785,791,0
2972011,679.95,785,794,0
2972021,709.02,785,790,0
2972032,729.37,785,794,0
2972041,743.62,785,791,0
2972051,753.59,785,794,0
2972061,760.57,785,791,0
2972071,765.50,785,794,0
2972081,768.95,785,791,0
2972091,771.36,785,794,0
2972101,773.06,785,790,0
2972111,774.24,785,794,0
2972121,775.02,785,792,0
2972131,775.57,785,794,0
2972141,775.96,785,791,0
2972151,776.23,785,794,0
2972161,776.37,785,792,0
2972171,774.20,785,794,0
2972181,764.89,785,791,0
2972191,745.63,785,794,0
2972201,714.89,785,791,0
2972211,672.92,785,794,0
2972221,620.06,785,791,0
2972231,557.68,785,794,0
2972241,489.46,785,790,0
2972251,422.17,785,794,0
2972261,360.23,785,791,0
2972271,306.98,785,794,0
2972281,263.44,785,790,0
2972291,230.57,785,794,0
2972301,207.85,785,791,0
2972311,194.65,785,794,0
2972321,189.40,785,790,0
2972332,190.87,785,794,0
2972342,197.16,785,790,0
2972352,207.01,785,794,0
2972362,218.84,785,789,0
2972372,231.66,785,794,0
2972382,244.28,785,790,0
2972392,256.15,785,794,0
2972402,266.48,785,789,0
2972412,275.25,785,794,0
2972422,282.07,785,790,0
2972432,287.19,785,794,0
2972442,290.48,785,789,0
2972452,292.39,785,794,0
2972462,292.96,785,790,0
2972472,292.76,785,794,0
2972482,291.72,785,789,0
2972492,290.34,785,795,0
2972503,288.70,785,789,0
2972513,287.20,785,794,0
2972523,285.77,785,789,0
2972533,284.73,785,794,0
2972544,283.95,785,788,0
2972553,283.75,785,794,0
2972563,283.87,785,788,0
2972573,284.51,785,794,0
2972583,285.43,785,788,0
2972593,286.76,785,795,0
2972603,288.29,785,789,0
2972613,290.21,785,794,0
2972623,292.59,785,788,0
2972633,295.97,785,794,0
2972643,301.04,785,788,0
2972653,309.34,785,795,0
2972663,322.48,785,788,0
2972673,342.27,785,794,0
2972683,370.60,785,788,0
2972693,409.33,785,794,0
2972703,455.69,785,789,0
2972723,506.14,753,787,0
2972726,557.44,753,788,0
2972735,606.59,753,794,0
2972745,650.94,753,788,0
2972755,687.73,753,794,0
2972765,714.47,753,788,0
2972775,733.19,753,794,0
2972785,746.33,753,788,0
2972795,755.53,753,794,0
2972805,761.97,753,788,0
2972815,766.48,753,794,0
2972825,769.64,753,788,0
2972835,771.85,753,794,0
2972845,773.39,753,789,0
2972855,774.47,753,794,0
2972865,775.23,753,789,0
2972875,775.76,753,795,0
2972886,776.13,753,790,0
2972895,776.39,753,794,0
2972905,775.03,753,791,0
2972915,767.09,753,795,0
2972925,749.32,753,791,0
2972935,720.55,753,794,0
2972945,680.19,753,791,0
2972955,628.62,753,794,0
2972965,566.93,753,791,0
2972975,498.38,753,794,0
2972985,429.57,753,791,0
2972995,365.63,753,794,0
2973005,309.42,753,791,0
2973015,263.10,753,794,0
2973025,227.50,753,791,0
2973035,202.70,753,794,0
2973045,187.75,753,791,0
2973056,181.57,753,794,0
2973065,182.47,753,791,0
2973075,188.89,753,794,0
2973085,199.21,753,791,0
2973095,211.96,753,794,0
2973105,225.69,753,791,0
2973115,239.37,753,795,0
2973125,252.07,753,791,0
2973135,263.36,753,795,0
2973145,272.81,753,791,0
2973155,280.33,753,794,0
2973165,285.88,753,791,0
2973175,289.61,753,794,0
2973185,291.61,753,791,0
2973195,292.28,753,794,0
2973205,291.86,753,791,0
2973215,290.70,753,794,0
2973225,288.99,753,791,0
2973235,287.11,753,795,0
2973245,285.27,753,791,0
2973255,283.78,753,794,0
2973265,282.64,753,791,0
2973275,281.98,753,794,0
2973285,281.81,753,791,0
2973295,282.17,753,795,0
2973305,282.93,753,791,0
2973315,284.07,753,795,0
2973325,285.42,753,791,0
2973335,286.96,753,794,0
2973345,288.60,753,791,0
2973356,290.31,753,794,0
2973366,292.14,753,792,0
2973376,294.42,753,794,0
2973386,297.59,753,792,0
2973396,302.68,753,795,0
2973406,310.97,753,792,0
2973416,324.35,753,795,0
2973426,344.94,753,792,0
2973436,374.87,753,794,0
2973446,415.33,753,791,0
2973465,462.76,743,789,0
2973468,513.79,743,792,0
2973477,565.41,743,794,0
2973487,614.53,743,791,0
2973497,658.13,743,794,0
2973507,693.40,743,791,0
2973517,718.44,743,794,0
2973527,736.01,743,791,0
2973537,748.31,743,794,0
2973547,756.91,743,791,0
2973557,762.94,743,795,0
2973568,767.16,743,792,0
2973577,770.11,743,794,0
2973587,772.18,743,791,0
2973597,773.62,743,794,0
2973607,774.64,743,792,0
2973617,775.35,743,795,0
2973627,775.84,743,791,0
2973637,776.19,743,794,0
2973647,776.43,743,792,0
2973657,776.60,743,794,0
2973667,776.72,743,791,0
2973677,773.76,743,794,0
2973687,763.21,743,792,0
2973697,742.66,743,794,0
2973707,710.75,743,791,0
2973717,667.15,743,794,0
2973727,612.59,743,792,0
2973737,548.30,743,794,0
2973747,479.12,743,792,0
2973757,411.29,743,795,0
2973767,348.97,743,792,0
2973777,295.15,743,794,0
2973787,251.65,743,791,0
2973797,218.88,743,795,0
2973807,196.63,743,792,0
2973817,183.76,743,794,0
2973827,179.03,743,791,0
2973837,180.78,743,794,0
2973847,187.53,743,791,0
2973857,197.66,743,794,0
2973868,209.97,743,792,0
2973878,223.05,743,794,0
2973888,236.07,743,792,0
2973898,248.09,743,794,0
2973908,258.86,743,793,0
2973918,267.90,743,794,0
2973928,275.22,743,793,0
2973938,280.55,743,794,0
2973948,284.29,743,793,0
2973958,286.39,743,794,0
2973968,287.43,743,792,0
2973978,287.39,743,793,0
2973988,286.80,743,793,0
2973998,285.70,743,794,0
2974008,284.55,743,793,0
2974018,283.40,743,794,0
2974028,282.59,743,793,0
2974039,281.94,743,793,0
2974049,281.83,743,794,0
2974059,282.01,743,793,0
2974069,282.69,743,794,0
2974080,283.64,743,793,0
2974089,284.95,743,793,0
2974099,286.38,743,793,0
2974109,288.15,743,794,0
2974119,289.95,743,792,0
2974129,291.98,743,793,0
2974139,294.17,743,793,0
2974149,297.16,743,794,0
2974159,301.44,743,792,0
2974169,308.34,743,793,0
2974179,319.29,743,793,0
2974189,336.69,743,794,0
2974199,362.46,743,792,0
2974209,398.36,743,793,0
2974228,442.87,763,793,0
2974231,492.49,763,795,0
2974240,543.99,763,791,0
2974251,594.35,763,795,0
2974260,640.32,763,792,0
2974270,679.14,763,794,0
2974280,708.45,763,791,0
2974290,728.97,763,795,0
2974300,743.34,763,792,0
2974310,753.39,763,794,0
2974320,760.43,763,791,0
2974330,765.36,763,794,0
2974340,768.81,763,792,0
2974350,771.27,763,794,0
2974360,772.99,763,791,0
2974370,774.19,763,794,0
2974380,775.03,763,792,0
2974390,775.62,763,794,0
2974400,776.04,763,791,0
2974410,776.33,763,794,0
2974420,776.53,763,790,0
2974430,776.67,763,794,0
2974440,776.77,763,791,0
2974450,774.05,763,794,0
2974460,763.67,763,791,0
2974470,743.37,763,794,0
2974480,711.54,763,791,0
2974490,668.01,763,794,0
2974500,613.32,763,790,0
2974510,549.02,763,794,0
2974520,479.29,763,791,0
2974530,410.89,763,794,0
2974540,347.71,763,790,0
2974551,293.15,763,794,0
2974561,248.79,763,789,0
2974571,215.47,763,795,0
2974581,192.49,763,789,0
2974592,179.23,763,794,0
2974601,174.06,763,790,0
2974611,175.71,763,794,0
2974621,182.36,763,790,0
2974631,192.66,763,794,0
2974641,204.89,763,790,0
2974651,218.08,763,794,0
2974661,231.04,763,790,0
2974671,243.33,763,794,0
2974681,254.25,763,790,0
2974691,263.60,763,795,0
2974701,271.01,763,790,0
2974711,276.66,763,795,0
2974721,280.49,763,791,0
2974731,282.92,763,794,0
2974741,283.93,763,791,0
2974751,283.95,763,794,0
2974761,283.15,763,790,0
2974771,282.03,763,794,0
2974781,280.69,763,791,0
2974791,279.50,763,795,0
2974801,278.45,763,791,0
2974811,277.89,763,794,0
2974821,277.66,763,791,0
2974831,278.02,763,795,0
2974841,278.74,763,790,0
2974851,279.98,763,794,0
2974861,281.44,763,791,0
2974871,283.24,763,795,0
2974881,285.14,763,790,0
2974892,287.20,763,795,0
2974902,289.19,763,790,0
2974912,291.24,763,794,0
2974922,293.27,763,790,0
2974932,295.67,763,795,0
2974942,298.68,763,790,0
2974952,303.24,763,794,0
2974962,310.67,763,790,0
2974972,322.94,763,794,0
2974982,341.81,763,790,0
2974992,369.55,763,795,0
2975011,407.92,783,794,0
2975014,454.10,783,795,0
2975023,504.60,783,790,0
2975033,556.23,783,795,0
2975043,605.79,783,790,0
2975053,650.55,783,794,0
2975063,687.59,783,790,0
2975073,714.41,783,794,0
2975083,733.19,783,790,0
2975093,746.29,783,795,0
2975104,755.46,783,790,0
2975113,761.88,783,794,0
2975123,766.37,783,790,0
2975133,769.52,783,795,0
2975143,771.72,783,790,0
2975153,773.26,783,795,0
2975163,774.38,783,790,0
2975173,775.17,783,794,0
2975183,775.72,783,790,0
2975193,776.10,783,795,0
2975203,776.37,783,790,0
2975213,776.56,783,795,0
2975223,776.69,783,790,0
2975233,776.78,783,795,0
2975243,771.66,783,790,0
2975253,757.58,783,794,0
2975263,732.33,783,790,0
2975273,695.25,783,794,0
2975283,646.92,783,789,0
2975293,588.23,783,794,0
2975303,520.57,783,789,0
2975313,450.89,783,794,0
2975323,384.75,783,790,0
2975333,326.11,783,794,0
2975343,277.22,783,789,0
2975353,238.88,783,795,0
2975363,211.19,783,789,0
2975373,193.65,783,795,0
2975383,185.05,783,788,0
2975393,183.92,783,794,0
2975404,188.62,783,789,0
2975414,197.56,783,794,0
2975424,209.22,783,789,0
2975434,222.40,783,794,0
2975444,235.91,783,790,0
2975454,248.88,783,795,0
2975464,260.61,783,789,0
2975474,270.72,783,795,0
2975484,278.94,783,790,0
2975494,285.22,783,794,0
2975504,289.65,783,789,0
2975514,292.37,783,794,0
2975524,293.67,783,790,0
2975534,293.90,783,795,0
2975544,293.33,783,789,0
2975554,292.25,783,794,0
2975564,290.93,783,790,0
2975575,289.49,783,794,0
2975585,288.19,783,790,0
2975595,287.06,783,794,0
2975605,286.31,783,790,0
2975616,285.96,783,794,0
2975625,285.97,783,790,0
2975635,286.32,783,795,0
2975645,287.08,783,791,0
2975655,288.13,783,794,0
2975665,289.51,783,790,0
2975675,291.07,783,795,0
2975685,293.02,783,791,0
2975695,295.67,783,794,0
2975705,299.67,783,790,0
2975715,306.11,783,794,0
2975725,316.71,783,791,0
2975735,333.29,783,794,0
2975745,357.51,783,791,0
2975755,391.25,783,794,0
2975765,434.42,783,791,0
2975784,483.28,773,791,0
2975788,534.50,773,794,0
2975796,584.88,773,795,0
2975806,631.46,773,792,0
2975816,671.82,773,795,0
2975826,703.33,773,792,0
2975836,725.43,773,794,0
2975846,740.90,773,792,0
2975856,751.73,773,794,0
2975866,759.31,773,792,0
2975876,764.62,773,794,0
2975886,768.33,773,792,0
2975896,770.93,773,795,0
2975906,772.75,773,792,0
2975916,774.03,773,795,0
2975926,774.92,773,792,0
2975936,775.54,773,795,0
2975946,775.98,773,792,0
2975956,776.29,773,794,0
2975966,774.06,773,792,0
2975976,764.70,773,794,0
2975986,745.46,773,792,0
2975996,714.89,773,795,0
2976006,673.23,773,791,0
2976016,620.70,773,794,0
2976026,558.56,773,791,0
2976036,490.72,773,794,0
2976046,423.73,773,791,0
2976056,361.97,773,794,0
2976066,308.67,773,791,0
2976076,264.97,773,794,0
2976087,232.02,773,792,0
2976097,209.47,773,794,0
2976107,196.64,773,793,0
2976117,191.95,773,794,0
2976128,194.07,773,793,0
2976137,201.07,773,794,0
2976147,211.59,773,792,0
2976157,223.93,773,794,0
2976167,237.07,773,793,0
2976177,249.77,773,794,0
2976187,261.50,773,793,0
2976197,271.51,773,793,0
2976207,279.84,773,793,0
2976217,286.19,773,795,0
2976227,290.80,773,793,0
2976237,293.61,773,794,0
2976247,295.10,773,793,0
2976257,295.37,773,794,0
2976267,294.96,773,793,0
2976277,293.86,773,793,0
2976287,292.61,773,793,0
2976297,291.19,773,794,0
2976307,289.97,773,793,0
2976317,288.87,773,794,0
2976327,288.22,773,793,0
2976337,287.81,773,793,0
2976347,287.91,773,792,0
2976357,288.24,773,793,0
2976367,289.02,773,793,0
2976377,289.96,773,794,0
2976387,291.17,773,793,0
2976397,292.36,773,794,0
2976407,293.80,773,793,0
2976417,295.23,773,794,0
2976428,296.96,773,794,0
2976438,298.90,773,793,0
2976448,301.89,773,794,0
2976458,306.59,773,793,0
2976468,314.64,773,794,0
2976478,327.26,773,793,0
2976488,346.77,773,794,0
2976498,375.00,773,793,0
2976508,414.00,773,794,0
2976527,460.28,743,793,0
2976530,510.56,743,794,0
2976539,561.43,743,791,0
2976549,610.37,743,794,0
2976559,654.23,743,791,0
2976569,690.38,743,794,0
2976579,716.28,743,791,0
2976589,734.41,743,794,0
2976599,747.10,743,791,0
2976609,756.03,743,794,0
2976619,762.28,743,791,0
2976629,766.69,743,794,0
2976640,769.79,743,790,0
2976649,771.95,743,794,0
2976659,773.46,743,791,0
2976669,774.53,743,794,0
2976679,775.27,743,789,0
2976689,775.79,743,793,0
2976699,776.15,743,790,0
2976709,776.41,743,794,0
2976719,776.58,743,790,0
2976729,774.57,743,793,0
2976739,765.57,743,790,0
2976749,746.71,743,793,0
2976759,716.46,743,789,0
2976769,675.05,743,793,0
2976779,622.83,743,790,0
2976789,561.08,743,794,0
2976799,493.26,743,790,0
2976809,426.11,743,795,0
2976819,364.15,743,791,0
2976829,310.70,743,794,0
2976839,266.82,743,790,0
2976849,233.57,743,794,0
2976859,210.43,743,792,0
