Time,PPG,IBI,GSR,GSR_Event
5133,713.15,813,760,0
5143,726.99,813,760,0
5153,736.59,813,761,0
5164,743.14,813,760,0
5174,747.64,813,762,0
5184,750.66,813,760,0
5194,752.69,813,761,0
5204,754.16,813,760,0
5214,755.22,813,762,0
5224,755.97,813,760,0
5234,757.65,813,761,0
5244,748.67,813,762,0
5254,734.37,813,763,0
5264,691.87,813,760,0
5274,629.64,813,761,0
5284,553.59,813,760,0
5294,467.91,813,762,0
5304,374.34,813,760,0
5314,286.51,813,761,0
5324,200.60,813,760,0
5335,140.46,813,762,0
5345,102.27,813,760,0
5355,94.04,813,761,0
5365,117.69,813,760,0
5376,166.72,813,762,0
5385,233.54,813,760,0
5395,312.79,813,761,0
5405,400.75,813,761,0
5415,490.91,813,762,0
5425,568.00,813,761,0
5435,625.00,813,761,0
5445,664.90,813,760,0
5455,692.83,813,762,0
5465,712.38,813,760,0
5475,726.07,813,762,0
5485,735.65,813,760,0
5495,741.75,813,762,0
5505,741.53,813,761,0
5515,733.18,813,761,0
5525,715.21,813,760,0
5535,687.64,813,762,0
5545,650.76,813,760,0
5555,605.92,813,761,0
5565,554.68,813,760,0
5575,502.19,813,762,0
5585,451.69,813,760,0
5595,406.61,813,761,0
5605,367.90,813,760,0
5615,336.73,813,762,0
5625,312.38,813,760,0
5635,294.83,813,762,0
5645,282.83,813,760,0
5655,276.16,813,762,0
5665,272.94,813,760,0
5676,272.74,813,762,0
5686,274.02,813,760,0
5696,276.37,813,762,0
5706,278.62,813,760,0
5716,280.62,813,763,0
5726,281.59,813,760,0
5736,281.88,813,762,0
5746,281.28,813,760,0
5756,280.38,813,762,0
5766,279.11,813,760,0
5776,278.13,813,762,0
5786,277.62,813,760,0
5796,278.29,813,762,0
5806,280.56,813,760,0
5816,285.36,813,762,0
5826,293.23,813,760,0
5836,305.59,813,762,0
5847,323.24,813,760,0
5857,347.42,813,762,0
5867,378.71,813,761,0
5877,417.33,813,762,0
5888,462.06,813,761,0
5897,509.57,813,762,0
5907,556.71,813,761,0
5917,601.16,813,762,0
5927,640.67,813,761,0
5937,673.59,813,762,0
5956,698.92,884,762,0
5958,716.73,884,763,0
5968,729.28,884,763,0
5978,738.15,884,764,0
5988,744.45,884,763,0
5998,748.94,884,763,0
6008,752.17,884,763,0
6018,754.52,884,764,0
6028,756.17,884,763,0
6038,757.32,884,763,0
6048,755.94,884,762,0
6059,749.78,884,763,0
6068,737.93,884,762,0
6078,719.31,884,763,0
6088,693.63,884,762,0
6098,660.74,884,763,0
6108,621.52,884,762,0
6118,578.72,884,763,0
6128,535.60,884,762,0
6138,493.85,884,763,0
6148,455.88,884,762,0
6158,422.87,884,763,0
6168,396.17,884,762,0
6178,375.33,884,763,0
6188,360.58,884,763,0
6198,351.15,884,763,0
6208,346.82,884,762,0
6218,346.19,884,763,0
6228,348.49,884,763,0
6238,352.28,884,763,0
6248,356.87,884,762,0
6258,361.45,884,763,0
6268,365.69,884,763,0
6278,368.91,884,763,0
6288,371.04,884,763,0
6298,372.01,884,763,0
6308,372.05,884,763,0
6318,371.35,884,763,0
6328,369.70,884,763,0
6338,367.18,884,763,0
6348,363.91,884,763,0
6359,359.91,884,763,0
6369,355.18,884,763,0
6379,349.51,884,762,0
6389,343.36,884,763,0
6400,336.78,884,762,0
6409,330.42,884,763,0
6419,324.46,884,763,0
6429,319.74,884,763,0
6439,316.05,884,762,0
6449,314.19,884,763,0
6459,313.75,884,763,0
6469,315.24,884,763,0
6479,317.87,884,762,0
6489,321.76,884,763,0
6499,326.08,884,762,0
6509,331.20,884,763,0
6519,336.19,884,764,0
6529,341.19,884,763,0
6539,345.81,884,762,0
6549,350.66,884,763,0
6559,355.61,884,762,0
6569,361.64,884,763,0
6579,368.95,884,762,0
6589,379.16,884,763,0
6599,393.00,884,762,0
6609,412.33,884,763,0
6619,437.52,884,762,0
6629,469.89,884,763,0
6639,507.47,884,763,0
6659,547.74,702,761,0
6661,587.98,702,763,0
6671,626.43,702,763,0
6681,660.54,702,762,0
6691,689.09,702,763,0
6701,710.32,702,762,0
6711,725.23,702,763,0
6721,735.66,702,762,0
6731,743.00,702,763,0
6742,748.15,702,762,0
6751,751.79,702,763,0
6761,754.34,702,762,0
6771,756.12,702,763,0
6781,757.33,702,762,0
6791,757.10,702,763,0
6801,751.84,702,763,0
6811,739.98,702,763,0
6821,719.54,702,762,0
6831,690.88,702,763,0
6841,653.46,702,762,0
6851,608.49,702,763,0
6861,557.26,702,762,0
6871,505.37,702,763,0
6881,454.94,702,762,0
6891,410.05,702,763,0
6901,370.95,702,762,0
6912,340.19,702,763,0
6921,316.86,702,763,0
6931,302.67,702,763,0
6941,295.57,702,762,0
6951,296.00,702,763,0
6961,301.23,702,762,0
6971,311.36,702,763,0
6981,323.60,702,762,0
6991,337.99,702,763,0
7001,351.58,702,763,0
7011,364.69,702,763,0
7021,375.20,702,762,0
7031,384.01,702,763,0
7041,389.36,702,762,0
7051,392.30,702,763,0
7061,391.39,702,762,0
7071,388.06,702,763,0
7081,381.10,702,763,0
7091,372.46,702,763,0
7101,360.88,702,762,0
7111,348.23,702,763,0
7121,333.85,702,763,0
7131,319.71,702,763,0
7141,305.01,702,762,0
7151,291.72,702,763,0
7161,278.65,702,762,0
7171,267.78,702,763,0
7181,257.95,702,762,0
7191,250.55,702,763,0
7201,244.17,702,762,0
7212,240.18,702,763,0
7222,237.12,702,762,0
7232,236.44,702,763,0
7242,236.52,702,763,0
7252,238.81,702,763,0
7262,241.74,702,762,0
7272,246.62,702,763,0
7282,251.79,702,763,0
7292,258.58,702,763,0
7302,265.14,702,762,0
7312,272.85,702,763,0
7322,280.05,702,762,0
7332,288.31,702,763,0
7342,296.44,702,762,0
7352,306.68,702,763,0
7362,318.44,702,762,0
7372,334.38,702,763,0
7383,354.06,702,762,0
7393,379.93,702,763,0
7403,411.19,702,763,0
7413,449.19,702,763,0
7424,491.56,702,763,0
7433,536.05,702,763,0
7443,579.32,702,763,0
7453,619.94,702,763,0
7473,655.40,814,762,0
7475,684.94,814,763,0
7485,707.28,814,763,0
7495,723.06,814,763,0
7505,734.05,814,763,0
7515,740.04,814,763,0
7525,739.81,814,763,0
7535,732.88,814,763,0
7545,718.48,814,763,0
7555,696.69,814,763,0
7565,666.95,814,763,0
7575,630.07,814,763,0
7585,587.92,814,763,0
7596,543.84,814,763,0
7606,499.53,814,763,0
7616,457.29,814,762,0
7626,418.12,814,763,0
7636,383.80,814,762,0
7646,354.46,814,763,0
7656,330.79,814,763,0
7666,312.25,814,763,0
7676,299.06,814,762,0
7686,290.60,814,763,0
7696,286.65,814,762,0
7706,286.45,814,763,0
7716,289.53,814,762,0
7726,295.20,814,763,0
7736,303.11,814,763,0
7746,312.55,814,763,0
7756,323.14,814,762,0
7767,334.24,814,763,0
7777,345.53,814,762,0
7787,356.77,814,763,0
7797,367.47,814,762,0
7808,377.53,814,763,0
7817,386.54,814,763,0
7827,394.35,814,763,0
7837,400.72,814,762,0
7847,405.77,814,763,0
7857,409.23,814,762,0
7867,411.34,814,763,0
7877,411.71,814,762,0
7887,410.90,814,763,0
7897,408.91,814,762,0
7907,406.11,814,763,0
7917,402.18,814,762,0
7927,397.80,814,763,0
7937,392.89,814,762,0
7947,388.08,814,763,0
7957,383.08,814,762,0
7967,378.52,814,763,0
7977,374.03,814,762,0
7987,370.42,814,763,0
7997,367.08,814,762,0
8007,364.49,814,763,0
8017,361.94,814,762,0
8027,360.07,814,763,0
8037,358.21,814,762,0
8047,357.20,814,763,0
8057,357.14,814,762,0
8067,359.50,814,763,0
8077,365.26,814,762,0
8087,376.71,814,763,0
8097,394.80,814,762,0
8108,421.56,814,763,0
8118,457.05,814,762,0
8128,498.39,814,763,0
8147,542.33,675,762,0
8150,586.20,675,764,0
8159,627.16,675,762,0
8169,663.11,675,763,0
8179,691.79,675,762,0
8189,712.25,675,763,0
8199,726.58,675,762,0
8209,736.60,675,763,0
8219,743.62,675,762,0
8229,748.58,675,763,0
8239,752.05,675,762,0
8249,754.48,675,763,0
8259,756.18,675,762,0
8269,757.37,675,763,0
8279,754.47,675,762,0
8289,745.67,675,763,0
8299,728.67,675,762,0
8309,703.14,675,763,0
8320,668.43,675,762,0
8329,625.91,675,763,0
8339,575.45,675,762,0
8349,522.22,675,763,0
8359,468.54,675,762,0
8369,418.66,675,763,0
8379,373.59,675,762,0
8389,335.74,675,763,0
8399,304.02,675,762,0
8409,280.31,675,763,0
8419,263.33,675,762,0
8429,254.02,675,763,0
8439,250.07,675,762,0
8449,251.81,675,763,0
8459,257.14,675,762,0
8469,266.22,675,763,0
8479,276.61,675,762,0
8489,288.73,675,763,0
8499,300.34,675,762,0
8509,312.24,675,763,0
8519,322.58,675,762,0
8529,331.88,675,763,0
8539,338.90,675,762,0
8549,344.67,675,763,0
8559,347.73,675,762,0
8569,349.57,675,763,0
8579,349.05,675,762,0
8589,347.75,675,763,0
8599,344.57,675,762,0
8609,341.14,675,763,0
8620,336.47,675,762,0
8630,332.34,675,763,0
8640,327.35,675,762,0
8650,323.13,675,763,0
8660,318.38,675,762,0
8670,314.92,675,763,0
8680,311.26,675,762,0
8690,308.87,675,763,0
8700,306.21,675,762,0
8710,304.90,675,763,0
8720,303.43,675,762,0
8730,303.22,675,763,0
8740,302.89,675,763,0
8750,304.08,675,763,0
8760,305.86,675,762,0
8770,310.66,675,763,0
8780,318.17,675,762,0
8791,331.24,675,763,0
8801,350.11,675,762,0
8811,377.59,675,763,0
8821,413.20,675,762,0
8832,456.60,675,763,0
8850,503.43,703,762,0
8852,551.39,703,763,0
8862,597.00,703,763,0
8872,638.40,703,763,0
8882,672.65,703,763,0
8892,698.86,703,762,0
8902,717.20,703,763,0
8912,730.04,703,763,0
8922,739.03,703,763,0
8932,745.32,703,762,0
8942,749.72,703,763,0
8952,752.81,703,763,0
8962,754.96,703,762,0
8972,756.48,703,763,0
8982,757.53,703,763,0
8992,755.83,703,763,0
9003,748.12,703,763,0
9012,733.34,703,762,0
9022,709.75,703,762,0
9032,677.64,703,763,0
9042,636.91,703,763,0
9052,588.93,703,762,0
9062,536.50,703,763,0
9072,484.71,703,763,0
9082,435.34,703,763,0
9092,392.08,703,762,0
9102,355.24,703,762,0
9112,326.75,703,763,0
9122,305.57,703,763,0
9132,292.71,703,763,0
9142,286.54,703,762,0
9152,287.32,703,763,0
9162,292.97,703,763,0
9172,303.39,703,762,0
9182,316.13,703,762,0
9192,331.18,703,763,0
9202,346.34,703,762,0
9212,361.58,703,762,0
9222,375.12,703,762,0
9232,387.26,703,763,0
9242,396.52,703,763,0
9252,403.69,703,763,0
9262,407.51,703,762,0
9272,409.20,703,763,0
9282,407.86,703,763,0
9292,404.69,703,763,0
9303,398.95,703,763,0
9313,392.02,703,763,0
9323,383.44,703,763,0
9333,374.53,703,762,0
9344,364.77,703,763,0
9353,355.49,703,763,0
9363,346.13,703,763,0
9373,337.74,703,762,0
9383,329.84,703,763,0
9393,323.20,703,763,0
9403,317.31,703,763,0
9413,312.68,703,763,0
9423,308.70,703,763,0
9433,305.96,703,763,0
9443,303.79,703,763,0
9453,302.78,703,763,0
9463,302.72,703,763,0
9473,304.60,703,763,0
9483,308.71,703,763,0
9493,316.72,703,763,0
9503,329.45,703,762,0
9513,348.94,703,763,0
9523,375.53,703,763,0
9533,410.52,703,763,0
9543,453.00,703,763,0
9553,499.67,703,763,0
9563,547.04,703,763,0
9573,592.67,703,763,0
9583,633.83,703,762,0
9593,669.02,703,763,0
9612,696.32,762,762,0
9614,715.42,762,763,0
9624,728.79,762,763,0
9634,738.16,762,763,0
9644,744.71,762,763,0
9654,749.30,762,763,0
9664,752.51,762,763,0
9674,753.43,762,763,0
9684,749.23,762,763,0
9694,738.19,762,763,0
9704,718.76,762,762,0
9714,690.25,762,763,0
9724,652.72,762,763,0
9734,606.86,762,763,0
9744,554.44,762,762,0
9754,499.37,762,762,0
9764,444.53,762,763,0
9774,392.86,762,763,0
9784,346.10,762,762,0
9794,305.36,762,763,0
9804,271.09,762,763,0
9815,243.76,762,762,0
9825,223.61,762,762,0
9835,210.22,762,762,0
9845,203.34,762,763,0
9856,202.13,762,762,0
9865,206.03,762,763,0
9875,213.95,762,762,0
9885,225.41,762,763,0
9895,238.96,762,762,0
9905,254.14,762,763,0
9915,269.61,762,762,0
9925,285.29,762,763,0
9935,300.16,762,762,0
9945,314.04,762,763,0
9955,326.11,762,763,0
9965,336.71,762,763,0
9975,345.15,762,762,0
9985,351.79,762,763,0
9995,356.27,762,762,0
10005,359.15,762,763,0
10015,360.04,762,762,0
10025,359.69,762,763,0
10035,357.81,762,762,0
10045,355.17,762,763,0
10055,351.39,762,763,0
10065,347.29,762,763,0
10075,342.44,762,762,0
10085,337.55,762,763,0
10095,332.07,762,762,0
10105,326.78,762,763,0
10115,321.40,762,762,0
10125,316.78,762,763,0
10135,312.09,762,762,0
10145,307.99,762,763,0
10156,304.22,762,762,0
10166,301.41,762,763,0
10176,298.80,762,762,0
10186,297.02,762,763,0
10196,295.13,762,762,0
10206,294.23,762,763,0
10216,293.95,762,762,0
10226,295.68,762,763,0
10236,299.50,762,762,0
10246,307.28,762,763,0
10256,319.15,762,762,0
10266,337.15,762,763,0
10276,360.98,762,762,0
10286,391.54,762,763,0
10296,427.25,762,762,0
10306,467.72,762,763,0
10326,510.45,713,762,0
10329,553.64,713,763,0
10338,594.46,713,763,0
10348,631.52,713,763,0
10358,661.80,713,762,0
10369,684.74,713,763,0
10379,698.23,713,763,0
10389,703.01,713,763,0
10399,698.33,713,762,0
10409,685.55,713,763,0
10419,664.55,713,762,0
10429,637.86,713,763,0
10439,605.80,713,762,0
10449,571.36,713,763,0
10459,534.57,713,762,0
10469,498.44,713,763,0
10479,462.82,713,762,0
10489,430.13,713,763,0
10499,400.05,713,763,0
10509,374.54,713,764,0
10519,352.73,713,763,0
10529,336.23,713,764,0
10540,323.82,713,763,0
10550,316.67,713,763,0
10560,313.08,713,762,0
10570,313.70,713,763,0
10580,316.49,713,763,0
10590,321.70,713,763,0
10600,327.19,713,763,0
10610,333.39,713,763,0
10620,338.59,713,763,0
10630,343.30,713,763,0
10640,345.91,713,762,0
10650,347.39,713,763,0
10660,346.59,713,763,0
10670,344.96,713,763,0
10680,341.20,713,762,0
10690,336.55,713,763,0
10700,330.30,713,763,0
10711,323.78,713,763,0
10721,316.18,713,764,0
10731,308.88,713,763,0
10741,301.20,713,763,0
10752,294.41,713,764,0
10761,276.63,713,763,0
10771,258.74,713,764,0
10781,244.38,713,764,0
10791,234.45,713,764,0
10801,228.57,713,763,0
10811,226.94,713,765,0
10821,228.50,713,764,0
10831,248.97,713,767,0
10841,279.66,713,765,0
10851,315.81,713,767,0
10861,355.42,713,766,0
10871,397.08,713,767,0
10890,439.44,565,765,0
10893,482.38,565,767,0
10902,520.97,565,767,0
10912,553.12,565,767,0
10923,579.14,565,766,0
10932,600.31,565,767,0
10942,617.66,565,768,0
10952,632.25,565,767,0
10962,644.73,565,766,0
10972,655.57,565,767,0
10982,665.04,565,767,0
10992,673.64,565,767,0
11002,650.74,565,766,0
11012,605.52,565,765,0
11022,544.37,565,766,0
11032,471.83,565,766,0
11042,391.06,565,767,0
11052,304.30,565,767,0
11062,213.01,565,767,0
11072,149.10,565,767,0
11082,104.37,565,768,0
11092,73.06,565,766,0
11102,51.14,565,767,0
11112,35.80,565,766,0
11122,25.06,565,768,0
11132,26.54,565,766,0
11142,56.55,565,767,0
11152,110.13,565,765,0
11162,180.16,565,765,0
11172,261.76,565,764,0
11182,351.44,565,765,0
11192,446.80,565,765,0
11202,537.07,565,764,0
11212,603.86,565,765,0
11223,650.62,565,764,0
11233,683.35,565,765,0
11243,706.21,565,766,0
11253,722.18,565,765,0
11264,733.35,565,767,0
11273,741.18,565,765,0
11283,746.65,565,766,0
11293,750.44,565,765,0
11303,753.14,565,765,0
11313,755.07,565,765,0
11323,756.46,565,765,0
11333,757.39,565,764,0
11343,758.09,565,765,0
11353,758.53,565,765,0
11363,758.85,565,765,0
11373,759.02,565,764,0
11383,759.14,565,765,0
11393,759.23,565,764,0
11403,759.33,565,765,0
11413,759.36,565,764,0
11423,756.04,565,765,0
11433,746.04,565,764,0
11443,728.33,565,765,0
11453,701.70,565,764,0
11463,666.56,565,765,0
11473,623.28,565,764,0
11483,573.27,565,764,0
11493,520.64,565,764,0
11503,470.31,565,765,0
11513,424.19,565,764,0
11523,384.75,565,765,0
11533,352.34,565,764,0
11543,327.76,565,765,0
11553,309.83,565,764,0
11564,298.70,565,764,0
11574,292.79,565,763,0
11584,291.91,565,764,0
11594,294.59,565,763,0
11604,300.89,565,764,0
11614,309.45,565,763,0
11624,321.19,565,763,0
11634,335.44,565,763,0
11644,353.53,565,763,0
11654,372.01,565,752,0
11664,381.56,565,755,0
11674,396.22,565,752,0
11684,423.50,565,769,0
11694,457.51,565,747,0
11704,494.38,565,762,0
11714,532.33,565,750,0
11724,571.83,565,770,0
11735,620.95,565,767,0
11745,664.72,565,774,0
11755,695.23,565,774,0
11765,716.94,565,775,0
11776,733.07,565,774,0
11785,743.98,565,775,0
11795,751.74,565,775,0
11805,757.69,565,775,0
11815,761.90,565,774,0
11825,764.89,565,775,0
11835,766.98,565,775,0
11845,768.48,565,776,0
11855,769.54,565,774,0
11874,770.23,984,771,0
11877,770.59,984,772,0
11886,770.76,984,774,0
11896,770.66,984,769,0
11906,770.42,984,772,0
11916,770.04,984,770,0
11926,769.64,984,773,0
11936,766.36,984,770,0
11947,756.78,984,772,0
11956,734.05,984,768,0
11966,701.20,984,770,0
11976,654.21,984,768,0
11986,597.06,984,765,0
11996,539.02,984,770,0
12006,476.61,984,762,0
12016,412.10,984,771,0
12026,367.20,984,780,0
12036,337.95,984,775,0
12046,308.57,984,755,0
12056,279.38,984,737,0
12066,244.04,984,739,0
12076,211.03,984,730,0
12086,183.12,984,747,0
12096,146.35,984,758,0
12106,102.49,984,766,0
12116,71.79,984,753,0
12126,50.34,984,757,0
12136,35.32,984,744,0
12146,24.81,984,748,0
12156,17.41,984,749,0
12166,12.23,984,752,0
12176,8.60,984,757,0
12186,25.44,984,765,0
12196,65.08,984,765,0
12206,124.37,984,766,0
12216,198.44,984,764,0
12226,282.91,984,765,0
12236,374.39,984,764,0
12247,469.55,984,766,0
12257,545.20,984,764,0
12267,596.31,984,765,0
12277,623.26,984,764,0
12288,629.82,984,765,0
12297,619.59,984,764,0
12307,596.27,984,765,0
12317,563.40,984,764,0
12327,526.38,984,765,0
12337,488.64,984,764,0
12347,454.72,984,764,0
12357,427.16,984,763,0
12367,408.73,984,765,0
12377,399.89,984,763,0
12387,401.68,984,763,0
12397,412.41,984,761,0
12407,430.97,984,762,0
12417,457.17,984,761,0
12427,490.67,984,763,0
12437,528.01,984,761,0
12447,566.41,984,763,0
12457,603.27,984,761,0
12467,637.73,984,762,0
12477,669.10,984,761,0
12487,695.17,984,763,0
12497,714.28,984,761,0
12507,726.19,984,762,0
12517,730.12,984,761,0
12527,725.54,984,762,0
12537,710.08,984,758,0
12547,682.24,984,758,0
12557,641.11,984,756,0
12567,587.68,984,758,0
12577,522.76,984,752,0
12588,449.20,984,751,0
12598,372.51,984,751,0
12608,298.56,984,751,0
12618,231.28,984,751,0
12628,173.29,984,754,0
12638,133.86,984,761,0
12648,125.16,984,764,0
12658,145.34,984,762,0
12668,188.22,984,763,0
12678,247.69,984,762,0
12688,318.92,984,763,0
12698,397.37,984,762,0
12708,470.55,984,763,0
12718,524.73,984,761,0
12728,559.95,984,763,0
12738,577.24,984,761,0
12748,579.48,984,763,0
12759,569.39,984,761,0
12769,550.46,984,763,0
12779,525.51,984,762,0
12789,497.37,984,762,0
12800,468.46,984,761,0
12809,440.85,984,763,0
12819,415.69,984,762,0
12829,393.72,984,763,0
12839,375.16,984,761,0
12849,360.24,984,763,0
12859,348.72,984,761,0
12869,340.15,984,763,0
12879,334.28,984,762,0
12889,330.76,984,763,0
12899,328.99,984,761,0
12909,328.57,984,763,0
12919,329.00,984,762,0
12929,330.15,984,763,0
12939,331.69,984,761,0
12949,333.11,984,763,0
12959,334.15,984,762,0
12969,335.01,984,763,0
12979,335.56,984,762,0
12989,335.95,984,763,0
12999,336.22,984,762,0
13009,336.71,984,763,0
13019,338.26,984,762,0
13029,341.78,984,763,0
13039,348.27,984,762,0
13049,358.82,984,763,0
13059,374.30,984,762,0
13069,395.85,984,763,0
13079,423.84,984,762,0
13089,458.26,984,763,0
13100,498.04,984,762,0
13110,539.98,984,764,0
13120,581.56,984,764,0
13130,620.74,984,766,0
13140,655.44,984,768,0
13150,684.50,984,770,0
13169,706.85,0,770,0
13171,722.49,0,771,0
13181,733.45,0,772,0
13191,741.07,0,773,0
13201,744.39,0,775,0
13211,742.00,0,774,0
13221,733.09,0,775,0
13231,717.08,0,774,0
13241,693.70,0,775,0
13251,662.84,0,774,0
13261,625.26,0,775,0
13271,583.23,0,774,0
13281,539.83,0,775,0
13291,496.72,0,774,0
13301,456.05,0,775,0
13312,418.83,0,774,0
13321,386.53,0,774,0
13331,359.11,0,774,0
13341,337.26,0,775,0
13351,320.47,0,774,0
13361,308.89,0,774,0
13371,301.25,0,774,0
13381,297.45,0,774,0
13391,296.24,0,773,0
13401,297.20,0,773,0
13411,299.67,0,773,0
13421,303.62,0,772,0
13431,308.32,0,772,0
13441,314.05,0,772,0
13451,320.17,0,772,0
13461,327.06,0,772,0
13471,333.86,0,771,0
13481,339.26,0,764,0
13491,342.82,0,774,0
13501,350.16,0,774,0
13511,360.23,0,773,0
13521,372.46,0,772,0
13531,385.44,0,770,0
13541,399.10,0,770,0
13551,413.43,0,767,0
13561,427.87,0,767,0
13571,436.35,0,766,0
13581,439.33,0,766,0
13591,436.96,0,765,0
13601,430.33,0,765,0
13612,419.99,0,765,0
13622,407.39,0,766,0
13632,392.96,0,765,0
13642,378.06,0,766,0
13652,363.00,0,765,0
13662,349.16,0,767,0
13672,336.51,0,766,0
13682,325.94,0,766,0
13692,317.22,0,765,0
13702,311.49,0,766,0
13712,307.92,0,764,0
13722,294.87,0,754,0
13732,276.65,0,763,0
13742,273.76,0,767,0
13752,287.16,0,766,0
13762,316.43,0,766,0
13772,355.94,0,765,0
13783,402.67,0,766,0
13793,465.99,0,765,0
13803,539.28,0,766,0
13813,600.95,0,765,0
13824,648.62,0,766,0
13833,682.04,0,765,0
13852,705.42,683,763,0
13854,721.84,683,764,0
13864,733.33,683,766,0
13874,741.37,683,764,0
13884,747.01,683,766,0
13894,750.95,683,764,0
13904,752.55,683,766,0
13914,749.04,683,764,0
13924,738.70,683,766,0
13934,720.23,683,764,0
13944,693.25,683,766,0
13954,657.95,683,764,0
13964,615.10,683,766,0
13974,566.00,683,764,0
13984,515.00,683,766,0
13995,464.60,683,764,0
14004,417.62,683,765,0
14014,375.39,683,763,0
14024,339.02,683,765,0
14034,308.63,683,763,0
14044,285.25,683,764,0
14054,268.03,683,763,0
14064,257.27,683,764,0
14074,252.00,683,763,0
14084,252.09,683,764,0
14094,256.26,683,762,0
14104,264.41,683,764,0
14114,275.30,683,763,0
14124,288.84,683,764,0
14134,303.37,683,763,0
14144,318.52,683,764,0
14154,332.76,683,763,0
14164,345.99,683,764,0
14174,356.67,683,763,0
14184,364.82,683,764,0
14194,369.59,683,763,0
14204,371.68,683,764,0
14214,370.79,683,762,0
14224,367.81,683,764,0
14234,362.64,683,763,0
14244,356.28,683,764,0
14254,348.69,683,762,0
14264,340.90,683,764,0
14274,332.70,683,763,0
14284,324.95,683,764,0
14295,317.42,683,762,0
14305,310.99,683,764,0
14315,305.34,683,763,0
14325,301.04,683,764,0
14336,297.64,683,762,0
14345,295.99,683,765,0
14355,295.35,683,763,0
14365,296.32,683,765,0
14375,297.94,683,764,0
14385,300.61,683,767,0
14395,303.69,683,766,0
14405,307.72,683,768,0
14415,312.48,683,768,0
14425,319.06,683,770,0
14435,327.74,683,770,0
14445,340.04,683,771,0
14455,356.57,683,770,0
14465,378.51,683,772,0
14475,406.09,683,772,0
14485,439.70,683,773,0
14495,478.36,683,771,0
14505,520.38,683,772,0
14515,562.74,683,769,0
14534,603.23,682,765,0
14536,639.98,682,768,0
14546,671.61,682,768,0
14556,696.97,682,765,0
14566,715.88,682,767,0
14576,729.16,682,765,0
14586,738.50,682,766,0
14596,743.36,682,765,0
14606,742.57,682,766,0
14616,734.38,682,764,0
14626,717.17,682,764,0
14636,689.30,682,761,0
14646,639.33,682,761,0
14656,576.19,682,760,0
14666,509.57,682,761,0
14676,443.70,682,760,0
14686,378.95,682,761,0
14696,326.12,682,761,0
14706,287.73,682,763,0
14716,275.38,682,762,0
14726,279.38,682,763,0
14736,276.27,682,749,0
14746,274.22,682,760,0
14756,280.24,682,760,0
14766,285.87,682,762,0
14776,292.25,682,761,0
14786,298.65,682,762,0
14796,304.67,682,760,0
14807,324.61,682,762,0
14817,343.07,682,752,0
14827,354.28,682,760,0
14837,368.64,682,763,0
14848,384.60,682,765,0
14857,401.05,682,763,0
14867,417.58,682,765,0
14877,433.60,682,763,0
14887,452.71,682,765,0
14897,474.48,682,763,0
14907,487.37,682,765,0
14917,490.64,682,763,0
14927,485.91,682,765,0
14937,474.79,682,763,0
14947,459.38,682,765,0
14957,441.23,682,763,0
14967,421.96,682,765,0
14977,402.77,682,763,0
14987,384.84,682,765,0
14997,368.64,682,763,0
15007,354.74,682,765,0
15017,343.29,682,764,0
15027,334.72,682,765,0
15037,328.54,682,763,0
15047,324.57,682,765,0
15057,322.17,682,763,0
15067,321.35,682,765,0
15077,321.67,682,763,0
15087,322.97,682,765,0
15097,324.95,682,763,0
15107,328.14,682,764,0
15117,333.15,682,763,0
15127,340.82,682,765,0
15137,351.59,682,763,0
15148,366.41,682,764,0
15158,386.13,682,763,0
15168,411.55,682,765,0
15178,442.63,682,764,0
15188,478.74,682,765,0
15198,518.50,682,764,0
15208,559.50,682,765,0
15218,599.33,682,764,0
15228,636.00,682,765,0
15238,667.89,682,764,0
15248,694.02,682,765,0
15258,713.99,682,764,0
15268,726.85,682,765,0
15278,732.94,682,764,0
15288,732.31,682,765,0
15298,724.89,682,764,0
15318,710.31,783,762,0
15320,687.72,783,764,0
15330,658.27,783,764,0
15340,623.69,783,764,0
15350,585.43,783,764,0
15361,545.57,783,764,0
15371,505.46,783,764,0
15381,467.22,783,764,0
15391,432.52,783,764,0
15401,401.60,783,764,0
15411,374.50,783,764,0
15421,352.24,783,764,0
15431,334.08,783,764,0
15441,320.64,783,764,0
15451,310.81,783,764,0
15461,304.95,783,764,0
15471,301.84,783,764,0
15481,301.80,783,764,0
15491,303.45,783,764,0
15501,307.17,783,764,0
15511,311.62,783,764,0
15521,317.22,783,764,0
15532,322.85,783,764,0
15542,328.90,783,765,0
15552,334.20,783,764,0
15562,339.37,783,765,0
15572,343.29,783,764,0
15582,346.67,783,765,0
15592,348.57,783,764,0
15602,349.68,783,765,0
15612,349.35,783,764,0
15622,348.47,783,765,0
15632,346.36,783,764,0
15642,344.15,783,765,0
15652,341.06,783,764,0
15662,338.26,783,765,0
15672,334.97,783,764,0
15682,332.06,783,765,0
15692,328.66,783,764,0
15703,325.85,783,765,0
15713,322.85,783,764,0
15723,320.75,783,765,0
15733,318.51,783,764,0
15744,317.12,783,765,0
15753,315.88,783,764,0
15763,316.17,783,765,0
15773,317.32,783,764,0
15783,320.57,783,765,0
15793,325.45,783,764,0
15803,333.55,783,765,0
15813,344.78,783,764,0
15823,360.58,783,765,0
15833,380.38,783,764,0
15843,405.46,783,765,0
15853,434.90,783,764,0
15873,469.26,555,763,0
15876,506.55,555,764,0
15885,546.03,555,766,0
15895,584.89,555,764,0
15905,621.65,555,766,0
15916,654.29,555,764,0
15926,682.23,555,765,0
15936,704.40,555,764,0
15946,721.38,555,766,0
15956,732.92,555,764,0
15966,739.38,555,766,0
15976,740.25,555,764,0
15986,735.42,555,766,0
15996,724.36,555,764,0
16006,707.33,555,765,0
16016,683.96,555,764,0
16026,654.87,555,765,0
16036,621.57,555,764,0
16046,586.34,555,765,0
16056,550.45,555,764,0
16066,515.60,555,765,0
16076,482.68,555,763,0
16087,453.16,555,765,0
16097,427.61,555,764,0
16107,406.43,555,765,0
16117,389.54,555,764,0
16128,376.95,555,765,0
16137,368.35,555,764,0
16147,363.32,555,765,0
16157,361.29,555,764,0
16167,361.59,555,765,0
16177,363.69,555,764,0
16187,366.78,555,765,0
16197,370.49,555,764,0
16207,374.28,555,765,0
16217,377.89,555,764,0
16227,380.79,555,765,0
16237,382.78,555,764,0
16247,383.75,555,765,0
16257,383.78,555,764,0
16267,382.95,555,765,0
16277,381.33,555,764,0
16287,378.88,555,765,0
16297,375.74,555,764,0
16307,372.18,555,765,0
16317,368.22,555,764,0
16327,363.91,555,765,0
16337,359.35,555,764,0
16347,354.62,555,765,0
16357,349.85,555,764,0
16367,345.26,555,765,0
16377,341.03,555,764,0
16387,337.29,555,765,0
16397,334.33,555,764,0
16407,332.30,555,765,0
16417,331.53,555,764,0
16428,332.35,555,765,0
16438,335.33,555,764,0
16448,340.98,555,765,0
16458,350.28,555,764,0
16468,364.00,555,765,0
16478,382.77,555,764,0
16488,407.35,555,765,0
16498,438.15,555,764,0
16518,474.75,645,763,0
16521,515.54,645,766,0
16530,557.38,645,765,0
16540,598.02,645,765,0
16550,635.60,645,765,0
16560,668.42,645,765,0
16570,695.12,645,765,0
16580,715.10,645,765,0
16590,729.08,645,765,0
16600,738.92,645,765,0
16610,745.76,645,765,0
16620,750.54,645,765,0
16630,753.89,645,765,0
16641,754.31,645,765,0
16651,749.55,645,764,0
16661,738.80,645,765,0
16671,720.77,645,764,0
16681,695.55,645,765,0
16691,662.95,645,764,0
16701,623.83,645,765,0
16711,580.30,645,765,0
16721,536.11,645,765,0
16731,492.70,645,764,0
16741,452.81,645,765,0
16751,416.95,645,764,0
16761,386.54,645,765,0
16771,361.09,645,765,0
16781,341.52,645,765,0
16791,326.75,645,764,0
16801,317.18,645,765,0
16812,311.43,645,764,0
16822,309.63,645,765,0
16832,310.34,645,764,0
16842,313.62,645,765,0
16852,318.15,645,764,0
16862,324.02,645,765,0
16872,329.84,645,764,0
16882,336.15,645,765,0
16892,341.72,645,764,0
16902,347.20,645,765,0
16912,351.51,645,764,0
16922,355.22,645,766,0
16932,357.42,645,764,0
16942,359.05,645,766,0
16952,359.08,645,764,0
16962,358.37,645,766,0
16972,356.12,645,764,0
16983,353.30,645,766,0
16993,349.31,645,764,0
17003,345.14,645,766,0
17013,339.96,645,764,0
17024,334.74,645,765,0
17033,328.90,645,764,0
17043,323.40,645,766,0
17053,317.67,645,764,0
17063,312.54,645,766,0
17073,307.45,645,764,0
17083,303.59,645,766,0
17093,300.58,645,764,0
17103,299.72,645,765,0
17113,300.92,645,764,0
17123,305.96,645,766,0
17133,315.18,645,764,0
17143,330.43,645,765,0
17153,351.56,645,764,0
17163,380.49,645,766,0
17173,416.73,645,764,0
17183,460.14,645,766,0
17203,506.64,685,764,0
17206,553.59,685,766,0
17215,598.07,685,764,0
17225,638.64,685,766,0
17235,672.73,685,764,0
17245,699.47,685,766,0
17255,718.23,685,764,0
17265,731.36,685,766,0
17275,740.55,685,764,0
17285,746.99,685,766,0
17295,751.49,685,764,0
17305,754.64,685,765,0
17315,756.85,685,764,0
17325,756.34,685,766,0
17335,750.58,685,764,0
17345,738.06,685,765,0
17355,717.69,685,764,0
17366,689.15,685,766,0
17375,652.81,685,764,0
17385,609.41,685,765,0
17395,561.59,685,764,0
17405,513.24,685,766,0
17415,466.80,685,764,0
17425,424.64,685,765,0
17435,387.94,685,764,0
17445,357.57,685,766,0
17455,333.31,685,764,0
17465,315.52,685,765,0
17475,303.49,685,764,0
17485,297.04,685,766,0
17495,295.02,685,764,0
17505,296.85,685,765,0
17515,301.27,685,764,0
17525,307.79,685,766,0
17536,315.27,685,764,0
17545,323.16,685,765,0
17555,330.52,685,764,0
17565,337.31,685,766,0
17575,342.96,685,764,0
17585,347.47,685,765,0
17595,350.50,685,764,0
17605,352.24,685,766,0
17615,352.42,685,764,0
17625,351.65,685,765,0
17635,349.79,685,764,0
17645,347.24,685,766,0
17655,343.95,685,764,0
17665,340.32,685,765,0
17675,336.37,685,764,0
17685,332.62,685,766,0
17695,328.75,685,764,0
17705,325.05,685,766,0
17715,321.44,685,764,0
17725,318.18,685,766,0
17735,315.08,685,764,0
17745,312.40,685,766,0
17755,309.92,685,764,0
17765,307.97,685,766,0
17775,306.40,685,764,0
17785,305.55,685,766,0
17795,305.47,685,764,0
17805,307.09,685,766,0
17815,310.75,685,764,0
17825,317.55,685,766,0
17836,328.27,685,764,0
17846,344.22,685,766,0
17856,366.14,685,764,0
17866,394.98,685,765,0
17876,430.60,685,764,0
17895,472.51,693,763,0
17898,517.40,693,765,0
17907,562.45,693,766,0
17917,605.22,693,764,0
17927,643.72,693,766,0
17937,676.25,693,764,0
17947,701.72,693,765,0
17957,719.76,693,764,0
17967,732.39,693,766,0
17977,741.27,693,764,0
17987,747.49,693,765,0
17997,751.84,693,764,0
18007,753.99,693,766,0
18017,751.94,693,764,0
18027,744.11,693,765,0
18037,729.46,693,764,0
18048,707.30,693,765,0
18057,677.76,693,764,0
18067,641.15,693,765,0
18077,598.89,693,764,0
18087,553.97,693,765,0
18097,509.28,693,764,0
18107,466.81,693,766,0
18117,428.47,693,764,0
18127,394.81,693,765,0
18137,366.67,693,764,0
18147,344.05,693,765,0
18157,327.19,693,764,0
18167,315.31,693,765,0
18177,308.27,693,764,0
18187,305.23,693,765,0
18197,305.68,693,764,0
18207,308.56,693,765,0
18217,313.53,693,764,0
18227,319.46,693,765,0
18237,326.01,693,764,0
18247,332.43,693,765,0
18257,338.48,693,764,0
18267,343.78,693,766,0
18277,348.17,693,764,0
18287,351.21,693,765,0
18297,353.33,693,764,0
18307,354.35,693,765,0
18317,354.50,693,764,0
18327,353.58,693,765,0
18337,351.86,693,764,0
18348,349.33,693,765,0
18358,346.58,693,764,0
18368,343.32,693,765,0
18378,340.26,693,765,0
18388,336.93,693,765,0
18398,333.91,693,764,0
18408,330.89,693,765,0
18418,328.31,693,765,0
18428,325.65,693,765,0
18438,323.35,693,764,0
18448,320.80,693,765,0
18458,318.68,693,765,0
18468,316.37,693,765,0
18478,314.46,693,764,0
18488,312.44,693,765,0
18498,310.89,693,765,0
18508,309.30,693,765,0
18519,308.22,693,765,0
18529,307.08,693,765,0
18539,306.67,693,765,0
18549,306.47,693,765,0
18560,307.44,693,765,0
18569,309.15,693,765,0
18579,312.79,693,765,0
18589,318.08,693,765,0
18599,326.59,693,765,0
18609,338.03,693,765,0
18619,353.87,693,765,0
18629,374.10,693,765,0
18639,399.87,693,765,0
18649,430.29,693,765,0
18668,465.73,773,764,0
18671,504.21,773,765,0
18680,544.91,773,766,0
18690,584.88,773,765,0
18700,622.37,773,765,0
18710,655.47,773,765,0
18720,683.57,773,765,0
18731,705.77,773,764,0
18740,721.48,773,765,0
18750,729.35,773,765,0
18760,730.15,773,765,0
18770,723.50,773,764,0
18780,710.15,773,765,0
18790,689.58,773,765,0
18800,662.40,773,765,0
18810,629.63,773,764,0
18820,594.12,773,765,0
18830,556.84,773,765,0
18840,520.25,773,765,0
18850,484.60,773,764,0
18860,452.11,773,765,0
18870,422.72,773,765,0
18880,397.73,773,765,0
18890,376.43,773,764,0
18900,359.71,773,766,0
18910,346.64,773,765,0
18920,337.75,773,765,0
18930,331.82,773,764,0
18940,329.35,773,766,0
18950,329.12,773,765,0
18960,331.31,773,765,0
18970,334.60,773,764,0
18980,339.44,773,766,0
18990,344.49,773,765,0
19000,350.17,773,765,0
19010,355.22,773,764,0
19020,360.17,773,765,0
19031,363.93,773,764,0
19041,367.21,773,766,0
19051,368.95,773,764,0
19061,369.95,773,766,0
19072,369.36,773,764,0
19081,368.44,773,765,0
19091,366.42,773,764,0
19101,364.24,773,766,0
19111,361.25,773,764,0
19121,358.52,773,766,0
19131,355.54,773,764,0
19141,353.10,773,766,0
19151,350.29,773,764,0
19161,347.93,773,766,0
19171,345.29,773,764,0
19181,343.23,773,766,0
19191,340.81,773,764,0
19201,338.85,773,766,0
19211,336.62,773,764,0
19221,334.98,773,766,0
19231,333.06,773,764,0
19241,331.93,773,766,0
19251,330.53,773,764,0
19261,329.65,773,765,0
19271,328.47,773,764,0
19281,327.94,773,766,0
19291,327.19,773,764,0
19301,326.96,773,766,0
19311,326.37,773,765,0
19321,326.22,773,766,0
19331,325.85,773,764,0
19341,325.98,773,766,0
19351,325.69,773,764,0
19361,325.74,773,766,0
19372,325.56,773,764,0
19382,326.25,773,766,0
19392,327.46,773,764,0
19402,330.41,773,766,0
19412,334.79,773,764,0
19422,341.96,773,766,0
19432,351.79,773,764,0
19442,365.57,773,766,0
19452,382.67,773,764,0
19462,403.90,773,766,0
19472,428.14,773,764,0
19491,455.40,823,763,0
19494,483.78,823,764,0
19503,513.16,823,766,0
19513,541.01,823,764,0
19523,566.47,823,766,0
19533,587.50,823,764,0
19543,603.63,823,766,0
19553,613.43,823,764,0
19563,617.29,823,766,0
19573,614.16,823,764,0
19584,605.24,823,766,0
19593,590.85,823,764,0
19603,572.51,823,766,0
19613,550.72,823,764,0
19623,527.19,823,766,0
19633,502.57,823,764,0
19643,478.40,823,766,0
19653,454.88,823,764,0
19663,433.02,823,766,0
19673,412.78,823,764,0
19683,395.15,823,766,0
19693,379.80,823,764,0
19703,367.39,823,766,0
19713,357.25,823,764,0
19723,350.06,823,766,0
19733,345.03,823,764,0
19743,342.23,823,765,0
19753,340.92,823,764,0
19763,341.24,823,766,0
19773,342.37,823,764,0
19783,344.75,823,766,0
19793,347.44,823,764,0
19803,350.82,823,766,0
19813,354.26,823,764,0
19823,358.04,823,765,0
19833,361.33,823,764,0
19843,364.53,823,766,0
19853,366.90,823,764,0
19863,369.07,823,766,0
19873,370.38,823,764,0
19884,371.42,823,766,0
19894,371.55,823,764,0
19904,371.47,823,766,0
19914,370.73,823,764,0
19924,369.74,823,766,0
19934,367.98,823,764,0
19944,366.10,823,766,0
19954,363.75,823,764,0
19964,361.38,823,766,0
19974,358.83,823,764,0
19984,356.35,823,766,0
19994,353.89,823,764,0
20004,351.69,823,766,0
20014,349.51,823,764,0
20024,347.60,823,765,0
20034,345.71,823,764,0
20044,344.08,823,766,0
20055,342.47,823,764,0
20065,341.00,823,765,0
20075,339.63,823,764,0
20085,338.50,823,766,0
20096,337.49,823,764,0
20105,336.87,823,766,0
20115,336.40,823,764,0
20125,336.19,823,766,0
20135,336.13,823,764,0
20145,336.35,823,766,0
20155,336.80,823,764,0
20165,337.50,823,766,0
20175,338.55,823,764,0
20185,340.10,823,766,0
20195,342.39,823,764,0
20205,345.70,823,766,0
20215,350.42,823,764,0
20225,356.76,823,766,0
20235,365.32,823,764,0
20245,376.54,823,766,0
20255,390.73,823,764,0
20265,408.13,823,766,0
20275,428.45,823,764,0
20294,451.33,803,763,0
20297,475.83,803,766,0
20306,501.29,803,766,0
20316,526.36,803,764,0
20326,549.65,803,766,0
20336,569.86,803,765,0
20346,585.89,803,766,0
20356,596.89,803,764,0
20366,602.80,803,766,0
20376,603.07,803,765,0
20386,597.74,803,766,0
20396,587.61,803,764,0
20406,573.16,803,766,0
20416,555.75,803,764,0
20426,535.99,803,766,0
20436,515.08,803,765,0
20446,493.75,803,766,0
20456,473.21,803,765,0
20466,453.56,803,766,0
20476,435.87,803,765,0
20486,419.96,803,766,0
20496,406.47,803,764,0
20506,395.02,803,766,0
20516,385.80,803,765,0
20526,378.44,803,766,0
20536,373.25,803,765,0
20546,369.66,803,766,0
20556,367.75,803,764,0
20567,366.93,803,766,0
20577,367.33,803,765,0
20587,368.30,803,765,0
20597,370.10,803,765,0
20608,372.08,803,765,0
20617,374.42,803,765,0
20627,376.61,803,766,0
20637,379.00,803,765,0
20647,380.97,803,765,0
20657,383.08,803,765,0
20667,384.51,803,765,0
20677,385.90,803,765,0
20687,386.62,803,765,0
20697,387.20,803,765,0
20707,387.10,803,766,0
20717,386.73,803,764,0
20727,385.52,803,765,0
20737,384.21,803,765,0
20747,382.43,803,766,0
20757,380.72,803,765,0
20767,378.53,803,766,0
20777,376.44,803,765,0
20787,374.21,803,765,0
20797,372.35,803,765,0
20807,370.27,803,765,0
20817,368.39,803,765,0
20827,366.22,803,766,0
20837,364.35,803,765,0
20847,362.23,803,765,0
20857,360.49,803,765,0
20867,358.59,803,766,0
20877,357.12,803,765,0
20887,355.54,803,765,0
20897,354.52,803,765,0
20908,353.47,803,765,0
20918,352.98,803,765,0
20928,352.39,803,765,0
20938,352.40,803,765,0
20948,352.37,803,765,0
20958,352.77,803,765,0
20968,352.97,803,765,0
20978,353.49,803,765,0
20988,353.77,803,765,0
20998,354.40,803,765,0
21008,354.79,803,765,0
21018,355.84,803,765,0
21028,357.05,803,765,0
21038,359.35,803,765,0
21048,362.41,803,765,0
21058,367.39,803,766,0
21068,374.04,803,765,0
21079,383.55,803,765,0
21089,395.51,803,765,0
21099,411.21,803,766,0
21109,429.96,803,765,0
21129,452.48,834,763,0
21132,477.06,834,766,0
21141,504.30,834,766,0
21151,532.02,834,764,0
21161,559.66,834,766,0
21171,584.83,834,765,0
21181,607.04,834,766,0
21191,624.17,834,765,0
21201,636.51,834,766,0
21211,642.35,834,765,0
21221,642.68,834,766,0
21231,636.90,834,764,0
21241,626.35,834,766,0
21251,611.16,834,765,0
21261,592.85,834,766,0
21271,571.81,834,764,0
21281,549.75,834,766,0
21292,526.86,834,764,0
21302,504.70,834,766,0
21312,483.32,834,764,0
21322,463.89,834,766,0
21332,446.61,834,764,0
21342,432.29,834,766,0
21352,420.29,834,764,0
21362,411.24,834,766,0
21372,404.61,834,764,0
21382,400.74,834,766,0
21392,398.59,834,764,0
21402,398.37,834,766,0
21412,399.16,834,764,0
21422,401.30,834,766,0
21432,403.91,834,764,0
21442,407.24,834,766,0
21452,410.59,834,764,0
21463,414.40,834,766,0
21473,417.80,834,764,0
21483,421.07,834,766,0
21493,423.49,834,764,0
21504,425.53,834,766,0
21513,426.57,834,764,0
21523,427.13,834,766,0
21533,426.88,834,764,0
21543,426.18,834,766,0
21553,424.89,834,765,0
21563,423.42,834,766,0
21573,421.45,834,764,0
21583,419.34,834,766,0
21593,416.80,834,765,0
21603,414.16,834,766,0
21613,411.20,834,764,0
21623,408.27,834,766,0
21633,405.02,834,764,0
21643,401.97,834,766,0
21653,398.85,834,764,0
21663,396.02,834,766,0
21673,393.19,834,764,0
21683,390.77,834,766,0
21693,388.40,834,764,0
21703,386.52,834,766,0
21713,384.74,834,764,0
21723,383.36,834,766,0
21733,382.01,834,764,0
21743,381.02,834,766,0
21753,380.11,834,764,0
21763,379.57,834,766,0
21773,379.01,834,764,0
21783,378.75,834,766,0
21793,378.57,834,764,0
21804,378.87,834,766,0
21814,379.55,834,764,0
21824,381.01,834,766,0
21834,383.58,834,765,0
21844,388.04,834,766,0
21854,394.67,834,764,0
21864,404.41,834,766,0
21874,417.74,834,765,0
21884,435.56,834,766,0
21894,458.11,834,764,0
21904,485.68,834,766,0
21914,517.79,834,765,0
21934,553.04,805,763,0
21936,588.98,805,766,0
21946,623.75,805,766,0
21956,655.54,805,765,0
21966,683.23,805,766,0
21976,705.66,805,765,0
21986,722.44,805,766,0
21996,734.22,805,765,0
22006,742.17,805,766,0
22017,745.93,805,765,0
22027,744.97,805,766,0
22037,739.02,805,765,0
22047,727.49,805,766,0
22057,710.50,805,765,0
22067,687.80,805,765,0
22077,660.22,805,765,0
22087,629.08,805,765,0
22097,596.66,805,765,0
22107,564.19,805,766,0
22117,533.58,805,765,0
22127,505.07,805,766,0
22137,479.98,805,765,0
22147,458.17,805,766,0
22157,440.42,805,765,0
22167,426.02,805,766,0
22177,415.13,805,765,0
22188,406.91,805,765,0
22198,401.75,805,766,0
22208,398.61,805,765,0
22218,397.74,805,765,0
22228,398.25,805,765,0
22238,400.27,805,766,0
22248,402.85,805,765,0
22258,406.28,805,765,0
22268,409.54,805,765,0
22278,413.11,805,766,0
22288,415.99,805,765,0
22298,418.69,805,765,0
22308,420.28,805,765,0
22318,421.66,805,766,0
22328,421.84,805,765,0
22338,421.72,805,765,0
22348,420.48,805,765,0
22359,419.13,805,766,0
22369,416.86,805,765,0
22379,414.72,805,766,0
22389,411.72,805,765,0
22400,408.89,805,766,0
22409,405.54,805,765,0
22419,402.72,805,766,0
22429,399.46,805,765,0
22439,396.71,805,766,0
22449,393.62,805,765,0
22459,391.04,805,766,0
22469,388.28,805,765,0
22479,386.06,805,766,0
22489,383.51,805,765,0
22499,381.56,805,766,0
22509,379.38,805,765,0
22519,377.89,805,766,0
22529,376.30,805,765,0
22539,375.48,805,766,0
22549,374.48,805,765,0
22559,374.08,805,766,0
22569,373.41,805,765,0
22579,373.33,805,766,0
22589,372.85,805,765,0
22599,372.85,805,766,0
22609,372.25,805,765,0
22619,372.00,805,766,0
22629,371.32,805,765,0
22639,371.05,805,766,0
22649,370.39,805,765,0
22659,370.40,805,766,0
22669,370.41,805,764,0
22679,371.57,805,766,0
22689,373.42,805,765,0
22700,377.36,805,766,0
22710,383.17,805,764,0
22720,392.55,805,766,0
22730,405.41,805,765,0
22740,423.50,805,766,0
22750,446.41,805,764,0
22760,475.39,805,766,0
22779,509.34,846,765,0
22782,546.74,846,767,0
22791,584.62,846,764,0
22801,621.29,846,766,0
22811,654.46,846,765,0
22821,683.29,846,766,0
22831,706.22,846,764,0
22841,722.95,846,767,0
22851,734.67,846,765,0
22861,742.87,846,766,0
22871,748.61,846,764,0
22881,752.62,846,767,0
22891,755.09,846,765,0
22901,754.47,846,767,0
22912,749.23,846,764,0
22921,738.87,846,766,0
22931,722.37,846,764,0
22941,699.76,846,766,0
22951,670.77,846,764,0
22961,636.68,846,766,0
22971,599.49,846,765,0
22981,561.93,846,766,0
22991,525.05,846,764,0
23001,491.31,846,766,0
23011,461.04,846,765,0
23021,435.49,846,766,0
23031,414.17,846,764,0
23041,397.96,846,766,0
23051,386.14,846,765,0
23061,378.94,846,766,0
23071,375.06,846,764,0
23081,374.66,846,766,0
23091,376.56,846,765,0
23101,380.72,846,766,0
23111,385.82,846,764,0
23121,391.79,846,766,0
23131,397.72,846,765,0
23141,403.85,846,766,0
23151,409.12,846,764,0
23161,413.97,846,766,0
23171,417.58,846,765,0
23181,420.49,846,766,0
23191,422.02,846,765,0
23201,422.70,846,766,0
23212,421.89,846,765,0
23222,420.42,846,766,0
23232,417.72,846,765,0
23242,414.51,846,766,0
23252,410.37,846,764,0
23262,406.14,846,766,0
23272,401.34,846,765,0
23282,396.57,846,766,0
23292,391.51,846,765,0
23302,386.86,846,766,0
23312,382.19,846,764,0
23322,377.97,846,766,0
23332,373.87,846,765,0
23342,370.39,846,766,0
23352,367.15,846,764,0
23362,364.49,846,766,0
23372,362.03,846,765,0
23383,360.13,846,766,0
23393,358.46,846,764,0
23403,357.25,846,766,0
23413,356.15,846,765,0
23424,355.46,846,766,0
23433,354.72,846,765,0
23443,354.21,846,766,0
23453,353.72,846,765,0
23463,353.50,846,766,0
23473,353.22,846,764,0
23483,353.11,846,766,0
23493,352.95,846,764,0
23503,352.84,846,766,0
23513,352.54,846,764,0
23523,352.29,846,766,0
23533,351.95,846,764,0
23543,351.84,846,766,0
23553,352.10,846,764,0
23563,353.31,846,766,0
23573,355.79,846,765,0
23583,360.18,846,766,0
23593,366.86,846,765,0
23603,376.54,846,766,0
23613,389.62,846,765,0
23623,406.92,846,767,0
23633,428.76,846,766,0
23643,455.49,846,766,0
23662,486.80,883,766,0
23665,521.79,883,767,0
23674,558.88,883,766,0
23684,595.99,883,766,0
23694,630.92,883,765,0
23704,662.19,883,767,0
23714,688.66,883,765,0
23724,709.72,883,766,0
23734,725.40,883,766,0
23744,736.38,883,767,0
23754,742.57,883,766,0
23764,743.51,883,767,0
23774,739.29,883,766,0
23784,729.51,883,767,0
23794,714.02,883,766,0
23804,692.54,883,767,0
23814,665.51,883,766,0
23824,634.63,883,767,0
23834,601.82,883,766,0
23844,568.15,883,767,0
23854,535.15,883,766,0
23864,503.82,883,767,0
23874,475.24,883,766,0
23884,449.67,883,767,0
23895,427.61,883,766,0
23905,408.91,883,767,0
23915,393.94,883,766,0
23925,382.13,883,766,0
23936,373.60,883,766,0
23945,367.85,883,767,0
23955,364.81,883,766,0
23965,363.75,883,766,0
23975,364.86,883,766,0
23985,367.21,883,767,0
23995,370.96,883,766,0
24005,375.09,883,766,0
24015,379.73,883,767,0
24025,384.27,883,767,0
24035,388.99,883,766,0
24045,393.15,883,767,0
24055,396.92,883,767,0
24065,399.86,883,767,0
24075,402.34,883,767,0
24085,403.83,883,767,0
24095,404.61,883,767,0
24105,404.25,883,767,0
24115,403.11,883,766,0
24125,400.89,883,766,0
24135,398.22,883,766,0
24145,394.94,883,766,0
24155,391.70,883,766,0
24165,388.02,883,767,0
24175,384.46,883,766,0
24185,380.76,883,767,0
24195,377.53,883,766,0
24205,374.16,883,767,0
24215,371.03,883,766,0
24225,367.63,883,767,0
24236,364.66,883,767,0
24246,361.63,883,766,0
24256,359.08,883,766,0
24266,356.45,883,766,0
24276,354.30,883,766,0
24286,352.24,883,766,0
24296,350.58,883,766,0
24306,348.78,883,766,0
24316,347.43,883,766,0
24326,346.06,883,766,0
24336,345.23,883,766,0
24346,344.17,883,766,0
24356,343.56,883,767,0
24366,342.97,883,766,0
24376,342.98,883,766,0
24386,342.81,883,766,0
24396,343.17,883,766,0
24407,343.20,883,766,0
24417,343.91,883,766,0
24427,344.63,883,766,0
24437,346.49,883,766,0
24448,349.22,883,766,0
24457,354.21,883,766,0
24467,361.30,883,766,0
24477,372.31,883,767,0
24487,387.22,883,765,0
24497,407.47,883,766,0
24507,432.74,883,766,0
24517,464.02,883,767,0
24537,500.18,874,765,0
24539,539.52,874,768,0
24549,579.05,874,765,0
24559,617.00,874,767,0
24569,651.37,874,765,0
24579,681.05,874,767,0
24589,704.60,874,765,0
24599,721.82,874,767,0
24609,733.88,874,766,0
24620,742.31,874,767,0
24630,747.49,874,765,0
24640,748.50,874,767,0
24650,744.11,874,765,0
24660,733.79,874,767,0
24670,717.10,874,765,0
24680,694.05,874,768,0
24690,664.38,874,766,0
24700,629.64,874,767,0
24710,591.77,874,766,0
24720,553.53,874,768,0
24730,516.08,874,766,0
24740,481.17,874,767,0
24750,449.32,874,766,0
24760,422.10,874,768,0
24770,399.01,874,766,0
24780,380.75,874,767,0
24791,366.55,874,765,0
24801,356.92,874,767,0
24811,350.77,874,765,0
24821,348.27,874,767,0
24832,348.36,874,765,0
24841,350.99,874,767,0
24851,355.02,874,765,0
24861,360.42,874,767,0
24871,366.21,874,765,0
24881,372.53,874,767,0
24891,378.54,874,765,0
24901,384.21,874,766,0
24911,389.03,874,765,0
24921,393.31,874,767,0
24931,396.47,874,765,0
24941,398.82,874,766,0
24951,399.94,874,765,0
24961,400.47,874,767,0
24971,399.95,874,765,0
24981,398.93,874,767,0
24991,397.03,874,765,0
25001,394.83,874,767,0
25011,391.93,874,765,0
25021,388.82,874,767,0
25031,385.10,874,765,0
25041,381.30,874,767,0
25051,377.05,874,765,0
25061,372.97,874,767,0
25071,368.73,874,766,0
25081,364.83,874,768,0
25091,361.06,874,766,0
25101,357.79,874,768,0
25111,354.64,874,766,0
25121,351.92,874,768,0
25132,349.29,874,766,0
25142,347.06,874,768,0
25152,345.03,874,766,0
25162,343.35,874,768,0
25172,341.74,874,766,0
25182,340.58,874,768,0
25192,339.55,874,766,0
25202,338.87,874,768,0
25212,338.22,874,766,0
25222,337.90,874,767,0
25232,337.54,874,765,0
25242,337.29,874,767,0
25252,337.08,874,766,0
25262,337.05,874,767,0
25272,337.21,874,766,0
25282,338.05,874,767,0
25292,339.88,874,766,0
25303,343.51,874,767,0
25313,349.57,874,766,0
25323,358.87,874,767,0
25333,372.45,874,766,0
25344,391.26,874,767,0
25353,415.70,874,766,0
25363,446.13,874,767,0
25373,482.31,874,766,0
25393,522.37,856,765,0
25396,563.57,856,767,0
25405,603.47,856,767,0
25415,640.10,856,767,0
25425,672.04,856,767,0
25435,697.96,856,766,0
25445,717.17,856,767,0
25455,730.62,856,767,0
25465,740.03,856,767,0
25475,746.62,856,766,0
25485,748.88,856,767,0
25495,745.92,856,767,0
25505,736.64,856,766,0
25516,720.81,856,766,0
25526,697.85,856,766,0
25536,668.24,856,767,0
25546,632.25,856,766,0
25556,593.26,856,767,0
25566,553.20,856,766,0
25576,514.57,856,767,0
25586,478.27,856,766,0
25596,446.22,856,767,0
25606,418.42,856,766,0
25616,395.75,856,767,0
25626,377.53,856,766,0
25636,364.34,856,766,0
25646,355.24,856,767,0
25656,350.62,856,767,0
25666,349.15,856,766,0
25676,351.16,856,766,0
25687,355.31,856,766,0
25697,361.91,856,767,0
25707,369.48,856,766,0
25717,378.38,856,767,0
25728,387.26,856,766,0
25737,396.48,856,767,0
25747,404.74,856,766,0
25757,412.36,856,767,0
25767,418.08,856,766,0
25777,422.51,856,767,0
25787,424.55,856,766,0
25797,424.94,856,766,0
25807,423.16,856,766,0
25817,420.20,856,767,0
25827,415.59,856,766,0
25837,410.36,856,766,0
25847,403.91,856,766,0
25857,397.46,856,767,0
25867,390.51,856,766,0
25877,383.97,856,767,0
25887,376.99,856,766,0
25897,370.52,856,767,0
25907,363.90,856,766,0
25917,358.06,856,767,0
25927,352.21,856,766,0
25937,347.26,856,767,0
25947,342.43,856,766,0
25957,338.61,856,767,0
25967,335.00,856,766,0
25977,332.43,856,767,0
25987,330.16,856,766,0
25997,328.82,856,767,0
26007,327.51,856,766,0
26017,326.97,856,767,0
26028,326.33,856,766,0
26038,326.45,856,767,0
26048,326.49,856,766,0
26058,327.11,856,767,0
26068,327.51,856,766,0
26078,328.51,856,767,0
26088,329.26,856,765,0
26098,330.90,856,767,0
26108,332.73,856,766,0
26118,335.94,856,767,0
26128,340.11,856,765,0
26138,346.81,856,767,0
26148,355.87,856,765,0
26158,368.72,856,767,0
26168,384.96,856,765,0
26178,406.02,856,767,0
26188,431.60,856,765,0
26199,462.36,856,767,0
26209,496.92,856,765,0
26219,534.92,856,767,0
26238,573.43,846,766,0
26242,610.89,846,768,0
26251,645.12,846,765,0
26261,674.96,846,767,0
26271,699.10,846,765,0
26281,716.47,846,767,0
26291,725.71,846,765,0
26301,727.51,846,767,0
26311,721.96,846,765,0
26321,709.33,846,767,0
26331,689.86,846,765,0
26341,664.14,846,767,0
26351,633.42,846,765,0
26361,599.48,846,767,0
26371,563.93,846,765,0
26381,528.85,846,767,0
26391,495.21,846,765,0
26401,464.12,846,767,0
26412,436.06,846,765,0
26422,411.87,846,767,0
26432,391.68,846,765,0
26442,375.66,846,767,0
26452,363.33,846,765,0
26462,354.75,846,767,0
26472,349.38,846,765,0
26482,347.04,846,767,0
26492,346.98,846,765,0
26502,348.92,846,767,0
26512,352.07,846,765,0
26522,355.99,846,767,0
26532,360.28,846,765,0
26542,364.57,846,767,0
26552,368.55,846,765,0
26562,372.16,846,767,0
26572,375.03,846,765,0
26583,377.08,846,767,0
26593,378.51,846,765,0
26603,379.39,846,766,0
26613,379.91,846,765,0
26624,379.90,846,766,0
26633,379.71,846,765,0
26643,379.20,846,766,0
26653,378.50,846,765,0
26663,377.19,846,766,0
26673,375.33,846,765,0
26683,372.92,846,766,0
26693,370.33,846,765,0
26703,367.36,846,766,0
26713,364.25,846,765,0
26723,360.92,846,766,0
26733,357.86,846,765,0
26743,354.86,846,766,0
26753,352.07,846,765,0
26763,349.18,846,766,0
26773,346.30,846,765,0
26783,343.51,846,766,0
26793,341.21,846,766,0
26803,339.09,846,767,0
26813,337.31,846,765,0
26823,335.67,846,766,0
26833,334.48,846,766,0
26843,333.48,846,767,0
26853,332.82,846,765,0
26863,332.19,846,766,0
26873,331.70,846,765,0
26883,331.36,846,766,0
26893,331.51,846,765,0
26903,332.22,846,766,0
26913,334.12,846,765,0
26924,337.26,846,766,0
26934,342.41,846,765,0
26944,349.74,846,766,0
26954,360.11,846,766,0
26964,373.40,846,766,0
26974,390.12,846,765,0
26984,410.19,846,766,0
26994,434.05,846,766,0
27004,461.03,846,766,0
27023,490.98,785,765,0
27025,521.67,785,767,0
27035,553.48,785,766,0
27045,584.24,785,766,0
27055,612.84,785,766,0
27065,636.89,785,766,0
27075,655.35,785,766,0
27085,666.73,785,766,0
27095,671.87,785,766,0
27105,668.95,785,766,0
27115,659.15,785,766,0
27125,642.26,785,766,0
27136,620.24,785,766,0
27145,594.07,785,766,0
27155,565.76,785,766,0
27165,535.71,785,766,0
27175,505.84,785,766,0
27185,476.70,785,766,0
27195,449.88,785,766,0
27205,425.31,785,766,0
27215,404.00,785,766,0
27225,385.49,785,766,0
27235,370.73,785,766,0
27245,358.94,785,766,0
27255,350.64,785,766,0
27265,345.01,785,766,0
27275,342.35,785,766,0
27285,341.60,785,766,0
27295,343.09,785,766,0
27305,345.64,785,765,0
27315,349.60,785,766,0
27325,353.92,785,766,0
27335,358.96,785,766,0
27345,363.81,785,765,0
27355,368.71,785,766,0
27365,372.78,785,766,0
27375,376.66,785,766,0
27385,379.42,785,765,0
27395,381.74,785,766,0
27405,382.85,785,766,0
27415,383.53,785,766,0
27425,383.12,785,765,0
27436,382.48,785,766,0
27446,380.79,785,766,0
27456,379.06,785,766,0
27466,376.47,785,765,0
27476,374.06,785,766,0
27486,371.00,785,766,0
27496,368.30,785,766,0
27506,365.21,785,765,0
27516,362.66,785,766,0
27526,359.89,785,766,0
27536,357.61,785,766,0
27546,355.03,785,765,0
27556,353.05,785,766,0
27566,351.02,785,766,0
27576,349.60,785,766,0
27586,347.96,785,765,0
27596,346.94,785,766,0
27607,345.80,785,765,0
27617,345.35,785,766,0
27627,344.77,785,764,0
27637,344.76,785,767,0
27648,344.79,785,765,0
27657,345.92,785,766,0
27667,347.62,785,765,0
27677,351.20,785,767,0
27687,356.28,785,765,0
27697,364.21,785,766,0
27707,374.65,785,764,0
27717,388.98,785,766,0
27727,407.07,785,765,0
27737,429.94,785,766,0
27747,456.96,785,765,0
27766,488.56,743,764,0
27768,523.15,743,765,0
27778,560.09,743,767,0
27788,596.58,743,765,0
27798,631.07,743,767,0
27808,661.87,743,765,0
27819,688.18,743,767,0
27828,709.04,743,765,0
27838,723.64,743,767,0
27848,730.65,743,765,0
27858,730.75,743,767,0
27868,723.84,743,765,0
27878,710.26,743,766,0
27888,689.61,743,765,0
27898,662.56,743,767,0
27908,630.42,743,765,0
27918,595.96,743,766,0
27928,560.10,743,765,0
27938,524.76,743,766,0
27948,490.63,743,765,0
27958,459.67,743,766,0
27968,432.13,743,765,0
27978,408.99,743,766,0
27988,389.66,743,764,0
27998,374.76,743,766,0
28008,363.48,743,764,0
28018,356.22,743,766,0
28028,352.00,743,764,0
28038,350.93,743,766,0
28048,351.81,743,765,0
28058,354.69,743,766,0
28068,358.60,743,764,0
28078,364.08,743,766,0
28088,369.80,743,765,0
28098,376.07,743,766,0
28108,381.66,743,765,0
28119,387.08,743,766,0
28129,391.47,743,765,0
28139,395.49,743,766,0
28149,398.08,743,764,0
28160,399.94,743,766,0
28169,400.48,743,765,0
28179,400.55,743,767,0
28189,399.65,743,764,0
28199,398.30,743,766,0
28209,395.98,743,765,0
28219,393.46,743,767,0
28229,390.45,743,765,0
28239,387.36,743,766,0
28249,383.65,743,765,0
28259,379.98,743,766,0
28269,376.05,743,764,0
28279,372.47,743,766,0
28289,368.73,743,764,0
28299,365.30,743,766,0
28309,361.82,743,764,0
28319,358.96,743,766,0
28329,356.27,743,764,0
28339,354.31,743,766,0
28349,352.33,743,764,0
28359,350.94,743,766,0
28369,349.72,743,764,0
28379,349.25,743,766,0
28389,349.21,743,765,0
28399,350.14,743,766,0
28409,352.07,743,764,0
28419,356.29,743,766,0
28429,362.93,743,764,0
28439,373.19,743,766,0
28449,387.28,743,764,0
28460,406.48,743,766,0
28470,430.98,743,764,0
28480,461.20,743,766,0
28490,496.37,743,764,0
28510,535.00,743,763,0
28512,574.34,743,765,0
28522,612.51,743,766,0
28532,647.29,743,765,0
28542,677.46,743,766,0
28552,701.83,743,765,0
28562,719.93,743,766,0
28572,732.59,743,765,0
28582,741.41,743,766,0
28592,747.12,743,765,0
28602,748.41,743,766,0
28612,744.26,743,765,0
28622,733.77,743,766,0
28632,716.74,743,764,0
28642,692.77,743,766,0
28652,661.98,743,764,0
28662,625.22,743,766,0
28673,585.51,743,765,0
28683,545.07,743,765,0
28693,506.22,743,765,0
28703,470.11,743,766,0
28713,438.28,743,765,0
28723,411.28,743,766,0
28733,389.77,743,765,0
28743,373.08,743,766,0
28753,361.53,743,765,0
28763,354.08,743,766,0
28773,350.67,743,765,0
28783,350.30,743,766,0
28793,352.91,743,765,0
28803,357.27,743,766,0
28813,363.23,743,765,0
28823,369.67,743,766,0
28833,376.89,743,765,0
28844,383.86,743,765,0
28854,390.55,743,765,0
28864,396.00,743,765,0
28874,400.58,743,765,0
28884,403.75,743,765,0
28894,405.88,743,765,0
28904,406.43,743,765,0
28914,406.09,743,765,0
28924,404.39,743,765,0
28934,402.13,743,765,0
28944,398.71,743,765,0
28954,394.98,743,765,0
28964,390.44,743,765,0
28974,385.81,743,765,0
28984,380.42,743,765,0
28994,375.41,743,765,0
29004,370.02,743,765,0
29015,365.30,743,765,0
29025,360.41,743,765,0
29035,356.17,743,765,0
29045,351.88,743,765,0
29056,348.36,743,766,0
29065,344.69,743,765,0
29075,341.74,743,765,0
29085,338.73,743,765,0
29095,336.50,743,766,0
29105,334.16,743,765,0
29115,332.36,743,765,0
29125,330.45,743,765,0
29135,329.50,743,765,0
29145,328.96,743,765,0
29155,329.92,743,765,0
29165,332.21,743,765,0
29175,337.51,743,765,0
29185,345.75,743,765,0
29195,358.39,743,765,0
29205,375.33,743,765,0
29215,398.24,743,765,0
29225,426.84,743,765,0
29235,461.65,743,765,0
29245,501.18,743,765,0
29255,543.00,743,765,0
29275,584.31,765,764,0
29278,623.48,765,766,0
29287,658.13,765,765,0
29297,687.24,765,766,0
29307,709.67,765,765,0
29317,725.41,765,766,0
29327,736.43,765,765,0
29337,744.14,765,766,0
29347,748.30,765,765,0
29357,748.12,765,766,0
29367,741.92,765,765,0
29377,729.08,765,766,0
29387,708.79,765,764,0
29398,681.17,765,766,0
29407,646.49,765,765,0
29417,606.70,765,765,0
29427,563.55,765,764,0
29437,520.44,765,766,0
29447,478.95,765,764,0
29457,441.38,765,766,0
29467,408.27,765,764,0
29477,380.63,765,766,0
29487,358.07,765,764,0
29497,341.38,765,765,0
29507,329.52,765,764,0
29517,322.81,765,766,0
29527,319.87,765,764,0
29537,320.76,765,765,0
29547,324.13,765,764,0
29557,330.18,765,766,0
29568,337.58,765,764,0
29577,346.49,765,765,0
29587,355.65,765,764,0
29597,365.52,765,766,0
29607,375.01,765,764,0
29617,384.44,765,765,0
29627,392.83,765,764,0
29637,400.94,765,766,0
29647,407.90,765,764,0
29657,414.23,765,766,0
29667,419.18,765,764,0
29677,423.41,765,766,0
29687,426.33,765,764,0
29697,428.67,765,766,0
29707,429.54,765,764,0
29717,429.72,765,766,0
29727,428.48,765,764,0
29737,426.49,765,766,0
29747,423.43,765,765,0
29757,420.00,765,766,0
29767,415.63,765,764,0
29777,411.11,765,766,0
29787,405.89,765,764,0
29797,400.91,765,766,0
29807,395.54,765,764,0
29817,390.36,765,766,0
29827,384.85,765,764,0
29837,379.88,765,766,0
29847,374.73,765,764,0
29857,370.18,765,766,0
29868,365.54,765,764,0
29878,361.61,765,766,0
29888,357.74,765,764,0
29898,354.65,765,766,0
29908,351.71,765,764,0
29918,350.00,765,766,0
29928,349.18,765,764,0
29938,350.50,765,766,0
29948,354.25,765,764,0
29958,361.85,765,766,0
29968,373.89,765,764,0
29978,392.14,765,766,0
29988,417.08,765,764,0
29998,449.59,765,766,0
30008,488.45,765,764,0
30018,530.62,765,766,0
30028,573.29,765,764,0
30048,614.35,774,763,0
30050,651.31,774,765,0
30060,682.46,774,766,0
30070,706.41,774,764,0
30081,723.17,774,766,0
30091,734.95,774,764,0
30101,743.19,774,766,0
30111,748.92,774,764,0
30121,752.89,774,766,0
30131,755.71,774,764,0
30141,757.68,774,766,0
30151,757.56,774,764,0
30161,752.81,774,766,0
30171,742.11,774,764,0
30181,724.29,774,766,0
30191,698.66,774,764,0
30201,665.29,774,766,0
30211,625.00,774,764,0
30221,579.92,774,766,0
30231,533.66,774,764,0
30241,488.37,774,766,0
30252,446.56,774,764,0
30262,409.92,774,766,0
30272,379.60,774,764,0
30282,355.55,774,765,0
30292,338.20,774,765,0
30302,326.87,774,766,0
30312,321.42,774,764,0
30322,320.74,774,766,0
30332,324.46,774,765,0
30342,331.05,774,766,0
30352,339.95,774,764,0
30362,349.65,774,765,0
30372,359.87,774,764,0
30382,369.77,774,766,0
30392,379.14,774,764,0
30402,386.85,774,766,0
30412,393.11,774,765,0
30423,397.15,774,765,0
30433,399.46,774,764,0
30443,399.58,774,765,0
30453,397.91,774,765,0
30464,394.16,774,765,0
30473,389.06,774,764,0
30483,382.48,774,765,0
30493,375.35,774,765,0
30503,367.36,774,765,0
30513,359.45,774,764,0
30523,351.13,774,765,0
30533,343.33,774,765,0
30543,335.56,774,765,0
30553,328.71,774,764,0
30563,322.28,774,765,0
30573,316.93,774,765,0
30583,311.89,774,765,0
30593,308.11,774,764,0
30603,304.78,774,765,0
30613,302.61,774,765,0
30623,300.63,774,765,0
30633,299.46,774,765,0
30643,298.50,774,765,0
30653,298.35,774,765,0
30663,298.20,774,765,0
30673,298.66,774,764,0
30683,299.15,774,765,0
30693,300.43,774,765,0
30703,302.10,774,765,0
30713,305.29,774,764,0
30723,309.91,774,765,0
30733,317.57,774,765,0
30743,328.46,774,765,0
30753,344.22,774,765,0
30764,365.20,774,765,0
30774,392.91,774,765,0
30784,426.75,774,765,0
30794,467.11,774,765,0
30804,510.83,774,765,0
30814,555.46,774,765,0
30824,598.18,774,765,0
30843,637.29,795,763,0
30845,670.63,795,764,0
30855,697.49,795,766,0
30865,716.88,795,765,0
30875,730.46,795,766,0
30885,739.97,795,764,0
30895,745.93,795,765,0
30905,746.68,795,765,0
30915,741.38,795,765,0
30925,728.88,795,764,0
30935,709.41,795,765,0
30945,682.38,795,764,0
30955,648.49,795,765,0
30965,608.44,795,764,0
30976,565.88,795,766,0
30985,522.72,795,765,0
30995,481.79,795,765,0
31005,443.45,795,764,0
31015,409.84,795,766,0
31025,380.66,795,764,0
31035,357.19,795,765,0
31045,338.53,795,764,0
31055,325.09,795,766,0
31065,315.63,795,765,0
31075,310.81,795,765,0
31085,309.24,795,764,0
31095,311.14,795,766,0
31105,315.00,795,765,0
31115,321.21,795,765,0
31125,328.39,795,764,0
31135,336.89,795,766,0
31145,345.32,795,764,0
31155,353.93,795,765,0
31165,361.53,795,764,0
31175,368.57,795,766,0
31185,373.84,795,764,0
31195,378.13,795,765,0
31205,380.32,795,764,0
31215,381.38,795,766,0
31225,380.58,795,764,0
31235,378.99,795,765,0
31245,376.04,795,764,0
31255,372.64,795,766,0
31265,368.21,795,764,0
31276,363.77,795,766,0
31286,358.57,795,764,0
31296,353.47,795,766,0
31306,347.89,795,764,0
31316,342.73,795,766,0
31326,337.59,795,764,0
31336,333.25,795,766,0
31346,329.15,795,764,0
31356,325.98,795,766,0
31366,323.24,795,764,0
31376,321.54,795,766,0
31386,320.05,795,764,0
31396,319.39,795,766,0
31406,318.67,795,764,0
31416,318.60,795,765,0
31426,318.29,795,764,0
31436,318.33,795,766,0
31447,318.02,795,763,0
31457,318.14,795,766,0
31467,318.10,795,764,0
31477,318.88,795,766,0
31488,320.12,795,763,0
31497,323.17,795,766,0
31507,328.09,795,764,0
31517,336.38,795,766,0
31527,348.31,795,763,0
31537,365.14,795,766,0
31547,387.13,795,764,0
31557,415.42,795,766,0
31567,449.32,795,764,0
31577,488.57,795,766,0
31587,530.40,795,764,0
31606,572.41,763,763,0
31608,612.31,763,764,0
31618,648.43,763,766,0
31628,678.95,763,764,0
31638,703.26,763,766,0
31648,720.93,763,764,0
31659,732.95,763,766,0
31668,739.14,763,764,0
31678,739.18,763,766,0
31688,732.40,763,764,0
31698,718.69,763,766,0
31708,697.96,763,764,0
31718,670.46,763,766,0
31728,636.68,763,764,0
31738,598.97,763,766,0
31748,559.42,763,764,0
31758,520.43,763,766,0
31768,483.01,763,764,0
31778,448.47,763,766,0
31788,417.43,763,764,0
31798,390.94,763,766,0
31808,368.89,763,764,0
31818,351.35,763,766,0
31828,337.87,763,764,0
31838,328.70,763,766,0
31848,323.17,763,764,0
31858,321.28,763,766,0
31868,322.14,763,764,0
31878,325.78,763,766,0
31888,331.29,763,764,0
31898,338.45,763,766,0
31908,346.50,763,764,0
31918,355.43,763,766,0
31928,364.22,763,764,0
31938,372.72,763,766,0
31948,380.35,763,764,0
31959,387.06,763,766,0
31969,392.48,763,764,0
31979,396.58,763,766,0
31989,398.98,763,764,0
32000,399.97,763,765,0
32009,399.55,763,764,0
32019,397.89,763,766,0
32029,395.13,763,765,0
32039,391.45,763,766,0
32049,387.07,763,765,0
32059,382.34,763,766,0
32069,377.22,763,764,0
32079,371.93,763,766,0
32089,366.63,763,764,0
32099,361.69,763,766,0
32109,357.15,763,764,0
32119,352.99,763,766,0
32129,349.18,763,764,0
32139,346.00,763,765,0
32149,343.26,763,764,0
32159,340.69,763,765,0
32169,338.17,763,764,0
32179,335.76,763,765,0
32189,333.52,763,764,0
32199,331.44,763,766,0
32209,329.46,763,764,0
32219,327.65,763,765,0
32229,326.17,763,764,0
32239,325.22,763,766,0
32249,325.15,763,764,0
32259,326.52,763,766,0
32269,329.88,763,764,0
32279,336.13,763,766,0
32289,346.08,763,764,0
32300,360.93,763,765,0
32310,381.60,763,764,0
32320,408.72,763,766,0
32330,442.45,763,764,0
32340,482.39,763,765,0
32350,525.30,763,764,0
32369,568.62,763,763,0
32372,610.01,763,765,0
32381,647.33,763,765,0
32391,678.99,763,764,0
32401,703.81,763,765,0
32411,721.31,763,765,0
32421,733.56,763,765,0
32431,742.18,763,764,0
32441,748.17,763,766,0
32451,750.35,763,765,0
32461,747.11,763,765,0
32471,737.78,763,764,0
32481,721.39,763,765,0
32491,697.53,763,764,0
32501,665.96,763,765,0
32512,627.48,763,764,0
32521,584.87,763,765,0
32531,541.11,763,764,0
32541,497.83,763,765,0
32551,457.34,763,764,0
32561,420.94,763,765,0
32571,389.88,763,764,0
32581,363.99,763,765,0
32591,343.42,763,764,0
32601,327.74,763,765,0
32611,317.15,763,764,0
32621,310.89,763,765,0
32631,308.86,763,764,0
32641,309.98,763,765,0
32651,314.01,763,764,0
32661,319.92,763,765,0
32671,327.49,763,764,0
32681,335.74,763,765,0
32691,344.31,763,764,0
32701,352.27,763,765,0
32711,359.73,763,764,0
32721,365.94,763,765,0
32731,371.19,763,764,0
32741,374.82,763,765,0
32751,377.27,763,764,0
32761,378.22,763,765,0
32771,378.11,763,764,0
32781,376.79,763,765,0
32791,374.84,763,764,0
32801,371.72,763,765,0
32812,368.24,763,765,0
32822,363.80,763,765,0
32832,359.32,763,765,0
32842,354.25,763,765,0
32852,349.29,763,765,0
32862,343.97,763,766,0
32872,339.14,763,765,0
32882,334.13,763,765,0
32892,329.85,763,766,0
32902,325.56,763,765,0
32912,322.09,763,765,0
32922,318.64,763,765,0
32932,316.13,763,765,0
32942,313.91,763,766,0
32952,312.52,763,765,0
32962,311.29,763,765,0
32972,310.69,763,765,0
32983,310.05,763,765,0
32993,310.25,763,765,0
33003,310.56,763,765,0
33013,311.94,763,766,0
33024,314.14,763,765,0
33033,318.30,763,765,0
33043,324.55,763,765,0
33053,334.42,763,765,0
33063,347.79,763,765,0
33073,365.98,763,765,0
33083,389.00,763,765,0
33093,418.19,763,765,0
33103,452.67,763,765,0
33113,492.46,763,765,0
33123,534.32,763,765,0
33142,576.22,773,764,0
33144,615.80,773,765,0
33154,651.56,773,765,0
33164,681.61,773,765,0
33174,705.47,773,766,0
33184,722.47,773,765,0
33195,734.37,773,766,0
33204,742.66,773,765,0
33214,748.46,773,766,0
33224,750.17,773,765,0
33234,746.90,773,766,0
33244,737.76,773,765,0
33254,722.32,773,766,0
33264,699.81,773,765,0
33274,670.59,773,766,0
33284,634.84,773,765,0
33294,595.89,773,766,0
33304,555.30,773,764,0
33314,515.52,773,766,0
33324,477.61,773,765,0
33334,443.61,773,766,0
33344,413.64,773,765,0
33354,388.72,773,766,0
33364,368.19,773,764,0
33374,352.79,773,766,0
33384,341.37,773,765,0
33394,334.14,773,766,0
33404,329.86,773,764,0
33414,328.74,773,765,0
33424,329.59,773,765,0
33434,332.80,773,766,0
33444,337.02,773,764,0
33454,342.54,773,765,0
33464,348.29,773,765,0
33474,354.80,773,766,0
33484,360.95,773,764,0
33495,367.09,773,766,0
33505,371.82,773,764,0
33515,375.90,773,766,0
33525,378.50,773,764,0
33536,380.41,773,766,0
33545,380.76,773,765,0
33555,380.49,773,766,0
33565,378.93,773,764,0
33575,377.02,773,766,0
33585,374.27,773,765,0
33595,371.49,773,766,0
33605,368.04,773,764,0
33615,364.73,773,766,0
33625,360.65,773,764,0
33635,356.64,773,766,0
33645,352.34,773,764,0
33655,348.46,773,766,0
33665,344.55,773,765,0
33675,341.43,773,766,0
33685,338.43,773,764,0
33695,336.50,773,766,0
33705,334.72,773,764,0
33715,333.86,773,766,0
33725,333.26,773,764,0
33735,333.87,773,766,0
33745,335.15,773,764,0
33755,338.36,773,766,0
33765,343.31,773,764,0
33775,351.66,773,766,0
33785,363.38,773,764,0
33795,379.64,773,766,0
33805,400.49,773,764,0
33815,427.30,773,766,0
33835,459.35,692,765,0
33838,496.40,692,767,0
33847,536.18,692,764,0
33857,576.41,692,767,0
33867,614.86,692,765,0
33878,649.87,692,767,0
33887,679.57,692,764,0
33897,703.36,692,767,0
33907,720.95,692,765,0
33917,733.26,692,767,0
33927,741.88,692,764,0
33937,747.92,692,767,0
33947,752.14,692,765,0
33957,753.13,692,767,0
33967,749.40,692,764,0
33977,740.07,692,767,0
33987,724.02,692,765,0
33997,701.21,692,766,0
34007,671.49,692,764,0
34017,635.52,692,766,0
34027,595.59,692,764,0
34037,554.31,692,766,0
34048,513.46,692,764,0
34057,475.39,692,766,0
34067,440.95,692,764,0
34077,411.26,692,766,0
34087,386.28,692,764,0
34097,366.48,692,766,0
34107,351.43,692,764,0
34117,341.14,692,766,0
34127,334.67,692,764,0
34137,331.85,692,766,0
34147,331.64,692,765,0
34157,333.72,692,766,0
34167,337.15,692,764,0
34177,341.86,692,766,0
34187,347.00,692,764,0
34197,352.53,692,766,0
34207,357.56,692,764,0
34217,362.32,692,766,0
34227,366.34,692,764,0
34237,369.79,692,766,0
34247,372.30,692,764,0
34257,373.97,692,766,0
34267,374.58,692,764,0
34277,374.57,692,766,0
34287,373.55,692,764,0
34297,371.92,692,766,0
34307,369.50,692,764,0
34317,366.61,692,766,0
34327,363.00,692,764,0
34337,358.97,692,766,0
34348,354.48,692,764,0
34358,349.96,692,766,0
34368,345.17,692,765,0
34378,340.45,692,766,0
34388,335.73,692,764,0
34398,331.44,692,766,0
34408,327.49,692,765,0
34418,323.87,692,766,0
34428,320.65,692,764,0
34438,317.97,692,766,0
34448,315.84,692,765,0
34458,314.30,692,766,0
34468,313.57,692,765,0
34478,314.00,692,767,0
34488,316.10,692,765,0
34498,320.35,692,766,0
34508,327.62,692,765,0
34519,338.58,692,766,0
34529,354.18,692,765,0
34539,374.99,692,766,0
34549,401.78,692,765,0
34560,434.68,692,766,0
34578,473.26,744,765,0
34581,515.35,744,766,0
34590,558.32,744,765,0
34600,599.67,744,766,0
34610,637.65,744,765,0
34620,670.41,744,766,0
34630,696.90,744,765,0
34640,716.52,744,766,0
34650,730.33,744,765,0
34660,739.96,744,766,0
34670,746.75,744,765,0
34680,751.45,744,766,0
34690,754.79,744,765,0
34700,757.08,744,766,0
34710,756.76,744,765,0
34720,751.51,744,766,0
34731,740.30,744,765,0
34740,722.13,744,766,0
34750,696.76,744,765,0
34760,663.92,744,766,0
34770,624.47,744,765,0
34780,580.79,744,765,0
34790,536.19,744,765,0
34800,492.64,744,766,0
34810,452.33,744,765,0
34820,416.40,744,766,0
34830,386.28,744,765,0
34840,361.68,744,766,0
34850,342.96,744,765,0
34860,329.52,744,766,0
34870,321.31,744,765,0
34880,317.31,744,766,0
34890,317.26,744,765,0
34900,319.76,744,765,0
34910,324.59,744,765,0
34920,330.67,744,766,0
34930,338.01,744,765,0
34940,345.42,744,766,0
34950,352.92,744,765,0
34960,359.46,744,766,0
34970,365.24,744,765,0
34980,369.54,744,766,0
34990,372.63,744,765,0
35000,373.94,744,766,0
35010,374.00,744,765,0
35020,372.33,744,766,0
35031,369.62,744,765,0
35041,365.57,744,766,0
35051,360.86,744,765,0
35061,355.24,744,765,0
35072,349.39,744,766,0
35081,343.23,744,766,0
35091,337.59,744,766,0
35101,331.97,744,766,0
35111,327.22,744,766,0
35121,322.78,744,766,0
35131,319.46,744,765,0
35141,316.50,744,766,0
35151,314.46,744,766,0
35161,312.44,744,766,0
35171,311.11,744,766,0
35181,309.75,744,766,0
35191,309.05,744,766,0
35201,308.14,744,766,0
35211,307.88,744,766,0
35221,307.49,744,766,0
35231,307.86,744,766,0
35241,308.58,744,765,0
35251,310.51,744,765,0
35261,313.57,744,766,0
35271,319.23,744,766,0
35281,327.47,744,766,0
35291,339.76,744,766,0
35301,356.12,744,766,0
35311,378.28,744,766,0
35321,406.27,744,766,0
35331,440.73,744,766,0
35341,480.75,744,766,0
35351,523.77,744,765,0
35371,566.87,792,765,0
35373,608.39,792,767,0
35383,645.73,792,765,0
35393,677.70,792,766,0
35403,702.86,792,765,0
35414,720.77,792,767,0
35423,733.31,792,765,0
35433,742.13,792,766,0
35443,748.22,792,765,0
35453,752.53,792,767,0
35463,755.50,792,765,0
35473,757.58,792,766,0
35483,757.75,792,765,0
35493,754.01,792,766,0
35503,744.58,792,765,0
35513,728.63,792,766,0
35523,704.96,792,765,0
35533,673.94,792,766,0
35543,635.77,792,765,0
35553,592.77,792,766,0
35563,547.50,792,765,0
35573,503.16,792,766,0
35584,461.24,792,765,0
35593,424.44,792,766,0
35603,392.89,792,765,0
35613,367.77,792,766,0
35623,348.00,792,765,0
35633,334.33,792,766,0
35643,325.53,792,765,0
35653,321.68,792,766,0
35663,321.09,792,765,0
35673,323.76,792,766,0
35683,327.82,792,765,0
35693,333.62,792,766,0
35703,339.56,792,765,0
35713,345.74,792,766,0
35723,351.13,792,765,0
35733,356.28,792,766,0
35743,360.05,792,765,0
35753,363.25,792,766,0
35763,364.89,792,765,0
35773,365.82,792,767,0
35783,365.23,792,765,0
35793,363.88,792,766,0
35803,360.91,792,765,0
35813,357.43,792,766,0
35823,352.76,792,765,0
35833,347.81,792,766,0
35843,342.08,792,765,0
35853,336.62,792,766,0
35863,330.77,792,765,0
35873,325.61,792,766,0
35884,320.42,792,765,0
35894,316.05,792,766,0
35904,312.00,792,765,0
35914,308.87,792,766,0
35924,306.04,792,764,0
35934,304.19,792,766,0
35944,302.50,792,765,0
35954,301.84,792,766,0
35964,301.37,792,764,0
35974,301.77,792,766,0
35984,302.14,792,765,0
35994,303.09,792,766,0
36004,303.79,792,765,0
36014,305.05,792,767,0
36024,305.94,792,765,0
36034,307.24,792,767,0
36044,308.45,792,765,0
36055,310.72,792,767,0
36065,313.93,792,765,0
36075,319.52,792,766,0
36085,327.55,792,764,0
36096,339.64,792,767,0
36105,355.99,792,764,0
36115,378.28,792,766,0
36125,406.87,792,764,0
36135,442.52,792,767,0
36145,483.77,792,765,0
36164,527.68,794,763,0
36167,571.40,794,764,0
36176,613.20,794,767,0
36186,650.64,794,765,0
36196,682.12,794,767,0
36206,706.17,794,764,0
36216,723.00,794,767,0
36226,734.83,794,765,0
36236,743.15,794,767,0
36246,748.94,794,764,0
36256,752.94,794,767,0
36267,755.79,794,764,0
36276,757.82,794,767,0
36286,759.25,794,764,0
36296,760.20,794,767,0
36306,757.61,794,765,0
36316,749.84,794,767,0
36326,735.06,794,764,0
36336,712.46,794,767,0
36346,681.85,794,764,0
36356,643.97,794,766,0
36366,599.28,794,764,0
36376,551.96,794,767,0
36386,504.66,794,764,0
36396,460.49,794,767,0
36406,421.00,794,764,0
36416,387.61,794,767,0
36426,360.39,794,764,0
36436,339.74,794,766,0
36446,325.03,794,764,0
36456,316.15,794,767,0
36466,311.99,794,764,0
36476,312.17,794,767,0
36486,315.24,794,764,0
36496,320.79,794,767,0
36506,327.62,794,764,0
36516,335.32,794,766,0
36526,342.81,794,764,0
36536,349.94,794,767,0
36546,355.96,794,764,0
36556,360.94,794,767,0
36567,364.26,794,764,0
36577,366.02,794,766,0
36587,366.32,794,765,0
36597,365.19,794,766,0
36608,362.69,794,764,0
36617,359.14,794,766,0
36627,354.60,794,765,0
36637,349.58,794,766,0
36647,344.13,794,764,0
36657,338.44,794,766,0
36667,332.73,794,765,0
36677,327.16,794,766,0
36687,321.71,794,764,0
36697,316.65,794,766,0
36707,311.96,794,765,0
36717,307.81,794,766,0
36727,304.48,794,765,0
36737,301.90,794,766,0
36747,300.13,794,765,0
36757,299.10,794,766,0
36767,298.82,794,764,0
36777,298.96,794,766,0
36787,299.61,794,765,0
36797,300.29,794,766,0
36807,301.06,794,765,0
36817,301.60,794,766,0
36827,302.19,794,765,0
36837,302.65,794,766,0
36847,303.22,794,765,0
36857,303.63,794,766,0
36867,304.08,794,765,0
36877,304.62,794,766,0
36887,305.37,794,765,0
36897,306.25,794,766,0
36908,307.67,794,765,0
36918,310.00,794,766,0
36928,314.20,794,765,0
36938,320.70,794,766,0
36948,330.73,794,765,0
36958,344.91,794,766,0
36968,364.48,794,765,0
36978,390.09,794,766,0
36988,422.68,794,765,0
37007,461.69,843,764,0
37009,504.98,843,766,0
37019,549.22,843,766,0
37029,592.39,843,766,0
37039,632.22,843,766,0
37049,666.95,843,765,0
37059,694.78,843,765,0
37069,715.12,843,765,0
37079,729.27,843,766,0
37089,739.22,843,765,0
37099,746.14,843,765,0
37109,751.02,843,765,0
37120,754.45,843,766,0
37129,756.84,843,765,0
37139,758.47,843,765,0
37149,759.66,843,765,0
37159,760.45,843,766,0
37169,759.11,843,765,0
37179,752.78,843,765,0
37189,740.12,843,765,0
37199,719.72,843,766,0
37209,691.74,843,765,0
37219,656.03,843,765,0
37229,613.51,843,765,0
37239,566.43,843,766,0
37249,519.16,843,765,0
37259,473.89,843,765,0
37269,433.38,843,765,0
37279,398.17,843,766,0
37289,369.49,843,765,0
37299,346.84,843,766,0
37309,330.69,843,765,0
37319,319.85,843,766,0
37329,314.37,843,765,0
37339,312.84,843,766,0
37349,315.03,843,765,0
37359,319.44,843,766,0
37369,325.95,843,766,0
37379,333.25,843,765,0
37389,341.10,843,765,0
37399,348.10,843,766,0
37409,354.59,843,765,0
37420,359.47,843,765,0
37430,363.36,843,766,0
37440,365.35,843,766,0
37450,366.23,843,766,0
37460,365.35,843,765,0
37470,363.79,843,766,0
37480,360.68,843,766,0
37490,357.05,843,766,0
37500,352.23,843,765,0
37510,347.32,843,766,0
37520,341.78,843,766,0
37530,336.62,843,766,0
37540,331.03,843,765,0
37550,326.09,843,765,0
37560,321.18,843,766,0
37570,317.10,843,766,0
37580,313.25,843,765,0
37591,310.39,843,766,0
37601,307.66,843,765,0
37611,305.96,843,766,0
37621,304.43,843,765,0
37632,303.79,843,766,0
37641,303.21,843,765,0
37651,303.36,843,766,0
37661,303.34,843,765,0
37671,304.01,843,766,0
37681,304.31,843,765,0
37691,305.07,843,766,0
37701,305.35,843,765,0
37711,305.93,843,766,0
37721,305.99,843,765,0
37731,306.21,843,766,0
37741,305.89,843,765,0
37751,305.75,843,766,0
37761,305.10,843,765,0
37771,305.15,843,766,0
37781,305.41,843,765,0
37791,307.04,843,766,0
37801,309.90,843,765,0
37811,315.42,843,766,0
37821,323.73,843,765,0
37831,336.54,843,766,0
37841,353.78,843,765,0
37851,377.07,843,766,0
37861,406.41,843,765,0
37880,442.93,873,764,0
37882,484.74,873,765,0
37892,529.13,873,767,0
37902,573.06,873,765,0
37912,614.79,873,766,0
37922,651.96,873,765,0
37932,683.22,873,767,0
37942,706.90,873,765,0
37952,723.47,873,766,0
37962,735.07,873,765,0
37972,743.19,873,767,0
37982,748.84,873,765,0
37992,752.78,873,766,0
38002,755.55,873,765,0
38012,757.53,873,767,0
38022,758.91,873,765,0
38032,759.88,873,766,0
38042,757.90,873,765,0
38052,751.12,873,767,0
38062,737.63,873,765,0
38072,716.82,873,766,0
38082,687.86,873,765,0
38092,651.60,873,767,0
38103,608.14,873,765,0
38113,561.47,873,766,0
38123,514.14,873,765,0
38133,469.57,873,767,0
38144,428.98,873,765,0
38153,394.66,873,766,0
38163,366.39,873,765,0
38173,345.10,873,767,0
38183,329.73,873,765,0
38193,320.30,873,766,0
38203,315.41,873,765,0
38213,315.16,873,767,0
38223,317.94,873,765,0
38233,323.36,873,766,0
38243,329.94,873,765,0
38253,337.54,873,767,0
38263,344.92,873,765,0
38273,352.23,873,766,0
38283,358.12,873,765,0
38293,362.93,873,767,0
38303,365.69,873,765,0
38313,367.11,873,766,0
38323,366.56,873,764,0
38333,364.98,873,767,0
38343,361.82,873,765,0
38353,358.06,873,766,0
38363,353.28,873,765,0
38373,348.57,873,767,0
38383,343.43,873,765,0
38393,338.58,873,767,0
38403,333.57,873,765,0
38413,329.11,873,767,0
38423,324.41,873,765,0
38433,320.13,873,767,0
38444,315.80,873,765,0
38454,312.09,873,767,0
38464,308.55,873,765,0
38474,305.73,873,767,0
38484,302.98,873,764,0
38494,301.19,873,767,0
38504,299.63,873,765,0
38514,298.67,873,767,0
38524,297.70,873,764,0
38534,297.27,873,767,0
38544,296.98,873,765,0
38554,297.20,873,767,0
38564,297.40,873,764,0
38574,297.96,873,767,0
38584,298.36,873,765,0
38594,299.02,873,766,0
38604,299.57,873,764,0
38615,300.13,873,767,0
38625,300.56,873,765,0
38635,301.12,873,767,0
38645,301.69,873,765,0
38656,302.77,873,766,0
38665,304.42,873,764,0
38675,307.12,873,766,0
38685,311.42,873,765,0
38695,318.23,873,767,0
38705,328.19,873,765,0
38715,342.36,873,767,0
38725,361.54,873,764,0
38735,386.79,873,767,0
38745,418.18,873,765,0
38764,456.10,884,763,0
38766,498.46,884,766,0
38776,542.42,884,767,0
38786,585.45,884,765,0
38796,625.56,884,767,0
38806,660.66,884,764,0
38816,689.73,884,767,0
38827,711.41,884,765,0
38836,726.59,884,766,0
38846,737.21,884,764,0
38856,744.65,884,767,0
38866,749.85,884,765,0
38876,753.50,884,767,0
38886,756.05,884,765,0
38896,757.83,884,767,0
38906,759.08,884,766,0
38916,757.04,884,767,0
38926,749.53,884,765,0
38936,735.01,884,767,0
38946,712.64,884,766,0
38956,682.49,884,767,0
38966,644.93,884,765,0
38976,600.55,884,767,0
38986,553.20,884,766,0
38996,506.08,884,767,0
39006,461.91,884,765,0
39016,422.55,884,767,0
39026,389.09,884,766,0
39036,361.80,884,766,0
39046,341.08,884,765,0
39056,326.44,884,767,0
39066,317.61,884,765,0
39076,313.57,884,766,0
39086,313.70,884,765,0
39096,316.83,884,767,0
39106,322.41,884,765,0
39116,329.32,884,767,0
39127,336.98,884,765,0
39137,344.36,884,766,0
39147,351.41,884,766,0
39157,357.33,884,766,0
39168,362.16,884,766,0
39177,365.45,884,766,0
39187,367.33,884,766,0
39197,367.57,884,766,0
39207,366.76,884,766,0
39217,364.65,884,767,0
39227,361.84,884,766,0
39237,358.03,884,766,0
39247,353.86,884,766,0
39257,349.19,884,766,0
39267,344.63,884,766,0
39277,339.81,884,766,0
39287,335.33,884,766,0
39297,330.77,884,767,0
39307,326.77,884,766,0
39317,322.85,884,766,0
39327,319.55,884,766,0
39337,316.34,884,766,0
39347,313.84,884,766,0
39357,311.45,884,766,0
39367,309.56,884,766,0
39377,307.63,884,766,0
39387,306.28,884,765,0
39397,305.00,884,766,0
39407,304.36,884,766,0
39417,303.65,884,766,0
39427,303.50,884,766,0
39437,303.48,884,766,0
39447,304.15,884,766,0
39457,304.70,884,766,0
39468,305.65,884,766,0
39478,306.27,884,766,0
39488,307.39,884,766,0
39498,308.34,884,766,0
39508,310.17,884,766,0
39518,312.48,884,766,0
39528,316.79,884,766,0
39538,323.15,884,766,0
39548,333.26,884,766,0
39558,346.94,884,766,0
39568,365.56,884,766,0
39578,389.18,884,766,0
39588,419.04,884,766,0
39598,454.13,884,766,0
39617,494.59,853,765,0
39620,536.80,853,765,0
39629,578.82,853,767,0
39639,618.39,853,766,0
39649,653.97,853,766,0
39659,683.76,853,765,0
39669,707.28,853,766,0
39680,723.74,853,766,0
39689,735.30,853,766,0
39699,743.40,853,765,0
39709,749.06,853,767,0
39719,752.99,853,766,0
39729,755.73,853,766,0
39739,754.61,853,765,0
39749,748.47,853,766,0
39759,735.60,853,765,0
39769,716.05,853,766,0
39779,688.95,853,765,0
39789,655.02,853,766,0
39799,614.39,853,766,0
39809,571.20,853,766,0
39819,527.30,853,765,0
39829,485.94,853,766,0
39839,447.81,853,766,0
39849,415.04,853,767,0
39859,387.34,853,765,0
39869,365.81,853,766,0
39879,349.32,853,765,0
39889,338.47,853,766,0
39899,331.64,853,765,0
39909,329.05,853,766,0
39919,329.12,853,766,0
39929,331.96,853,766,0
39939,335.87,853,766,0
39949,341.31,853,766,0
39959,346.70,853,766,0
39969,352.36,853,766,0
39980,356.88,853,765,0
39990,360.95,853,767,0
40000,363.53,853,765,0
40010,365.43,853,767,0
40020,365.73,853,765,0
40030,365.34,853,767,0
40040,363.78,853,765,0
40050,362.00,853,767,0
40060,359.26,853,765,0
40070,356.52,853,767,0
40080,353.20,853,765,0
40090,350.27,853,767,0
40100,346.84,853,765,0
40110,343.68,853,767,0
40120,339.96,853,765,0
40130,336.71,853,767,0
40140,333.07,853,765,0
40151,329.84,853,766,0
40161,326.20,853,765,0
40171,323.23,853,767,0
40181,320.11,853,765,0
40192,317.77,853,767,0
40201,315.35,853,765,0
40211,313.70,853,767,0
40221,312.21,853,765,0
40231,311.54,853,767,0
40241,310.82,853,765,0
40251,310.88,853,767,0
40261,310.96,853,765,0
40271,311.70,853,767,0
40281,312.39,853,765,0
40291,313.56,853,767,0
40301,314.50,853,765,0
40311,316.07,853,767,0
40321,317.68,853,765,0
40331,320.47,853,767,0
40341,324.27,853,765,0
40351,330.36,853,767,0
40361,338.91,853,765,0
40371,351.50,853,767,0
40381,368.32,853,765,0
40391,391.07,853,766,0
40401,419.46,853,765,0
40411,454.29,853,767,0
40430,494.41,813,766,0
40432,536.93,813,768,0
40442,579.08,813,765,0
40452,619.08,813,767,0
40462,654.63,813,765,0
40472,684.65,813,767,0
40482,707.82,813,765,0
40492,724.03,813,767,0
40502,735.42,813,765,0
40512,743.39,813,767,0
40522,748.98,813,765,0
40532,752.88,813,767,0
40542,755.62,813,765,0
40552,757.53,813,767,0
40562,756.82,813,765,0
40572,751.51,813,767,0
40582,740.00,813,765,0
40592,721.66,813,766,0
40602,695.79,813,765,0
40612,662.90,813,767,0
40622,623.50,813,765,0
40632,580.49,813,767,0
40642,536.67,813,765,0
40652,494.86,813,767,0
40663,456.46,813,765,0
40673,423.23,813,766,0
40683,395.52,813,765,0
40693,373.51,813,767,0
40704,356.94,813,765,0
40713,345.69,813,767,0
40723,338.97,813,765,0
40733,336.32,813,767,0
40743,336.82,813,765,0
40753,339.71,813,767,0
40763,344.12,813,765,0
40773,349.57,813,767,0
40783,355.23,813,765,0
40793,360.77,813,767,0
40803,365.56,813,765,0
40813,369.42,813,767,0
40823,372.04,813,765,0
40833,373.61,813,767,0
40843,373.86,813,765,0
40853,373.04,813,767,0
40863,371.06,813,765,0
40873,368.25,813,767,0
40883,364.62,813,765,0
40893,360.58,813,767,0
40903,355.99,813,765,0
40913,351.15,813,767,0
40923,346.13,813,765,0
40933,341.21,813,767,0
40943,336.39,813,765,0
40953,332.03,813,767,0
40963,327.91,813,765,0
40973,324.38,813,767,0
40983,321.26,813,765,0
40993,318.70,813,767,0
41004,316.56,813,765,0
41014,314.98,813,767,0
41024,313.66,813,765,0
41034,312.77,813,766,0
41044,312.07,813,765,0
41054,311.79,813,767,0
41064,311.73,813,765,0
41074,311.72,813,767,0
41084,311.93,813,765,0
41094,312.25,813,767,0
41104,312.65,813,765,0
41114,313.05,813,766,0
41124,313.47,813,765,0
41134,313.84,813,767,0
41144,314.40,813,765,0
41154,315.10,813,767,0
41164,316.65,813,765,0
41175,319.59,813,767,0
41185,324.90,813,765,0
41195,333.20,813,766,0
41205,345.65,813,765,0
41216,363.11,813,766,0
41225,386.52,813,765,0
41235,416.19,813,766,0
41245,452.52,813,765,0
41265,493.89,834,764,0
41268,537.34,834,767,0
41277,580.22,834,766,0
41287,620.53,834,766,0
41297,656.37,834,766,0
41307,686.34,834,766,0
41317,709.08,834,766,0
41327,725.00,834,766,0
41337,736.14,834,766,0
41347,743.99,834,766,0
41357,749.48,834,766,0
41367,753.32,834,766,0
41377,755.97,834,766,0
41388,757.86,834,767,0
41398,759.19,834,766,0
41408,760.12,834,767,0
41418,757.77,834,766,0
41428,750.38,834,767,0
41438,736.34,834,766,0
41448,715.11,834,766,0
41458,685.80,834,766,0
41468,649.39,834,767,0
41478,606.25,834,766,0
41488,560.49,834,766,0
41498,514.40,834,765,0
41508,471.16,834,766,0
41518,431.99,834,765,0
41528,399.12,834,765,0
41538,372.17,834,765,0
41548,351.93,834,766,0
41559,337.42,834,765,0
41569,329.11,834,766,0
41579,325.31,834,765,0
41589,325.86,834,766,0
41600,329.03,834,765,0
41609,334.59,834,766,0
41619,340.76,834,765,0
41629,347.64,834,766,0
41639,353.84,834,765,0
41649,359.67,834,766,0
41659,364.01,834,765,0
41669,367.44,834,766,0
41679,369.19,834,765,0
41689,370.25,834,766,0
41699,369.66,834,765,0
41709,368.39,834,766,0
41719,365.49,834,765,0
41729,362.13,834,766,0
41739,357.80,834,765,0
41749,353.41,834,766,0
41759,348.27,834,765,0
41769,343.43,834,766,0
41779,338.24,834,765,0
41789,333.93,834,767,0
41799,329.49,834,765,0
41809,325.66,834,766,0
41819,321.82,834,765,0
41829,318.83,834,767,0
41839,315.92,834,765,0
41849,313.85,834,766,0
41859,311.79,834,765,0
41869,310.78,834,766,0
41879,309.86,834,765,0
41889,309.82,834,766,0
41900,309.66,834,765,0
41910,310.19,834,767,0
41920,310.43,834,764,0
41930,311.25,834,766,0
41940,311.64,834,764,0
41950,312.52,834,766,0
41960,312.92,834,765,0
41970,313.67,834,766,0
41980,314.03,834,764,0
41990,314.92,834,766,0
42000,315.54,834,765,0
42010,317.01,834,766,0
42020,319.32,834,765,0
42030,323.90,834,766,0
42040,330.91,834,765,0
42050,342.04,834,766,0
42060,357.50,834,765,0
42071,379.12,834,767,0
42081,407.07,834,765,0
42091,442.02,834,767,0
42110,482.81,846,765,0
42114,526.50,846,767,0
42123,570.06,846,765,0
42133,611.66,846,766,0
42143,648.96,846,765,0
42153,680.56,846,767,0
42163,704.99,846,765,0
42173,722.09,846,766,0
42183,734.07,846,765,0
42193,742.45,846,767,0
42203,748.31,846,765,0
42213,752.42,846,766,0
42223,755.29,846,765,0
42233,757.31,846,766,0
42243,758.71,846,765,0
42253,759.70,846,766,0
42263,757.09,846,765,0
42273,748.92,846,767,0
42284,733.82,846,765,0
42294,710.98,846,766,0
42304,680.52,846,765,0
42314,642.78,846,766,0
42324,598.70,846,765,0
42334,552.42,846,766,0
42344,507.04,846,765,0
42354,464.77,846,766,0
42364,427.68,846,765,0
42374,396.41,846,766,0
42384,371.60,846,765,0
42394,352.78,846,766,0
42404,339.86,846,765,0
42414,331.97,846,766,0
42424,328.72,846,764,0
42434,328.68,846,766,0
42444,331.47,846,765,0
42455,335.96,846,766,0
42465,341.84,846,765,0
42475,347.98,846,766,0
42485,354.15,846,765,0
42496,359.38,846,766,0
42505,363.94,846,765,0
42515,367.13,846,766,0
42525,369.19,846,766,0
42535,369.52,846,766,0
42545,368.72,846,765,0
42555,366.36,846,766,0
42565,363.42,846,765,0
42575,359.35,846,766,0
42585,354.88,846,765,0
42595,349.77,846,766,0
42605,344.91,846,765,0
42615,339.67,846,766,0
42625,334.92,846,765,0
42635,330.10,846,766,0
42645,325.96,846,766,0
42655,321.94,846,766,0
42665,318.62,846,765,0
42675,315.39,846,766,0
42685,313.04,846,766,0
42695,310.97,846,766,0
42705,309.70,846,765,0
42715,308.72,846,766,0
42725,308.46,846,766,0
42735,308.19,846,766,0
42745,308.35,846,765,0
42755,308.37,846,766,0
42765,308.82,846,766,0
42775,309.00,846,766,0
42785,309.43,846,765,0
42796,309.56,846,766,0
42806,310.08,846,766,0
42816,310.22,846,766,0
42826,310.71,846,765,0
42836,310.80,846,766,0
42846,311.50,846,766,0
42856,312.38,846,766,0
42866,314.62,846,765,0
42876,318.04,846,765,0
42886,324.28,846,766,0
42896,333.37,846,766,0
42906,346.97,846,766,0
42916,365.15,846,766,0
42926,389.24,846,766,0
42936,419.16,846,766,0
42955,455.76,845,764,0
42957,497.06,845,765,0
42967,540.37,845,766,0
42977,582.86,845,766,0
42987,622.76,845,766,0
42997,658.15,845,765,0
43008,687.67,845,767,0
43017,709.97,845,765,0
43027,725.58,845,766,0
43037,736.51,845,765,0
43047,744.15,845,767,0
43057,749.51,845,766,0
43067,753.26,845,766,0
43077,755.88,845,765,0
43087,757.76,845,767,0
43097,759.07,845,765,0
43107,757.17,845,766,0
43117,749.66,845,765,0
43127,735.53,845,766,0
43137,713.90,845,765,0
43147,684.87,845,766,0
43157,648.40,845,765,0
43167,605.46,845,766,0
43177,559.42,845,765,0
43187,514.17,845,766,0
43197,471.26,845,765,0
43207,433.04,845,766,0
43217,399.86,845,765,0
43227,373.07,845,766,0
43237,352.01,845,765,0
43247,337.22,845,767,0
43257,327.34,845,765,0
43267,322.61,845,766,0
43277,321.31,845,765,0
43287,323.53,845,766,0
43297,327.57,845,765,0
43308,333.44,845,766,0
43318,339.52,845,764,0
43328,346.01,845,766,0
43338,351.66,845,765,0
43348,356.91,845,766,0
43358,360.75,845,764,0
43368,363.74,845,766,0
43378,365.06,845,765,0
43388,365.43,845,766,0
43398,364.31,845,765,0
43408,362.55,845,766,0
43418,359.51,845,765,0
43428,356.02,845,766,0
43438,351.55,845,764,0
43448,347.19,845,766,0
43458,342.25,845,765,0
43468,337.63,845,766,0
43479,332.64,845,764,0
43489,328.29,845,767,0
43499,323.96,845,765,0
43509,320.42,845,767,0
43520,316.82,845,764,0
43529,314.22,845,767,0
43539,311.71,845,765,0
43549,309.91,845,766,0
43559,308.05,845,764,0
43569,306.88,845,767,0
43579,305.72,845,765,0
43589,305.24,845,766,0
43599,304.61,845,764,0
43609,304.56,845,767,0
43619,304.52,845,765,0
43629,305.13,845,767,0
43639,305.57,845,764,0
43649,306.42,845,767,0
43659,307.03,845,765,0
43669,308.00,845,767,0
43679,308.52,845,764,0
43689,309.22,845,767,0
43699,309.54,845,765,0
43709,310.36,845,767,0
43719,311.24,845,764,0
43729,313.27,845,767,0
43739,316.32,845,765,0
43749,321.88,845,767,0
43759,330.19,845,765,0
43769,342.64,845,766,0
43779,359.29,845,765,0
43789,381.71,845,767,0
43799,409.87,845,765,0
43819,444.58,863,764,0
43822,484.82,863,765,0
43831,527.82,863,767,0
43841,570.69,863,764,0
43851,611.71,863,767,0
43862,648.57,863,765,0
43871,679.94,863,767,0
43881,704.43,863,765,0
43891,721.70,863,767,0
43901,733.79,863,765,0
43911,742.25,863,767,0
43921,748.18,863,765,0
43931,752.32,863,766,0
43941,755.23,863,765,0
43951,757.26,863,767,0
43961,756.80,863,765,0
43971,751.93,863,766,0
43981,741.02,863,765,0
43991,723.53,863,767,0
44001,698.64,863,764,0
44011,666.31,863,766,0
44021,627.04,863,765,0
44032,583.40,863,766,0
44041,538.58,863,764,0
44051,495.34,863,766,0
44061,455.25,863,765,0
44071,419.99,863,766,0
44081,390.46,863,764,0
44091,367.05,863,766,0
44101,349.64,863,765,0
44111,337.79,863,766,0
44121,330.70,863,764,0
44131,327.87,863,766,0
44141,328.42,863,764,0
44151,331.68,863,766,0
44161,336.58,863,764,0
44171,342.58,863,766,0
44181,348.92,863,765,0
44191,355.20,863,766,0
44201,360.84,863,765,0
44211,365.60,863,766,0
44221,369.15,863,765,0
44231,371.42,863,766,0
44241,372.32,863,765,0
44251,371.84,863,766,0
44261,370.04,863,765,0
44271,367.07,863,767,0
44281,363.19,863,765,0
44291,358.68,863,766,0
44301,353.72,863,765,0
44311,348.53,863,766,0
44321,343.23,863,765,0
44332,338.15,863,766,0
44342,333.30,863,765,0
44352,328.84,863,766,0
44362,324.69,863,765,0
44372,320.80,863,766,0
44382,317.21,863,764,0
44392,314.06,863,766,0
44402,311.35,863,765,0
44412,308.93,863,766,0
44422,306.98,863,765,0
44432,305.53,863,766,0
44442,304.81,863,765,0
44452,304.44,863,766,0
44462,304.61,863,765,0
44472,304.98,863,766,0
44482,305.67,863,765,0
44492,306.24,863,766,0
44503,306.94,863,765,0
44513,307.39,863,766,0
44523,308.13,863,765,0
44533,308.48,863,765,0
44544,309.02,863,765,0
44553,309.48,863,766,0
44563,310.32,863,765,0
44573,311.17,863,765,0
44583,312.79,863,766,0
44593,315.08,863,766,0
44603,319.17,863,765,0
44613,325.03,863,766,0
44623,334.24,863,765,0
44633,346.98,863,766,0
44643,364.52,863,765,0
44653,387.12,863,766,0
44663,415.75,863,766,0
44682,449.64,864,764,0
44685,488.92,864,766,0
44694,530.60,864,766,0
44704,572.51,864,766,0
44715,612.25,864,766,0
44724,648.22,864,766,0
44734,678.58,864,766,0
44744,703.01,864,766,0
44754,720.66,864,766,0
44764,733.02,864,766,0
44774,741.67,864,766,0
44784,747.73,864,767,0
44794,751.97,864,766,0
44804,754.98,864,767,0
44814,756.57,864,766,0
44824,754.81,864,766,0
44834,747.71,864,766,0
44844,734.60,864,766,0
44854,714.32,864,766,0
44864,687.01,864,766,0
44874,652.55,864,766,0
44884,612.44,864,766,0
44894,569.49,864,766,0
44904,526.92,864,766,0
44914,486.01,864,766,0
44924,449.32,864,766,0
44934,417.26,864,766,0
44944,391.08,864,766,0
44954,370.18,864,766,0
44964,354.83,864,766,0
44974,344.12,864,766,0
44984,338.13,864,766,0
44994,335.56,864,766,0
45004,336.38,864,766,0
45015,339.14,864,766,0
45025,343.72,864,766,0
45035,348.91,864,766,0
45045,354.81,864,767,0
45056,360.26,864,765,0
45065,365.54,864,766,0
45075,369.54,864,766,0
45085,372.85,864,766,0
45095,374.56,864,766,0
45105,375.42,864,766,0
45115,374.57,864,766,0
45125,372.98,864,767,0
45135,369.86,864,766,0
45145,366.34,864,766,0
45155,361.74,864,766,0
45165,357.06,864,767,0
45175,351.64,864,766,0
45185,346.56,864,766,0
45195,341.25,864,766,0
45205,336.63,864,767,0
45215,331.82,864,766,0
45225,327.71,864,766,0
45235,323.69,864,766,0
45245,320.74,864,766,0
45255,317.90,864,766,0
45265,315.96,864,766,0
45275,314.13,864,766,0
45285,313.28,864,767,0
45295,312.51,864,766,0
45305,312.57,864,766,0
45315,312.36,864,766,0
45325,312.85,864,766,0
45335,312.94,864,766,0
45345,313.60,864,767,0
45356,313.85,864,765,0
45366,314.58,864,767,0
45376,314.79,864,765,0
45386,315.41,864,766,0
45396,315.63,864,765,0
45406,316.51,864,767,0
45416,317.26,864,765,0
45426,319.24,864,766,0
45436,322.21,864,765,0
45446,327.80,864,767,0
45456,335.83,864,765,0
45466,347.93,864,767,0
45476,364.19,864,765,0
45486,386.12,864,767,0
45496,413.38,864,765,0
45506,447.04,864,767,0
45526,485.90,843,766,0
45528,527.89,843,768,0
45538,569.96,843,765,0
45548,610.26,843,767,0
45558,646.65,843,765,0
45569,678.04,843,767,0
45579,702.72,843,766,0
45589,720.50,843,767,0
45599,732.95,843,765,0
45609,741.67,843,767,0
45619,747.77,843,765,0
45629,752.04,843,767,0
45639,755.03,843,765,0
45649,755.36,843,767,0
45659,751.31,843,765,0
45669,741.49,843,767,0
45679,724.71,843,765,0
45689,700.84,843,767,0
45699,670.03,843,765,0
45709,632.91,843,767,0
45719,591.75,843,765,0
45729,549.40,843,767,0
45740,508.22,843,765,0
45750,470.35,843,767,0
45760,436.82,843,765,0
45770,408.33,843,767,0
45780,385.09,843,766,0
45790,367.19,843,767,0
45800,354.32,843,766,0
45810,346.04,843,767,0
45820,341.83,843,766,0
45830,340.98,843,767,0
45840,342.66,843,765,0
45850,346.10,843,767,0
45860,350.57,843,766,0
45870,355.54,843,767,0
45880,360.35,843,765,0
45890,364.62,843,767,0
45900,368.12,843,766,0
45911,370.74,843,767,0
45921,372.23,843,766,0
45931,372.63,843,767,0
45941,371.97,843,766,0
45952,370.35,843,767,0
45961,367.93,843,766,0
45971,364.70,843,767,0
45981,360.93,843,766,0
45991,356.71,843,767,0
46001,352.34,843,766,0
46011,347.69,843,767,0
46021,343.24,843,766,0
46031,338.76,843,767,0
46041,334.63,843,765,0
46051,330.67,843,767,0
46061,327.17,843,766,0
46071,323.82,843,767,0
46081,321.00,843,766,0
46091,318.51,843,767,0
46101,316.65,843,766,0
46111,314.95,843,767,0
46121,313.72,843,766,0
46131,312.74,843,767,0
46141,312.34,843,766,0
46151,312.15,843,767,0
46161,312.37,843,766,0
46171,312.86,843,767,0
46181,313.93,843,766,0
46191,315.11,843,767,0
46201,316.75,843,766,0
46211,318.54,843,767,0
46221,321.08,843,766,0
46231,324.40,843,767,0
46241,329.33,843,766,0
46252,336.39,843,767,0
46262,346.95,843,767,0
46272,361.40,843,767,0
46282,381.13,843,766,0
46292,406.20,843,767,0
46302,437.21,843,766,0
46312,473.75,843,767,0
46331,514.45,806,765,0
46334,556.19,806,767,0
46343,596.93,806,767,0
46353,634.37,806,767,0
46363,667.26,806,767,0
46373,694.27,806,767,0
46383,714.63,806,767,0
46393,728.88,806,767,0
46403,738.86,806,767,0
46413,745.80,806,767,0
46423,750.70,806,767,0
46433,754.14,806,767,0
46443,756.54,806,767,0
46453,756.38,806,767,0
46464,752.11,806,767,0
46473,742.09,806,767,0
46483,725.73,806,767,0
46493,701.98,806,767,0
46503,671.35,806,768,0
46513,634.04,806,767,0
46523,592.84,806,768,0
46533,549.95,806,767,0
46543,508.44,806,768,0
46553,469.48,806,767,0
46563,435.39,806,767,0
46573,406.26,806,767,0
46583,382.87,806,767,0
46593,364.65,806,767,0
46603,352.11,806,767,0
46613,344.06,806,767,0
46623,340.57,806,767,0
46633,340.10,806,766,0
46643,342.56,806,767,0
46653,346.55,806,767,0
46663,352.13,806,767,0
46673,357.75,806,767,0
46683,363.56,806,767,0
46693,368.45,806,766,0
46703,372.95,806,767,0
46713,376.13,806,766,0
46723,378.45,806,767,0
46733,378.96,806,766,0
46743,378.63,806,767,0
46753,376.73,806,767,0
46764,374.28,806,767,0
46774,370.55,806,766,0
46784,366.44,806,768,0
46794,361.60,806,766,0
46804,357.00,806,768,0
46814,351.99,806,766,0
46824,347.53,806,767,0
46834,342.75,806,766,0
46844,338.71,806,767,0
46854,334.64,806,766,0
46864,331.40,806,767,0
46874,328.20,806,766,0
46884,325.87,806,768,0
46894,323.51,806,766,0
46904,321.98,806,767,0
46914,320.27,806,766,0
46924,319.33,806,768,0
46935,318.38,806,765,0
46945,318.22,806,768,0
46955,317.94,806,766,0
46965,318.34,806,768,0
46976,318.58,806,765,0
46985,319.52,806,768,0
46995,320.22,806,766,0
47005,321.53,806,768,0
47015,322.91,806,765,0
47025,325.51,806,768,0
47035,329.26,806,766,0
47045,335.82,806,767,0
47055,345.18,806,765,0
47065,358.79,806,767,0
47075,376.86,806,766,0
47085,401.11,806,767,0
47095,431.42,806,765,0
47105,468.28,806,768,0
47124,509.13,793,766,0
47126,551.60,793,768,0
47136,593.16,793,765,0
47147,632.07,793,768,0
47156,665.95,793,766,0
47166,693.78,793,768,0
47176,714.33,793,765,0
47186,728.76,793,768,0
47196,738.86,793,766,0
47206,745.97,793,768,0
47216,750.95,793,766,0
47226,754.44,793,768,0
47236,756.84,793,766,0
47246,758.56,793,768,0
47256,757.70,793,766,0
47266,752.48,793,768,0
47276,741.36,793,766,0
47286,723.68,793,768,0
47296,698.49,793,765,0
47306,666.37,793,768,0
47316,627.43,793,766,0
47326,584.96,793,767,0
47336,541.30,793,765,0
47346,499.38,793,767,0
47356,460.61,793,765,0
47366,427.30,793,767,0
47376,399.31,793,766,0
47386,377.53,793,767,0
47396,361.09,793,766,0
47406,350.30,793,768,0
47416,343.95,793,765,0
47426,341.87,793,767,0
47436,342.55,793,766,0
47447,345.86,793,767,0
47457,350.49,793,765,0
47467,356.13,793,767,0
47477,361.79,793,765,0
47488,367.25,793,767,0
47497,371.76,793,765,0
47507,375.26,793,767,0
47517,377.15,793,765,0
47527,377.92,793,767,0
47537,377.30,793,765,0
47547,375.84,793,767,0
47557,373.27,793,766,0
47567,370.11,793,767,0
47577,366.26,793,765,0
47587,362.37,793,767,0
47597,358.06,793,766,0
47607,353.75,793,767,0
47617,349.07,793,766,0
47627,344.76,793,767,0
47637,340.46,793,766,0
47647,336.68,793,768,0
47657,333.09,793,766,0
47667,330.02,793,767,0
47677,327.23,793,766,0
47687,325.10,793,768,0
47697,323.10,793,766,0
47707,321.74,793,767,0
47717,320.53,793,766,0
47727,319.82,793,768,0
47737,319.23,793,766,0
47747,319.20,793,767,0
47757,319.31,793,766,0
47767,320.03,793,768,0
47777,321.22,793,766,0
47788,323.86,793,767,0
47798,328.10,793,766,0
47808,335.10,793,768,0
47818,345.35,793,766,0
47828,360.16,793,767,0
47838,380.04,793,766,0
47848,406.09,793,768,0
47858,438.50,793,766,0
47868,477.40,793,767,0
47878,519.71,793,766,0
47897,562.74,773,765,0
47899,604.13,773,767,0
47909,642.15,773,767,0
47919,674.89,773,767,0
47929,701.02,773,768,0
47939,719.66,773,766,0
47949,732.66,773,767,0
47959,741.76,773,766,0
47969,748.09,773,768,0
47979,752.52,773,766,0
47989,755.62,773,767,0
48000,757.79,773,766,0
48009,759.31,773,768,0
48019,757.76,773,766,0
48029,751.06,773,767,0
48039,737.84,773,766,0
48049,717.49,773,767,0
48059,689.57,773,766,0
48069,654.21,773,767,0
48079,612.19,773,767,0
48089,566.88,773,768,0
48099,521.44,773,767,0
48109,478.20,773,768,0
48119,438.92,773,767,0
48129,404.92,773,768,0
48139,377.00,773,767,0
48149,355.14,773,768,0
48159,339.33,773,767,0
48169,328.90,773,768,0
48179,323.45,773,767,0
48189,322.03,773,768,0
48199,323.99,773,766,0
48209,328.32,773,767,0
48219,334.22,773,766,0
48229,340.84,773,767,0
48239,347.75,773,766,0
48249,353.99,773,767,0
48259,359.52,773,766,0
48269,363.78,773,767,0
48279,366.85,773,766,0
48289,368.39,773,767,0
48300,368.58,773,766,0
48310,367.12,773,767,0
48320,364.77,773,766,0
48330,361.15,773,767,0
48340,356.91,773,767,0
48350,351.75,773,767,0
48360,346.42,773,766,0
48370,340.90,773,767,0
48380,335.87,773,767,0
48390,330.98,773,767,0
48400,326.83,773,767,0
48410,323.11,773,767,0
48420,320.38,773,767,0
48430,318.21,773,767,0
48440,316.86,773,767,0
48450,315.70,773,767,0
48460,315.19,773,767,0
48471,314.58,773,767,0
48481,314.40,773,766,0
48491,314.07,773,767,0
48501,314.05,773,767,0
48512,313.69,773,766,0
48521,313.70,773,767,0
48531,313.36,773,767,0
48541,313.72,773,767,0
48551,313.98,773,767,0
48561,315.10,773,767,0
48571,316.70,773,767,0
48581,320.09,773,767,0
48591,325.25,773,767,0
48601,333.70,773,767,0
48611,345.49,773,767,0
48621,362.40,773,767,0
48631,384.78,773,767,0
48641,413.69,773,766,0
48651,449.01,773,767,0
48661,490.06,773,767,0
48680,533.37,783,766,0
48684,576.68,783,768,0
48692,617.44,783,767,0
48702,653.91,783,768,0
48712,684.45,783,767,0
48722,707.93,783,767,0
48732,724.32,783,767,0
48742,735.84,783,768,0
48752,743.95,783,767,0
48762,749.62,783,767,0
48772,753.59,783,767,0
48782,756.37,783,768,0
48792,758.32,783,767,0
48802,759.72,783,768,0
48812,759.46,783,767,0
48822,755.25,783,768,0
48832,744.81,783,767,0
48842,727.25,783,767,0
48852,701.59,783,766,0
48862,668.54,783,767,0
48872,628.18,783,766,0
48882,582.83,783,767,0
48892,535.48,783,766,0
48902,489.91,783,767,0
48912,447.63,783,767,0
48922,411.14,783,768,0
48932,380.16,783,766,0
48942,355.90,783,767,0
48952,337.41,783,766,0
48962,325.16,783,767,0
48972,317.57,783,766,0
48983,314.74,783,768,0
48993,314.99,783,766,0
49003,318.46,783,768,0
49013,323.38,783,766,0
49024,330.00,783,768,0
49033,336.64,783,766,0
49043,343.73,783,768,0
49053,350.03,783,766,0
49063,355.85,783,768,0
49073,360.09,783,766,0
49083,363.32,783,768,0
49093,364.68,783,766,0
49103,364.99,783,768,0
49113,363.75,783,766,0
49123,361.73,783,768,0
49133,358.25,783,766,0
49143,354.45,783,768,0
49153,349.73,783,766,0
49163,345.14,783,768,0
49173,340.00,783,766,0
49183,335.24,783,768,0
49193,330.24,783,766,0
49203,326.14,783,768,0
49213,321.94,783,766,0
49223,318.62,783,768,0
49233,315.35,783,766,0
49243,313.14,783,768,0
49253,310.87,783,766,0
49263,309.45,783,768,0
49273,307.99,783,766,0
49283,307.31,783,768,0
49293,306.57,783,766,0
49303,306.57,783,768,0
49313,306.19,783,766,0
49324,306.34,783,768,0
49334,306.24,783,766,0
49344,306.64,783,768,0
49354,306.92,783,766,0
49364,308.10,783,768,0
49374,309.61,783,766,0
49384,313.16,783,768,0
49394,318.68,783,766,0
49404,327.91,783,768,0
49414,340.88,783,766,0
49424,359.56,783,768,0
49434,384.12,783,766,0
49444,416.10,783,768,0
49454,454.34,783,766,0
49464,497.48,783,768,0
49483,541.99,803,767,0
49485,585.92,803,769,0
49495,626.49,803,766,0
49505,662.17,803,768,0
49515,690.96,803,766,0
49525,712.57,803,768,0
49536,727.70,803,766,0
49545,738.29,803,768,0
49555,745.70,803,766,0
49565,750.89,803,768,0
49575,754.52,803,766,0
49585,757.07,803,768,0
49595,758.85,803,766,0
49605,759.28,803,768,0
49615,755.51,803,765,0
49625,746.27,803,768,0
49635,729.90,803,766,0
49645,705.93,803,768,0
49655,674.07,803,765,0
49665,635.13,803,768,0
49675,590.35,803,766,0
49685,543.79,803,768,0
49695,497.57,803,766,0
49705,454.62,803,768,0
49715,416.34,803,766,0
49725,384.14,803,768,0
49735,357.87,803,766,0
49745,338.02,803,768,0
49755,323.91,803,766,0
49765,315.54,803,768,0
49775,311.61,803,766,0
49785,311.68,803,768,0
49795,314.48,803,766,0
49805,319.69,803,768,0
49815,325.96,803,766,0
49825,333.04,803,768,0
49836,339.80,803,766,0
49846,346.33,803,768,0
49856,351.76,803,766,0
49866,356.20,803,768,0
49876,359.14,803,766,0
49886,360.94,803,768,0
49896,361.17,803,766,0
49906,360.18,803,768,0
49916,357.85,803,766,0
49926,354.77,803,768,0
49936,350.90,803,766,0
49946,346.43,803,768,0
49956,341.58,803,766,0
49966,336.69,803,768,0
49976,331.56,803,766,0
49986,326.55,803,768,0
49996,321.54,803,766,0
50007,317.01,803,768,0
50017,312.98,803,766,0
50027,309.38,803,767,0
50037,306.40,803,766,0
50048,304.31,803,767,0
50057,302.93,803,766,0
50067,302.31,803,767,0
50077,302.09,803,766,0
50087,302.19,803,767,0
50097,302.56,803,766,0
50107,302.99,803,767,0
50117,303.64,803,766,0
50127,304.22,803,767,0
50137,304.88,803,766,0
50147,305.43,803,767,0
50157,306.03,803,766,0
50167,306.54,803,767,0
50177,307.23,803,766,0
50187,308.06,803,767,0
50197,309.50,803,766,0
50207,311.84,803,767,0
50217,316.00,803,766,0
50227,322.51,803,767,0
50237,332.56,803,766,0
50247,346.92,803,767,0
50257,366.70,803,766,0
50267,392.51,803,767,0
50277,424.97,803,766,0
50287,463.93,803,767,0
50307,507.03,823,766,0
50310,551.25,823,767,0
50319,594.16,823,767,0
50329,633.58,823,767,0
50339,667.95,823,767,0
50349,695.69,823,766,0
50359,715.89,823,767,0
50369,730.02,823,767,0
50379,739.91,823,767,0
50390,746.84,823,766,0
50399,751.69,823,767,0
50409,755.08,823,767,0
50419,757.46,823,767,0
50429,758.18,823,766,0
50439,755.38,823,767,0
50449,746.82,823,767,0
50459,731.58,823,767,0
50469,708.52,823,766,0
50479,678.06,823,767,0
50489,640.20,823,767,0
50499,596.68,823,767,0
50509,550.15,823,766,0
50519,504.20,823,767,0
50529,460.56,823,767,0
50539,421.65,823,766,0
50549,387.72,823,766,0
50560,360.12,823,767,0
50569,338.40,823,767,0
50579,322.98,823,767,0
50589,312.83,823,766,0
50599,308.04,823,767,0
50609,307.13,823,767,0
50619,309.96,823,767,0
50629,314.81,823,766,0
50639,321.81,823,767,0
50649,329.33,823,767,0
50659,337.41,823,767,0
50669,344.79,823,766,0
50679,351.62,823,767,0
50689,356.97,823,767,0
50699,361.39,823,767,0
50709,363.97,823,766,0
50719,365.48,823,767,0
50729,365.25,823,767,0
50739,364.02,823,767,0
50749,361.40,823,767,0
50759,358.28,823,767,0
50769,353.91,823,767,0
50779,349.27,823,767,0
50789,343.96,823,767,0
50799,339.00,823,767,0
50809,333.81,823,767,0
50819,329.41,823,767,0
50829,325.13,823,767,0
50839,321.92,823,767,0
50849,319.03,823,767,0
50860,317.09,823,767,0
50870,315.18,823,766,0
50880,314.14,823,767,0
50890,313.07,823,766,0
50900,312.66,823,767,0
50910,312.25,823,766,0
50920,312.39,823,767,0
50930,312.40,823,766,0
50940,312.97,823,767,0
50950,313.23,823,767,0
50960,313.93,823,767,0
50970,314.25,823,766,0
50980,315.12,823,767,0
50990,315.98,823,766,0
51000,318.05,823,767,0
51010,321.08,823,767,0
51020,326.75,823,767,0
51031,335.14,823,766,0
51041,348.04,823,767,0
51051,365.47,823,766,0
51061,389.29,823,768,0
51072,419.07,823,766,0
51081,455.57,823,767,0
51100,496.84,794,766,0
51102,540.34,794,768,0
51112,583.06,794,766,0
51122,623.28,794,767,0
51132,658.64,794,766,0
51142,688.15,794,768,0
51152,710.60,794,766,0
51162,726.37,794,767,0
51172,737.36,794,766,0
51182,745.05,794,767,0
51192,750.43,794,766,0
51202,754.20,794,767,0
51212,755.99,794,766,0
51222,753.93,794,767,0
51232,745.90,794,766,0
51243,731.18,794,767,0
51252,709.01,794,766,0
51262,679.44,794,768,0
51272,642.41,794,766,0
51282,599.77,794,767,0
51292,554.15,794,766,0
51302,509.19,794,768,0
51312,466.19,794,766,0
51322,427.52,794,767,0
51332,393.76,794,766,0
51342,366.19,794,768,0
51352,344.19,794,766,0
51362,328.23,794,767,0
51372,317.28,794,766,0
51382,311.71,794,768,0
51392,309.91,794,766,0
51402,311.74,794,767,0
51412,315.63,794,766,0
51422,321.61,794,767,0
51432,328.33,794,766,0
51442,335.73,794,767,0
51452,342.58,794,766,0
51462,349.35,794,768,0
51472,355.07,794,766,0
51482,360.32,794,767,0
51492,364.13,794,766,0
51502,367.22,794,768,0
51512,368.87,794,766,0
51522,369.63,794,768,0
51532,368.80,794,765,0
51543,367.15,794,768,0
51553,364.10,794,766,0
51563,360.51,794,768,0
51573,355.90,794,766,0
51584,351.26,794,767,0
51593,346.38,794,766,0
51603,341.98,794,767,0
51613,337.66,794,765,0
51623,333.95,794,768,0
51633,330.41,794,765,0
51643,327.76,794,768,0
51653,325.39,794,766,0
51663,323.73,794,768,0
51673,322.18,794,766,0
51683,321.23,794,768,0
51693,320.43,794,766,0
51703,320.34,794,768,0
51713,320.07,794,766,0
51723,320.31,794,768,0
51733,320.39,794,766,0
51743,321.08,794,768,0
51753,322.34,794,766,0
51763,325.16,794,768,0
51773,329.74,794,766,0
51783,337.66,794,768,0
51793,349.33,794,766,0
51803,366.20,794,768,0
51813,388.77,794,766,0
51823,418.37,794,768,0
51833,454.77,794,766,0
51843,496.45,794,768,0
51862,540.08,762,767,0
51865,583.17,762,768,0
51874,623.57,762,766,0
51884,659.57,762,768,0
51894,689.06,762,766,0
51904,711.20,762,768,0
51914,726.70,762,766,0
51924,737.54,762,768,0
51934,745.18,762,766,0
51944,750.53,762,768,0
51954,754.27,762,766,0
51964,756.89,762,768,0
51974,758.72,762,766,0
51984,760.01,762,768,0
51994,758.29,762,766,0
52004,751.35,762,768,0
52014,737.66,762,766,0
52024,716.29,762,768,0
52034,686.67,762,766,0
52044,649.23,762,768,0
52055,604.63,762,766,0
52065,556.31,762,768,0
52075,507.70,762,767,0
52085,461.38,762,768,0
52096,419.44,762,766,0
52105,383.56,762,768,0
52115,354.12,762,766,0
52125,331.33,762,768,0
52135,314.94,762,766,0
52145,304.42,762,768,0
52155,299.06,762,766,0
52165,297.97,762,768,0
52175,300.25,762,766,0
52185,305.11,762,768,0
52195,311.50,762,767,0
52205,318.68,762,768,0
52215,326.02,762,766,0
52225,332.96,762,768,0
52235,339.18,762,766,0
52245,344.14,762,768,0
52255,347.79,762,766,0
52265,349.95,762,768,0
52275,350.87,762,767,0
52285,350.52,762,768,0
52295,348.99,762,766,0
52305,346.34,762,768,0
52315,342.89,762,766,0
52325,338.77,762,768,0
52335,334.17,762,766,0
52345,329.15,762,768,0
52355,324.09,762,766,0
52365,319.22,762,768,0
52375,314.78,762,766,0
52385,310.73,762,768,0
52396,307.34,762,767,0
52406,304.58,762,768,0
52416,302.61,762,767,0
52426,300.97,762,767,0
52436,299.99,762,767,0
52446,299.22,762,767,0
52456,299.07,762,766,0
52466,298.96,762,767,0
52476,299.40,762,767,0
52486,299.97,762,768,0
52496,301.09,762,767,0
52506,302.48,762,767,0
52516,305.08,762,767,0
52526,309.00,762,767,0
52536,315.38,762,766,0
52546,324.65,762,767,0
52556,338.34,762,767,0
52567,357.14,762,767,0
52577,382.43,762,767,0
52587,414.36,762,767,0
52597,453.38,762,767,0
52617,496.94,754,766,0
52620,542.17,754,769,0
52629,586.26,754,767,0
52639,627.24,754,768,0
52649,662.95,754,766,0
52659,692.07,754,768,0
52669,713.35,754,767,0
52679,728.24,754,768,0
52689,738.67,754,767,0
52699,745.97,754,768,0
52709,751.08,754,767,0
52719,754.65,754,768,0
52729,757.16,754,766,0
52739,758.91,754,768,0
52749,758.17,754,767,0
52759,752.89,754,768,0
52769,740.79,754,766,0
52780,721.23,754,768,0
52790,693.30,754,766,0
52800,657.64,754,768,0
52810,614.33,754,766,0
52820,566.66,754,768,0
52830,517.22,754,766,0
52840,470.01,754,768,0
52850,426.38,754,766,0
52860,388.72,754,768,0
52870,356.92,754,766,0
52880,332.52,754,768,0
52890,314.06,754,766,0
52900,302.17,754,768,0
52910,295.26,754,766,0
52920,293.51,754,768,0
52930,295.16,754,766,0
52940,300.21,754,768,0
52951,306.53,754,766,0
52961,314.56,754,768,0
52971,322.75,754,766,0
52981,331.10,754,768,0
52992,338.31,754,766,0
53001,344.73,754,768,0
53011,349.27,754,766,0
53021,352.66,754,768,0
53031,354.05,754,766,0
53041,354.20,754,768,0
53051,352.60,754,766,0
53061,350.06,754,768,0
53071,346.27,754,765,0
53081,342.29,754,768,0
53091,337.62,754,766,0
53101,333.19,754,768,0
53111,328.42,754,765,0
53121,324.31,754,768,0
53131,320.19,754,766,0
53141,316.79,754,768,0
53151,313.47,754,765,0
53161,310.84,754,768,0
53171,308.32,754,766,0
53181,306.55,754,768,0
53191,304.76,754,765,0
53201,303.72,754,768,0
53211,302.69,754,766,0
53221,302.27,754,768,0
53231,301.71,754,766,0
53241,301.67,754,768,0
53251,301.51,754,766,0
53261,301.92,754,768,0
53271,302.20,754,766,0
53281,303.00,754,768,0
53292,303.85,754,766,0
53302,305.66,754,768,0
53312,308.33,754,765,0
53322,313.12,754,768,0
53332,320.41,754,766,0
53342,331.43,754,768,0
53352,346.69,754,766,0
53362,367.57,754,768,0
53372,394.61,754,766,0
53382,428.24,754,768,0
53392,467.86,754,766,0
53411,511.14,795,765,0
53413,555.24,795,767,0
53423,597.90,795,768,0
53433,636.80,795,766,0
53443,670.33,795,768,0
53453,697.27,795,766,0
53463,716.99,795,768,0
53473,730.75,795,766,0
53483,740.34,795,768,0
53493,747.05,795,766,0
53504,751.79,795,768,0
53513,755.11,795,766,0
53523,757.44,795,768,0
53533,757.52,795,766,0
53543,753.08,795,767,0
53553,742.68,795,766,0
53563,725.16,795,768,0
53573,699.91,795,766,0
53583,667.07,795,768,0
53593,627.19,795,766,0
53603,582.48,795,768,0
53613,536.22,795,766,0
53623,490.94,795,768,0
53633,448.83,795,766,0
53643,411.42,795,767,0
53653,379.41,795,766,0
53663,353.23,795,767,0
53673,332.98,795,766,0
53683,318.58,795,767,0
53693,309.45,795,766,0
53703,304.94,795,768,0
53713,304.40,795,766,0
53723,306.94,795,767,0
53733,311.54,795,766,0
53743,317.51,795,768,0
53753,324.13,795,766,0
53763,330.82,795,767,0
53773,337.13,795,766,0
53783,342.62,795,768,0
53793,347.28,795,766,0
53804,350.92,795,767,0
53814,353.26,795,766,0
53824,354.12,795,768,0
53834,353.66,795,766,0
53844,351.88,795,767,0
53854,349.21,795,766,0
53864,345.68,795,768,0
53874,341.66,795,766,0
53884,337.30,795,767,0
53894,333.01,795,766,0
53904,328.85,795,768,0
53914,325.08,795,766,0
53924,321.46,795,767,0
53934,318.28,795,766,0
53944,315.37,795,768,0
53954,312.98,795,766,0
53964,310.85,795,767,0
53975,309.22,795,767,0
53985,307.74,795,767,0
53995,306.79,795,767,0
54005,305.91,795,766,0
54016,305.42,795,767,0
54025,304.95,795,767,0
54035,304.97,795,767,0
54045,304.85,795,767,0
54055,305.37,795,767,0
54065,306.03,795,767,0
54075,307.69,795,767,0
54085,310.40,795,767,0
54095,315.38,795,767,0
54105,322.81,795,767,0
54115,334.18,795,767,0
54125,349.77,795,766,0
54135,371.05,795,767,0
54145,398.04,795,767,0
54155,431.37,795,767,0
54165,470.17,795,767,0
54184,512.81,773,766,0
54187,556.15,773,768,0
54196,598.06,773,767,0
54206,636.23,773,767,0
54216,669.46,773,767,0
54226,696.28,773,767,0
54236,716.25,773,767,0
54246,730.19,773,767,0
54256,739.95,773,767,0
54266,746.78,773,767,0
54276,751.60,773,767,0
54286,754.16,773,767,0
54296,752.74,773,767,0
54306,745.49,773,767,0
54316,731.93,773,767,0
54326,710.99,773,767,0
54336,682.62,773,767,0
54346,646.87,773,767,0
54356,605.46,773,767,0
54366,561.14,773,767,0
54376,517.13,773,767,0
54386,474.62,773,767,0
54396,436.12,773,767,0
54406,402.31,773,767,0
54416,374.40,773,767,0
54426,351.78,773,767,0
54436,334.96,773,767,0
54446,322.89,773,767,0
54456,315.89,773,767,0
54466,312.45,773,767,0
54476,312.66,773,767,0
54487,314.95,773,767,0
54497,319.42,773,767,0
54507,324.57,773,767,0
54517,330.65,773,767,0
54528,336.29,773,766,0
54537,341.90,773,767,0
54547,346.26,773,767,0
54557,350.00,773,767,0
54567,352.23,773,766,0
54577,353.66,773,767,0
54587,353.59,773,767,0
54597,352.94,773,768,0
54607,351.03,773,766,0
54617,348.84,773,767,0
54627,345.50,773,766,0
54637,342.01,773,767,0
54647,337.72,773,766,0
54657,333.56,773,767,0
54667,329.15,773,766,0
54677,325.38,773,767,0
54687,321.49,773,766,0
54697,318.60,773,767,0
54707,315.89,773,766,0
54717,314.25,773,767,0
54727,312.85,773,766,0
54737,312.12,773,767,0
54747,311.27,773,766,0
54757,310.93,773,767,0
54767,310.44,773,766,0
54777,310.52,773,767,0
54787,310.41,773,766,0
54797,310.97,773,767,0
54807,311.45,773,766,0
54817,312.94,773,767,0
54828,315.15,773,766,0
54838,319.35,773,768,0
54848,325.50,773,766,0
54858,335.29,773,767,0
54868,348.70,773,766,0
54878,367.31,773,768,0
54888,391.04,773,766,0
54898,421.25,773,767,0
54908,456.96,773,766,0
54927,497.90,743,765,0
54929,540.44,743,767,0
54939,582.52,743,767,0
54949,621.92,743,766,0
54959,657.18,743,768,0
54969,686.44,743,766,0
54979,709.19,743,768,0
54989,725.16,743,766,0
54999,736.39,743,768,0
55009,744.28,743,766,0
55019,749.77,743,768,0
55029,752.62,743,766,0
55040,751.37,743,768,0
55049,744.53,743,766,0
55059,731.26,743,768,0
55069,710.52,743,765,0
55079,682.42,743,768,0
55089,647.11,743,766,0
55099,606.28,743,767,0
55109,562.27,743,765,0
55119,518.26,743,767,0
55129,475.84,743,766,0
55139,437.53,743,768,0
55149,403.90,743,766,0
55159,376.11,743,768,0
55169,353.84,743,766,0
55179,337.73,743,767,0
55189,326.58,743,765,0
55199,320.49,743,768,0
55209,318.03,743,766,0
55219,319.09,743,768,0
55229,322.15,743,765,0
55239,327.21,743,767,0
55249,332.84,743,766,0
55259,339.19,743,767,0
55269,344.96,743,765,0
55279,350.42,743,767,0
55289,354.62,743,765,0
55299,358.33,743,767,0
55309,360.72,743,765,0
55319,362.43,743,768,0
55329,362.65,743,766,0
55340,362.32,743,767,0
55350,360.94,743,765,0
55360,359.16,743,768,0
55370,356.33,743,766,0
55380,353.06,743,767,0
55390,349.01,743,765,0
55400,345.02,743,767,0
55410,340.69,743,766,0
55420,336.62,743,767,0
55430,332.58,743,765,0
55440,329.11,743,767,0
55450,325.90,743,766,0
55460,323.32,743,767,0
55470,320.99,743,765,0
55480,319.28,743,767,0
55490,317.78,743,765,0
55500,316.90,743,767,0
55511,316.12,743,765,0
55521,315.78,743,767,0
55531,315.68,743,766,0
55541,316.20,743,767,0
55552,317.47,743,765,0
55561,320.29,743,767,0
55571,325.00,743,766,0
55581,332.89,743,767,0
55591,344.66,743,765,0
55601,361.35,743,767,0
55611,383.66,743,766,0
55621,412.43,743,767,0
55631,447.79,743,765,0
55650,488.82,723,764,0
55652,532.21,723,766,0
55662,575.34,723,767,0
55672,616.13,723,765,0
55682,652.73,723,767,0
55692,683.41,723,766,0
55702,707.03,723,767,0
55712,723.56,723,765,0
55723,735.10,723,767,0
55732,743.21,723,766,0
55742,748.89,723,767,0
55752,752.87,723,766,0
55762,755.65,723,767,0
55772,757.13,723,766,0
55782,754.77,723,767,0
55792,746.74,723,766,0
55802,731.73,723,767,0
55812,709.40,723,766,0
55822,679.45,723,767,0
55832,642.33,723,766,0
55842,598.95,723,767,0
55852,553.10,723,766,0
55862,507.52,723,767,0
55872,464.68,723,766,0
55882,425.94,723,767,0
55892,392.66,723,766,0
55902,365.08,723,767,0
55912,343.58,723,766,0
55922,327.85,723,767,0
55932,317.82,723,766,0
55942,312.65,723,767,0
55952,311.64,723,766,0
55962,313.80,723,767,0
55972,318.49,723,766,0
55982,324.69,723,767,0
55992,331.51,723,766,0
56002,337.91,723,767,0
56012,343.60,723,766,0
56023,347.92,723,767,0
56033,350.90,723,766,0
56043,352.13,723,767,0
56053,351.96,723,766,0
56064,350.22,723,766,0
56073,347.58,723,766,0
56083,343.72,723,766,0
56093,339.39,723,766,0
56103,334.30,723,766,0
56113,329.20,723,766,0
56123,323.82,723,766,0
56133,319.16,723,766,0
56143,314.74,723,766,0
56153,311.39,723,766,0
56163,308.57,723,767,0
56173,306.82,723,767,0
56183,305.67,723,767,0
56193,305.47,723,766,0
56203,305.50,723,767,0
56213,306.21,723,766,0
56223,306.92,723,767,0
56233,308.10,723,767,0
56243,309.23,723,767,0
56253,310.66,723,766,0
56263,311.88,723,767,0
56273,313.28,723,767,0
56283,314.44,723,767,0
56293,316.02,723,767,0
56303,317.86,723,766,0
56313,321.16,723,767,0
56323,326.00,723,766,0
56333,333.97,723,767,0
56343,345.68,723,767,0
56353,362.66,723,767,0
56364,385.39,723,766,0
56374,415.10,723,767,0
56384,451.29,723,767,0
56403,493.03,753,766,0
56407,536.78,753,766,0
56415,580.17,753,768,0
56425,620.75,753,767,0
56435,656.82,753,768,0
56445,686.58,753,766,0
56455,709.20,753,767,0
56465,725.04,753,767,0
56475,736.17,753,768,0
56485,743.92,753,766,0
56495,749.39,753,767,0
56505,753.21,753,767,0
56515,755.89,753,768,0
56525,756.57,753,766,0
56535,753.57,753,768,0
56545,744.48,753,767,0
56555,728.61,753,768,0
56565,704.64,753,766,0
56576,673.21,753,768,0
56585,634.40,753,766,0
56595,590.48,753,767,0
56605,543.75,753,766,0
56615,498.10,753,768,0
56625,455.00,753,767,0
56635,417.15,753,768,0
56645,384.58,753,766,0
56655,358.43,753,768,0
56665,337.99,753,767,0
56675,323.85,753,768,0
56685,314.72,753,766,0
56695,310.69,753,768,0
56705,310.10,753,766,0
56715,312.94,753,767,0
56725,317.46,753,766,0
56735,323.71,753,768,0
56745,330.01,753,766,0
56755,336.69,753,767,0
56765,342.36,753,766,0
56775,347.52,753,768,0
56785,351.14,753,766,0
56795,354.01,753,767,0
56805,355.25,753,766,0
56815,355.82,753,768,0
56825,354.84,753,766,0
56835,353.43,753,767,0
56845,350.90,753,766,0
56855,348.19,753,767,0
56865,344.53,753,766,0
56876,341.03,753,768,0
56886,336.99,753,766,0
56896,333.44,753,768,0
56906,329.53,753,766,0
56916,326.25,753,768,0
56926,322.87,753,766,0
56936,320.34,753,768,0
56946,317.62,753,766,0
56956,315.64,753,768,0
56966,313.52,753,766,0
56976,312.16,753,768,0
56986,310.66,753,766,0
56996,309.77,753,768,0
57006,308.73,753,766,0
57016,308.42,753,768,0
57026,308.08,753,766,0
57036,308.70,753,768,0
57047,309.86,753,766,0
57057,312.90,753,767,0
57067,317.78,753,766,0
57077,325.99,753,768,0
57088,337.73,753,766,0
57097,354.36,753,767,0
57107,376.06,753,766,0
57117,404.07,753,768,0
57127,437.74,753,766,0
57146,477.03,743,764,0
57149,519.36,743,767,0
57158,562.24,743,768,0
57168,603.31,743,766,0
57178,640.85,743,767,0
57188,672.91,743,766,0
57198,698.78,743,768,0
57208,717.74,743,766,0
57218,731.02,743,767,0
57228,740.31,743,766,0
57238,746.82,743,768,0
57248,751.37,743,766,0
57259,752.20,743,767,0
57268,747.81,743,766,0
57278,737.28,743,768,0
57288,719.54,743,766,0
57298,694.44,743,767,0
57308,662.08,743,766,0
57318,623.05,743,768,0
57328,580.01,743,765,0
57338,535.73,743,767,0
57348,492.27,743,766,0
57358,452.16,743,768,0
57368,416.24,743,766,0
57378,385.53,743,767,0
57388,360.13,743,766,0
57398,340.67,743,768,0
57408,326.59,743,766,0
57418,317.75,743,768,0
57428,312.94,743,766,0
57438,312.02,743,768,0
57448,313.77,743,766,0
57458,317.70,743,768,0
57468,322.76,743,766,0
57478,328.66,743,768,0
57488,334.38,743,766,0
57498,340.01,743,768,0
57508,344.68,743,766,0
57518,348.67,743,768,0
57528,351.47,743,766,0
57538,353.39,743,768,0
57548,354.17,743,766,0
57559,354.25,743,768,0
57569,353.19,743,766,0
57579,351.59,743,768,0
57589,349.23,743,766,0
57600,346.54,743,768,0
57609,343.34,743,766,0
57619,340.02,743,768,0
57629,336.42,743,766,0
57639,332.95,743,768,0
57649,329.45,743,766,0
57659,326.23,743,768,0
57669,323.25,743,766,0
57679,320.60,743,768,0
57689,318.23,743,766,0
57699,316.32,743,768,0
57709,314.77,743,766,0
57719,313.59,743,768,0
57729,312.69,743,766,0
57739,312.22,743,768,0
57749,312.20,743,766,0
57759,312.74,743,768,0
57769,314.10,743,766,0
57779,316.69,743,768,0
57789,321.15,743,766,0
57799,328.39,743,768,0
