Time,PPG,IBI,GSR,GSR_Event
1008249,372.38,783,761,0
1008259,367.85,783,760,0
1008269,359.93,783,762,0
1008279,349.28,783,760,0
1008289,337.07,783,762,0
1008300,323.89,783,760,0
1008310,310.76,783,762,0
1008320,303.55,783,760,0
1008330,300.77,783,762,0
1008340,301.23,783,760,0
1008350,304.16,783,762,0
1008360,308.74,783,760,0
1008370,314.26,783,762,0
1008380,320.01,783,760,0
1008390,325.49,783,762,0
1008400,330.40,783,759,0
1008410,334.87,783,762,0
1008420,338.68,783,760,0
1008430,341.86,783,762,0
1008440,344.47,783,760,0
1008450,346.43,783,762,0
1008460,348.10,783,760,0
1008471,349.40,783,761,0
1008481,350.35,783,760,0
1008491,350.97,783,762,0
1008501,351.37,783,760,0
1008512,351.47,783,762,0
1008521,351.76,783,760,0
1008531,352.00,783,762,0
1008541,352.47,783,760,0
1008551,352.97,783,762,0
1008561,353.88,783,760,0
1008571,355.25,783,762,0
1008581,357.70,783,760,0
1008591,361.30,783,762,0
1008601,366.78,783,760,0
1008611,374.78,783,762,0
1008621,386.12,783,760,0
1008631,401.47,783,762,0
1008641,421.43,783,760,0
1008651,446.24,783,762,0
1008661,476.13,783,760,0
1008680,510.42,783,760,0
1008684,547.58,783,764,0
1008692,585.12,783,764,0
1008702,621.00,783,762,0
1008712,653.66,783,763,0
1008722,681.79,783,762,0
1008732,704.44,783,763,0
1008742,721.41,783,762,0
1008752,733.28,783,763,0
1008762,741.60,783,762,0
1008772,747.42,783,763,0
1008782,751.02,783,762,0
1008792,750.24,783,763,0
1008802,743.74,783,762,0
1008812,730.58,783,763,0
1008822,710.09,783,762,0
1008832,681.82,783,763,0
1008842,646.35,783,762,0
1008852,604.46,783,763,0
1008862,560.00,783,762,0
1008872,515.30,783,763,0
1008882,472.74,783,762,0
1008892,433.86,783,763,0
1008902,400.43,783,761,0
1008912,372.62,783,763,0
1008922,351.09,783,762,0
1008932,335.12,783,763,0
1008942,324.97,783,761,0
1008952,319.62,783,763,0
1008962,318.92,783,761,0
1008972,321.56,783,763,0
1008983,327.18,783,762,0
1008993,334.41,783,763,0
1009003,343.03,783,762,0
1009013,351.76,783,763,0
1009024,360.36,783,762,0
1009033,367.80,783,763,0
1009043,374.20,783,762,0
1009053,378.73,783,763,0
1009063,381.81,783,762,0
1009073,382.98,783,763,0
1009083,382.86,783,761,0
1009093,381.19,783,763,0
1009103,378.69,783,762,0
1009113,375.10,783,763,0
1009123,371.25,783,761,0
1009133,366.85,783,763,0
1009143,362.57,783,762,0
1009153,358.02,783,763,0
1009163,354.12,783,762,0
1009173,350.40,783,763,0
1009183,347.49,783,762,0
1009193,344.82,783,763,0
1009203,343.16,783,762,0
1009213,341.78,783,763,0
1009223,341.20,783,762,0
1009233,340.63,783,763,0
1009243,340.65,783,762,0
1009253,340.76,783,763,0
1009263,341.52,783,762,0
1009273,342.00,783,763,0
1009283,342.90,783,761,0
1009293,343.75,783,763,0
1009303,345.07,783,762,0
1009313,346.12,783,763,0
1009324,347.41,783,762,0
1009334,348.27,783,762,0
1009344,349.61,783,762,0
1009354,350.67,783,762,0
1009364,352.10,783,762,0
1009374,353.44,783,762,0
1009384,356.01,783,762,0
1009394,359.78,783,762,0
1009404,366.27,783,762,0
1009414,375.32,783,762,0
1009424,388.42,783,762,0
1009434,405.78,783,762,0
1009444,428.69,783,762,0
1009454,456.38,783,762,0
1009473,489.18,793,761,0
1009476,525.43,793,762,0
1009485,563.49,793,763,0
1009495,600.84,793,762,0
1009505,635.82,793,763,0
1009515,666.60,793,762,0
1009525,692.52,793,763,0
1009536,712.59,793,762,0
1009545,727.11,793,763,0
1009555,737.28,793,762,0
1009565,743.62,793,763,0
1009575,744.89,793,762,0
1009585,740.60,793,763,0
1009595,729.49,793,762,0
1009605,711.56,793,763,0
1009615,686.23,793,761,0
1009625,654.41,793,763,0
1009635,616.78,793,762,0
1009645,576.39,793,763,0
1009655,534.96,793,762,0
1009665,495.41,793,763,0
1009675,458.65,793,762,0
1009685,426.52,793,763,0
1009695,398.81,793,762,0
1009705,376.67,793,763,0
1009715,359.67,793,762,0
1009725,348.02,793,763,0
1009735,340.60,793,762,0
1009745,337.64,793,763,0
1009755,337.70,793,762,0
1009765,340.79,793,763,0
1009775,345.53,793,762,0
1009785,351.88,793,763,0
1009795,358.56,793,762,0
1009805,365.68,793,763,0
1009815,371.99,793,762,0
1009825,377.91,793,763,0
1009836,382.39,793,762,0
1009846,385.83,793,763,0
1009856,387.51,793,761,0
1009866,388.26,793,763,0
1009876,387.28,793,761,0
1009886,385.31,793,763,0
1009896,381.83,793,762,0
1009906,377.60,793,763,0
1009916,372.36,793,761,0
1009926,366.85,793,763,0
1009936,360.90,793,761,0
1009946,355.48,793,763,0
1009956,350.28,793,761,0
1009966,346.04,793,763,0
1009976,342.30,793,761,0
1009986,339.81,793,763,0
1009996,337.94,793,761,0
1010007,336.93,793,763,0
1010017,336.26,793,761,0
1010027,336.36,793,763,0
1010037,336.59,793,761,0
1010048,337.53,793,764,0
1010057,338.44,793,761,0
1010067,339.94,793,764,0
1010077,341.46,793,761,0
1010087,343.29,793,764,0
1010097,344.92,793,761,0
1010107,346.79,793,763,0
1010117,348.44,793,761,0
1010127,350.32,793,763,0
1010137,352.02,793,761,0
1010147,354.16,793,763,0
1010157,356.68,793,761,0
1010167,360.42,793,763,0
1010177,365.52,793,761,0
1010187,373.12,793,763,0
1010197,383.50,793,761,0
1010207,397.92,793,764,0
1010217,416.72,793,761,0
1010227,440.67,793,764,0
1010237,469.53,793,762,0
1010256,503.48,783,760,0
1010259,540.54,783,762,0
1010268,578.56,783,764,0
1010278,615.17,783,761,0
1010288,648.76,783,764,0
1010298,677.85,783,761,0
1010308,701.63,783,764,0
1010318,719.36,783,761,0
1010328,731.85,783,764,0
1010338,740.60,783,761,0
1010348,745.43,783,764,0
1010358,745.26,783,761,0
1010368,739.14,783,763,0
1010378,726.24,783,761,0
1010388,706.37,783,763,0
1010398,679.56,783,761,0
1010408,646.18,783,763,0
1010418,607.77,783,761,0
1010428,566.86,783,763,0
1010438,525.72,783,761,0
1010448,486.55,783,763,0
1010458,450.47,783,761,0
1010468,418.66,783,763,0
1010478,391.37,783,761,0
1010488,369.32,783,763,0
1010498,352.51,783,761,0
1010508,341.04,783,764,0
1010519,334.39,783,761,0
1010529,332.26,783,764,0
1010539,333.77,783,761,0
1010549,338.29,783,764,0
1010560,345.02,783,761,0
1010569,353.07,783,764,0
1010579,361.45,783,761,0
1010589,369.41,783,764,0
1010599,376.49,783,761,0
1010609,382.21,783,764,0
1010619,386.44,783,761,0
1010629,388.92,783,764,0
1010639,389.76,783,761,0
1010649,389.14,783,764,0
1010659,387.17,783,761,0
1010669,383.95,783,763,0
1010679,379.81,783,761,0
1010689,375.15,783,764,0
1010699,370.13,783,761,0
1010709,364.95,783,764,0
1010719,359.74,783,761,0
1010729,354.76,783,763,0
1010739,350.16,783,761,0
1010749,346.00,783,763,0
1010759,342.36,783,761,0
1010769,339.25,783,764,0
1010779,336.86,783,761,0
1010789,335.19,783,763,0
1010799,334.15,783,761,0
1010809,333.63,783,763,0
1010819,333.74,783,761,0
1010829,334.12,783,763,0
1010839,334.64,783,761,0
1010849,335.22,783,763,0
1010860,335.97,783,761,0
1010870,336.88,783,763,0
1010880,337.99,783,761,0
1010890,339.02,783,764,0
1010900,340.26,783,761,0
1010910,341.85,783,763,0
1010920,344.04,783,761,0
1010930,346.77,783,763,0
1010940,350.70,783,761,0
1010950,356.14,783,763,0
1010960,364.16,783,761,0
1010970,375.30,783,763,0
1010980,390.59,783,761,0
1010990,410.17,783,763,0
1011000,434.76,783,761,0
1011010,464.41,783,764,0
1011020,499.17,783,761,0
1011040,537.05,784,760,0
1011043,575.69,784,763,0
1011052,612.77,784,763,0
1011062,646.95,784,762,0
1011073,676.71,784,762,0
1011083,700.97,784,762,0
1011093,718.98,784,763,0
1011103,731.63,784,762,0
1011113,740.44,784,762,0
1011123,745.36,784,762,0
1011133,744.91,784,763,0
1011143,738.68,784,762,0
1011153,725.58,784,762,0
1011163,705.82,784,762,0
1011173,678.83,784,762,0
1011183,645.20,784,762,0
1011193,606.39,784,762,0
1011203,565.69,784,762,0
1011213,524.55,784,762,0
1011223,485.56,784,762,0
1011233,449.31,784,762,0
1011244,417.67,784,762,0
1011254,390.73,784,762,0
1011264,369.34,784,763,0
1011274,352.82,784,761,0
1011284,341.65,784,763,0
1011294,334.72,784,762,0
1011304,332.11,784,763,0
1011314,332.42,784,761,0
1011324,335.72,784,763,0
1011334,340.56,784,762,0
1011344,347.25,784,763,0
1011354,354.16,784,761,0
1011364,361.61,784,763,0
1011374,368.29,784,762,0
1011384,374.71,784,763,0
1011394,379.69,784,762,0
1011404,383.77,784,763,0
1011415,385.72,784,762,0
1011425,386.45,784,763,0
1011435,385.20,784,761,0
1011445,382.95,784,763,0
1011456,379.02,784,761,0
1011465,374.39,784,763,0
1011475,368.70,784,761,0
1011485,363.05,784,763,0
1011495,357.03,784,761,0
1011505,351.58,784,763,0
1011515,346.13,784,761,0
1011525,341.59,784,763,0
1011535,337.43,784,761,0
1011545,334.47,784,763,0
1011555,331.97,784,762,0
1011565,330.57,784,763,0
1011575,329.50,784,761,0
1011585,329.52,784,763,0
1011595,329.88,784,762,0
1011605,331.03,784,763,0
1011615,332.05,784,762,0
1011625,333.66,784,763,0
1011635,335.05,784,762,0
1011645,336.62,784,763,0
1011655,337.59,784,761,0
1011665,338.57,784,763,0
1011675,339.09,784,761,0
1011685,339.83,784,763,0
1011695,340.27,784,761,0
1011705,341.09,784,763,0
1011715,342.18,784,761,0
1011725,344.74,784,763,0
1011735,348.42,784,762,0
1011745,354.38,784,763,0
1011756,362.75,784,761,0
1011766,374.82,784,763,0
1011776,390.86,784,761,0
1011786,412.08,784,764,0
1011796,438.11,784,761,0
1011806,469.66,784,763,0
1011825,505.64,785,762,0
1011828,544.40,785,763,0
1011837,583.20,785,761,0
1011847,620.29,785,763,0
1011857,653.68,785,761,0
1011867,682.27,785,764,0
1011877,705.03,785,761,0
1011887,721.82,785,763,0
1011897,733.58,785,761,0
1011907,741.80,785,764,0
1011917,746.88,785,761,0
1011927,747.90,785,763,0
1011937,743.56,785,761,0
1011947,733.15,785,764,0
1011957,715.83,785,761,0
1011968,691.41,785,763,0
1011977,660.09,785,761,0
1011987,623.08,785,764,0
1011997,582.25,785,761,0
1012007,540.48,785,763,0
1012017,499.53,785,761,0
1012027,461.57,785,764,0
1012037,427.63,785,761,0
1012047,398.60,785,763,0
1012057,374.55,785,761,0
1012067,356.21,785,764,0
1012077,343.03,785,761,0
1012087,334.88,785,763,0
1012097,330.85,785,761,0
1012107,330.68,785,764,0
1012117,333.39,785,761,0
1012127,338.50,785,763,0
1012137,344.95,785,761,0
1012147,352.21,785,763,0
1012157,359.30,785,761,0
1012167,366.07,785,763,0
1012177,371.75,785,761,0
1012187,376.32,785,764,0
1012197,379.31,785,761,0
1012207,380.89,785,763,0
1012217,380.79,785,761,0
1012227,379.66,785,764,0
1012237,377.23,785,761,0
1012247,373.90,785,763,0
1012257,369.60,785,761,0
1012268,364.88,785,764,0
1012278,359.69,785,761,0
1012288,354.47,785,763,0
1012298,349.18,785,761,0
1012308,344.11,785,764,0
1012318,339.37,785,761,0
1012328,335.14,785,763,0
1012338,331.59,785,761,0
1012348,328.80,785,764,0
1012358,326.84,785,761,0
1012368,325.60,785,764,0
1012378,325.08,785,761,0
1012388,325.23,785,764,0
1012398,326.02,785,761,0
1012408,327.25,785,764,0
1012418,328.76,785,761,0
1012428,330.51,785,764,0
1012439,332.33,785,761,0
1012449,334.24,785,763,0
1012459,336.18,785,761,0
1012469,337.97,785,764,0
1012480,339.69,785,761,0
1012489,341.37,785,763,0
1012499,342.97,785,761,0
1012509,344.65,785,763,0
1012519,346.69,785,761,0
1012529,349.22,785,763,0
1012539,352.88,785,761,0
1012549,357.93,785,764,0
1012559,365.32,785,761,0
1012569,375.47,785,763,0
1012579,389.26,785,761,0
1012589,407.39,785,764,0
1012599,430.68,785,761,0
1012609,458.89,785,763,0
1012628,491.96,803,762,0
1012631,528.66,803,764,0
1012640,566.91,803,762,0
1012651,604.39,803,763,0
1012660,639.16,803,761,0
1012670,669.58,803,763,0
1012680,694.91,803,762,0
1012690,714.48,803,763,0
1012700,728.43,803,761,0
1012710,738.20,803,763,0
1012720,743.97,803,761,0
1012730,744.62,803,763,0
1012740,739.76,803,761,0
1012750,728.44,803,763,0
1012760,710.35,803,761,0
1012770,684.96,803,763,0
1012780,652.91,803,761,0
1012790,615.52,803,763,0
1012800,575.60,803,761,0
1012810,534.57,803,763,0
1012820,494.89,803,761,0
1012830,457.85,803,763,0
1012840,425.37,803,761,0
1012850,397.61,803,763,0
1012860,375.36,803,761,0
1012870,358.32,803,763,0
1012880,346.78,803,761,0
1012890,339.99,803,763,0
1012900,337.72,803,761,0
1012910,338.83,803,763,0
1012920,342.96,803,761,0
1012930,348.84,803,763,0
1012940,356.17,803,761,0
1012951,363.79,803,763,0
1012961,371.48,803,762,0
1012971,378.20,803,763,0
1012981,384.01,803,761,0
1012992,388.03,803,763,0
1013001,390.81,803,762,0
1013011,391.64,803,763,0
1013021,391.32,803,761,0
1013031,389.25,803,763,0
1013041,386.35,803,762,0
1013051,382.26,803,763,0
1013061,377.68,803,761,0
1013071,372.29,803,763,0
1013081,366.97,803,762,0
1013091,361.20,803,763,0
1013101,355.95,803,761,0
1013111,350.78,803,763,0
1013121,346.39,803,762,0
1013131,342.46,803,763,0
1013141,339.54,803,762,0
1013151,337.02,803,763,0
1013161,335.60,803,762,0
1013171,334.56,803,763,0
1013181,334.39,803,761,0
1013191,334.32,803,762,0
1013201,334.95,803,762,0
1013211,335.61,803,763,0
1013221,336.80,803,762,0
1013231,337.67,803,763,0
1013241,339.06,803,762,0
1013251,340.28,803,763,0
1013261,341.95,803,762,0
1013271,343.38,803,763,0
1013281,345.20,803,762,0
1013292,347.02,803,763,0
1013302,349.80,803,762,0
1013312,353.03,803,762,0
1013322,357.95,803,762,0
1013332,364.74,803,762,0
1013342,374.59,803,762,0
1013352,387.74,803,762,0
1013362,405.65,803,762,0
1013372,428.38,803,762,0
1013382,456.68,803,762,0
1013392,489.52,803,762,0
1013411,526.61,783,761,0
1013414,565.08,783,763,0
1013423,602.99,783,762,0
1013433,638.05,783,762,0
1013443,668.98,783,763,0
1013453,694.53,783,762,0
1013463,714.47,783,762,0
1013473,728.43,783,762,0
1013483,738.20,783,763,0
1013493,744.65,783,762,0
1013504,747.07,783,763,0
1013513,744.14,783,762,0
1013523,735.22,783,763,0
1013533,719.43,783,762,0
1013543,696.63,783,763,0
1013553,666.70,783,761,0
1013563,630.83,783,763,0
1013573,590.81,783,762,0
1013583,549.64,783,763,0
1013593,508.82,783,762,0
1013603,470.77,783,763,0
1013613,436.21,783,762,0
1013623,406.75,783,763,0
1013633,382.05,783,762,0
1013643,363.14,783,762,0
1013653,349.04,783,762,0
1013663,340.33,783,763,0
1013673,335.64,783,761,0
1013683,335.28,783,762,0
1013693,337.55,783,762,0
1013703,342.40,783,763,0
1013713,348.32,783,761,0
1013723,355.51,783,762,0
1013733,362.34,783,762,0
1013743,369.06,783,763,0
1013753,374.40,783,761,0
1013763,378.91,783,762,0
1013773,381.72,783,762,0
1013783,383.43,783,763,0
1013793,383.13,783,761,0
1013804,381.81,783,763,0
1013814,378.86,783,762,0
1013824,375.31,783,763,0
1013834,370.54,783,761,0
1013844,365.49,783,763,0
1013854,359.73,783,761,0
1013864,354.45,783,763,0
1013874,349.00,783,761,0
1013884,344.72,783,763,0
1013894,340.30,783,761,0
1013904,336.65,783,763,0
1013914,333.24,783,761,0
1013924,330.86,783,763,0
1013934,328.71,783,761,0
1013944,327.43,783,763,0
1013954,326.01,783,761,0
1013964,325.92,783,763,0
1013975,326.46,783,761,0
1013985,327.91,783,763,0
1013995,329.44,783,761,0
1014005,331.66,783,763,0
1014016,334.08,783,761,0
1014025,337.01,783,763,0
1014035,339.75,783,761,0
1014045,342.91,783,763,0
1014055,346.37,783,761,0
1014065,350.89,783,763,0
1014075,356.02,783,761,0
1014085,363.04,783,763,0
1014095,372.33,783,761,0
1014105,385.13,783,763,0
1014115,401.72,783,761,0
1014125,423.15,783,763,0
1014135,449.37,783,761,0
1014145,481.10,783,763,0
1014155,517.16,783,761,0
1014174,555.47,763,760,0
1014177,593.43,763,762,0
1014187,629.30,763,764,0
1014196,661.31,763,761,0
1014206,688.47,763,764,0
1014216,709.80,763,761,0
1014226,725.16,763,763,0
1014236,735.91,763,761,0
1014246,743.44,763,763,0
1014256,746.65,763,761,0
1014266,744.66,763,763,0
1014276,736.66,763,761,0
1014286,722.36,763,763,0
1014296,701.04,763,761,0
1014306,672.74,763,763,0
1014316,637.76,763,761,0
1014326,598.92,763,763,0
1014336,558.19,763,761,0
1014346,517.72,763,763,0
1014356,478.84,763,761,0
1014366,443.58,763,763,0
1014376,412.63,763,761,0
1014386,386.69,763,763,0
1014396,365.65,763,761,0
1014406,349.86,763,763,0
1014416,338.88,763,761,0
1014426,332.45,763,763,0
1014436,329.78,763,761,0
1014446,330.58,763,763,0
1014456,333.66,763,761,0
1014466,338.65,763,763,0
1014476,344.63,763,761,0
1014487,351.25,763,763,0
1014497,357.78,763,760,0
1014507,363.89,763,763,0
1014517,368.98,763,761,0
1014528,373.18,763,763,0
1014537,376.09,763,761,0
1014547,377.82,763,763,0
1014557,378.04,763,761,0
1014567,377.09,763,763,0
1014577,374.79,763,761,0
1014587,371.42,763,763,0
1014597,367.18,763,761,0
1014607,362.46,763,763,0
1014617,357.52,763,761,0
1014627,352.65,763,763,0
1014637,348.04,763,761,0
1014647,343.83,763,763,0
1014657,340.28,763,761,0
1014667,337.54,763,763,0
1014677,335.45,763,761,0
1014687,333.99,763,763,0
1014697,333.13,763,761,0
1014707,332.84,763,763,0
1014717,333.10,763,761,0
1014727,333.76,763,763,0
1014737,334.73,763,761,0
1014747,336.10,763,764,0
1014757,337.70,763,761,0
1014767,339.46,763,763,0
1014777,341.42,763,761,0
1014787,343.65,763,763,0
1014797,346.20,763,761,0
1014807,349.10,763,763,0
1014817,352.50,763,761,0
1014828,356.76,763,763,0
1014838,362.58,763,761,0
1014848,370.42,763,763,0
1014858,381.18,763,761,0
1014868,395.57,763,763,0
1014878,414.34,763,761,0
1014888,438.11,763,763,0
1014898,467.35,763,761,0
1014918,501.70,743,760,0
1014921,539.42,743,762,0
1014930,577.78,743,763,0
1014940,614.83,743,762,0
1014950,648.87,743,763,0
1014960,678.44,743,762,0
1014970,702.31,743,763,0
1014980,719.91,743,762,0
1014990,732.20,743,763,0
1015000,740.84,743,762,0
1015010,746.89,743,763,0
1015020,751.12,743,762,0
1015030,753.18,743,763,0
1015041,751.37,743,762,0
1015051,744.06,743,762,0
1015061,730.54,743,762,0
1015071,709.94,743,762,0
1015081,682.48,743,762,0
1015091,648.57,743,762,0
1015101,610.13,743,762,0
1015111,569.80,743,763,0
1015121,530.86,743,763,0
1015131,494.95,743,763,0
1015141,464.36,743,762,0
1015151,439.52,743,763,0
1015161,421.24,743,763,0
1015171,408.82,743,763,0
1015181,402.83,743,762,0
1015191,401.98,743,762,0
1015201,406.15,743,762,0
1015212,413.64,743,762,0
1015222,424.29,743,762,0
1015232,436.29,743,762,0
1015242,449.53,743,763,0
1015252,462.06,743,761,0
1015262,473.74,743,762,0
1015272,483.03,743,762,0
1015282,490.05,743,763,0
1015292,493.68,743,761,0
1015302,494.59,743,762,0
1015312,492.01,743,762,0
1015322,487.08,743,763,0
1015332,479.47,743,761,0
1015342,470.50,743,762,0
1015352,460.24,743,762,0
1015362,449.92,743,762,0
1015372,439.49,743,761,0
1015383,430.08,743,762,0
1015393,421.15,743,761,0
1015403,413.73,743,763,0
1015413,407.25,743,761,0
1015424,402.25,743,763,0
1015433,397.93,743,761,0
1015443,394.65,743,763,0
1015453,391.50,743,761,0
1015463,389.21,743,763,0
1015473,386.70,743,761,0
1015483,384.48,743,763,0
1015493,381.85,743,761,0
1015503,378.47,743,762,0
1015513,375.33,743,761,0
1015523,373.04,743,763,0
1015533,370.54,743,761,0
1015543,367.94,743,762,0
1015553,365.13,743,761,0
1015563,363.29,743,762,0
1015573,363.29,743,760,0
1015583,365.00,743,761,0
1015593,368.73,743,760,0
1015603,376.44,743,762,0
1015613,389.08,743,760,0
1015623,407.87,743,761,0
1015633,432.34,743,760,0
1015643,462.84,743,762,0
1015653,497.90,743,761,0
1015663,536.50,743,762,0
1015673,575.57,743,760,0
1015683,613.20,743,762,0
1015693,647.12,743,761,0
1015712,676.40,795,759,0
1015715,699.98,795,760,0
1015724,717.99,795,762,0
1015734,728.28,795,760,0
1015744,731.11,795,762,0
1015754,726.19,795,760,0
1015764,713.58,795,762,0
1015774,693.22,795,760,0
1015784,665.47,795,762,0
1015794,630.31,795,760,0
1015804,590.96,795,762,0
1015814,549.36,795,760,0
1015824,507.89,795,762,0
1015834,467.77,795,760,0
1015844,430.72,795,762,0
1015854,397.42,795,760,0
1015864,369.31,795,762,0
1015874,346.24,795,760,0
1015884,328.99,795,762,0
1015895,317.03,795,760,0
1015905,310.72,795,762,0
1015915,309.13,795,760,0
1015925,312.09,795,763,0
1015936,318.19,795,760,0
1015945,327.05,795,762,0
1015955,337.24,795,760,0
1015965,348.48,795,762,0
1015975,359.65,795,760,0
1015985,370.60,795,762,0
1015995,380.53,795,760,0
1016005,389.59,795,763,0
1016015,397.34,795,760,0
1016025,403.97,795,762,0
1016035,408.86,795,760,0
1016045,412.42,795,763,0
1016055,414.14,795,760,0
1016065,414.52,795,763,0
1016075,413.17,795,760,0
1016085,410.50,795,763,0
1016095,406.28,795,760,0
1016105,401.05,795,763,0
1016115,394.74,795,760,0
1016125,387.87,795,763,0
1016135,380.20,795,760,0
1016145,372.51,795,763,0
1016155,364.69,795,760,0
1016165,357.45,795,763,0
1016175,350.72,795,760,0
1016185,344.80,795,763,0
1016195,339.46,795,760,0
1016205,335.25,795,763,0
1016215,331.75,795,760,0
1016225,329.25,795,763,0
1016236,327.25,795,760,0
1016246,325.89,795,763,0
1016256,324.89,795,760,0
1016266,324.75,795,763,0
1016276,325.13,795,760,0
1016286,326.50,795,763,0
1016296,328.88,795,760,0
1016306,333.12,795,763,0
1016316,339.85,795,760,0
1016326,349.88,795,763,0
1016336,363.80,795,760,0
1016346,382.29,795,763,0
1016356,405.73,795,760,0
1016366,434.18,795,763,0
1016376,467.17,795,760,0
1016386,503.76,795,763,0
1016396,542.53,795,760,0
1016407,581.16,795,763,0
1016417,617.75,795,760,0
1016436,650.66,724,759,0
1016439,677.72,724,762,0
1016449,698.12,724,762,0
1016459,710.42,724,761,0
1016469,713.64,724,762,0
1016479,708.30,724,761,0
1016489,694.33,724,762,0
1016499,672.54,724,761,0
1016509,644.05,724,762,0
1016519,609.84,724,761,0
1016529,571.40,724,762,0
1016539,531.34,724,761,0
1016549,490.74,724,762,0
1016559,451.77,724,761,0
1016569,415.03,724,762,0
1016579,382.49,724,761,0
1016589,354.27,724,762,0
1016599,331.43,724,761,0
1016609,313.56,724,762,0
1016620,301.43,724,761,0
1016630,294.45,724,762,0
1016640,292.73,724,761,0
1016650,294.99,724,762,0
1016660,301.17,724,762,0
1016670,309.99,724,763,0
1016680,321.22,724,761,0
1016690,333.37,724,762,0
1016700,346.29,724,762,0
1016710,358.63,724,762,0
1016720,370.31,724,761,0
1016730,379.99,724,762,0
1016740,387.96,724,762,0
1016750,393.33,724,762,0
1016760,396.66,724,761,0
1016770,397.19,724,762,0
1016780,395.81,724,762,0
1016791,392.09,724,762,0
1016801,387.18,724,761,0
1016811,380.65,724,761,0
1016821,373.64,724,762,0
1016832,365.74,724,761,0
1016841,358.10,724,761,0
1016851,350.31,724,761,0
1016861,343.23,724,762,0
1016871,336.39,724,761,0
1016881,330.57,724,761,0
1016891,324.96,724,761,0
1016901,320.43,724,762,0
1016911,316.27,724,761,0
1016921,313.23,724,761,0
1016931,310.59,724,762,0
1016941,309.04,724,762,0
1016951,307.87,724,761,0
1016961,308.04,724,761,0
1016971,308.88,724,761,0
1016981,311.45,724,762,0
1016991,315.30,724,761,0
1017001,322.02,724,762,0
1017011,331.45,724,761,0
1017021,345.28,724,762,0
1017031,363.71,724,761,0
1017041,388.06,724,762,0
1017051,417.61,724,761,0
1017061,453.08,724,762,0
1017071,493.00,724,761,0
1017081,535.39,724,762,0
1017091,577.23,724,761,0
1017101,616.63,724,762,0
1017120,651.54,684,760,0
1017123,681.21,684,763,0
1017132,704.42,684,760,0
1017142,719.98,684,761,0
1017152,727.74,684,761,0
1017162,729.66,684,762,0
1017172,725.09,684,761,0
1017182,714.26,684,762,0
1017192,695.20,684,760,0
1017202,668.23,684,762,0
1017212,635.07,684,760,0
1017222,598.11,684,762,0
1017232,556.76,684,760,0
1017242,508.58,684,759,0
1017252,454.70,684,757,0
1017262,399.03,684,758,0
1017272,343.40,684,757,0
1017282,290.05,684,758,0
1017292,240.23,684,757,0
1017303,196.45,684,758,0
1017313,164.09,684,756,0
1017323,143.79,684,758,0
1017333,135.62,684,756,0
1017344,138.69,684,758,0
1017353,152.63,684,758,0
1017363,175.84,684,759,0
1017373,204.90,684,757,0
1017383,238.96,684,760,0
1017393,269.61,684,753,0
1017403,298.19,684,758,0
1017413,323.72,684,755,0
1017423,345.53,684,759,0
1017433,362.73,684,757,0
1017443,376.61,684,759,0
1017453,385.98,684,756,0
1017463,397.73,684,759,0
1017473,408.06,684,757,0
1017483,416.74,684,759,0
1017493,421.32,684,756,0
1017503,422.25,684,758,0
1017513,418.88,684,756,0
1017523,412.10,684,758,0
1017533,402.98,684,756,0
1017543,393.39,684,759,0
1017553,383.50,684,757,0
1017563,374.69,684,759,0
1017573,367.03,684,756,0
1017583,362.09,684,759,0
1017593,359.79,684,758,0
1017603,359.94,684,759,0
1017613,361.37,684,758,0
1017623,364.30,684,760,0
1017633,367.77,684,758,0
1017644,372.04,684,760,0
1017654,375.63,684,757,0
1017664,379.00,684,760,0
1017674,381.65,684,758,0
1017684,384.84,684,760,0
1017694,389.01,684,758,0
1017704,395.77,684,760,0
1017714,406.04,684,758,0
1017724,421.63,684,760,0
1017734,442.66,684,758,0
1017744,470.06,684,760,0
1017754,502.96,684,758,0
1017764,539.74,684,760,0
1017774,577.62,684,758,0
1017793,614.42,673,757,0
1017796,647.98,673,759,0
1017805,677.13,673,761,0
1017815,700.49,673,758,0
1017825,717.79,673,761,0
1017835,729.89,673,758,0
1017845,736.65,673,761,0
1017856,737.23,673,758,0
1017865,731.33,673,761,0
1017875,718.16,673,758,0
1017885,697.46,673,761,0
1017895,668.90,673,758,0
1017905,633.28,673,761,0
1017915,592.56,673,758,0
1017925,549.41,673,761,0
1017935,505.70,673,758,0
1017945,463.88,673,761,0
1017955,425.47,673,758,0
1017965,392.03,673,761,0
1017975,363.99,673,758,0
1017985,342.14,673,761,0
1017995,326.54,673,758,0
1018005,317.16,673,761,0
1018015,313.39,673,758,0
1018025,314.73,673,761,0
1018035,320.25,673,758,0
1018045,329.13,673,761,0
1018055,340.15,673,758,0
1018065,352.49,673,761,0
1018075,364.90,673,758,0
1018085,376.76,673,761,0
1018095,387.29,673,758,0
1018105,396.03,673,761,0
1018115,402.49,673,758,0
1018125,406.67,673,761,0
1018135,408.40,673,758,0
1018145,408.02,673,761,0
1018156,405.49,673,758,0
1018166,401.14,673,761,0
1018176,395.53,673,756,0
1018186,388.85,673,763,0
1018196,381.70,673,754,0
1018206,374.33,673,763,0
1018216,367.12,673,755,0
1018226,360.40,673,764,0
1018236,354.49,673,755,0
1018246,349.42,673,763,0
1018256,345.35,673,754,0
1018266,342.12,673,764,0
1018276,339.81,673,753,0
1018286,338.32,673,763,0
1018296,337.58,673,755,0
1018306,337.41,673,763,0
1018316,337.84,673,755,0
1018327,339.00,673,763,0
1018337,341.19,673,755,0
1018347,344.65,673,763,0
1018357,350.11,673,756,0
1018368,358.26,673,763,0
1018377,370.06,673,754,0
1018387,385.90,673,763,0
1018397,406.76,673,755,0
1018407,432.63,673,763,0
1018417,463.73,673,754,0
1018427,498.87,673,763,0
1018437,537.01,673,755,0
1018447,575.49,673,763,0
1018466,612.50,673,762,0
1018469,645.14,673,762,0
1018478,673.51,673,756,0
1018488,694.83,673,763,0
1018498,708.42,673,755,0
1018508,712.92,673,762,0
1018518,709.00,673,756,0
1018528,696.70,673,763,0
1018539,677.46,673,756,0
1018548,650.32,673,762,0
1018558,617.83,673,756,0
1018568,580.81,673,763,0
1018578,541.78,673,756,0
1018588,501.82,673,762,0
1018598,462.96,673,756,0
1018608,425.73,673,763,0
1018618,391.95,673,756,0
1018628,361.80,673,763,0
1018638,336.66,673,756,0
1018648,316.06,673,763,0
1018658,300.83,673,756,0
1018668,290.25,673,763,0
1018678,284.90,673,755,0
1018688,283.56,673,763,0
1018698,286.39,673,756,0
1018708,291.89,673,762,0
1018718,300.15,673,755,0
1018728,309.71,673,763,0
1018738,320.55,673,756,0
1018748,331.40,673,762,0
1018758,342.17,673,755,0
1018768,351.50,673,763,0
1018778,359.88,673,756,0
1018788,366.04,673,762,0
1018798,370.79,673,755,0
1018808,373.25,673,763,0
1018818,374.20,673,756,0
1018828,373.11,673,762,0
1018839,371.02,673,756,0
1018849,367.16,673,762,0
1018859,363.00,673,757,0
1018869,357.73,673,761,0
1018880,352.67,673,758,0
1018889,347.11,673,762,0
1018899,342.15,673,758,0
1018909,337.00,673,761,0
1018919,332.80,673,758,0
1018929,328.58,673,762,0
1018939,325.32,673,757,0
1018949,322.05,673,761,0
1018959,319.72,673,758,0
1018969,317.32,673,762,0
1018979,315.81,673,757,0
1018989,314.19,673,762,0
1018999,313.37,673,758,0
1019009,312.57,673,762,0
1019019,312.96,673,757,0
1019029,313.83,673,762,0
1019039,316.75,673,758,0
1019049,321.41,673,761,0
1019059,329.52,673,757,0
1019069,340.80,673,762,0
1019079,356.81,673,758,0
1019089,377.01,673,761,0
1019099,402.38,673,757,0
1019109,431.53,673,762,0
1019119,464.55,673,758,0
1019129,499.22,673,761,0
1019148,534.86,682,761,0
1019151,567.99,682,760,0
1019160,598.25,682,760,0
1019170,623.12,682,760,0
1019180,642.07,682,759,0
1019190,653.10,682,761,0
1019200,656.54,682,759,0
1019210,651.45,682,760,0
1019220,639.92,682,760,0
1019230,621.30,682,761,0
1019240,597.81,682,759,0
1019250,569.62,682,760,0
1019260,539.27,682,760,0
1019270,507.13,682,761,0
1019280,475.59,682,759,0
1019290,444.68,682,760,0
1019300,416.32,682,760,0
1019310,390.00,682,761,0
1019320,367.28,682,759,0
1019330,347.48,682,760,0
1019340,331.87,682,760,0
1019351,319.39,682,760,0
1019361,311.09,682,760,0
1019371,305.75,682,760,0
1019381,303.98,682,761,0
1019392,304.50,682,759,0
1019401,307.82,682,760,0
1019411,312.50,682,759,0
1019421,319.00,682,761,0
1019431,325.81,682,759,0
1019441,333.37,682,760,0
1019451,340.46,682,760,0
1019461,347.73,682,761,0
1019471,353.77,682,759,0
1019481,359.28,682,760,0
1019491,363.06,682,759,0
1019501,365.95,682,761,0
1019511,366.95,682,759,0
1019521,367.05,682,760,0
1019531,365.32,682,759,0
1019541,362.91,682,761,0
1019551,358.91,682,759,0
1019561,354.74,682,761,0
1019571,349.72,682,760,0
1019581,344.96,682,761,0
1019591,339.78,682,759,0
1019601,335.31,682,761,0
1019611,330.93,682,760,0
1019621,327.78,682,761,0
1019631,324.72,682,759,0
1019641,322.62,682,761,0
1019651,320.59,682,760,0
1019661,319.60,682,761,0
1019671,318.48,682,759,0
1019681,318.08,682,761,0
1019692,317.28,682,759,0
1019702,317.20,682,762,0
1019712,316.80,682,759,0
1019722,316.99,682,761,0
1019732,316.69,682,758,0
1019742,317.00,682,762,0
1019752,316.91,682,759,0
1019762,317.58,682,762,0
1019772,318.35,682,759,0
1019782,320.52,682,762,0
1019792,323.70,682,759,0
1019802,329.32,682,761,0
1019812,337.28,682,758,0
1019822,348.94,682,762,0
1019832,363.87,682,759,0
1019842,383.24,682,762,0
1019852,406.22,682,759,0
1019863,433.16,682,762,0
1019873,462.30,682,759,0
1019892,492.98,744,757,0
1019895,522.81,744,754,0
1019905,551.07,744,764,0
1019915,575.65,744,755,0
1019925,595.43,744,764,0
1019935,608.93,744,754,0
1019945,615.81,744,765,0
1019955,615.78,744,755,0
1019965,609.76,744,764,0
1019975,597.96,744,754,0
1019985,581.09,744,765,0
1019995,560.70,744,755,0
1020005,537.91,744,764,0
1020015,513.98,744,754,0
1020025,489.73,744,765,0
1020035,466.11,744,755,0
1020045,444.00,744,764,0
1020055,424.12,744,754,0
1020065,406.43,744,765,0
1020076,391.30,744,754,0
1020086,378.78,744,764,0
1020096,369.03,744,754,0
1020106,361.78,744,764,0
1020116,356.92,744,755,0
1020126,354.11,744,764,0
1020136,353.22,744,754,0
1020146,353.71,744,764,0
1020156,355.68,744,755,0
1020166,358.48,744,764,0
1020176,362.24,744,754,0
1020186,366.15,744,764,0
1020196,370.31,744,755,0
1020206,374.03,744,764,0
1020216,377.45,744,754,0
1020226,380.01,744,764,0
1020236,381.98,744,755,0
1020247,382.76,744,763,0
1020257,382.87,744,755,0
1020267,381.88,744,764,0
1020277,380.50,744,756,0
1020288,378.25,744,763,0
1020297,375.69,744,755,0
1020307,372.53,744,763,0
1020317,369.41,744,756,0
1020327,365.86,744,763,0
1020337,362.56,744,755,0
1020347,358.88,744,764,0
1020357,355.74,744,756,0
1020367,352.43,744,763,0
1020377,349.69,744,755,0
1020387,346.78,744,763,0
1020397,344.49,744,756,0
1020407,342.07,744,763,0
1020417,340.38,744,755,0
1020427,338.72,744,764,0
1020437,337.73,744,756,0
1020447,336.61,744,763,0
1020457,336.17,744,756,0
1020467,335.65,744,764,0
1020477,335.67,744,756,0
1020487,335.38,744,763,0
1020497,335.48,744,756,0
1020507,335.42,744,764,0
1020517,335.85,744,756,0
1020527,335.94,744,763,0
1020537,336.43,744,756,0
1020547,336.51,744,764,0
1020557,336.92,744,756,0
1020567,336.90,744,763,0
1020577,337.27,744,756,0
1020588,337.19,744,763,0
1020598,337.65,744,758,0
1020608,337.71,744,763,0
1020618,338.57,744,758,0
1020628,339.60,744,762,0
1020638,341.90,744,757,0
1020648,344.76,744,762,0
1020658,349.55,744,758,0
1020668,355.73,744,762,0
1020678,364.77,744,757,0
1020688,375.89,744,762,0
1020698,390.03,744,758,0
1020718,406.00,825,757,0
1020721,423.92,825,764,0
1020730,442.76,825,760,0
1020740,462.54,825,760,0
1020750,481.11,825,760,0
1020760,498.39,825,761,0
1020770,512.37,825,760,0
1020780,523.23,825,761,0
1020790,530.02,825,760,0
1020801,532.76,825,761,0
1020811,530.47,825,759,0
1020821,524.37,825,761,0
1020831,514.23,825,759,0
1020841,501.73,825,762,0
1020851,486.90,825,760,0
1020861,471.46,825,762,0
1020871,455.16,825,759,0
1020881,439.56,825,762,0
1020891,424.52,825,760,0
1020901,410.99,825,761,0
1020911,398.35,825,759,0
1020921,387.53,825,762,0
1020931,377.77,825,760,0
1020941,370.30,825,761,0
1020951,364.17,825,759,0
1020961,360.13,825,762,0
1020972,357.35,825,759,0
1020982,356.69,825,762,0
1020992,357.04,825,759,0
1021002,358.91,825,762,0
1021012,361.12,825,759,0
1021022,364.17,825,762,0
1021032,367.12,825,759,0
1021042,370.56,825,762,0
1021052,373.47,825,759,0
1021062,376.46,825,762,0
1021072,378.64,825,759,0
1021082,380.59,825,762,0
1021092,381.78,825,759,0
1021102,382.62,825,762,0
1021112,382.48,825,759,0
1021122,382.08,825,762,0
1021132,380.85,825,759,0
1021143,379.53,825,762,0
1021153,377.57,825,758,0
1021163,375.47,825,764,0
1021173,373.01,825,756,0
1021184,370.74,825,764,0
1021193,368.16,825,758,0
1021203,365.88,825,763,0
1021213,363.43,825,756,0
1021223,361.29,825,764,0
1021233,359.14,825,758,0
1021243,357.34,825,763,0
1021253,355.61,825,756,0
1021263,354.27,825,764,0
1021273,352.90,825,758,0
1021283,351.95,825,763,0
1021293,351.11,825,757,0
1021303,350.56,825,764,0
1021313,350.05,825,758,0
1021323,349.86,825,763,0
1021333,349.65,825,757,0
1021343,349.71,825,764,0
1021353,349.58,825,755,0
1021363,349.67,825,763,0
1021373,349.68,825,757,0
1021383,349.90,825,764,0
1021393,349.89,825,755,0
1021403,350.05,825,763,0
1021413,350.08,825,757,0
1021423,350.40,825,764,0
1021433,350.49,825,755,0
1021443,350.82,825,763,0
1021453,350.87,825,757,0
1021463,351.12,825,764,0
1021473,351.34,825,755,0
1021484,351.71,825,764,0
1021494,352.18,825,755,0
1021504,353.07,825,765,0
1021514,354.64,825,754,0
1021524,357.27,825,765,0
1021534,361.09,825,755,0
1021544,366.38,825,764,0
1021554,373.29,825,754,0
1021564,381.86,825,765,0
1021583,392.10,866,763,0
1021586,402.83,866,764,0
1021595,415.10,866,754,0
1021605,427.75,866,764,0
1021615,440.38,866,754,0
1021625,452.14,866,765,0
1021635,462.43,866,753,0
1021645,470.61,866,764,0
1021655,477.07,866,754,0
1021665,480.18,866,765,0
1021675,480.51,866,753,0
1021685,478.00,866,764,0
1021696,473.41,866,755,0
1021705,466.95,866,765,0
1021715,459.16,866,753,0
1021725,450.16,866,764,0
1021735,440.77,866,755,0
1021745,431.15,866,765,0
1021755,421.93,866,753,0
1021765,412.87,866,765,0
1021775,404.51,866,754,0
1021785,396.86,866,765,0
1021795,390.43,866,753,0
1021805,384.77,866,764,0
1021815,380.34,866,754,0
1021825,376.68,866,765,0
1021835,374.20,866,754,0
1021845,372.51,866,765,0
1021855,371.76,866,754,0
1021865,371.49,866,764,0
1021875,371.99,866,753,0
1021885,372.76,866,765,0
1021895,374.59,866,755,0
1021905,376.30,866,764,0
1021915,378.22,866,753,0
1021925,379.91,866,765,0
1021935,381.83,866,754,0
1021945,383.29,866,764,0
1021955,384.75,866,753,0
1021965,385.21,866,765,0
1021975,385.70,866,754,0
1021985,385.66,866,764,0
1021996,385.55,866,755,0
1022006,384.79,866,764,0
1022016,384.08,866,756,0
1022026,382.68,866,763,0
1022036,381.28,866,756,0
1022046,379.48,866,764,0
1022056,377.84,866,756,0
1022066,375.79,866,764,0
1022076,374.09,866,756,0
1022086,372.22,866,764,0
1022096,370.96,866,756,0
1022106,369.43,866,764,0
1022116,368.31,866,756,0
1022126,367.02,866,764,0
1022136,366.28,866,756,0
1022146,365.30,866,764,0
1022156,364.87,866,756,0
1022167,364.18,866,763,0
1022177,364.17,866,757,0
1022187,363.86,866,763,0
1022197,364.16,866,758,0
1022208,364.07,866,762,0
1022217,364.48,866,757,0
1022227,364.38,866,763,0
1022237,364.65,866,758,0
1022247,364.33,866,762,0
1022257,364.49,866,757,0
1022267,364.04,866,763,0
1022277,364.03,866,758,0
1022287,363.55,866,762,0
1022297,363.60,866,757,0
1022307,363.29,866,763,0
1022317,363.55,866,758,0
1022327,363.34,866,762,0
1022337,363.67,866,757,0
1022347,363.64,866,763,0
1022357,364.05,866,758,0
1022367,363.82,866,762,0
1022377,364.13,866,759,0
1022387,364.01,866,763,0
1022397,364.52,866,758,0
1022407,364.79,866,762,0
1022417,366.01,866,759,0
1022427,367.34,866,763,0
1022437,369.94,866,758,0
1022447,372.87,866,762,0
1022457,377.37,866,758,0
1022476,382.48,893,756,0
1022479,388.90,893,763,0
1022488,396.08,893,761,0
1022498,404.80,893,761,0
1022508,413.73,893,762,0
1022518,423.41,893,760,0
1022528,432.46,893,761,0
1022538,441.45,893,760,0
1022548,449.33,893,760,0
1022558,456.09,893,759,0
1022568,460.43,893,761,0
1022578,463.52,893,760,0
1022588,464.18,893,761,0
1022598,463.65,893,759,0
1022608,461.01,893,761,0
1022618,457.50,893,760,0
1022628,452.33,893,761,0
1022638,447.00,893,759,0
1022648,440.45,893,761,0
1022658,434.10,893,760,0
1022668,427.00,893,761,0
1022679,420.48,893,761,0
1022689,413.74,893,760,0
1022699,407.95,893,761,0
1022709,402.35,893,760,0
1022720,398.04,893,761,0
1022729,394.17,893,760,0
1022739,391.64,893,761,0
1022749,389.43,893,760,0
1022759,388.57,893,762,0
1022769,388.10,893,760,0
1022779,388.80,893,761,0
1022789,389.59,893,760,0
1022799,391.30,893,762,0
1022809,392.97,893,760,0
1022819,395.33,893,761,0
1022829,397.20,893,760,0
1022839,399.37,893,762,0
1022849,400.67,893,760,0
1022859,402.27,893,761,0
1022869,403.00,893,760,0
1022879,403.77,893,762,0
1022889,403.46,893,759,0
1022899,403.11,893,761,0
1022909,401.96,893,760,0
1022919,401.07,893,761,0
1022929,399.38,893,760,0
1022939,398.07,893,761,0
1022949,396.16,893,760,0
1022959,395.00,893,761,0
1022969,393.41,893,760,0
1022979,392.39,893,761,0
1022989,390.99,893,760,0
1022999,390.18,893,761,0
1023009,388.88,893,760,0
1023020,388.23,893,762,0
1023030,387.22,893,759,0
1023040,387.02,893,762,0
1023050,386.42,893,759,0
1023060,386.38,893,762,0
1023070,385.75,893,759,0
1023080,385.65,893,762,0
1023090,385.16,893,759,0
1023100,385.15,893,762,0
1023110,384.68,893,759,0
1023120,384.69,893,762,0
1023130,384.35,893,759,0
1023140,384.63,893,762,0
1023150,384.49,893,759,0
1023160,384.73,893,762,0
1023170,384.55,893,759,0
1023180,384.90,893,762,0
1023191,384.97,893,759,0
1023201,385.41,893,762,0
1023211,385.63,893,759,0
1023221,386.26,893,762,0
1023232,386.61,893,759,0
1023241,387.24,893,762,0
1023251,387.30,893,759,0
1023261,387.55,893,762,0
1023271,387.39,893,759,0
1023281,387.40,893,762,0
1023291,387.11,893,759,0
1023301,386.99,893,762,0
1023311,386.65,893,759,0
1023321,386.88,893,762,0
1023331,387.09,893,759,0
1023341,388.05,893,762,0
1023351,389.36,893,759,0
1023361,391.70,893,762,0
1023371,394.79,893,759,0
1023390,399.27,914,757,0
1023393,404.67,914,754,0
1023403,411.67,914,765,0
1023412,419.61,914,757,0
1023422,428.73,914,764,0
1023432,438.45,914,756,0
1023442,448.69,914,765,0
1023452,458.55,914,758,0
1023462,467.94,914,764,0
1023472,475.93,914,756,0
1023482,482.55,914,765,0
1023492,487.19,914,758,0
1023502,489.96,914,764,0
1023512,490.57,914,756,0
1023522,489.37,914,765,0
1023532,486.30,914,758,0
1023542,482.05,914,764,0
1023552,476.64,914,756,0
1023562,470.58,914,765,0
1023572,463.93,914,755,0
1023582,457.14,914,763,0
1023592,450.24,914,756,0
1023602,443.61,914,765,0
1023612,437.21,914,755,0
1023622,431.36,914,763,0
1023632,426.07,914,756,0
1023642,421.59,914,764,0
1023652,417.86,914,755,0
1023662,415.20,914,763,0
1023672,413.38,914,756,0
1023682,412.50,914,765,0
1023692,412.35,914,755,0
1023703,412.93,914,764,0
1023713,414.02,914,755,0
1023723,415.60,914,765,0
1023733,417.43,914,754,0
1023744,419.45,914,765,0
1023753,421.41,914,755,0
1023763,423.30,914,765,0
1023773,425.06,914,754,0
1023783,426.45,914,765,0
1023793,427.65,914,755,0
1023803,428.35,914,765,0
1023813,428.76,914,754,0
1023823,428.66,914,765,0
1023833,428.21,914,755,0
1023843,427.33,914,765,0
1023853,426.20,914,754,0
1023863,424.68,914,765,0
1023873,423.02,914,755,0
1023883,421.17,914,765,0
1023893,419.28,914,754,0
1023903,417.22,914,765,0
1023913,415.23,914,753,0
1023923,413.32,914,765,0
1023933,411.64,914,754,0
1023943,410.07,914,765,0
1023953,408.85,914,753,0
1023963,407.95,914,765,0
1023973,407.37,914,754,0
1023983,406.79,914,765,0
1023993,406.38,914,753,0
1024003,406.01,914,765,0
1024013,405.92,914,754,0
1024023,405.69,914,765,0
1024033,405.57,914,753,0
1024044,405.44,914,765,0
1024054,405.65,914,754,0
1024064,405.71,914,765,0
1024074,405.97,914,755,0
1024084,405.94,914,764,0
1024094,406.17,914,754,0
1024104,406.03,914,764,0
1024114,405.94,914,754,0
1024124,405.53,914,764,0
1024134,405.50,914,754,0
1024144,405.35,914,765,0
1024154,405.50,914,755,0
1024164,405.31,914,764,0
1024174,405.47,914,754,0
1024184,405.46,914,765,0
1024194,405.75,914,754,0
1024204,405.65,914,764,0
1024215,405.89,914,755,0
1024225,405.96,914,764,0
1024235,406.79,914,756,0
1024245,407.88,914,763,0
1024256,410.36,914,757,0
1024265,413.72,914,764,0
1024275,418.99,914,755,0
1024294,425.55,904,755,0
1024297,434.43,904,761,0
1024306,445.10,904,763,0
1024316,458.36,904,757,0
1024326,472.82,904,763,0
1024336,489.03,904,759,0
1024346,505.35,904,763,0
1024356,521.96,904,757,0
1024366,537.31,904,763,0
1024376,551.23,904,759,0
1024386,562.22,904,763,0
1024396,570.73,904,757,0
1024406,575.57,904,763,0
1024416,577.71,904,759,0
1024427,576.30,904,762,0
1024436,572.57,904,757,0
1024446,565.97,904,763,0
1024456,557.96,904,758,0
1024466,548.07,904,762,0
1024476,537.77,904,757,0
1024486,526.52,904,763,0
1024496,515.91,904,758,0
1024506,505.14,904,762,0
1024516,495.71,904,757,0
1024526,486.71,904,763,0
1024536,479.51,904,758,0
1024546,473.10,904,762,0
1024556,468.66,904,757,0
1024566,464.99,904,763,0
1024576,463.28,904,758,0
1024586,462.25,904,762,0
1024596,462.86,904,759,0
1024606,463.93,904,763,0
1024616,466.27,904,758,0
1024626,468.67,904,762,0
1024636,471.98,904,759,0
1024646,474.90,904,763,0
1024656,478.32,904,758,0
1024666,480.97,904,762,0
1024676,483.68,904,759,0
1024686,485.32,904,763,0
1024696,486.76,904,758,0
1024706,487.01,904,762,0
1024716,487.00,904,759,0
1024727,485.72,904,761,0
1024737,484.30,904,760,0
1024747,481.73,904,761,0
1024757,479.32,904,761,0
1024768,475.97,904,760,0
1024777,473.02,904,760,0
1024787,469.33,904,761,0
1024797,466.14,904,761,0
1024807,462.50,904,760,0
1024817,459.52,904,760,0
1024827,456.15,904,761,0
1024837,453.58,904,761,0
1024847,450.62,904,761,0
1024857,448.59,904,760,0
1024867,446.18,904,761,0
1024877,444.54,904,761,0
1024887,442.54,904,760,0
1024897,441.26,904,760,0
1024907,439.77,904,761,0
1024917,439.02,904,761,0
1024927,437.86,904,760,0
1024937,437.52,904,761,0
1024947,436.76,904,761,0
1024957,436.66,904,761,0
1024967,436.08,904,761,0
1024977,435.97,904,761,0
1024987,435.38,904,761,0
1024997,435.39,904,760,0
1025007,434.80,904,760,0
1025017,434.73,904,761,0
1025027,434.21,904,762,0
1025037,434.24,904,761,0
1025047,433.74,904,760,0
1025057,433.69,904,761,0
1025068,432.97,904,760,0
1025078,432.76,904,761,0
1025088,432.06,904,760,0
1025098,431.96,904,762,0
1025108,431.80,904,759,0
1025118,432.93,904,761,0
1025128,434.75,904,760,0
1025138,439.11,904,762,0
1025148,445.64,904,760,0
1025158,455.86,904,761,0
1025168,469.27,904,760,0
1025178,486.98,904,762,0
1025198,507.94,903,761,0
1025201,532.26,903,764,0
1025210,558.62,903,758,0
1025220,586.68,903,763,0
1025230,614.20,903,759,0
1025240,640.54,903,763,0
1025250,663.48,903,759,0
1025260,682.62,903,763,0
1025270,696.75,903,759,0
1025281,705.27,903,763,0
1025291,707.33,903,757,0
1025301,703.67,903,765,0
1025311,694.47,903,756,0
1025321,680.96,903,765,0
1025331,663.74,903,757,0
1025341,644.11,903,764,0
1025351,622.65,903,756,0
1025361,600.68,903,765,0
1025371,578.75,903,757,0
1025381,557.78,903,764,0
1025391,538.09,903,756,0
1025401,520.45,903,765,0
1025411,504.97,903,758,0
1025421,492.29,903,764,0
1025431,482.18,903,756,0
1025441,474.97,903,765,0
1025452,470.26,903,755,0
1025462,468.17,903,765,0
1025472,467.95,903,754,0
1025482,469.42,903,765,0
1025492,472.08,903,753,0
1025502,475.91,903,765,0
1025512,480.40,903,754,0
1025522,485.16,903,765,0
1025532,489.70,903,753,0
1025542,493.82,903,765,0
1025552,497.26,903,755,0
1025562,499.75,903,765,0
1025572,501.03,903,753,0
1025582,500.98,903,765,0
1025592,499.83,903,755,0
1025602,497.48,903,765,0
1025612,494.08,903,753,0
1025623,489.60,903,765,0
1025633,484.66,903,753,0
1025643,479.28,903,765,0
1025653,473.88,903,754,0
1025664,468.22,903,764,0
1025673,462.84,903,753,0
1025683,457.66,903,765,0
1025693,453.09,903,754,0
1025703,448.52,903,765,0
1025713,444.46,903,753,0
1025723,440.60,903,765,0
1025733,437.33,903,754,0
1025743,434.19,903,764,0
1025753,431.56,903,753,0
1025763,429.04,903,765,0
1025773,427.14,903,754,0
1025783,425.13,903,764,0
1025793,423.46,903,753,0
1025803,421.78,903,765,0
1025813,420.56,903,754,0
1025823,419.28,903,764,0
1025833,418.51,903,755,0
1025843,417.67,903,765,0
1025853,417.25,903,754,0
1025863,416.79,903,765,0
1025873,416.68,903,755,0
1025883,416.39,903,765,0
1025893,416.32,903,754,0
1025903,415.79,903,764,0
1025913,415.26,903,755,0
1025923,414.58,903,765,0
1025933,414.11,903,754,0
1025943,413.39,903,765,0
1025953,412.89,903,755,0
1025964,412.11,903,764,0
1025974,411.69,903,755,0
1025984,411.10,903,764,0
1025994,411.11,903,756,0
1026004,411.29,903,764,0
1026014,412.62,903,756,0
1026024,414.96,903,764,0
1026034,419.77,903,756,0
1026044,426.83,903,764,0
1026054,437.55,903,756,0
1026064,451.49,903,764,0
1026074,469.60,903,756,0
1026094,490.97,896,755,0
1026097,515.50,896,762,0
1026106,541.70,896,762,0
1026116,569.22,896,761,0
1026126,595.47,896,761,0
1026136,619.71,896,759,0
1026146,639.64,896,762,0
1026156,654.96,896,761,0
1026166,664.28,896,761,0
1026177,667.71,896,761,0
1026187,664.45,896,760,0
1026197,656.09,896,761,0
1026207,642.18,896,760,0
1026217,624.72,896,762,0
1026227,603.98,896,760,0
1026237,581.91,896,761,0
1026247,558.54,896,760,0
1026257,535.79,896,762,0
1026267,513.53,896,760,0
1026277,493.44,896,761,0
1026287,474.84,896,760,0
1026297,458.94,896,762,0
1026307,444.95,896,760,0
1026317,434.03,896,761,0
1026327,425.07,896,760,0
1026337,418.96,896,761,0
1026348,414.56,896,759,0
1026358,412.80,896,762,0
1026368,412.35,896,759,0
1026378,414.04,896,762,0
1026388,416.47,896,759,0
1026398,420.40,896,762,0
1026408,424.48,896,759,0
1026418,429.39,896,762,0
1026428,433.78,896,759,0
1026438,438.39,896,762,0
1026448,441.96,896,760,0
1026458,445.14,896,762,0
1026468,446.86,896,759,0
1026478,448.01,896,762,0
1026488,447.71,896,760,0
1026498,446.90,896,762,0
1026508,444.66,896,759,0
1026519,441.97,896,762,0
1026529,438.21,896,759,0
1026539,434.33,896,763,0
1026549,429.65,896,759,0
1026560,425.00,896,763,0
1026569,419.85,896,759,0
1026579,415.18,896,763,0
1026589,410.16,896,759,0
1026599,405.70,896,763,0
1026609,401.16,896,759,0
1026619,397.30,896,763,0
1026629,393.65,896,759,0
1026639,390.88,896,763,0
1026649,388.13,896,759,0
1026659,386.21,896,762,0
1026669,384.43,896,759,0
1026679,383.49,896,763,0
1026689,382.70,896,759,0
1026699,382.66,896,763,0
1026709,382.51,896,759,0
1026719,382.95,896,763,0
1026729,383.27,896,759,0
1026739,384.00,896,763,0
1026749,384.34,896,759,0
1026759,384.93,896,763,0
1026769,385.03,896,759,0
1026779,385.45,896,763,0
1026789,385.45,896,759,0
1026799,385.83,896,763,0
1026809,385.84,896,759,0
1026819,386.27,896,763,0
1026829,386.32,896,759,0
1026839,386.48,896,763,0
1026849,386.12,896,759,0
1026860,385.91,896,763,0
1026870,385.30,896,758,0
1026880,384.82,896,764,0
1026890,384.02,896,756,0
1026900,383.46,896,765,0
1026910,383.06,896,758,0
1026920,383.47,896,764,0
1026930,384.74,896,756,0
1026940,387.56,896,765,0
1026950,392.19,896,758,0
1026960,399.38,896,764,0
1026970,409.21,896,756,0
1026990,422.26,896,754,0
1026993,438.21,896,755,0
1027002,457.09,896,765,0
1027012,478.19,896,754,0
1027022,500.46,896,765,0
1027032,522.87,896,753,0
1027042,544.29,896,765,0
1027052,563.23,896,753,0
1027062,578.72,896,765,0
1027073,589.69,896,754,0
1027083,595.48,896,764,0
1027093,596.41,896,755,0
1027103,592.13,896,764,0
1027113,583.52,896,756,0
1027123,571.11,896,764,0
1027133,555.86,896,755,0
1027143,538.46,896,764,0
1027153,520.32,896,756,0
1027163,501.84,896,764,0
1027173,484.27,896,755,0
1027183,467.52,896,764,0
1027193,452.54,896,756,0
1027203,439.30,896,765,0
1027213,428.41,896,755,0
1027223,419.16,896,764,0
1027233,412.13,896,756,0
1027244,406.52,896,764,0
1027254,403.10,896,757,0
1027264,400.89,896,763,0
1027274,400.54,896,758,0
1027284,401.02,896,763,0
1027294,403.07,896,757,0
1027304,405.53,896,764,0
1027314,409.15,896,758,0
1027324,412.57,896,763,0
1027334,416.60,896,756,0
1027344,419.85,896,763,0
1027354,423.11,896,757,0
1027364,425.26,896,763,0
1027374,427.15,896,756,0
1027384,427.71,896,764,0
1027394,428.01,896,757,0
1027404,427.06,896,763,0
1027415,425.93,896,758,0
1027425,423.72,896,762,0
1027435,421.49,896,759,0
1027445,418.52,896,761,0
1027456,415.83,896,761,0
1027465,412.50,896,762,0
1027475,409.65,896,759,0
1027485,406.45,896,761,0
1027495,404.09,896,760,0
1027505,401.49,896,763,0
1027515,399.59,896,759,0
1027525,397.31,896,761,0
1027535,395.67,896,760,0
1027545,393.54,896,762,0
1027555,391.92,896,759,0
1027565,389.85,896,761,0
1027575,388.39,896,760,0
1027585,386.52,896,763,0
1027595,385.42,896,759,0
1027605,384.09,896,761,0
1027615,383.47,896,760,0
1027625,382.55,896,761,0
1027635,382.30,896,759,0
1027645,381.65,896,761,0
1027655,381.80,896,760,0
1027665,381.56,896,761,0
1027675,381.99,896,759,0
1027685,382.08,896,762,0
1027695,382.87,896,760,0
1027705,383.04,896,761,0
1027715,383.76,896,759,0
1027725,383.91,896,762,0
1027735,384.58,896,760,0
1027745,384.62,896,761,0
1027756,385.12,896,761,0
1027766,384.91,896,760,0
1027776,385.33,896,761,0
1027786,385.18,896,760,0
1027796,385.39,896,762,0
1027806,385.01,896,760,0
1027816,385.18,896,761,0
1027826,385.00,896,760,0
1027836,385.81,896,762,0
1027846,386.85,896,760,0
1027856,389.60,896,761,0
1027866,393.53,896,760,0
1027876,400.19,896,762,0
1027886,408.70,896,760,0
1027905,420.49,916,759,0
1027908,434.57,916,760,0
1027917,452.32,916,762,0
1027927,471.98,916,760,0
1027937,493.93,916,762,0
1027947,516.06,916,760,0
1027957,538.54,916,762,0
1027968,559.12,916,759,0
1027977,577.77,916,762,0
1027987,592.03,916,759,0
1027997,602.26,916,762,0
1028007,607.03,916,759,0
1028017,607.36,916,761,0
1028027,602.67,916,759,0
1028037,594.45,916,762,0
1028047,582.27,916,759,0
1028057,567.88,916,761,0
1028067,551.24,916,759,0
1028077,534.28,916,762,0
1028087,516.67,916,759,0
1028097,499.97,916,761,0
1028107,483.69,916,759,0
1028117,469.34,916,762,0
1028127,456.30,916,759,0
1028137,445.75,916,762,0
1028147,436.65,916,759,0
1028157,430.07,916,762,0
1028167,424.95,916,759,0
1028177,422.22,916,762,0
1028187,420.57,916,759,0
1028197,420.57,916,761,0
1028207,421.43,916,759,0
1028217,424.21,916,761,0
1028227,427.54,916,759,0
1028237,431.75,916,761,0
1028247,435.42,916,759,0
1028257,439.67,916,761,0
1028268,443.20,916,759,0
1028278,447.21,916,762,0
1028288,450.40,916,759,0
1028298,453.37,916,762,0
1028308,455.31,916,758,0
1028318,457.15,916,762,0
1028328,457.45,916,759,0
1028338,457.18,916,762,0
1028348,454.21,916,758,0
1028358,449.52,916,761,0
1028368,442.94,916,758,0
1028378,436.61,916,762,0
1028388,429.87,916,758,0
1028398,423.27,916,761,0
1028408,417.19,916,758,0
1028418,413.23,916,762,0
1028428,410.63,916,758,0
1028439,409.37,916,762,0
1028449,407.46,916,758,0
1028459,406.17,916,763,0
1028469,404.70,916,755,0
1028480,404.11,916,764,0
1028489,403.56,916,758,0
1028499,403.35,916,763,0
1028509,403.07,916,755,0
1028519,402.28,916,763,0
1028529,400.14,916,757,0
1028539,398.51,916,763,0
1028549,397.11,916,756,0
1028559,396.31,916,764,0
1028569,395.79,916,758,0
1028579,396.24,916,763,0
1028589,398.27,916,756,0
1028599,401.87,916,764,0
1028609,406.02,916,759,0
1028619,409.57,916,763,0
1028629,412.06,916,757,0
1028639,413.80,916,765,0
1028649,414.50,916,755,0
1028659,414.65,916,763,0
1028669,413.98,916,757,0
1028679,412.75,916,765,0
1028689,410.81,916,755,0
1028699,408.47,916,762,0
1028709,405.24,916,756,0
1028719,401.61,916,764,0
1028729,397.78,916,754,0
1028739,394.72,916,762,0
1028749,392.83,916,756,0
1028759,393.61,916,763,0
1028769,398.91,916,755,0
1028780,410.25,916,765,0
1028790,427.62,916,754,0
1028809,450.88,904,753,0
1028812,478.99,904,757,0
1028822,511.22,904,765,0
1028831,545.48,904,753,0
1028841,578.94,904,766,0
1028851,609.60,904,753,0
1028861,636.12,904,765,0
1028871,657.38,904,753,0
1028881,672.83,904,766,0
1028891,681.88,904,753,0
1028901,684.31,904,765,0
1028911,680.62,904,753,0
1028921,671.05,904,765,0
1028931,656.21,904,753,0
1028941,636.34,904,764,0
1028951,612.71,904,751,0
1028961,587.00,904,764,0
1028971,560.98,904,753,0
1028981,536.43,904,764,0
1028992,514.49,904,754,0
1029001,495.57,904,765,0
1029011,480.57,904,753,0
1029021,469.17,904,764,0
1029031,461.06,904,754,0
1029041,455.39,904,765,0
1029051,450.77,904,752,0
1029061,446.77,904,764,0
1029071,444.69,904,754,0
1029081,444.27,904,765,0
1029091,445.73,904,753,0
1029101,448.26,904,765,0
1029111,451.91,904,754,0
1029121,456.44,904,765,0
1029131,461.92,904,753,0
1029141,466.83,904,765,0
1029151,471.12,904,754,0
1029161,474.17,904,764,0
1029171,476.31,904,753,0
1029181,477.03,904,765,0
1029191,476.63,904,753,0
1029201,474.69,904,764,0
1029211,471.74,904,753,0
1029221,467.57,904,765,0
1029231,462.77,904,753,0
1029241,457.27,904,764,0
1029251,451.62,904,753,0
1029261,445.73,904,765,0
1029271,439.90,904,753,0
1029281,433.46,904,764,0
1029292,427.49,904,754,0
1029302,421.47,904,764,0
1029312,416.32,904,755,0
1029322,411.34,904,764,0
1029332,407.42,904,756,0
1029342,404.08,904,764,0
1029352,401.91,904,755,0
1029362,400.18,904,764,0
1029372,399.66,904,756,0
1029382,398.95,904,764,0
1029392,398.79,904,755,0
1029402,398.60,904,764,0
1029412,399.23,904,756,0
1029422,400.06,904,764,0
1029432,401.07,904,755,0
1029442,401.82,904,764,0
1029452,403.08,904,756,0
1029463,403.78,904,763,0
1029473,404.75,904,757,0
1029483,405.34,904,763,0
1029493,406.22,904,758,0
1029504,406.67,904,762,0
1029513,407.58,904,756,0
1029523,408.22,904,763,0
1029533,409.57,904,758,0
1029543,409.78,904,762,0
1029553,410.06,904,757,0
1029563,409.53,904,763,0
1029573,409.46,904,757,0
1029583,408.55,904,762,0
1029593,407.70,904,756,0
1029603,406.63,904,763,0
1029613,407.17,904,758,0
1029623,408.23,904,762,0
1029633,411.34,904,756,0
1029643,416.08,904,763,0
1029653,424.07,904,758,0
1029663,435.36,904,762,0
1029683,451.28,873,760,0
1029686,470.87,873,760,0
1029695,495.51,873,761,0
1029705,523.26,873,760,0
1029715,554.29,873,762,0
1029725,586.01,873,760,0
1029735,617.33,873,761,0
1029745,645.48,873,760,0
1029755,669.72,873,761,0
1029765,687.33,873,760,0
1029775,698.89,873,761,0
1029785,702.74,873,760,0
1029795,700.20,873,762,0
1029805,690.97,873,760,0
1029815,676.84,873,761,0
1029825,657.73,873,760,0
1029835,635.91,873,762,0
1029846,611.47,873,760,0
1029855,586.64,873,761,0
1029865,561.38,873,760,0
1029875,537.48,873,761,0
1029885,514.53,873,760,0
1029895,494.49,873,761,0
1029905,476.34,873,760,0
1029915,461.41,873,762,0
1029925,448.56,873,760,0
1029935,438.75,873,761,0
1029945,431.02,873,760,0
1029955,426.35,873,762,0
1029965,423.24,873,760,0
1029975,422.61,873,761,0
1029985,423.24,873,760,0
1029995,426.00,873,761,0
1030005,429.38,873,760,0
1030016,433.90,873,762,0
1030025,438.21,873,760,0
1030035,443.21,873,761,0
1030045,447.17,873,760,0
1030055,451.06,873,762,0
1030065,453.40,873,760,0
1030075,455.21,873,761,0
1030085,455.45,873,760,0
1030095,455.10,873,762,0
1030105,452.88,873,760,0
1030115,450.18,873,761,0
1030125,446.01,873,760,0
1030135,441.68,873,762,0
1030145,436.29,873,760,0
1030155,430.97,873,761,0
1030165,424.98,873,760,0
1030175,419.54,873,761,0
1030185,413.72,873,760,0
1030195,408.66,873,761,0
1030205,403.36,873,760,0
1030215,398.97,873,762,0
1030225,394.31,873,760,0
1030235,390.49,873,761,0
1030245,386.48,873,760,0
1030255,383.38,873,761,0
1030265,379.88,873,760,0
1030275,377.26,873,761,0
1030285,374.57,873,760,0
1030295,372.81,873,761,0
1030305,370.68,873,759,0
1030316,369.41,873,762,0
1030326,368.08,873,759,0
1030336,367.50,873,762,0
1030346,366.79,873,759,0
1030356,366.98,873,762,0
1030366,367.33,873,759,0
1030376,368.69,873,762,0
1030386,369.94,873,759,0
1030396,372.06,873,762,0
1030406,374.18,873,759,0
1030416,376.79,873,762,0
1030426,378.69,873,759,0
1030436,380.80,873,762,0
1030446,382.15,873,759,0
1030456,383.47,873,762,0
1030466,384.06,873,759,0
1030476,384.98,873,762,0
1030487,385.55,873,759,0
1030497,386.84,873,762,0
1030507,388.47,873,759,0
1030517,392.06,873,763,0
1030528,397.57,873,758,0
1030537,405.93,873,762,0
1030547,417.14,873,759,0
1030557,432.69,873,763,0
1030567,452.24,873,758,0
1030586,475.87,904,759,0
1030589,501.84,904,755,0
1030598,529.96,904,765,0
1030608,558.26,904,754,0
1030618,585.39,904,763,0
1030628,609.32,904,756,0
1030638,629.02,904,764,0
1030648,642.94,904,754,0
1030658,651.53,904,763,0
1030668,653.69,904,758,0
1030678,650.14,904,765,0
1030688,640.88,904,754,0
1030699,626.95,904,762,0
1030708,609.01,904,757,0
1030718,588.35,904,764,0
1030728,565.40,904,755,0
1030738,541.84,904,765,0
1030748,518.23,904,756,0
1030758,495.79,904,764,0
1030768,474.42,904,755,0
1030778,455.01,904,765,0
1030788,437.91,904,757,0
1030798,423.45,904,764,0
1030808,410.97,904,755,0
1030818,401.21,904,765,0
1030828,393.86,904,757,0
1030838,389.36,904,764,0
1030848,386.68,904,755,0
1030858,386.09,904,765,0
1030868,387.05,904,754,0
1030878,389.56,904,764,0
1030888,392.91,904,755,0
1030898,397.26,904,764,0
1030908,401.64,904,754,0
1030918,406.42,904,764,0
1030928,410.32,904,755,0
1030938,413.40,904,764,0
1030948,415.46,904,754,0
1030958,416.74,904,764,0
1030968,416.56,904,756,0
1030978,415.75,904,764,0
1030988,413.55,904,754,0
1030999,411.29,904,764,0
1031009,409.02,904,754,0
1031019,406.82,904,765,0
1031029,404.31,904,753,0
1031040,401.47,904,765,0
1031049,397.52,904,753,0
1031059,393.85,904,766,0
1031069,390.08,904,753,0
1031079,386.20,904,765,0
1031089,382.11,904,754,0
1031099,377.71,904,764,0
1031109,373.98,904,756,0
1031119,371.29,904,765,0
1031129,368.89,904,754,0
1031139,366.65,904,765,0
1031149,364.40,904,752,0
1031159,362.18,904,765,0
1031169,360.88,904,754,0
1031179,359.85,904,765,0
1031189,359.59,904,753,0
1031199,359.76,904,765,0
1031209,360.09,904,752,0
1031219,360.28,904,765,0
1031229,361.56,904,753,0
1031239,363.28,904,765,0
1031249,365.47,904,755,0
1031259,367.34,904,765,0
1031269,368.65,904,752,0
1031279,369.87,904,765,0
1031289,371.15,904,752,0
1031299,372.05,904,764,0
1031309,372.59,904,752,0
1031319,373.10,904,766,0
1031329,374.96,904,753,0
1031340,379.30,904,765,0
1031350,386.41,904,753,0
1031360,397.26,904,764,0
1031370,411.92,904,754,0
1031380,429.82,904,763,0
1031390,450.96,904,753,0
1031400,474.76,904,764,0
1031419,500.24,833,763,0
1031422,526.66,833,763,0
1031431,553.46,833,755,0
1031441,578.56,833,764,0
1031451,601.84,833,756,0
1031461,621.13,833,763,0
1031471,635.28,833,755,0
1031481,643.55,833,764,0
1031491,645.36,833,756,0
1031501,639.68,833,763,0
1031511,628.16,833,755,0
1031521,610.16,833,763,0
1031531,587.82,833,755,0
1031541,562.50,833,763,0
1031552,536.17,833,757,0
1031561,509.33,833,763,0
1031571,484.07,833,756,0
1031581,460.14,833,763,0
1031591,440.17,833,756,0
1031601,423.66,833,764,0
1031611,409.45,833,755,0
1031621,397.40,833,763,0
1031631,388.97,833,756,0
1031641,382.85,833,764,0
1031651,379.04,833,755,0
1031661,376.28,833,763,0
1031671,375.00,833,756,0
1031681,376.33,833,764,0
1031691,379.96,833,755,0
1031701,383.78,833,763,0
1031711,388.26,833,756,0
1031721,393.37,833,763,0
1031731,399.04,833,755,0
1031741,404.17,833,763,0
1031751,408.02,833,754,0
1031761,410.72,833,763,0
1031771,413.46,833,755,0
1031781,415.25,833,763,0
1031791,415.43,833,755,0
1031801,413.93,833,763,0
1031811,412.24,833,755,0
1031821,409.59,833,763,0
1031831,406.42,833,755,0
1031841,401.41,833,762,0
1031852,396.61,833,758,0
1031862,392.23,833,762,0
1031872,388.00,833,757,0
1031882,383.54,833,761,0
1031892,379.57,833,759,0
1031902,375.50,833,762,0
1031912,373.51,833,758,0
1031922,371.51,833,762,0
1031932,370.29,833,759,0
1031942,370.03,833,763,0
1031952,371.22,833,758,0
1031962,373.47,833,762,0
1031972,376.33,833,759,0
1031982,378.07,833,763,0
1031992,379.98,833,758,0
1032002,380.50,833,762,0
1032012,380.26,833,759,0
1032023,378.86,833,761,0
1032033,377.40,833,760,0
1032043,375.22,833,760,0
1032053,373.96,833,761,0
1032064,371.48,833,759,0
1032073,370.87,833,760,0
1032083,371.21,833,761,0
1032093,372.94,833,761,0
1032103,375.10,833,760,0
1032113,379.19,833,760,0
1032123,383.46,833,760,0
1032133,391.72,833,761,0
1032143,401.88,833,760,0
1032153,415.11,833,759,0
1032163,431.54,833,761,0
1032173,452.46,833,761,0
1032183,476.49,833,760,0
1032202,504.25,783,759,0
1032205,531.73,783,760,0
1032214,559.45,783,762,0
1032224,585.42,783,760,0
1032235,607.19,783,761,0
1032244,623.21,783,760,0
1032254,634.16,783,762,0
1032264,638.48,783,759,0
1032274,638.04,783,762,0
1032284,631.85,783,760,0
1032294,621.40,783,762,0
1032304,607.14,783,759,0
1032314,589.44,783,761,0
1032324,568.39,783,760,0
1032334,545.99,783,761,0
1032344,522.12,783,759,0
1032354,498.26,783,761,0
1032364,474.52,783,760,0
1032374,452.94,783,761,0
1032384,433.88,783,760,0
1032394,417.46,783,761,0
1032404,403.65,783,759,0
1032414,393.56,783,762,0
1032424,386.10,783,760,0
1032434,381.32,783,762,0
1032444,377.62,783,759,0
1032454,376.02,783,761,0
1032464,376.79,783,760,0
1032474,380.06,783,762,0
1032484,383.99,783,760,0
1032494,388.92,783,761,0
1032504,393.62,783,760,0
1032514,398.96,783,761,0
1032524,404.24,783,759,0
1032535,408.71,783,760,0
1032545,411.97,783,759,0
1032555,415.19,783,762,0
1032565,417.54,783,759,0
1032576,419.95,783,762,0
1032585,421.25,783,759,0
1032595,421.39,783,762,0
1032605,420.37,783,758,0
1032615,418.37,783,762,0
1032625,414.45,783,759,0
1032635,410.20,783,762,0
1032645,405.13,783,759,0
1032655,400.42,783,762,0
1032665,395.58,783,759,0
1032675,391.08,783,762,0
1032685,385.91,783,758,0
1032695,380.92,783,762,0
1032705,375.72,783,759,0
1032715,371.30,783,762,0
1032725,366.84,783,758,0
1032735,363.12,783,762,0
1032745,359.61,783,758,0
1032755,358.06,783,762,0
1032765,357.70,783,759,0
1032775,358.30,783,762,0
1032785,358.00,783,758,0
1032795,358.38,783,762,0
1032805,358.35,783,758,0
1032815,358.72,783,762,0
1032825,358.16,783,760,0
1032835,357.94,783,762,0
1032845,356.93,783,758,0
1032855,358.19,783,762,0
1032865,360.96,783,758,0
1032876,366.68,783,762,0
1032886,375.04,783,759,0
1032896,387.03,783,762,0
1032906,402.32,783,757,0
1032916,422.63,783,764,0
1032926,445.88,783,758,0
1032936,472.14,783,762,0
1032946,500.43,783,758,0
1032956,530.30,783,764,0
1032966,560.17,783,759,0
1032985,588.92,783,757,0
1032988,613.50,783,753,0
1032997,633.92,783,765,0
1033007,648.60,783,755,0
1033017,656.91,783,764,0
1033027,658.22,783,754,0
1033037,653.53,783,764,0
1033047,642.65,783,755,0
1033057,627.84,783,764,0
1033067,609.25,783,754,0
1033077,588.09,783,764,0
1033088,565.35,783,753,0
1033097,541.89,783,764,0
1033107,518.73,783,754,0
1033117,497.00,783,765,0
1033127,476.99,783,754,0
1033137,459.08,783,765,0
1033147,443.37,783,754,0
1033157,429.93,783,765,0
1033167,418.85,783,753,0
1033177,408.99,783,763,0
1033187,400.73,783,752,0
1033197,394.12,783,766,0
1033207,389.71,783,754,0
1033217,387.83,783,765,0
1033227,388.18,783,753,0
1033237,390.53,783,765,0
1033247,394.83,783,753,0
1033257,399.85,783,762,0
1033267,404.82,783,754,0
1033277,409.33,783,764,0
1033287,412.32,783,752,0
1033297,414.19,783,764,0
1033307,415.04,783,755,0
1033317,414.25,783,764,0
1033327,412.93,783,755,0
1033337,411.37,783,765,0
1033347,408.77,783,754,0
1033357,405.37,783,765,0
1033367,401.66,783,754,0
1033377,396.92,783,763,0
1033388,392.79,783,753,0
1033398,388.69,783,765,0
1033408,384.71,783,753,0
1033418,381.07,783,765,0
1033428,378.35,783,753,0
1033438,374.86,783,765,0
1033448,372.12,783,752,0
1033458,369.21,783,765,0
1033468,366.10,783,753,0
1033478,362.43,783,765,0
1033488,358.92,783,752,0
1033498,355.51,783,764,0
1033508,353.39,783,753,0
1033518,351.30,783,765,0
1033528,349.84,783,752,0
1033538,348.47,783,764,0
1033548,349.02,783,753,0
1033559,350.68,783,765,0
1033569,353.69,783,754,0
1033579,357.30,783,764,0
1033589,362.27,783,755,0
1033600,367.54,783,763,0
1033609,374.84,783,754,0
1033619,382.86,783,763,0
1033629,393.66,783,755,0
1033639,407.35,783,764,0
1033649,424.86,783,754,0
1033659,446.11,783,762,0
1033669,471.79,783,755,0
1033679,500.14,783,764,0
1033689,530.23,783,754,0
1033708,559.90,723,753,0
1033711,587.66,723,759,0
1033720,612.10,723,762,0
1033730,632.34,723,755,0
1033740,646.47,723,763,0
1033750,654.99,723,759,0
1033760,657.73,723,763,0
1033771,654.94,723,758,0
1033780,646.77,723,763,0
1033790,634.07,723,757,0
1033800,616.86,723,763,0
1033810,597.28,723,758,0
1033820,574.99,723,763,0
1033830,551.60,723,757,0
1033840,527.12,723,763,0
1033850,503.38,723,758,0
1033860,479.95,723,763,0
1033870,458.62,723,756,0
1033880,438.68,723,763,0
1033890,421.80,723,757,0
1033900,407.33,723,763,0
1033910,395.92,723,756,0
1033920,386.17,723,763,0
1033930,380.25,723,758,0
1033940,376.87,723,762,0
1033950,376.74,723,756,0
1033960,378.06,723,763,0
1033970,381.43,723,758,0
1033980,385.63,723,762,0
1033990,391.53,723,756,0
1034000,395.83,723,762,0
1034010,399.43,723,757,0
1034020,401.70,723,762,0
1034030,403.55,723,756,0
1034040,403.94,723,763,0
1034050,403.62,723,757,0
1034060,401.72,723,762,0
1034071,400.52,723,758,0
1034081,398.18,723,761,0
1034091,395.38,723,759,0
1034101,391.37,723,760,0
1034112,387.44,723,760,0
1034121,382.85,723,762,0
1034131,379.00,723,759,0
1034141,374.63,723,761,0
1034151,372.17,723,760,0
1034161,370.49,723,762,0
1034171,370.60,723,760,0
1034181,371.02,723,761,0
1034191,372.81,723,760,0
1034201,373.86,723,762,0
1034211,375.66,723,759,0
1034221,376.36,723,761,0
1034231,376.81,723,760,0
1034241,375.71,723,762,0
1034251,374.08,723,759,0
1034261,371.49,723,761,0
1034271,369.67,723,760,0
1034281,367.20,723,760,0
1034291,366.07,723,759,0
1034301,365.62,723,761,0
1034311,367.45,723,760,0
1034321,371.13,723,761,0
1034331,377.69,723,759,0
1034341,386.48,723,761,0
1034351,399.19,723,760,0
1034361,414.48,723,761,0
1034371,433.71,723,759,0
1034381,455.61,723,761,0
1034391,480.84,723,760,0
1034411,507.67,702,759,0
1034414,536.06,702,763,0
1034423,563.90,702,759,0
1034433,590.59,702,762,0
1034443,614.45,702,759,0
1034454,635.10,702,762,0
1034463,650.33,702,759,0
1034473,660.22,702,762,0
1034483,662.68,702,758,0
1034493,658.49,702,762,0
1034503,648.61,702,759,0
1034513,633.94,702,762,0
1034523,614.59,702,759,0
1034533,592.43,702,762,0
1034543,567.74,702,759,0
1034553,543.39,702,761,0
1034563,518.93,702,758,0
1034573,495.12,702,762,0
1034583,471.69,702,759,0
1034593,450.74,702,762,0
1034603,431.96,702,759,0
1034613,416.46,702,762,0
1034624,403.42,702,759,0
1034633,393.27,702,761,0
1034643,385.60,702,759,0
1034653,381.39,702,762,0
1034663,378.79,702,759,0
1034673,378.21,702,761,0
1034683,378.36,702,759,0
1034693,380.27,702,762,0
1034703,383.10,702,758,0
1034713,386.80,702,761,0
1034723,390.29,702,759,0
1034733,393.76,702,762,0
1034743,396.92,702,759,0
1034753,400.88,702,762,0
1034763,404.09,702,759,0
1034773,407.06,702,761,0
1034783,408.93,702,759,0
1034793,410.11,702,761,0
1034803,409.39,702,759,0
1034813,407.94,702,762,0
1034823,404.83,702,759,0
1034833,401.15,702,762,0
1034843,396.91,702,759,0
1034853,392.65,702,762,0
1034863,387.91,702,759,0
1034873,384.38,702,762,0
1034883,380.45,702,759,0
1034893,377.32,702,762,0
1034903,374.26,702,759,0
1034913,372.26,702,762,0
1034924,370.47,702,759,0
1034934,369.47,702,763,0
1034944,368.43,702,759,0
1034954,368.13,702,762,0
1034964,367.32,702,758,0
1034974,366.75,702,762,0
1034984,364.77,702,758,0
1034994,362.74,702,762,0
1035004,360.37,702,758,0
1035014,358.80,702,762,0
1035024,357.66,702,758,0
1035034,358.28,702,762,0
1035044,360.51,702,758,0
1035054,366.53,702,762,0
1035064,376.18,702,758,0
1035074,390.61,702,762,0
1035084,409.63,702,757,0
1035095,433.74,702,763,0
1035105,461.46,702,756,0
1035115,491.79,702,764,0
1035125,523.66,702,754,0
1035145,555.47,734,752,0
1035148,584.86,734,754,0
1035157,610.87,734,765,0
1035167,631.74,734,752,0
1035177,646.95,734,765,0
1035187,656.73,734,752,0
1035197,659.86,734,765,0
1035207,656.30,734,753,0
1035217,646.35,734,764,0
1035227,631.42,734,752,0
1035237,612.44,734,765,0
1035247,590.75,734,752,0
1035257,566.61,734,764,0
1035267,542.08,734,752,0
1035277,517.93,734,765,0
1035287,495.11,734,752,0
1035297,472.88,734,764,0
1035308,452.47,734,754,0
1035318,434.07,734,764,0
1035328,418.58,734,755,0
1035338,405.08,734,764,0
1035348,394.21,734,756,0
1035358,385.96,734,764,0
1035368,380.53,734,755,0
1035378,376.56,734,764,0
1035388,373.95,734,755,0
1035398,372.29,734,764,0
1035408,372.20,734,754,0
1035418,372.61,734,764,0
1035428,373.84,734,755,0
1035438,375.82,734,764,0
1035448,379.09,734,754,0
1035458,382.49,734,764,0
1035468,385.77,734,755,0
1035479,388.71,734,763,0
1035489,391.93,734,756,0
1035499,393.36,734,762,0
1035509,394.11,734,758,0
1035520,393.26,734,762,0
1035529,392.07,734,756,0
1035539,389.99,734,762,0
1035549,387.08,734,758,0
1035559,383.24,734,762,0
1035569,380.77,734,756,0
1035579,377.67,734,763,0
1035589,374.90,734,757,0
1035599,371.71,734,762,0
1035609,368.84,734,755,0
1035619,365.97,734,763,0
1035629,363.37,734,757,0
1035639,360.09,734,762,0
1035649,357.27,734,756,0
1035659,353.85,734,763,0
1035669,351.75,734,757,0
1035679,350.15,734,762,0
1035689,349.64,734,758,0
1035699,348.72,734,762,0
1035709,348.42,734,757,0
1035719,348.42,734,762,0
1035729,350.65,734,758,0
1035739,352.81,734,763,0
1035749,356.13,734,757,0
1035759,359.73,734,762,0
1035769,365.34,734,758,0
1035779,372.57,734,763,0
1035789,382.30,734,757,0
1035799,393.69,734,763,0
1035809,408.57,734,758,0
1035820,426.57,734,762,0
1035830,448.60,734,760,0
1035840,473.92,734,761,0
1035850,502.40,734,761,0
1035870,531.64,725,760,0
1035873,561.02,725,763,0
1035882,588.74,725,759,0
1035892,613.63,725,762,0
1035902,633.33,725,759,0
1035912,647.20,725,762,0
1035922,653.96,725,759,0
1035932,654.57,725,761,0
1035942,648.40,725,759,0
1035952,636.45,725,762,0
1035962,619.17,725,759,0
1035972,598.42,725,761,0
1035982,575.07,725,759,0
1035992,550.27,725,761,0
1036002,525.12,725,759,0
1036012,501.77,725,762,0
1036022,479.60,725,759,0
1036033,459.70,725,762,0
1036043,441.28,725,758,0
1036053,424.99,725,762,0
1036063,411.02,725,758,0
1036073,398.76,725,762,0
1036083,387.77,725,758,0
1036093,378.97,725,762,0
1036103,371.39,725,758,0
1036113,366.90,725,762,0
1036123,364.62,725,758,0
1036133,364.52,725,762,0
1036143,366.08,725,758,0
1036153,368.80,725,762,0
1036163,372.07,725,758,0
1036173,376.51,725,762,0
1036183,380.60,725,758,0
1036193,384.66,725,762,0
1036204,388.23,725,758,0
1036214,391.21,725,763,0
1036224,393.89,725,755,0
1036234,396.19,725,765,0
1036244,397.51,725,754,0
1036254,397.74,725,763,0
1036264,396.49,725,755,0
1036274,394.20,725,764,0
1036284,391.18,725,754,0
1036294,386.76,725,762,0
1036304,381.26,725,755,0
1036314,374.67,725,763,0
1036324,368.77,725,754,0
1036334,363.87,725,763,0
1036344,358.38,725,755,0
1036354,354.19,725,765,0
1036364,351.61,725,754,0
1036375,350.35,725,765,0
1036385,350.63,725,753,0
1036395,350.83,725,765,0
1036405,350.54,725,752,0
1036416,351.92,725,765,0
1036425,353.49,725,753,0
1036435,355.01,725,765,0
1036445,356.42,725,752,0
1036455,357.75,725,765,0
1036465,359.07,725,753,0
1036475,361.23,725,765,0
1036485,363.99,725,752,0
1036495,368.02,725,765,0
1036505,373.67,725,753,0
1036515,382.30,725,765,0
1036525,394.90,725,752,0
1036535,411.64,725,765,0
1036545,432.96,725,753,0
1036555,458.43,725,765,0
1036565,486.54,725,752,0
1036575,516.25,725,766,0
1036595,546.35,725,764,0
1036598,573.97,725,764,0
1036607,598.80,725,755,0
1036617,618.70,725,764,0
1036627,632.76,725,755,0
1036637,640.63,725,764,0
1036647,643.06,725,755,0
1036657,638.50,725,763,0
1036667,629.39,725,755,0
1036677,615.47,725,764,0
1036687,597.37,725,754,0
1036697,575.70,725,764,0
1036707,552.61,725,755,0
1036717,527.78,725,764,0
1036727,503.55,725,754,0
1036737,479.17,725,763,0
1036747,456.06,725,755,0
1036758,435.13,725,764,0
1036767,417.90,725,755,0
1036777,403.23,725,764,0
1036787,392.11,725,755,0
1036797,383.59,725,764,0
1036807,378.44,725,755,0
1036817,375.48,725,764,0
1036827,374.95,725,755,0
1036837,375.14,725,764,0
1036847,376.47,725,755,0
1036857,377.78,725,764,0
1036867,379.22,725,755,0
1036877,380.53,725,763,0
1036887,382.60,725,754,0
1036897,383.83,725,763,0
1036907,385.38,725,755,0
1036917,385.82,725,763,0
1036928,386.82,725,756,0
1036937,387.00,725,763,0
1036947,387.60,725,755,0
1036957,387.64,725,764,0
1036967,388.26,725,756,0
1036977,388.10,725,764,0
1036987,388.50,725,755,0
1036997,387.75,725,763,0
1037007,387.39,725,756,0
1037017,385.39,725,764,0
1037027,382.62,725,755,0
1037037,377.72,725,763,0
1037047,373.09,725,756,0
1037057,368.05,725,764,0
1037067,363.66,725,755,0
1037077,359.26,725,763,0
1037087,356.36,725,756,0
1037097,354.06,725,763,0
1037107,353.79,725,755,0
1037117,353.38,725,764,0
1037127,353.35,725,756,0
1037137,352.69,725,763,0
1037147,351.67,725,754,0
1037157,350.22,725,763,0
1037167,348.19,725,755,0
1037177,345.13,725,762,0
1037187,343.21,725,755,0
1037197,342.16,725,763,0
1037207,342.62,725,756,0
1037217,344.15,725,763,0
1037228,347.11,725,757,0
1037238,352.05,725,763,0
1037248,360.22,725,758,0
1037258,369.75,725,762,0
1037268,381.66,725,759,0
1037278,395.47,725,762,0
1037288,412.35,725,757,0
1037298,431.44,725,761,0
1037308,453.98,725,759,0
1037318,477.99,725,762,0
1037337,504.09,743,761,0
1037340,529.73,743,759,0
1037349,555.96,743,761,0
1037359,580.96,743,761,0
1037369,602.91,743,760,0
1037379,620.00,743,760,0
1037389,632.43,743,761,0
1037399,638.30,743,760,0
1037409,640.05,743,761,0
1037419,636.01,743,760,0
1037429,627.48,743,761,0
1037440,615.03,743,760,0
1037449,599.64,743,760,0
1037459,580.85,743,760,0
1037469,560.79,743,761,0
1037479,537.97,743,760,0
1037489,514.41,743,760,0
1037499,489.34,743,760,0
1037509,465.03,743,761,0
1037519,441.15,743,759,0
1037529,419.63,743,759,0
1037539,399.94,743,760,0
1037549,383.89,743,761,0
1037559,370.81,743,759,0
1037569,362.59,743,760,0
1037579,357.79,743,760,0
1037589,357.08,743,761,0
1037599,359.24,743,760,0
1037609,364.70,743,761,0
1037619,371.47,743,760,0
1037629,379.65,743,761,0
1037639,387.21,743,759,0
1037649,394.69,743,761,0
1037659,400.61,743,761,0
1037669,405.70,743,761,0
1037679,408.70,743,759,0
1037689,410.85,743,761,0
1037699,410.81,743,760,0
1037709,409.92,743,761,0
1037719,407.29,743,759,0
1037729,403.95,743,761,0
1037740,398.60,743,759,0
1037750,393.58,743,762,0
1037760,387.92,743,759,0
1037770,383.14,743,762,0
1037780,378.43,743,759,0
1037790,373.97,743,761,0
1037800,369.39,743,758,0
1037810,366.32,743,762,0
1037820,362.97,743,759,0
1037830,360.02,743,761,0
1037840,357.14,743,759,0
1037850,355.13,743,762,0
1037860,353.68,743,759,0
1037870,353.39,743,761,0
1037880,353.10,743,759,0
1037890,353.63,743,762,0
1037900,354.08,743,759,0
1037911,354.74,743,762,0
1037921,354.65,743,758,0
1037931,354.84,743,762,0
1037941,354.63,743,758,0
1037952,354.53,743,762,0
1037961,353.55,743,758,0
1037971,353.99,743,762,0
1037981,354.85,743,758,0
1037991,356.82,743,762,0
1038001,358.85,743,759,0
1038011,361.51,743,762,0
1038021,364.23,743,759,0
1038031,367.37,743,762,0
1038041,369.19,743,759,0
1038051,370.42,743,762,0
1038061,370.55,743,759,0
1038071,370.47,743,762,0
1038081,369.43,743,759,0
1038091,368.49,743,762,0
1038101,367.27,743,759,0
1038111,366.50,743,763,0
1038121,365.71,743,758,0
1038131,365.84,743,762,0
1038141,366.74,743,759,0
1038151,369.78,743,763,0
1038161,374.99,743,758,0
1038180,383.61,843,758,0
1038183,395.34,843,754,0
1038192,412.12,843,764,0
1038202,433.30,843,755,0
1038212,459.31,843,763,0
1038222,488.83,843,758,0
1038232,520.85,843,764,0
1038242,553.60,843,756,0
1038252,586.08,843,763,0
1038262,615.02,843,758,0
1038272,639.49,843,764,0
1038282,657.38,843,755,0
1038292,668.54,843,765,0
1038302,671.98,843,758,0
1038312,668.86,843,764,0
1038322,658.87,843,755,0
1038332,644.04,843,765,0
1038342,625.30,843,758,0
1038352,604.47,843,764,0
1038362,581.53,843,756,0
1038372,558.14,843,764,0
1038382,534.14,843,758,0
1038392,510.91,843,763,0
1038402,487.97,843,756,0
1038412,466.33,843,764,0
1038423,446.09,843,754,0
1038433,427.16,843,764,0
1038443,411.04,843,753,0
1038453,397.79,843,764,0
1038464,386.71,843,751,0
1038473,378.05,843,764,0
1038483,371.61,843,753,0
1038493,367.14,843,764,0
1038503,366.50,843,752,0
1038513,368.66,843,765,0
1038523,373.35,843,753,0
1038533,380.66,843,764,0
1038543,389.68,843,752,0
1038553,399.42,843,765,0
1038563,409.53,843,753,0
1038573,418.80,843,765,0
1038583,426.28,843,752,0
1038593,431.76,843,765,0
1038603,435.01,843,753,0
1038613,436.20,843,764,0
1038623,435.76,843,752,0
1038633,433.73,843,766,0
1038643,430.04,843,753,0
1038653,424.76,843,765,0
1038663,418.19,843,752,0
1038673,410.59,843,765,0
1038683,403.00,843,753,0
1038693,395.03,843,764,0
1038703,386.88,843,752,0
1038713,378.68,843,766,0
1038723,371.45,843,753,0
1038733,364.97,843,764,0
1038743,359.71,843,752,0
1038753,354.44,843,765,0
1038764,351.05,843,751,0
1038774,348.64,843,764,0
1038784,348.44,843,752,0
1038794,350.07,843,765,0
1038804,353.69,843,754,0
1038814,358.54,843,765,0
1038824,365.32,843,752,0
1038834,371.82,843,765,0
1038844,378.95,843,753,0
1038854,385.14,843,765,0
1038864,389.72,843,752,0
1038874,392.38,843,765,0
1038884,393.98,843,754,0
1038894,394.03,843,766,0
1038904,393.25,843,752,0
1038914,391.37,843,765,0
1038924,388.95,843,754,0
1038935,385.92,843,764,0
1038945,383.16,843,755,0
1038955,380.11,843,764,0
1038965,377.59,843,756,0
1038976,375.23,843,763,0
1038985,374.00,843,755,0
1038995,373.79,843,764,0
1039005,375.69,843,756,0
1039015,379.47,843,764,0
1039025,386.49,843,755,0
1039035,396.80,843,764,0
1039045,411.73,843,756,0
1039055,430.84,843,764,0
1039065,454.46,843,755,0
1039075,481.62,843,764,0
1039085,512.08,843,756,0
1039105,543.77,924,755,0
1039108,575.68,924,763,0
1039117,605.78,924,762,0
1039127,632.97,924,761,0
1039137,654.92,924,761,0
1039148,671.15,924,761,0
1039158,680.15,924,760,0
1039168,682.59,924,762,0
1039178,677.87,924,760,0
1039188,666.89,924,762,0
1039198,649.61,924,760,0
1039208,628.39,924,761,0
1039218,603.16,924,760,0
1039228,575.89,924,761,0
1039238,546.78,924,760,0
1039248,518.52,924,761,0
1039258,490.04,924,759,0
1039268,464.57,924,762,0
1039278,441.51,924,760,0
1039288,421.52,924,760,0
1039298,405.16,924,760,0
1039308,393.41,924,761,0
1039319,383.60,924,759,0
1039329,378.45,924,762,0
1039339,374.97,924,759,0
1039349,373.52,924,761,0
1039360,374.40,924,758,0
1039369,377.28,924,762,0
1039379,380.71,924,759,0
1039389,386.75,924,762,0
1039399,393.04,924,759,0
1039409,400.10,924,761,0
1039419,406.93,924,759,0
1039429,413.63,924,762,0
1039439,418.72,924,759,0
1039449,422.32,924,761,0
1039459,423.81,924,759,0
1039469,423.52,924,762,0
1039479,421.14,924,757,0
1039489,418.31,924,762,0
1039499,414.32,924,759,0
1039509,409.81,924,760,0
1039519,405.07,924,759,0
1039529,399.90,924,762,0
1039539,394.79,924,759,0
1039549,390.31,924,761,0
1039559,385.29,924,758,0
1039569,379.50,924,761,0
1039579,374.04,924,759,0
1039589,370.38,924,762,0
1039599,367.70,924,759,0
1039609,365.64,924,762,0
1039619,362.92,924,756,0
1039629,361.40,924,762,0
1039639,361.97,924,759,0
1039649,363.99,924,763,0
1039660,365.49,924,759,0
1039670,367.32,924,762,0
1039680,369.15,924,759,0
1039690,372.49,924,763,0
1039700,375.17,924,758,0
1039710,377.05,924,762,0
1039720,377.55,924,759,0
1039730,377.81,924,763,0
1039740,377.35,924,758,0
1039750,376.99,924,763,0
1039760,375.88,924,758,0
1039770,374.76,924,763,0
1039780,373.33,924,758,0
1039790,371.99,924,762,0
1039800,370.02,924,759,0
1039810,368.00,924,763,0
1039820,365.56,924,758,0
1039831,363.63,924,763,0
1039841,361.99,924,755,0
1039851,361.13,924,765,0
1039861,361.05,924,754,0
1039872,362.36,924,765,0
1039881,365.30,924,755,0
1039891,370.74,924,765,0
1039901,379.90,924,754,0
1039911,393.43,924,764,0
1039921,411.22,924,755,0
1039940,433.27,836,753,0
1039943,460.61,836,753,0
1039952,492.92,836,765,0
1039962,528.60,836,753,0
1039972,565.19,836,765,0
1039982,600.28,836,751,0
1039992,632.42,836,765,0
1040002,660.24,836,753,0
1040012,681.81,836,765,0
1040022,695.41,836,752,0
1040032,700.69,836,765,0
1040043,697.57,836,751,0
1040052,687.84,836,765,0
1040062,673.10,836,752,0
1040072,653.91,836,765,0
1040082,630.41,836,751,0
1040092,603.80,836,765,0
1040102,576.56,836,752,0
1040112,549.65,836,765,0
1040122,523.61,836,751,0
1040132,498.61,836,765,0
1040142,475.46,836,752,0
1040152,454.96,836,766,0
1040162,437.66,836,751,0
1040172,422.85,836,765,0
1040182,409.78,836,752,0
1040192,398.23,836,765,0
1040202,388.95,836,751,0
1040212,381.46,836,765,0
1040222,376.35,836,752,0
1040232,373.08,836,765,0
1040242,372.11,836,751,0
1040252,374.09,836,765,0
1040262,378.78,836,753,0
1040272,383.82,836,765,0
1040282,390.30,836,751,0
1040292,395.61,836,765,0
1040302,401.51,836,753,0
1040312,406.46,836,765,0
1040322,410.22,836,751,0
1040332,412.77,836,766,0
1040343,415.45,836,752,0
1040353,417.07,836,765,0
1040363,419.24,836,753,0
1040373,420.19,836,765,0
1040384,420.31,836,755,0
1040393,419.53,836,765,0
1040403,417.91,836,753,0
1040413,414.77,836,765,0
1040423,410.72,836,755,0
1040433,405.53,836,765,0
1040443,399.72,836,753,0
1040453,393.07,836,765,0
1040463,386.49,836,755,0
1040473,379.75,836,765,0
1040483,373.69,836,753,0
1040493,367.91,836,765,0
1040503,363.14,836,755,0
1040513,359.03,836,765,0
1040523,356.23,836,753,0
1040533,353.98,836,765,0
1040543,352.61,836,755,0
1040553,351.31,836,764,0
1040563,350.71,836,753,0
1040573,350.07,836,765,0
1040583,349.83,836,754,0
1040593,348.94,836,764,0
1040603,348.27,836,753,0
1040613,347.16,836,764,0
1040623,346.81,836,754,0
1040633,345.71,836,763,0
1040643,345.28,836,753,0
1040653,344.90,836,764,0
1040663,345.66,836,754,0
1040673,346.36,836,764,0
1040684,348.35,836,755,0
1040694,350.13,836,763,0
1040704,352.41,836,756,0
1040714,354.13,836,763,0
1040724,356.49,836,757,0
1040734,357.41,836,763,0
1040744,358.36,836,756,0
1040754,358.60,836,763,0
1040764,358.85,836,757,0
1040774,361.29,836,764,0
1040784,366.78,836,756,0
1040794,374.60,836,763,0
1040804,387.53,836,757,0
1040814,404.73,836,764,0
1040824,426.93,836,756,0
1040843,453.69,903,754,0
1040846,482.84,903,761,0
1040855,514.00,903,762,0
1040865,547.04,903,758,0
1040875,579.13,903,761,0
1040885,609.26,903,759,0
1040896,636.10,903,761,0
1040905,658.40,903,758,0
1040915,676.45,903,762,0
1040925,689.34,903,760,0
1040935,695.33,903,761,0
1040945,695.31,903,758,0
1040955,688.75,903,762,0
1040965,676.61,903,760,0
1040975,658.47,903,760,0
1040985,634.89,903,758,0
1040995,607.23,903,762,0
1041005,579.22,903,760,0
1041015,551.34,903,761,0
1041025,525.78,903,759,0
1041035,501.72,903,762,0
1041045,481.87,903,760,0
1041055,465.33,903,761,0
1041065,451.77,903,761,0
1041075,439.03,903,762,0
1041085,428.35,903,760,0
1041095,418.64,903,761,0
1041105,411.04,903,761,0
1041115,404.51,903,763,0
1041125,400.41,903,760,0
1041135,397.68,903,761,0
1041145,397.26,903,761,0
1041155,397.82,903,763,0
1041165,400.06,903,760,0
1041175,402.70,903,761,0
1041185,406.52,903,761,0
1041196,409.96,903,761,0
1041206,413.75,903,762,0
1041216,416.48,903,760,0
1041226,418.86,903,762,0
1041236,419.98,903,760,0
1041246,420.50,903,762,0
1041256,419.41,903,760,0
1041266,417.78,903,762,0
1041276,414.63,903,760,0
1041286,411.32,903,762,0
1041296,406.76,903,760,0
1041306,402.25,903,762,0
1041316,396.95,903,760,0
1041326,392.03,903,762,0
1041336,386.58,903,760,0
1041346,381.91,903,762,0
1041356,376.92,903,760,0
1041367,372.96,903,763,0
1041377,368.86,903,759,0
1041387,365.86,903,763,0
1041397,362.77,903,760,0
1041408,360.74,903,763,0
1041417,358.63,903,759,0
1041427,357.46,903,763,0
1041437,356.16,903,760,0
1041447,355.47,903,763,0
1041457,354.39,903,759,0
1041467,353.97,903,763,0
1041477,353.21,903,760,0
1041487,353.15,903,763,0
1041497,352.80,903,760,0
1041507,353.12,903,763,0
1041517,353.25,903,759,0
1041527,353.99,903,763,0
1041537,354.34,903,759,0
1041547,355.48,903,763,0
1041557,356.15,903,760,0
1041567,357.30,903,763,0
1041577,357.98,903,759,0
1041587,359.28,903,763,0
1041597,360.14,903,759,0
1041607,361.51,903,763,0
1041617,362.17,903,759,0
1041627,363.19,903,763,0
1041637,363.61,903,760,0
1041647,364.28,903,763,0
1041657,364.28,903,759,0
1041667,364.93,903,763,0
1041677,365.51,903,760,0
1041687,367.54,903,763,0
1041697,370.51,903,759,0
1041708,376.23,903,763,0
1041718,384.56,903,759,0
1041728,397.25,903,763,0
1041747,414.02,904,762,0
1041751,436.04,904,768,0
1041759,462.77,904,757,0
1041769,494.17,904,765,0
1041779,528.23,904,755,0
1041789,564.33,904,766,0
1041799,599.81,904,758,0
1041809,633.21,904,765,0
1041819,662.54,904,755,0
1041829,686.25,904,766,0
1041839,703.28,904,758,0
1041849,713.39,904,765,0
1041859,715.76,904,755,0
1041869,711.20,904,766,0
1041879,700.13,904,758,0
1041889,683.50,904,765,0
1041899,661.88,904,755,0
1041909,636.55,904,766,0
1041920,608.40,904,754,0
1041929,579.18,904,765,0
1041939,549.64,904,755,0
1041949,520.95,904,766,0
1041959,493.58,904,754,0
1041969,468.72,904,765,0
1041979,446.35,904,756,0
1041989,427.21,904,766,0
1041999,411.08,904,754,0
1042009,398.37,904,765,0
1042019,388.74,904,756,0
1042029,382.39,904,765,0
1042039,378.76,904,754,0
1042049,378.10,904,765,0
1042059,379.70,904,756,0
1042069,383.39,904,765,0
1042079,388.29,904,754,0
1042089,394.24,904,766,0
1042099,400.56,904,756,0
1042109,407.12,904,765,0
1042119,413.25,904,754,0
1042129,418.66,904,766,0
1042139,422.96,904,756,0
1042149,426.19,904,765,0
1042159,427.93,904,754,0
1042169,428.30,904,766,0
1042179,427.01,904,756,0
1042189,424.52,904,765,0
1042199,420.81,904,754,0
1042209,416.15,904,766,0
1042220,410.62,904,754,0
1042230,404.65,904,766,0
1042240,398.32,904,752,0
1042250,391.63,904,766,0
1042260,384.88,904,752,0
1042270,378.53,904,765,0
1042280,372.72,904,752,0
1042290,367.74,904,766,0
1042300,363.66,904,752,0
1042310,360.38,904,765,0
1042320,358.29,904,752,0
1042330,356.88,904,766,0
1042340,356.27,904,752,0
1042350,356.10,904,765,0
1042360,356.29,904,752,0
1042370,356.59,904,766,0
1042380,357.18,904,752,0
1042391,357.68,904,765,0
1042401,358.42,904,753,0
1042411,358.94,904,765,0
1042421,359.81,904,754,0
1042432,360.51,904,764,0
1042441,361.39,904,753,0
1042451,362.04,904,765,0
1042461,362.89,904,754,0
1042471,363.31,904,764,0
1042481,363.77,904,753,0
1042491,363.75,904,765,0
1042501,364.04,904,754,0
1042511,363.86,904,764,0
1042521,363.86,904,753,0
1042531,363.60,904,765,0
1042541,363.81,904,754,0
1042551,363.69,904,764,0
1042561,363.96,904,752,0
1042571,364.18,904,765,0
1042581,365.07,904,754,0
1042591,365.95,904,764,0
1042601,367.64,904,755,0
1042611,369.85,904,765,0
1042621,373.83,904,754,0
1042631,379.63,904,764,0
1042651,388.57,903,763,0
1042654,400.95,903,762,0
1042663,419.05,903,759,0
1042673,441.71,903,762,0
1042683,469.74,903,760,0
1042693,501.79,903,763,0
1042703,537.64,903,759,0
1042713,574.48,903,762,0
1042723,610.55,903,760,0
1042733,642.95,903,763,0
1042743,671.64,903,759,0
1042753,695.23,903,762,0
1042763,713.76,903,760,0
1042774,724.89,903,761,0
1042783,729.64,903,759,0
1042793,727.52,903,762,0
1042803,719.65,903,760,0
1042813,705.48,903,761,0
1042823,685.97,903,759,0
1042833,660.65,903,762,0
1042843,631.87,903,759,0
1042853,600.11,903,761,0
1042863,568.19,903,758,0
1042873,535.82,903,762,0
1042883,505.32,903,760,0
1042893,476.21,903,761,0
1042903,450.39,903,758,0
1042913,427.77,903,762,0
1042923,409.45,903,759,0
1042933,394.58,903,762,0
1042944,384.25,903,761,0
1042953,377.01,903,762,0
1042963,373.54,903,759,0
1042973,372.43,903,761,0
1042983,374.23,903,760,0
1042993,377.33,903,762,0
1043003,382.29,903,759,0
1043013,387.56,903,761,0
1043023,393.91,903,760,0
1043033,399.98,903,762,0
1043043,406.58,903,759,0
1043053,412.02,903,761,0
1043063,417.33,903,760,0
1043073,421.17,903,762,0
1043083,424.51,903,759,0
1043093,426.20,903,762,0
1043103,427.21,903,760,0
1043113,426.25,903,761,0
1043123,424.72,903,759,0
1043133,421.24,903,761,0
1043143,417.44,903,760,0
1043153,412.42,903,761,0
1043163,407.41,903,759,0
1043173,401.50,903,762,0
1043183,396.29,903,760,0
1043193,390.38,903,760,0
1043203,385.46,903,758,0
1043213,379.62,903,761,0
1043223,374.12,903,760,0
1043233,368.30,903,761,0
1043244,363.20,903,761,0
1043254,358.34,903,760,0
1043264,354.94,903,761,0
1043274,352.30,903,760,0
1043284,351.52,903,761,0
1043294,351.24,903,760,0
1043304,351.85,903,761,0
1043314,353.05,903,760,0
1043324,355.14,903,761,0
1043334,356.98,903,760,0
1043344,358.66,903,761,0
1043354,358.93,903,759,0
1043364,359.77,903,761,0
1043374,359.84,903,760,0
1043384,361.13,903,762,0
1043394,362.33,903,760,0
1043404,364.20,903,761,0
1043415,365.64,903,759,0
1043425,367.94,903,762,0
1043435,369.28,903,759,0
1043445,371.00,903,761,0
1043456,371.13,903,759,0
1043465,370.32,903,762,0
1043475,369.54,903,759,0
1043485,369.85,903,762,0
1043495,372.04,903,759,0
1043505,377.81,903,762,0
1043515,386.91,903,759,0
1043525,399.71,903,762,0
1043535,417.11,903,759,0
1043545,438.72,903,762,0
1043564,465.08,914,761,0
1043567,496.30,914,765,0
1043576,530.88,914,758,0
1043586,566.91,914,763,0
1043596,602.55,914,759,0
1043606,636.07,914,763,0
1043616,666.35,914,759,0
1043627,692.22,914,763,0
1043636,712.17,914,759,0
1043646,726.17,914,763,0
1043656,735.98,914,759,0
1043666,742.29,914,763,0
1043676,744.04,914,759,0
1043686,740.82,914,763,0
1043696,731.44,914,759,0
1043706,715.75,914,763,0
1043716,693.41,914,759,0
1043726,664.70,914,763,0
1043736,630.33,914,759,0
1043746,593.03,914,763,0
1043756,554.24,914,759,0
1043766,516.80,914,763,0
1043776,481.59,914,758,0
1043786,450.12,914,763,0
1043796,422.66,914,758,0
1043806,400.22,914,763,0
1043816,382.50,914,758,0
1043826,370.22,914,763,0
1043836,362.27,914,758,0
1043846,358.97,914,763,0
1043856,359.24,914,758,0
1043866,363.20,914,763,0
1043876,369.61,914,758,0
1043886,378.51,914,763,0
1043896,388.39,914,758,0
1043906,399.20,914,763,0
1043916,409.77,914,759,0
1043927,420.04,914,764,0
1043937,428.94,914,755,0
1043947,436.59,914,766,0
1043957,442.11,914,754,0
1043968,445.68,914,766,0
1043977,446.97,914,756,0
1043987,446.38,914,766,0
1043997,443.82,914,754,0
1044007,439.63,914,766,0
1044017,433.79,914,756,0
1044027,427.04,914,766,0
1044037,419.57,914,754,0
1044047,411.73,914,766,0
1044057,403.58,914,756,0
1044067,395.73,914,766,0
1044077,388.40,914,754,0
1044087,381.89,914,766,0
1044097,375.80,914,756,0
1044107,370.54,914,766,0
1044117,366.14,914,754,0
1044127,362.63,914,766,0
1044137,359.95,914,753,0
1044147,358.29,914,766,0
1044157,357.35,914,755,0
1044167,357.24,914,766,0
1044177,357.60,914,753,0
1044187,358.32,914,765,0
1044197,359.25,914,754,0
1044207,360.38,914,766,0
1044217,361.51,914,753,0
1044227,362.85,914,765,0
1044237,364.18,914,754,0
1044247,365.54,914,766,0
1044257,366.75,914,753,0
1044268,367.98,914,766,0
1044278,368.93,914,752,0
1044288,369.64,914,766,0
1044298,370.09,914,752,0
1044308,370.45,914,766,0
1044318,371.04,914,752,0
1044328,372.40,914,766,0
1044338,375.07,914,751,0
1044348,379.72,914,766,0
1044358,387.26,914,752,0
1044368,398.62,914,766,0
1044378,415.07,914,751,0
1044388,436.90,914,766,0
1044398,464.32,914,753,0
1044417,497.09,853,751,0
1044420,534.01,853,757,0
1044429,572.23,853,765,0
1044439,609.45,853,753,0
1044449,643.60,853,765,0
1044459,673.38,853,754,0
1044469,697.82,853,765,0
1044480,716.26,853,755,0
1044489,729.08,853,765,0
1044499,738.06,853,754,0
1044509,744.34,853,765,0
1044519,747.41,853,755,0
1044529,746.09,853,765,0
1044539,739.59,853,754,0
1044549,726.94,853,765,0
1044559,708.06,853,755,0
1044569,682.71,853,765,0
1044579,651.26,853,754,0
1044589,615.14,853,765,0
1044599,576.91,853,755,0
1044609,538.24,853,765,0
1044619,501.48,853,753,0
1044629,467.31,853,764,0
1044639,437.30,853,755,0
1044649,411.58,853,764,0
1044659,391.18,853,753,0
1044669,375.70,853,764,0
1044679,365.50,853,755,0
1044689,359.57,853,764,0
1044699,358.15,853,753,0
1044709,360.08,853,764,0
1044719,365.37,853,755,0
1044729,372.54,853,764,0
1044739,381.51,853,753,0
1044749,391.00,853,764,0
1044759,401.03,853,755,0
1044769,410.28,853,764,0
1044780,418.51,853,755,0
1044790,424.87,853,763,0
1044800,430.18,853,757,0
1044810,433.38,853,763,0
1044820,435.20,853,758,0
1044830,434.71,853,763,0
1044840,433.13,853,757,0
1044850,430.00,853,763,0
1044860,426.23,853,758,0
1044870,420.85,853,763,0
1044880,415.15,853,757,0
1044890,408.29,853,763,0
1044900,401.77,853,758,0
1044910,394.81,853,763,0
1044920,388.57,853,757,0
1044930,382.10,853,763,0
1044940,376.63,853,758,0
1044951,371.30,853,762,0
1044961,367.44,853,760,0
1044971,363.92,853,762,0
1044981,361.71,853,761,0
1044992,359.74,853,760,0
1045001,359.05,853,759,0
1045011,358.48,853,762,0
1045021,359.15,853,761,0
1045031,359.70,853,761,0
1045041,361.34,853,759,0
1045051,362.61,853,762,0
1045061,364.57,853,760,0
1045071,365.81,853,761,0
1045081,367.50,853,759,0
1045091,367.90,853,761,0
1045101,368.19,853,760,0
1045111,367.45,853,760,0
1045121,367.18,853,759,0
1045131,366.49,853,762,0
1045141,366.51,853,760,0
1045151,365.97,853,761,0
1045161,366.37,853,761,0
1045171,366.90,853,762,0
1045181,368.47,853,760,0
1045191,369.27,853,760,0
1045201,372.45,853,761,0
1045211,377.84,853,762,0
1045221,387.45,853,760,0
1045231,400.86,853,761,0
1045241,420.01,853,761,0
1045251,444.52,853,762,0
1045270,476.81,853,760,0
1045273,513.55,853,760,0
1045282,552.60,853,762,0
1045292,591.12,853,761,0
1045302,627.94,853,762,0
1045312,660.62,853,760,0
1045322,688.37,853,762,0
1045332,709.48,853,759,0
1045342,724.29,853,762,0
1045352,734.62,853,760,0
1045362,741.85,853,762,0
1045372,746.91,853,760,0
1045382,750.06,853,762,0
1045392,749.10,853,760,0
1045402,743.03,853,761,0
1045412,730.76,853,759,0
1045422,712.41,853,762,0
1045432,687.00,853,760,0
1045442,655.37,853,762,0
1045452,617.59,853,760,0
1045463,577.21,853,762,0
1045473,536.18,853,759,0
1045483,497.04,853,762,0
1045493,460.34,853,759,0
1045504,428.44,853,762,0
1045513,401.01,853,759,0
1045523,380.13,853,762,0
1045533,364.75,853,759,0
1045543,355.31,853,763,0
1045553,350.29,853,759,0
1045563,350.12,853,762,0
1045573,353.38,853,759,0
1045583,360.30,853,763,0
1045593,368.95,853,760,0
1045603,379.68,853,762,0
1045613,390.40,853,759,0
1045623,401.64,853,762,0
1045633,411.65,853,759,0
1045643,420.67,853,762,0
1045653,426.98,853,759,0
1045663,431.02,853,762,0
1045673,432.30,853,759,0
1045683,432.16,853,762,0
1045693,429.54,853,759,0
1045703,425.61,853,762,0
1045713,419.90,853,759,0
1045723,413.93,853,762,0
1045733,407.39,853,759,0
1045743,400.97,853,762,0
1045753,393.78,853,759,0
1045763,387.20,853,762,0
1045773,380.63,853,759,0
1045783,375.08,853,762,0
1045793,369.79,853,759,0
1045804,365.14,853,762,0
1045814,360.60,853,758,0
1045824,357.50,853,763,0
1045834,354.87,853,758,0
1045844,353.19,853,763,0
1045854,351.81,853,758,0
1045864,351.31,853,763,0
1045874,351.09,853,758,0
1045884,351.49,853,763,0
1045894,351.39,853,758,0
1045904,351.31,853,762,0
1045914,351.18,853,758,0
1045924,351.04,853,763,0
1045934,351.33,853,758,0
1045944,352.60,853,763,0
1045954,354.61,853,758,0
1045964,357.85,853,763,0
1045975,361.93,853,756,0
1045985,366.53,853,765,0
1045995,371.34,853,754,0
1046005,375.61,853,765,0
1046016,378.90,853,753,0
1046025,381.33,853,765,0
1046035,382.60,853,754,0
1046045,383.15,853,766,0
1046055,383.45,853,753,0
1046065,384.17,853,765,0
1046075,385.83,853,754,0
1046085,389.78,853,765,0
1046095,396.88,853,753,0
1046105,408.44,853,765,0
1046115,425.24,853,754,0
1046134,448.22,864,752,0
1046137,477.13,864,757,0
1046146,512.02,864,766,0
1046156,549.77,864,752,0
1046166,587.94,864,766,0
1046176,624.30,864,751,0
1046187,657.25,864,766,0
1046196,685.03,864,752,0
1046206,707.10,864,765,0
1046216,722.62,864,750,0
1046226,733.49,864,766,0
1046236,741.10,864,752,0
1046246,746.43,864,766,0
1046256,748.23,864,751,0
1046266,745.03,864,766,0
1046276,736.19,864,752,0
1046286,720.84,864,766,0
1046296,698.43,864,751,0
1046306,668.69,864,766,0
1046316,632.22,864,752,0
1046326,591.31,864,766,0
1046336,548.49,864,751,0
1046346,505.40,864,765,0
1046356,464.48,864,752,0
1046366,427.44,864,766,0
1046376,394.82,864,750,0
1046386,367.27,864,765,0
1046396,345.89,864,752,0
1046406,329.81,864,766,0
1046416,321.21,864,751,0
1046426,318.92,864,765,0
1046436,322.03,864,752,0
1046446,329.95,864,765,0
1046456,341.96,864,751,0
1046466,356.37,864,766,0
1046476,373.02,864,752,0
1046487,388.27,864,765,0
1046497,401.90,864,753,0
1046507,412.43,864,764,0
1046517,420.19,864,754,0
1046528,424.07,864,763,0
1046537,426.02,864,753,0
1046547,426.40,864,764,0
1046557,426.07,864,755,0
1046567,424.55,864,764,0
1046577,423.23,864,753,0
1046587,421.70,864,765,0
1046597,420.72,864,755,0
1046607,418.19,864,764,0
1046617,414.49,864,753,0
1046627,409.20,864,765,0
1046637,403.27,864,755,0
1046647,396.20,864,764,0
1046657,388.98,864,753,0
1046667,381.23,864,765,0
1046677,373.88,864,755,0
1046687,365.90,864,764,0
1046697,358.52,864,755,0
1046707,350.43,864,762,0
1046717,342.07,864,753,0
1046727,334.21,864,763,0
1046737,328.87,864,755,0
1046747,325.96,864,765,0
1046757,326.40,864,755,0
1046767,328.68,864,764,0
1046777,334.17,864,756,0
1046787,342.14,864,765,0
1046797,351.82,864,755,0
1046807,360.66,864,764,0
1046817,368.65,864,756,0
1046828,374.88,864,764,0
1046838,380.19,864,757,0
1046848,383.52,864,763,0
1046858,386.11,864,758,0
1046868,386.85,864,762,0
1046878,387.45,864,757,0
1046888,387.53,864,763,0
1046898,388.91,864,758,0
1046908,391.55,864,762,0
1046918,397.26,864,757,0
1046928,406.31,864,763,0
1046938,421.00,864,758,0
1046948,441.02,864,763,0
1046958,467.41,864,757,0
1046968,499.00,864,763,0
1046978,535.09,864,758,0
1046988,572.69,864,763,0
1047008,609.81,874,761,0
1047011,643.90,874,760,0
1047020,673.76,874,762,0
1047030,697.96,874,760,0
1047041,716.27,874,762,0
1047051,729.09,874,760,0
1047061,738.06,874,763,0
1047071,744.34,874,760,0
1047081,747.45,874,763,0
1047091,745.69,874,760,0
1047101,738.24,874,763,0
1047111,723.90,874,760,0
1047121,702.54,874,763,0
1047131,673.75,874,760,0
1047141,638.21,874,763,0
1047151,597.31,874,759,0
1047161,554.48,874,763,0
1047171,511.40,874,760,0
1047181,471.03,874,763,0
1047191,434.04,874,759,0
1047201,402.44,874,763,0
1047212,376.08,874,759,0
1047222,356.21,874,763,0
1047232,342.01,874,759,0
1047242,334.03,874,763,0
1047252,330.77,874,759,0
1047262,332.46,874,763,0
1047272,337.43,874,758,0
1047282,345.87,874,763,0
1047292,356.02,874,759,0
1047302,367.80,874,763,0
1047312,379.52,874,759,0
1047322,391.19,874,763,0
1047332,401.59,874,759,0
1047342,411.01,874,763,0
1047352,418.04,874,759,0
1047362,423.17,874,763,0
1047372,425.56,874,759,0
1047383,426.04,874,763,0
1047393,424.27,874,757,0
1047403,420.93,874,765,0
1047413,415.77,874,754,0
1047424,409.62,874,766,0
1047433,402.54,874,757,0
1047443,395.35,874,765,0
1047453,387.79,874,755,0
1047463,380.52,874,766,0
1047473,373.42,874,757,0
1047483,367.04,874,765,0
1047493,361.11,874,755,0
1047503,355.85,874,766,0
1047513,351.14,874,757,0
1047523,347.50,874,765,0
1047533,344.56,874,754,0
1047543,342.55,874,765,0
1047553,341.01,874,757,0
1047563,340.58,874,765,0
1047573,340.84,874,755,0
1047583,341.78,874,765,0
1047593,343.01,874,752,0
1047603,344.72,874,765,0
1047613,346.69,874,754,0
1047623,349.10,874,765,0
1047633,351.25,874,753,0
1047643,353.45,874,765,0
1047653,355.46,874,755,0
1047663,357.59,874,765,0
1047673,359.47,874,753,0
1047683,361.52,874,765,0
1047693,363.59,874,755,0
1047703,366.28,874,766,0
1047713,369.93,874,753,0
1047724,375.35,874,766,0
1047734,382.92,874,753,0
1047744,393.70,874,766,0
1047754,408.70,874,751,0
1047764,429.15,874,766,0
1047774,455.29,874,753,0
1047784,487.17,874,766,0
1047803,523.59,795,765,0
1047806,561.99,795,765,0
1047815,600.13,795,752,0
1047825,635.79,795,765,0
1047835,667.14,795,753,0
1047845,693.11,795,765,0
1047855,712.88,795,752,0
1047865,726.72,795,765,0
1047875,736.40,795,753,0
1047885,743.18,795,765,0
1047895,747.71,795,752,0
1047905,748.23,795,765,0
1047915,743.53,795,753,0
1047925,732.31,795,765,0
1047936,714.13,795,754,0
1047945,688.04,795,764,0
1047955,654.34,795,752,0
1047965,613.65,795,765,0
1047975,569.44,795,754,0
1047985,523.45,795,764,0
1047995,479.22,795,753,0
1048005,438.01,795,764,0
1048015,401.06,795,753,0
1048025,370.02,795,765,0
1048035,346.05,795,753,0
1048045,328.51,795,764,0
1048055,317.90,795,754,0
1048065,312.10,795,765,0
1048075,311.51,795,752,0
1048085,315.22,795,764,0
1048095,323.59,795,754,0
1048105,334.73,795,764,0
1048115,347.84,795,752,0
1048125,361.86,795,764,0
1048135,376.56,795,754,0
1048145,390.28,795,764,0
1048155,403.57,795,753,0
1048165,413.34,795,764,0
1048175,420.09,795,754,0
1048185,422.85,795,764,0
1048195,422.68,795,752,0
1048205,418.71,795,764,0
1048215,412.71,795,754,0
1048225,405.17,795,764,0
1048236,397.79,795,755,0
1048246,390.01,795,764,0
1048256,383.88,795,757,0
1048266,378.30,795,763,0
1048276,375.12,795,758,0
1048286,372.60,795,764,0
1048296,371.01,795,757,0
1048306,368.95,795,763,0
1048316,367.38,795,758,0
1048326,365.25,795,764,0
1048336,363.42,795,757,0
1048346,360.98,795,763,0
1048356,359.06,795,758,0
1048366,356.73,795,764,0
1048376,355.05,795,757,0
1048386,353.02,795,763,0
1048396,351.73,795,758,0
1048407,350.18,795,762,0
1048417,349.44,795,759,0
1048427,348.32,795,762,0
1048437,347.80,795,760,0
1048448,346.57,795,761,0
1048457,346.53,795,759,0
1048467,346.07,795,761,0
1048477,346.61,795,760,0
1048487,346.51,795,760,0
1048497,346.83,795,759,0
1048507,346.97,795,762,0
1048517,348.26,795,760,0
1048527,348.65,795,760,0
1048537,348.93,795,759,0
1048547,349.08,795,762,0
1048557,350.60,795,760,0
1048567,353.08,795,760,0
1048577,357.60,795,759,0
1048587,364.19,795,761,0
1048597,374.29,795,759,0
1048607,389.29,795,760,0
1048617,408.79,795,760,0
1048627,434.48,795,762,0
1048646,468.28,843,760,0
1048649,506.81,843,761,0
1048658,547.50,843,762,0
1048668,588.15,843,761,0
1048678,626.55,843,762,0
1048688,661.57,843,760,0
1048698,690.54,843,763,0
1048708,711.21,843,761,0
1048718,725.72,843,762,0
1048728,735.83,843,760,0
1048738,742.95,843,762,0
1048748,747.94,843,761,0
1048758,751.47,843,762,0
1048768,751.29,843,760,0
1048778,746.02,843,762,0
1048788,733.62,843,760,0
1048798,714.07,843,762,0
1048808,686.27,843,760,0
1048818,651.09,843,762,0
1048828,608.51,843,760,0
1048838,562.58,843,762,0
1048848,515.39,843,760,0
1048858,470.70,843,762,0
1048868,429.18,843,760,0
1048878,393.60,843,762,0
1048888,363.55,843,760,0
1048898,340.58,843,762,0
1048908,323.48,843,760,0
1048919,313.09,843,763,0
1048929,307.75,843,759,0
1048939,307.83,843,763,0
1048949,311.18,843,759,0
1048960,318.58,843,763,0
1048969,327.58,843,759,0
1048979,338.50,843,762,0
1048989,349.15,843,759,0
1048999,359.26,843,762,0
1049009,368.27,843,759,0
1049019,376.76,843,762,0
1049029,381.80,843,758,0
1049039,384.52,843,762,0
1049049,385.09,843,759,0
1049059,384.98,843,762,0
1049069,384.00,843,759,0
1049079,382.16,843,762,0
1049089,378.30,843,759,0
1049099,374.35,843,761,0
1049109,369.74,843,756,0
1049119,366.22,843,763,0
1049129,363.07,843,759,0
1049139,361.25,843,763,0
1049149,359.93,843,759,0
1049159,360.21,843,763,0
1049169,361.22,843,759,0
1049179,364.02,843,763,0
1049189,365.65,843,760,0
1049199,366.65,843,763,0
1049209,366.03,843,759,0
1049219,364.69,843,763,0
1049229,362.47,843,759,0
1049239,360.66,843,763,0
1049249,358.23,843,759,0
1049260,356.23,843,763,0
1049270,353.98,843,759,0
1049280,352.44,843,763,0
1049290,351.11,843,759,0
1049300,350.48,843,765,0
1049310,349.78,843,759,0
1049320,349.63,843,763,0
1049330,349.35,843,759,0
1049340,349.63,843,764,0
1049350,349.87,843,759,0
1049360,350.64,843,763,0
1049370,351.22,843,759,0
1049380,352.05,843,764,0
1049390,352.55,843,759,0
1049400,353.33,843,763,0
1049410,354.09,843,759,0
1049420,355.69,843,764,0
1049431,358.23,843,756,0
1049441,363.04,843,765,0
1049451,370.79,843,754,0
1049461,382.89,843,765,0
1049472,400.15,843,753,0
1049490,423.29,844,753,0
1049493,452.39,844,753,0
1049502,487.07,844,765,0
1049512,525.71,844,752,0
1049522,565.57,844,766,0
1049532,604.23,844,751,0
1049542,639.64,844,765,0
1049552,670.48,844,751,0
1049562,695.58,844,766,0
1049572,714.56,844,752,0
1049582,727.85,844,765,0
1049592,737.15,844,751,0
1049602,742.29,844,765,0
1049612,742.76,844,752,0
1049622,737.52,844,766,0
1049632,725.71,844,751,0
1049643,706.04,844,765,0
1049652,678.43,844,751,0
1049662,644.40,844,766,0
1049672,606.39,844,752,0
1049682,565.90,844,766,0
1049692,525.22,844,752,0
1049702,486.41,844,766,0
1049712,451.92,844,752,0
1049722,422.54,844,766,0
1049732,397.74,844,752,0
1049742,376.94,844,766,0
1049752,360.63,844,752,0
1049762,348.57,844,766,0
1049772,340.60,844,752,0
1049782,336.22,844,766,0
1049792,335.13,844,752,0
1049802,336.63,844,766,0
1049812,340.86,844,753,0
1049822,347.24,844,766,0
1049832,355.44,844,752,0
1049842,364.52,844,766,0
1049852,374.01,844,753,0
1049862,383.18,844,766,0
1049872,391.74,844,752,0
1049882,398.80,844,766,0
1049892,404.22,844,753,0
1049902,407.41,844,766,0
1049912,408.36,844,752,0
1049922,407.01,844,766,0
1049932,404.18,844,753,0
1049943,399.75,844,765,0
1049953,394.17,844,754,0
1049963,387.05,844,765,0
1049973,379.62,844,756,0
1049984,372.02,844,764,0
1049993,364.81,844,754,0
1050003,357.50,844,764,0
1050013,351.09,844,756,0
1050023,345.11,844,764,0
1050033,340.40,844,754,0
1050043,336.30,844,764,0
1050053,333.16,844,755,0
1050063,330.16,844,764,0
1050073,328.35,844,753,0
1050083,326.66,844,764,0
1050093,326.03,844,755,0
1050103,325.55,844,764,0
1050113,325.47,844,753,0
1050123,325.33,844,764,0
1050133,326.52,844,755,0
1050143,327.86,844,764,0
1050153,330.00,844,756,0
1050163,331.25,844,763,0
1050173,333.01,844,755,0
1050183,334.85,844,764,0
1050193,337.47,844,756,0
1050203,339.09,844,764,0
1050213,340.73,844,755,0
1050223,342.05,844,763,0
1050233,343.92,844,756,0
1050243,345.06,844,764,0
1050253,345.04,844,755,0
1050263,345.20,844,764,0
1050273,347.58,844,756,0
1050284,350.92,844,764,0
1050294,355.62,844,758,0
1050304,361.48,844,763,0
1050314,370.33,844,759,0
1050324,383.13,844,762,0
1050334,399.21,844,758,0
1050344,417.70,844,763,0
1050363,440.68,873,761,0
1050366,468.03,873,761,0
1050375,501.88,873,761,0
1050385,538.73,873,762,0
1050395,576.61,873,761,0
1050405,613.20,873,761,0
1050415,647.38,873,761,0
1050425,677.05,873,762,0
1050435,701.55,873,761,0
1050445,719.00,873,761,0
1050455,731.26,873,761,0
1050465,739.84,873,762,0
1050475,745.89,873,761,0
1050485,750.12,873,761,0
1050496,752.36,873,763,0
1050505,750.11,873,762,0
1050515,742.23,873,761,0
1050525,726.95,873,761,0
1050535,704.12,873,763,0
1050545,673.23,873,762,0
1050555,635.06,873,761,0
1050565,590.17,873,761,0
1050575,542.80,873,762,0
1050585,494.86,873,762,0
1050595,450.12,873,761,0
1050605,409.33,873,761,0
1050615,374.64,873,762,0
1050625,345.65,873,762,0
1050635,324.11,873,761,0
1050645,309.21,873,761,0
1050655,301.60,873,762,0
1050665,299.28,873,761,0
1050675,302.37,873,761,0
1050685,309.03,873,761,0
1050695,319.73,873,762,0
1050705,332.03,873,760,0
1050715,345.61,873,761,0
1050725,358.58,873,761,0
1050735,371.48,873,762,0
1050745,382.78,873,760,0
1050755,393.13,873,761,0
1050765,400.72,873,761,0
1050775,406.63,873,762,0
1050785,409.74,873,760,0
1050796,411.02,873,762,0
1050806,409.47,873,760,0
1050816,406.37,873,763,0
1050826,400.73,873,760,0
1050836,393.96,873,762,0
1050846,385.31,873,760,0
1050856,376.78,873,762,0
1050866,367.80,873,760,0
1050876,359.59,873,763,0
1050886,350.71,873,759,0
1050896,342.87,873,762,0
1050906,334.98,873,759,0
1050916,328.60,873,762,0
1050926,321.82,873,759,0
1050936,315.66,873,762,0
1050946,310.06,873,759,0
1050956,305.63,873,761,0
1050967,301.50,873,758,0
1050977,300.88,873,762,0
1050987,302.76,873,759,0
1050997,308.23,873,763,0
1051008,316.00,873,759,0
1051017,325.73,873,763,0
1051027,337.17,873,759,0
1051037,350.19,873,763,0
1051047,361.62,873,759,0
1051057,371.63,873,763,0
1051067,379.11,873,759,0
1051077,384.74,873,763,0
1051087,387.99,873,759,0
1051097,389.79,873,763,0
1051107,389.51,873,759,0
1051117,388.07,873,763,0
1051127,384.96,873,759,0
1051137,381.50,873,763,0
1051147,377.41,873,759,0
1051157,373.82,873,763,0
1051167,370.49,873,759,0
1051177,369.05,873,763,0
1051187,369.64,873,759,0
1051197,374.03,873,763,0
1051207,382.51,873,759,0
1051217,396.97,873,764,0
1051227,417.21,873,760,0
1051237,444.53,873,763,0
1051247,478.06,873,759,0
1051257,516.70,873,763,0
1051267,557.03,873,760,0
1051277,596.96,873,763,0
1051287,633.79,873,759,0
1051307,666.38,943,758,0
1051310,692.97,943,752,0
1051319,713.03,943,766,0
1051329,727.08,943,753,0
1051339,736.91,943,766,0
1051350,743.80,943,752,0
1051359,748.53,943,766,0
1051369,748.63,943,753,0
1051379,742.57,943,766,0
1051389,729.28,943,752,0
1051399,708.54,943,766,0
1051409,679.88,943,753,0
1051419,643.66,943,766,0
1051429,600.43,943,752,0
1051439,554.15,943,766,0
1051449,507.52,943,753,0
1051459,463.00,943,766,0
1051469,422.07,943,752,0
1051479,386.48,943,766,0
1051489,356.85,943,753,0
1051499,333.80,943,766,0
1051509,317.31,943,752,0
1051520,307.15,943,766,0
1051529,302.82,943,753,0
1051539,303.69,943,766,0
1051549,308.92,943,752,0
1051559,317.65,943,766,0
1051569,328.81,943,753,0
1051579,341.42,943,766,0
1051589,354.84,943,752,0
1051599,368.00,943,766,0
1051609,380.13,943,753,0
1051619,390.63,943,766,0
1051629,399.32,943,752,0
1051639,405.91,943,766,0
1051649,410.22,943,753,0
1051659,412.43,943,766,0
1051669,412.73,943,753,0
1051679,411.31,943,766,0
1051689,408.39,943,752,0
1051699,404.03,943,766,0
1051709,398.66,943,753,0
1051719,392.55,943,767,0
1051729,385.74,943,752,0
1051739,378.45,943,766,0
1051749,370.77,943,752,0
1051759,362.74,943,766,0
1051769,354.93,943,751,0
1051779,347.20,943,765,0
1051789,340.07,943,752,0
1051799,333.83,943,766,0
1051809,328.91,943,752,0
1051820,325.42,943,766,0
1051830,323.54,943,752,0
1051840,322.73,943,765,0
1051850,323.29,943,754,0
1051860,324.61,943,765,0
1051870,326.66,943,754,0
1051880,328.82,943,765,0
1051890,331.27,943,754,0
1051900,333.46,943,764,0
1051910,335.60,943,753,0
1051920,337.35,943,765,0
1051930,339.04,943,754,0
1051940,339.89,943,764,0
1051950,340.65,943,752,0
1051960,340.58,943,764,0
1051970,339.12,943,753,0
1051980,337.54,943,764,0
1051991,336.57,943,755,0
1052001,335.45,943,764,0
1052011,335.23,943,757,0
1052021,335.03,943,762,0
1052032,334.72,943,756,0
1052041,337.12,943,763,0
1052051,342.48,943,757,0
1052061,350.65,943,763,0
1052071,364.51,943,758,0
1052081,383.99,943,764,0
1052091,410.61,943,757,0
1052101,445.22,943,763,0
1052121,486.21,814,762,0
1052124,529.61,814,761,0
1052133,573.40,814,762,0
1052143,614.03,814,760,0
1052153,650.37,814,762,0
1052163,680.60,814,762,0
1052173,704.25,814,762,0
1052183,720.80,814,761,0
1052193,732.43,814,762,0
1052204,740.53,814,761,0
1052214,746.24,814,763,0
1052224,750.20,814,760,0
1052234,750.91,814,763,0
1052244,745.79,814,760,0
1052254,734.37,814,763,0
1052264,714.89,814,759,0
1052274,687.54,814,763,0
1052284,651.93,814,760,0
1052294,609.35,814,762,0
1052304,561.85,814,759,0
1052314,513.81,814,763,0
1052324,466.68,814,760,0
1052334,424.22,814,762,0
1052344,386.87,814,760,0
1052354,356.52,814,763,0
1052364,332.58,814,760,0
1052375,316.29,814,763,0
1052385,306.35,814,759,0
1052395,302.90,814,763,0
1052405,303.96,814,759,0
1052416,309.67,814,763,0
1052425,318.26,814,759,0
1052435,329.75,814,763,0
1052445,342.25,814,759,0
1052455,355.68,814,763,0
1052465,368.29,814,759,0
1052475,380.12,814,763,0
1052485,389.68,814,759,0
1052495,396.89,814,763,0
1052505,400.52,814,758,0
1052515,402.17,814,762,0
1052525,400.53,814,759,0
1052535,397.59,814,762,0
1052545,391.92,814,758,0
1052555,386.85,814,763,0
1052565,382.22,814,759,0
1052575,378.73,814,763,0
1052585,374.91,814,758,0
1052595,372.02,814,762,0
1052605,366.83,814,758,0
1052615,363.11,814,762,0
1052625,358.49,814,758,0
1052635,354.01,814,762,0
1052645,349.64,814,759,0
1052655,346.32,814,763,0
1052665,343.61,814,759,0
1052675,344.03,814,763,0
1052685,344.88,814,759,0
1052695,346.67,814,763,0
1052705,348.44,814,759,0
1052716,350.58,814,763,0
1052726,352.38,814,759,0
1052736,354.58,814,765,0
1052746,356.46,814,755,0
1052756,358.55,814,766,0
1052766,360.06,814,759,0
1052776,361.63,814,765,0
1052786,362.51,814,756,0
1052796,363.13,814,766,0
1052806,362.92,814,759,0
1052816,362.43,814,765,0
1052826,361.27,814,756,0
1052836,359.99,814,766,0
1052846,358.36,814,759,0
1052856,357.18,814,765,0
1052866,356.44,814,756,0
1052876,357.21,814,766,0
1052887,360.02,814,754,0
1052897,366.18,814,766,0
1052907,376.41,814,753,0
1052917,391.98,814,766,0
1052928,413.63,814,752,0
1052946,441.98,826,752,0
1052949,476.70,826,757,0
1052958,516.01,826,766,0
1052968,556.97,826,753,0
1052978,597.18,826,766,0
1052988,634.46,826,752,0
1052998,666.93,826,765,0
1053008,693.44,826,753,0
1053018,713.15,826,766,0
1053028,726.99,826,752,0
1053038,736.64,826,765,0
1053048,743.43,826,753,0
1053058,748.19,826,766,0
1053068,748.95,826,752,0
1053078,743.00,826,764,0
1053088,728.90,826,753,0
1053099,706.18,826,765,0
1053108,676.34,826,752,0
1053118,639.38,826,765,0
1053128,596.02,826,753,0
1053138,549.52,826,765,0
1053148,504.23,826,752,0
1053158,462.51,826,765,0
1053168,425.97,826,753,0
1053178,393.83,826,765,0
1053188,367.14,826,752,0
1053198,345.88,826,765,0
1053208,330.19,826,752,0
1053218,318.95,826,764,0
1053228,311.12,826,749,0
1053238,306.80,826,765,0
1053248,306.94,826,752,0
1053258,311.12,826,765,0
1053268,319.65,826,755,0
1053278,331.33,826,765,0
1053288,346.02,826,753,0
1053298,363.33,826,765,0
1053308,382.00,826,755,0
1053318,399.49,826,765,0
1053328,414.98,826,753,0
1053338,426.69,826,765,0
1053348,434.88,826,755,0
1053358,439.16,826,766,0
1053368,440.18,826,753,0
1053378,437.64,826,766,0
1053388,432.74,826,755,0
1053399,425.31,826,764,0
1053409,416.69,826,756,0
1053419,406.76,826,764,0
1053429,396.41,826,758,0
1053440,385.66,826,763,0
1053449,375.56,826,756,0
1053459,365.79,826,764,0
1053469,357.46,826,758,0
1053479,349.73,826,763,0
1053489,343.60,826,756,0
1053499,338.23,826,764,0
1053509,334.56,826,758,0
1053519,331.69,826,764,0
1053529,330.24,826,756,0
1053539,329.18,826,764,0
1053549,329.39,826,758,0
1053559,329.61,826,763,0
1053569,330.72,826,756,0
1053579,331.83,826,765,0
1053589,333.51,826,758,0
1053599,334.64,826,763,0
1053609,336.42,826,759,0
1053619,338.05,826,764,0
1053629,340.26,826,757,0
1053639,341.81,826,763,0
1053649,343.50,826,759,0
1053659,344.55,826,764,0
1053669,345.58,826,757,0
1053679,345.75,826,763,0
1053689,345.70,826,758,0
1053699,344.03,826,763,0
1053709,343.12,826,757,0
1053719,342.31,826,763,0
1053729,343.16,826,758,0
1053740,344.83,826,762,0
1053750,349.04,826,758,0
1053760,356.95,826,761,0
1053770,370.55,826,760,0
1053780,390.49,826,761,0
1053790,418.93,826,760,0
1053800,455.12,826,762,0
1053819,497.34,873,760,0
1053822,541.85,873,761,0
1053831,585.83,873,762,0
1053841,627.49,873,761,0
1053851,663.94,873,763,0
1053861,692.55,873,761,0
1053871,712.70,873,762,0
1053881,726.80,873,761,0
1053891,736.72,873,762,0
1053901,743.66,873,761,0
1053911,748.56,873,762,0
1053921,751.99,873,761,0
1053931,754.40,873,762,0
1053941,753.59,873,761,0
1053952,747.71,873,763,0
1053961,734.73,873,761,0
1053971,714.15,873,762,0
1053981,684.84,873,761,0
1053991,647.73,873,763,0
1054001,602.98,873,761,0
1054011,554.47,873,762,0
1054021,504.87,873,761,0
1054031,458.07,873,763,0
1054041,415.28,873,761,0
1054051,379.45,873,762,0
1054061,350.09,873,760,0
1054071,328.55,873,763,0
1054081,313.68,873,761,0
1054091,306.32,873,762,0
1054101,304.55,873,760,0
1054111,308.59,873,763,0
1054121,316.13,873,760,0
1054131,327.23,873,762,0
1054141,339.68,873,760,0
1054151,353.57,873,763,0
1054161,366.64,873,760,0
1054171,379.39,873,762,0
1054181,390.03,873,760,0
1054191,399.45,873,763,0
1054201,406.17,873,760,0
1054211,411.14,873,762,0
1054221,413.24,873,760,0
1054231,413.60,873,763,0
1054241,411.32,873,760,0
1054252,407.92,873,763,0
1054262,402.33,873,760,0
1054272,396.02,873,763,0
1054282,388.47,873,760,0
1054292,381.00,873,763,0
1054302,373.07,873,760,0
1054312,365.81,873,763,0
1054322,358.19,873,759,0
1054332,351.66,873,763,0
1054342,345.55,873,760,0
1054352,340.80,873,763,0
1054362,336.57,873,759,0
1054372,333.87,873,763,0
1054382,331.77,873,760,0
1054392,331.28,873,763,0
1054402,331.33,873,759,0
1054412,332.51,873,763,0
1054423,333.82,873,759,0
1054433,336.10,873,763,0
1054443,338.26,873,759,0
1054453,341.01,873,763,0
1054464,343.62,873,758,0
1054473,346.82,873,764,0
1054483,349.70,873,759,0
1054493,352.75,873,763,0
1054503,355.10,873,757,0
1054513,357.38,873,763,0
1054523,359.02,873,759,0
1054533,360.39,873,764,0
1054543,360.91,873,757,0
1054553,361.54,873,764,0
1054563,362.06,873,759,0
1054573,363.54,873,763,0
1054583,365.87,873,757,0
1054593,370.36,873,763,0
1054603,377.58,873,759,0
1054613,389.28,873,763,0
1054623,406.00,873,757,0
1054633,429.27,873,765,0
1054643,458.42,873,759,0
1054662,493.99,843,757,0
1054665,533.12,843,752,0
1054674,573.33,843,765,0
1054684,611.97,843,755,0
1054694,647.25,843,765,0
1054704,677.18,843,753,0
1054714,701.21,843,765,0
1054724,718.46,843,754,0
1054734,730.49,843,765,0
1054744,738.96,843,753,0
1054754,744.93,843,766,0
1054764,747.95,843,755,0
1054774,746.12,843,765,0
1054784,737.56,843,752,0
1054794,720.93,843,764,0
1054804,695.45,843,751,0
1054814,661.33,843,765,0
1054824,621.25,843,753,0
1054834,577.76,843,766,0
1054844,533.86,843,753,0
1054854,492.50,843,766,0
1054864,455.71,843,753,0
1054874,425.24,843,766,0
1054884,401.64,843,753,0
1054894,382.85,843,766,0
1054904,368.02,843,753,0
1054914,357.17,843,766,0
1054924,350.18,843,753,0
1054935,346.87,843,766,0
1054945,346.91,843,751,0
1054955,349.72,843,766,0
1054965,355.03,843,753,0
1054976,362.27,843,766,0
1054985,370.89,843,751,0
1054995,380.13,843,766,0
1055005,389.69,843,753,0
1055015,398.57,843,766,0
1055025,406.41,843,751,0
1055035,412.76,843,766,0
1055045,417.42,843,753,0
1055055,419.99,843,766,0
1055065,420.60,843,751,0
1055075,419.05,843,766,0
1055085,415.95,843,753,0
1055095,411.25,843,766,0
1055105,405.34,843,751,0
1055115,398.43,843,766,0
1055125,391.10,843,753,0
1055135,383.40,843,766,0
1055145,375.86,843,754,0
1055155,368.40,843,766,0
1055165,361.60,843,753,0
1055175,355.20,843,766,0
1055185,349.74,843,754,0
1055195,344.93,843,766,0
1055205,341.18,843,753,0
1055215,338.04,843,766,0
1055225,335.93,843,754,0
1055235,334.36,843,766,0
1055245,333.66,843,753,0
1055255,333.50,843,766,0
1055265,334.25,843,754,0
1055276,335.29,843,765,0
1055286,336.96,843,756,0
1055296,338.43,843,764,0
1055306,340.40,843,757,0
1055316,342.08,843,763,0
1055326,343.68,843,755,0
1055336,344.29,843,764,0
1055346,344.46,843,756,0
1055356,343.72,843,763,0
1055366,342.44,843,754,0
1055376,340.12,843,764,0
1055386,337.55,843,756,0
1055396,335.03,843,763,0
1055406,332.75,843,755,0
1055416,331.75,843,764,0
1055426,334.44,843,756,0
1055436,341.51,843,763,0
1055447,354.39,843,758,0
1055457,373.26,843,763,0
1055467,398.94,843,759,0
1055477,432.04,843,762,0
1055488,472.31,843,761,0
1055506,515.46,844,758,0
1055509,559.12,844,763,0
1055518,600.57,844,761,0
1055528,638.50,844,763,0
1055538,670.88,844,762,0
1055548,697.10,844,762,0
1055558,715.84,844,761,0
1055568,729.00,844,763,0
1055578,738.26,844,762,0
1055588,744.78,844,762,0
1055598,749.35,844,761,0
1055608,752.54,844,763,0
1055618,754.14,844,762,0
1055628,752.17,844,762,0
1055638,743.97,844,761,0
1055648,728.81,844,763,0
1055659,705.12,844,761,0
1055668,673.80,844,762,0
1055678,634.43,844,761,0
1055688,589.09,844,763,0
1055698,540.20,844,761,0
1055708,492.31,844,762,0
1055718,446.83,844,761,0
1055728,407.20,844,763,0
1055738,373.15,844,761,0
1055748,346.71,844,762,0
1055758,326.74,844,761,0
1055768,314.47,844,763,0
1055778,308.20,844,761,0
1055788,308.44,844,762,0
1055798,312.85,844,761,0
1055808,321.77,844,763,0
1055818,332.81,844,761,0
1055828,346.15,844,763,0
1055838,359.48,844,761,0
1055848,373.13,844,763,0
1055858,385.14,844,761,0
1055868,396.28,844,763,0
1055878,404.77,844,761,0
1055888,411.70,844,763,0
1055898,415.60,844,761,0
1055908,417.86,844,763,0
1055918,417.30,844,761,0
1055928,415.46,844,763,0
1055938,411.33,844,761,0
1055948,406.43,844,763,0
1055959,399.87,844,760,0
1055969,393.23,844,763,0
1055979,385.62,844,760,0
1055989,378.62,844,763,0
1056000,371.10,844,759,0
1056009,364.73,844,763,0
1056019,358.30,844,760,0
1056029,353.11,844,763,0
1056039,348.19,844,759,0
1056049,344.62,844,763,0
1056059,341.30,844,760,0
1056069,339.46,844,763,0
1056079,337.60,844,759,0
1056089,337.08,844,763,0
1056099,336.54,844,760,0
1056109,337.02,844,763,0
1056119,337.32,844,759,0
1056129,338.46,844,763,0
1056139,339.44,844,760,0
1056149,341.24,844,763,0
1056159,342.71,844,759,0
1056169,345.11,844,763,0
1056179,347.22,844,760,0
1056189,349.94,844,763,0
1056199,352.14,844,759,0
1056209,354.84,844,763,0
1056219,357.08,844,760,0
1056229,359.67,844,763,0
1056239,361.52,844,759,0
1056249,363.85,844,763,0
1056259,366.21,844,760,0
1056269,370.18,844,763,0
1056279,375.35,844,760,0
1056289,383.82,844,763,0
1056300,395.83,844,759,0
1056310,413.50,844,763,0
1056320,437.00,844,759,0
1056330,467.60,844,763,0
1056350,503.89,843,763,0
1056353,543.48,843,767,0
1056362,583.24,843,753,0
1056372,621.48,843,767,0
1056382,655.84,843,752,0
1056392,684.99,843,766,0
1056402,707.40,843,753,0
1056412,723.14,843,766,0
1056422,734.16,843,752,0
1056432,741.91,843,766,0
1056442,747.34,843,753,0
