Time,PPG,IBI,GSR,GSR_Event
421527,707.28,783,767,0
421537,681.39,783,764,0
421548,646.52,783,766,0
421558,605.78,783,766,0
421568,561.27,783,766,0
421578,515.63,783,766,0
421588,470.40,783,766,0
421598,428.19,783,766,0
421608,395.87,783,766,0
421618,371.56,783,766,0
421628,353.91,783,766,0
421638,342.49,783,766,0
421648,335.96,783,766,0
421658,334.04,783,766,0
421668,335.57,783,766,0
421678,340.20,783,766,0
421688,346.78,783,766,0
421698,355.08,783,766,0
421708,364.27,783,766,0
421719,374.22,783,766,0
421729,384.05,783,766,0
421739,393.76,783,767,0
421749,402.58,783,766,0
421760,410.55,783,767,0
421769,417.11,783,766,0
421779,422.26,783,767,0
421789,425.31,783,766,0
421799,426.72,783,767,0
421809,425.99,783,766,0
421819,423.85,783,767,0
421829,419.82,783,766,0
421839,414.60,783,767,0
421849,408.04,783,766,0
421859,401.08,783,766,0
421869,393.34,783,766,0
421879,385.70,783,767,0
421889,377.90,783,766,0
421899,370.95,783,767,0
421909,364.45,783,766,0
421919,358.96,783,767,0
421929,353.96,783,765,0
421939,349.94,783,767,0
421949,346.36,783,766,0
421959,343.72,783,767,0
421969,341.36,783,765,0
421979,339.84,783,767,0
421989,338.69,783,766,0
421999,338.35,783,767,0
422009,338.25,783,765,0
422019,338.86,783,766,0
422029,339.59,783,766,0
422039,340.95,783,767,0
422049,342.25,783,765,0
422060,343.98,783,767,0
422070,345.57,783,765,0
422080,347.50,783,767,0
422090,349.23,783,765,0
422100,351.26,783,768,0
422110,353.16,783,765,0
422120,355.51,783,767,0
422130,358.19,783,765,0
422140,362.16,783,768,0
422150,367.60,783,765,0
422160,375.82,783,768,0
422170,387.10,783,765,0
422180,402.76,783,767,0
422190,422.93,783,766,0
422200,448.32,783,768,0
422210,478.18,783,765,0
422230,512.41,793,766,0
422233,549.53,793,768,0
422242,587.26,793,770,0
422252,623.18,793,766,0
422262,656.00,793,770,0
422273,684.24,793,767,0
422283,707.53,793,770,0
422293,725.33,793,766,0
422303,737.83,793,770,0
422313,746.58,793,767,0
422323,751.72,793,770,0
422333,751.98,793,766,0
422343,746.71,793,770,0
422353,734.97,793,766,0
422363,716.76,793,769,0
422373,691.81,793,766,0
422383,660.32,793,770,0
422393,623.75,793,766,0
422403,584.96,793,770,0
422413,545.67,793,766,0
422423,508.10,793,770,0
422433,473.18,793,766,0
422444,442.23,793,770,0
422454,416.02,793,766,0
422464,394.84,793,770,0
422474,378.69,793,767,0
422484,367.64,793,769,0
422494,361.28,793,766,0
422504,359.26,793,770,0
422514,361.11,793,767,0
422524,365.92,793,769,0
422534,373.06,793,766,0
422544,381.66,793,769,0
422554,390.97,793,767,0
422564,400.32,793,769,0
422574,409.10,793,766,0
422584,416.61,793,770,0
422594,422.56,793,767,0
422604,426.59,793,769,0
422615,428.51,793,766,0
422625,428.23,793,769,0
422635,425.93,793,767,0
422645,421.62,793,769,0
422656,415.65,793,767,0
422665,408.38,793,769,0
422675,400.21,793,767,0
422685,391.41,793,769,0
422695,382.46,793,767,0
422705,373.40,793,769,0
422715,364.84,793,767,0
422725,356.70,793,769,0
422735,349.38,793,767,0
422745,342.84,793,769,0
422755,337.44,793,767,0
422765,332.98,793,770,0
422775,329.73,793,767,0
422785,327.37,793,769,0
422795,326.10,793,767,0
422805,325.51,793,769,0
422815,325.79,793,768,0
422825,326.54,793,769,0
422835,327.92,793,767,0
422845,329.70,793,770,0
422855,332.10,793,767,0
422865,334.82,793,769,0
422875,337.91,793,767,0
422885,340.98,793,769,0
422895,344.25,793,767,0
422905,347.51,793,769,0
422915,351.13,793,767,0
422925,355.08,793,769,0
422935,360.20,793,767,0
422945,366.87,793,769,0
422956,376.21,793,767,0
422966,388.70,793,769,0
422976,405.42,793,767,0
422986,426.59,793,768,0
422996,452.73,793,768,0
423006,482.85,793,769,0
423016,516.45,793,767,0
423026,551.89,793,768,0
423046,587.75,816,767,0
423049,621.08,816,769,0
423058,651.49,816,768,0
423068,676.50,816,767,0
423078,695.63,816,769,0
423088,707.66,816,768,0
423098,712.56,816,768,0
423108,710.21,816,768,0
423118,702.09,816,769,0
423128,687.40,816,768,0
423138,667.87,816,768,0
423148,643.78,816,767,0
423158,616.63,816,768,0
423169,587.21,816,768,0
423179,557.06,816,769,0
423189,526.62,816,767,0
423199,497.20,816,769,0
423209,469.07,816,767,0
423219,443.55,816,769,0
423229,420.54,816,767,0
423239,400.88,816,769,0
423249,384.33,816,767,0
423259,371.72,816,769,0
423269,362.50,816,767,0
423279,357.25,816,769,0
423289,355.12,816,767,0
423299,356.50,816,769,0
423309,360.38,816,767,0
423319,366.65,816,769,0
423329,374.13,816,767,0
423340,382.66,816,769,0
423350,390.99,816,767,0
423360,399.18,816,769,0
423370,406.15,816,767,0
423380,411.94,816,769,0
423390,415.77,816,767,0
423400,417.98,816,769,0
423410,418.07,816,767,0
423420,416.59,816,770,0
423430,413.29,816,767,0
423440,408.83,816,769,0
423450,403.01,816,767,0
423460,396.58,816,770,0
423470,389.38,816,767,0
423480,382.23,816,769,0
423490,374.92,816,767,0
423500,368.00,816,769,0
423511,361.23,816,767,0
423521,355.25,816,770,0
423531,349.73,816,767,0
423541,345.18,816,770,0
423552,341.14,816,766,0
423561,338.14,816,770,0
423571,335.79,816,767,0
423581,334.44,816,770,0
423591,333.70,816,766,0
423601,333.92,816,769,0
423611,334.63,816,767,0
423621,336.11,816,770,0
423631,337.84,816,766,0
423641,339.99,816,770,0
423651,342.18,816,767,0
423661,344.57,816,770,0
423671,346.71,816,766,0
423681,348.94,816,770,0
423691,350.97,816,767,0
423701,353.21,816,769,0
423711,355.55,816,766,0
423721,358.81,816,770,0
423731,363.28,816,767,0
423741,370.14,816,769,0
423751,379.83,816,767,0
423761,393.64,816,770,0
423771,411.79,816,767,0
423781,435.08,816,770,0
423791,463.13,816,767,0
423801,495.70,816,770,0
423811,531.19,816,767,0
423830,568.51,785,766,0
423833,604.70,785,767,0
423842,638.65,785,770,0
423852,668.75,785,767,0
423862,693.55,785,770,0
423872,711.56,785,767,0
423882,722.23,785,770,0
423892,724.91,785,767,0
423902,720.82,785,770,0
423912,709.69,785,767,0
423922,692.04,785,769,0
423932,668.67,785,766,0
423942,641.26,785,770,0
423952,610.96,785,767,0
423962,579.30,785,769,0
423972,547.03,785,767,0
423982,515.69,785,770,0
423992,485.83,785,767,0
424002,458.32,785,769,0
424012,433.37,785,766,0
424023,411.44,785,770,0
424033,392.75,785,767,0
424043,377.70,785,769,0
424053,366.26,785,767,0
424064,358.68,785,769,0
424073,354.45,785,766,0
424083,353.37,785,769,0
424093,355.32,785,766,0
424103,359.76,785,770,0
424113,366.09,785,766,0
424123,373.61,785,769,0
424133,381.70,785,767,0
424143,390.23,785,769,0
424153,398.60,785,766,0
424163,406.14,785,769,0
424173,412.40,785,767,0
424183,417.12,785,770,0
424193,420.08,785,766,0
424203,421.22,785,769,0
424213,420.47,785,767,0
424223,417.97,785,770,0
424233,414.04,785,767,0
424243,408.84,785,770,0
424253,402.54,785,766,0
424263,395.40,785,769,0
424273,387.82,785,767,0
424283,380.12,785,770,0
424293,372.50,785,767,0
424303,365.10,785,770,0
424313,358.17,785,767,0
424323,351.99,785,770,0
424333,346.72,785,766,0
424343,342.22,785,770,0
424353,338.55,785,767,0
424364,335.77,785,769,0
424374,333.83,785,767,0
424384,332.72,785,769,0
424394,332.38,785,767,0
424404,332.65,785,769,0
424414,333.61,785,767,0
424424,334.97,785,770,0
424434,336.74,785,767,0
424444,338.66,785,769,0
424454,340.86,785,767,0
424464,343.05,785,770,0
424474,345.43,785,767,0
424484,347.62,785,769,0
424494,349.87,785,767,0
424504,351.97,785,770,0
424514,354.29,785,767,0
424524,356.90,785,769,0
424535,360.62,785,767,0
424545,365.75,785,769,0
424555,373.54,785,768,0
424565,384.52,785,769,0
424576,400.05,785,768,0
424585,420.43,785,769,0
424595,446.32,785,768,0
424605,477.25,785,769,0
424615,512.92,785,768,0
424634,551.21,804,767,0
424637,589.81,804,771,0
424646,626.29,804,770,0
424656,659.38,804,769,0
424666,687.59,804,769,0
424676,710.34,804,769,0
424686,727.17,804,769,0
424696,737.75,804,768,0
424706,742.37,804,769,0
424716,741.27,804,768,0
424726,733.99,804,769,0
424736,720.71,804,768,0
424747,700.99,804,768,0
424756,675.41,804,768,0
424766,645.03,804,769,0
424776,611.81,804,768,0
424786,576.68,804,768,0
424796,541.68,804,769,0
424806,507.44,804,769,0
424816,475.60,804,768,0
424826,446.32,804,769,0
424836,420.81,804,768,0
424846,398.92,804,769,0
424856,381.37,804,767,0
424866,367.76,804,768,0
424876,358.49,804,768,0
424886,352.90,804,769,0
424896,351.17,804,767,0
424906,352.36,804,768,0
424916,356.41,804,768,0
424926,362.25,804,769,0
424936,369.67,804,767,0
424946,377.57,804,768,0
424956,385.84,804,767,0
424966,393.43,804,769,0
424976,400.33,804,767,0
424986,405.67,804,768,0
424996,409.72,804,768,0
425006,411.77,804,769,0
425016,412.31,804,768,0
425026,410.93,804,768,0
425036,408.08,804,768,0
425047,403.60,804,768,0
425057,398.11,804,768,0
425067,391.43,804,768,0
425077,384.32,804,769,0
425088,376.59,804,768,0
425097,369.09,804,768,0
425107,361.65,804,768,0
425117,354.90,804,769,0
425127,348.54,804,768,0
425137,343.15,804,768,0
425147,338.26,804,768,0
425157,334.45,804,769,0
425167,331.06,804,768,0
425177,328.64,804,768,0
425187,326.52,804,768,0
425197,325.17,804,769,0
425207,324.00,804,768,0
425217,323.57,804,768,0
425227,323.31,804,768,0
425237,323.69,804,769,0
425247,324.08,804,768,0
425257,325.00,804,769,0
425267,325.90,804,768,0
425277,327.22,804,768,0
425287,328.22,804,768,0
425297,329.53,804,769,0
425307,330.87,804,768,0
425317,333.05,804,768,0
425327,335.99,804,768,0
425337,340.84,804,769,0
425347,347.83,804,768,0
425357,358.64,804,768,0
425367,373.45,804,768,0
425377,393.63,804,769,0
425388,419.07,804,768,0
425398,450.29,804,770,0
425408,486.12,804,767,0
425418,525.98,804,769,0
425438,566.70,803,768,0
425441,606.31,803,770,0
425450,642.47,803,767,0
425460,674.00,803,770,0
425470,699.80,803,767,0
425480,719.75,803,770,0
425490,732.21,803,767,0
425500,737.89,803,770,0
425510,736.59,803,767,0
425520,728.70,803,770,0
425530,714.05,803,767,0
425540,692.86,803,770,0
425550,665.09,803,767,0
425560,632.88,803,770,0
425570,597.56,803,767,0
425580,561.18,803,770,0
425590,524.65,803,767,0
425601,489.53,803,770,0
425611,456.54,803,767,0
425621,426.98,803,770,0
425631,401.01,803,767,0
425641,379.20,803,770,0
425651,361.61,803,767,0
425661,348.53,803,770,0
425671,339.67,803,767,0
425681,335.05,803,770,0
425691,334.01,803,767,0
425701,336.41,803,770,0
425711,341.60,803,767,0
425721,349.05,803,770,0
425731,357.90,803,767,0
425741,367.83,803,770,0
425751,378.00,803,766,0
425761,387.90,803,770,0
425772,396.84,803,766,0
425782,404.39,803,770,0
425792,410.19,803,766,0
425802,414.16,803,770,0
425812,416.17,803,767,0
425822,416.20,803,770,0
425832,414.51,803,766,0
425842,411.15,803,770,0
425852,406.52,803,767,0
425862,400.83,803,770,0
425872,394.45,803,766,0
425882,387.50,803,770,0
425892,380.32,803,767,0
425902,373.16,803,770,0
425912,366.17,803,766,0
425922,359.47,803,770,0
425932,353.33,803,767,0
425943,347.87,803,769,0
425953,343.20,803,766,0
425963,339.28,803,770,0
425973,336.15,803,767,0
425984,333.88,803,769,0
425993,332.54,803,766,0
426003,331.95,803,770,0
426013,332.18,803,767,0
426023,332.98,803,770,0
426033,334.40,803,766,0
426043,336.21,803,770,0
426053,338.59,803,767,0
426063,341.24,803,769,0
426073,344.55,803,766,0
426083,348.59,803,770,0
426093,354.20,803,767,0
426103,361.98,803,769,0
426113,372.62,803,766,0
426123,386.92,803,770,0
426133,406.01,803,767,0
426143,430.22,803,770,0
426153,459.68,803,767,0
426163,493.51,803,770,0
426173,530.73,803,767,0
426183,569.51,803,770,0
426193,607.37,803,767,0
426212,642.32,775,765,0
426215,672.91,775,768,0
426224,698.26,775,769,0
426234,717.17,775,768,0
426244,728.56,775,769,0
426254,732.51,775,767,0
426264,729.27,775,769,0
426274,719.07,775,768,0
426284,702.12,775,769,0
426294,678.64,775,767,0
426304,649.52,775,769,0
426314,616.62,775,767,0
426324,581.38,775,769,0
426334,545.74,775,767,0
426344,510.59,775,769,0
426354,477.15,775,767,0
426364,446.12,775,768,0
426374,418.79,775,767,0
426384,395.11,775,769,0
426394,375.53,775,768,0
426404,359.64,775,769,0
426414,347.96,775,767,0
426424,340.00,775,769,0
426434,335.85,775,767,0
426444,334.95,775,768,0
426455,337.36,775,768,0
426465,342.14,775,768,0
426475,349.17,775,768,0
426485,357.35,775,768,0
426496,366.80,775,768,0
426505,376.50,775,768,0
426515,386.17,775,768,0
426525,394.65,775,768,0
426535,402.17,775,768,0
426545,408.03,775,769,0
426555,412.52,775,768,0
426565,414.85,775,768,0
426575,415.50,775,768,0
426585,414.15,775,769,0
426595,411.45,775,768,0
426605,407.03,775,768,0
426615,401.53,775,768,0
426625,394.94,775,768,0
426635,388.02,775,768,0
426645,380.51,775,768,0
426655,373.20,775,768,0
426665,365.86,775,768,0
426675,359.26,775,768,0
426685,353.01,775,768,0
426695,347.73,775,768,0
426705,342.93,775,768,0
426715,339.26,775,768,0
426725,336.06,775,768,0
426735,333.81,775,768,0
426745,332.02,775,768,0
426755,331.25,775,768,0
426765,330.83,775,768,0
426775,331.27,775,768,0
426785,331.91,775,768,0
426796,333.31,775,768,0
426806,335.02,775,767,0
426816,337.50,775,768,0
426826,340.56,775,768,0
426836,345.07,775,768,0
426846,351.05,775,767,0
426856,359.73,775,768,0
426866,371.47,775,768,0
426876,387.70,775,768,0
426886,408.49,775,767,0
426896,434.87,775,768,0
426906,466.28,775,768,0
426916,502.71,775,769,0
426926,542.01,775,768,0
426936,581.87,775,768,0
426955,619.75,743,767,0
426958,654.32,743,771,0
426967,683.80,743,767,0
426977,707.69,743,769,0
426987,725.40,743,767,0
426997,737.15,743,769,0
427008,742.76,743,767,0
427017,742.62,743,769,0
427027,736.22,743,767,0
427037,723.64,743,769,0
427047,704.42,743,767,0
427057,679.05,743,769,0
427067,648.01,743,767,0
427077,613.72,743,769,0
427087,577.20,743,767,0
427097,540.67,743,769,0
427107,504.86,743,767,0
427117,471.51,743,769,0
427127,440.72,743,767,0
427137,413.89,743,768,0
427147,390.91,743,767,0
427157,372.46,743,769,0
427167,358.01,743,767,0
427177,348.24,743,769,0
427187,342.34,743,767,0
427197,340.61,743,769,0
427207,342.10,743,767,0
427217,346.78,743,769,0
427227,353.53,743,767,0
427237,362.20,743,769,0
427247,371.53,743,767,0
427257,381.35,743,769,0
427267,390.63,743,767,0
427277,399.23,743,769,0
427287,406.15,743,767,0
427297,411.59,743,769,0
427308,414.84,743,767,0
427318,416.39,743,769,0
427328,415.76,743,767,0
427338,413.64,743,769,0
427348,409.81,743,766,0
427358,405.11,743,769,0
427368,399.20,743,767,0
427378,392.89,743,769,0
427388,385.85,743,767,0
427398,378.99,743,769,0
427408,371.97,743,766,0
427418,365.29,743,769,0
427428,358.60,743,767,0
427438,352.68,743,769,0
427448,347.16,743,767,0
427458,342.53,743,769,0
427468,338.43,743,766,0
427479,335.26,743,769,0
427489,332.78,743,766,0
427499,331.26,743,769,0
427509,330.32,743,766,0
427520,330.18,743,770,0
427529,330.51,743,766,0
427539,331.39,743,769,0
427549,332.47,743,766,0
427559,334.00,743,769,0
427569,335.63,743,766,0
427579,337.54,743,769,0
427589,339.69,743,766,0
427599,342.66,743,769,0
427609,346.62,743,766,0
427619,352.56,743,769,0
427629,361.01,743,766,0
427639,373.09,743,769,0
427649,389.18,743,766,0
427659,410.42,743,769,0
427669,437.00,743,766,0
427679,469.10,743,769,0
427689,505.75,743,766,0
427699,545.13,743,769,0
427709,584.60,743,767,0
427728,622.44,773,765,0
427731,656.59,773,767,0
427740,685.77,773,769,0
427750,709.11,773,766,0
427760,726.39,773,769,0
427770,737.16,773,766,0
427780,742.04,773,769,0
427790,740.70,773,766,0
427800,733.25,773,769,0
427810,719.37,773,766,0
427820,699.42,773,769,0
427830,673.15,773,766,0
427840,641.99,773,769,0
427850,607.32,773,766,0
427860,571.01,773,769,0
427870,534.36,773,766,0
427880,498.94,773,769,0
427890,465.44,773,766,0
427900,434.88,773,769,0
427910,408.30,773,766,0
427920,385.93,773,769,0
427930,368.08,773,766,0
427940,354.64,773,769,0
427950,345.41,773,766,0
427960,340.27,773,770,0
427970,338.99,773,766,0
427980,340.96,773,769,0
427991,345.65,773,766,0
428001,352.44,773,770,0
428011,360.79,773,766,0
428021,369.98,773,769,0
428032,379.29,773,766,0
428041,388.20,773,769,0
428051,396.07,773,766,0
428061,402.56,773,769,0
428071,407.28,773,766,0
428081,410.15,773,770,0
428091,411.22,773,766,0
428101,410.30,773,769,0
428111,407.59,773,766,0
428121,403.34,773,770,0
428131,397.88,773,766,0
428141,391.53,773,769,0
428151,384.52,773,766,0
428161,377.16,773,769,0
428171,369.87,773,766,0
428181,362.75,773,769,0
428191,356.05,773,766,0
428201,349.82,773,769,0
428211,344.18,773,766,0
428221,339.11,773,769,0
428231,334.79,773,766,0
428241,331.25,773,769,0
428251,328.65,773,766,0
428261,326.91,773,769,0
428271,326.08,773,766,0
428281,325.97,773,769,0
428291,326.71,773,766,0
428301,328.00,773,769,0
428311,329.80,773,766,0
428321,331.92,773,769,0
428332,334.34,773,766,0
428342,336.68,773,769,0
428352,339.26,773,766,0
428362,341.88,773,769,0
428372,345.18,773,767,0
428382,349.15,773,769,0
428392,354.46,773,766,0
428402,361.74,773,769,0
428412,372.15,773,767,0
428422,386.03,773,769,0
428432,404.32,773,766,0
428442,427.11,773,769,0
428452,454.72,773,767,0
428462,486.30,773,769,0
428472,520.88,773,766,0
428482,556.79,773,769,0
428502,592.64,773,768,0
428505,625.40,773,769,0
428514,654.34,773,767,0
428524,677.38,773,768,0
428534,693.85,773,768,0
428545,702.81,773,768,0
428555,704.41,773,767,0
428565,698.46,773,768,0
428575,686.79,773,768,0
428585,668.94,773,767,0
428595,646.80,773,767,0
428605,620.85,773,768,0
428615,592.86,773,768,0
428625,563.42,773,767,0
428635,534.28,773,767,0
428645,505.70,773,768,0
428655,479.00,773,768,0
428665,454.06,773,768,0
428675,432.14,773,767,0
428685,412.98,773,768,0
428695,397.39,773,768,0
428705,384.72,773,768,0
428716,375.71,773,768,0
428726,369.89,773,767,0
428736,367.78,773,769,0
428746,368.36,773,767,0
428756,371.77,773,769,0
428766,376.94,773,767,0
428776,383.85,773,769,0
428786,391.40,773,767,0
428796,399.34,773,768,0
428806,406.65,773,767,0
428816,413.40,773,769,0
428826,418.72,773,767,0
428836,422.75,773,769,0
428846,424.92,773,767,0
428856,425.63,773,769,0
428866,424.33,773,767,0
428876,421.66,773,769,0
428887,417.26,773,767,0
428897,411.91,773,769,0
428907,405.59,773,767,0
428917,398.95,773,769,0
428928,391.85,773,767,0
428937,385.21,773,769,0
428947,378.55,773,767,0
428957,372.55,773,769,0
428967,366.82,773,767,0
428977,361.90,773,769,0
428987,357.43,773,767,0
428997,353.83,773,769,0
429007,350.67,773,767,0
429017,348.37,773,769,0
429027,346.54,773,767,0
429037,345.61,773,769,0
429047,345.00,773,767,0
429057,345.17,773,769,0
429067,345.59,773,767,0
429077,346.66,773,769,0
429087,347.92,773,767,0
429097,349.70,773,770,0
429107,351.46,773,767,0
429117,353.68,773,769,0
429127,355.96,773,767,0
429137,359.06,773,770,0
429147,362.51,773,767,0
429157,367.33,773,769,0
429167,373.87,773,767,0
429177,383.25,773,769,0
429187,395.65,773,767,0
429197,412.17,773,769,0
429207,432.60,773,767,0
429217,457.54,773,770,0
429228,485.79,773,767,0
429238,516.54,773,770,0
429248,548.05,773,767,0
429267,579.06,766,765,0
429271,606.69,766,767,0
429279,630.95,766,770,0
429289,649.65,766,766,0
429299,662.23,766,770,0
429309,668.03,766,766,0
429319,667.29,766,770,0
429329,660.13,766,766,0
429339,648.14,766,770,0
429349,630.57,766,766,0
429359,609.40,766,769,0
429369,585.49,766,766,0
429379,560.23,766,770,0
429389,534.40,766,766,0
429399,509.25,766,770,0
429409,485.26,766,766,0
429419,463.20,766,770,0
429429,443.17,766,766,0
429440,425.67,766,770,0
429449,410.73,766,766,0
429459,398.55,766,770,0
429469,388.96,766,767,0
429479,382.16,766,770,0
429489,377.87,766,766,0
429499,376.15,766,769,0
429509,376.66,766,767,0
429519,379.16,766,770,0
429529,383.10,766,766,0
429539,388.26,766,770,0
429549,394.05,766,767,0
429559,400.34,766,770,0
429569,406.32,766,766,0
429579,412.01,766,770,0
429589,416.81,766,767,0
429599,420.72,766,770,0
429609,423.25,766,766,0
429619,424.55,766,770,0
429629,424.38,766,767,0
429639,423.07,766,770,0
429649,420.43,766,766,0
429659,416.87,766,769,0
429669,412.50,766,766,0
429679,407.76,766,770,0
429689,402.61,766,766,0
429699,397.45,766,770,0
429709,392.26,766,767,0
429719,387.30,766,770,0
429729,382.54,766,766,0
429740,378.09,766,770,0
429750,373.91,766,766,0
429760,370.25,766,769,0
429770,367.05,766,766,0
429780,364.50,766,769,0
429790,362.47,766,766,0
429800,360.96,766,769,0
429810,359.94,766,766,0
429820,359.44,766,769,0
429830,359.27,766,766,0
429840,359.23,766,769,0
429850,359.29,766,766,0
429860,359.37,766,769,0
429870,359.69,766,766,0
429880,360.00,766,769,0
429890,360.34,766,766,0
429900,360.75,766,769,0
429911,361.60,766,767,0
429921,362.83,766,769,0
429931,364.94,766,767,0
429941,367.87,766,769,0
429952,372.54,766,767,0
429961,379.19,766,769,0
429971,388.61,766,767,0
429981,401.07,766,769,0
429991,417.38,766,767,0
430001,437.23,766,770,0
430011,460.65,766,767,0
430021,486.55,766,769,0
430031,514.12,766,767,0
430050,541.90,783,765,0
430053,567.43,783,768,0
430062,590.53,783,769,0
430072,609.91,783,768,0
430082,624.42,783,769,0
430092,633.81,783,768,0
430102,637.38,783,769,0
430112,635.38,783,768,0
430123,628.97,783,769,0
430132,617.53,783,767,0
430142,601.77,783,768,0
430152,582.81,783,767,0
430162,561.18,783,768,0
430172,538.59,783,767,0
430182,515.40,783,768,0
430192,492.86,783,768,0
430202,471.09,783,769,0
430212,451.13,783,767,0
430222,433.09,783,768,0
430232,417.55,783,768,0
430242,404.23,783,769,0
430252,393.62,783,767,0
430262,385.38,783,768,0
430272,380.03,783,768,0
430282,376.90,783,769,0
430292,376.28,783,768,0
430302,377.48,783,768,0
430312,380.60,783,768,0
430322,384.87,783,769,0
430332,390.31,783,768,0
430342,395.92,783,768,0
430352,401.90,783,768,0
430362,407.24,783,769,0
430372,412.14,783,768,0
430382,415.74,783,768,0
430392,418.35,783,767,0
430402,419.49,783,769,0
430412,419.51,783,768,0
430423,417.99,783,768,0
430433,415.38,783,768,0
430443,411.49,783,768,0
430453,406.97,783,768,0
430464,401.58,783,768,0
430473,395.96,783,768,0
430483,389.97,783,768,0
430493,384.28,783,768,0
430503,378.67,783,768,0
430513,373.54,783,768,0
430523,368.45,783,768,0
430533,364.03,783,768,0
430543,359.91,783,768,0
430553,356.63,783,768,0
430563,353.66,783,768,0
430573,351.53,783,768,0
430583,349.79,783,768,0
430593,349.08,783,768,0
430603,348.84,783,768,0
430613,349.36,783,768,0
430623,349.94,783,768,0
430633,351.07,783,768,0
430643,352.08,783,768,0
430653,353.38,783,768,0
430663,354.47,783,768,0
430673,355.78,783,768,0
430683,356.88,783,769,0
430693,358.16,783,768,0
430703,359.05,783,768,0
430713,360.15,783,768,0
430723,361.09,783,769,0
430733,362.44,783,768,0
430743,363.76,783,768,0
430753,365.80,783,768,0
430764,368.65,783,768,0
430774,373.51,783,768,0
430784,380.43,783,768,0
430794,390.54,783,769,0
430804,403.58,783,767,0
430814,420.25,783,768,0
430824,440.06,783,768,0
430834,462.80,783,769,0
430854,486.90,803,768,0
430857,510.93,803,770,0
430866,534.09,803,767,0
430876,555.62,803,769,0
430886,573.82,803,767,0
430896,588.23,803,769,0
430906,597.76,803,767,0
430916,602.46,803,769,0
430926,602.75,803,767,0
430936,598.33,803,769,0
430946,589.10,803,767,0
430956,576.21,803,769,0
430966,559.99,803,767,0
430977,541.91,803,770,0
430987,522.65,803,767,0
430997,503.17,803,769,0
431007,483.75,803,767,0
431017,465.48,803,770,0
431027,448.58,803,767,0
431037,433.62,803,769,0
431047,420.32,803,767,0
431057,409.08,803,770,0
431067,399.76,803,767,0
431077,392.67,803,769,0
431087,387.54,803,767,0
431097,384.51,803,770,0
431107,383.11,803,767,0
431117,383.55,803,769,0
431127,385.31,803,767,0
431137,388.39,803,770,0
431148,392.17,803,767,0
431158,396.49,803,769,0
431168,400.89,803,767,0
431178,405.25,803,770,0
431188,409.12,803,766,0
431198,412.34,803,769,0
431208,414.68,803,766,0
431218,416.11,803,770,0
431228,416.54,803,766,0
431238,416.00,803,769,0
431248,414.54,803,767,0
431258,412.28,803,770,0
431268,409.32,803,766,0
431278,405.88,803,769,0
431288,401.98,803,767,0
431298,397.78,803,770,0
431308,393.35,803,766,0
431319,388.87,803,769,0
431329,384.41,803,766,0
431339,380.17,803,770,0
431349,376.14,803,767,0
431360,372.49,803,769,0
431369,369.35,803,766,0
431379,366.89,803,770,0
431389,364.95,803,767,0
431399,363.55,803,769,0
431409,362.61,803,766,0
431419,362.09,803,770,0
431429,361.97,803,767,0
431439,362.11,803,769,0
431449,362.42,803,766,0
431459,362.94,803,770,0
431469,363.51,803,766,0
431479,363.92,803,769,0
431489,364.41,803,766,0
431499,365.06,803,770,0
431509,365.81,803,766,0
431519,366.68,803,769,0
431529,367.76,803,767,0
431539,369.42,803,770,0
431549,372.04,803,767,0
431559,375.75,803,769,0
431569,381.01,803,767,0
431579,388.34,803,770,0
431589,398.18,803,766,0
431599,410.90,803,769,0
431609,426.83,803,767,0
431619,445.74,803,770,0
431629,467.37,803,767,0
431639,490.92,803,770,0
431659,515.41,805,768,0
431662,538.56,805,770,0
431671,560.46,805,767,0
431681,579.40,805,768,0
431691,594.88,805,768,0
431702,605.76,805,769,0
431711,611.92,805,767,0
431721,612.97,805,769,0
431731,610.49,805,768,0
431741,603.27,805,768,0
431751,592.61,805,767,0
431761,578.58,805,769,0
431771,562.34,805,767,0
431781,544.32,805,769,0
431791,525.84,805,767,0
431801,507.16,805,769,0
431811,489.24,805,767,0
431821,472.07,805,769,0
431831,456.49,805,767,0
431841,442.63,805,769,0
431851,430.95,805,767,0
431861,421.15,805,769,0
431872,413.61,805,768,0
431881,408.03,805,769,0
431891,404.93,805,767,0
431901,403.75,805,768,0
431911,404.73,805,768,0
431921,407.08,805,769,0
431931,410.87,805,767,0
431941,415.49,805,769,0
431951,420.92,805,767,0
431961,426.17,805,769,0
431971,431.39,805,767,0
431981,435.73,805,769,0
431991,439.45,805,768,0
432001,442.10,805,769,0
432011,443.74,805,767,0
432021,443.99,805,768,0
432031,443.27,805,768,0
432041,441.17,805,768,0
432051,438.25,805,767,0
432061,434.27,805,769,0
432071,429.73,805,768,0
432081,424.29,805,768,0
432091,418.71,805,767,0
432101,412.80,805,768,0
432111,407.20,805,768,0
432121,401.61,805,768,0
432131,396.59,805,767,0
432141,391.95,805,769,0
432151,388.37,805,768,0
432161,385.26,805,769,0
432172,382.95,805,767,0
432182,380.95,805,768,0
432192,379.68,805,768,0
432202,378.66,805,768,0
432212,378.03,805,768,0
432222,377.47,805,768,0
432232,377.33,805,768,0
432242,377.19,805,768,0
432252,377.47,805,768,0
432262,377.59,805,768,0
432272,377.93,805,768,0
432282,377.99,805,768,0
432292,378.38,805,768,0
432302,378.57,805,768,0
432312,379.04,805,768,0
432322,379.37,805,768,0
432332,380.29,805,768,0
432343,381.44,805,768,0
432353,383.84,805,768,0
432363,387.02,805,768,0
432373,392.24,805,768,0
432384,399.63,805,767,0
432393,410.19,805,768,0
432403,423.94,805,768,0
432413,441.66,805,768,0
432423,462.76,805,767,0
432433,487.17,805,768,0
432452,513.44,794,767,0
432455,539.83,794,770,0
432464,565.94,794,767,0
432474,590.60,794,769,0
432484,612.11,794,767,0
432494,629.56,794,769,0
432504,641.99,794,767,0
432514,649.37,794,769,0
432524,652.13,794,767,0
432534,649.52,794,769,0
432544,641.61,794,767,0
432555,629.51,794,769,0
432564,613.67,794,767,0
432574,595.34,794,769,0
432584,574.80,794,767,0
432594,553.56,794,769,0
432604,532.00,794,767,0
432614,511.30,794,769,0
432624,491.45,794,767,0
432634,473.36,794,769,0
432644,456.92,794,767,0
432654,443.02,794,769,0
432664,431.06,794,767,0
432674,421.61,794,769,0
432684,414.31,794,767,0
432694,409.55,794,769,0
432704,406.73,794,767,0
432714,406.17,794,769,0
432724,407.02,794,767,0
432734,409.58,794,769,0
432744,412.92,794,767,0
432754,417.19,794,769,0
432764,421.42,794,767,0
432774,425.88,794,769,0
432784,429.64,794,767,0
432794,433.01,794,769,0
432804,435.23,794,767,0
432814,436.75,794,769,0
432824,436.91,794,767,0
432834,436.29,794,769,0
432844,434.36,794,767,0
432855,431.68,794,769,0
432865,427.92,794,767,0
432875,423.62,794,770,0
432885,418.55,794,767,0
432896,413.24,794,769,0
432905,407.55,794,766,0
432915,402.03,794,770,0
432925,396.58,794,767,0
432935,391.56,794,770,0
432945,386.64,794,766,0
432955,382.29,794,769,0
432965,378.17,794,767,0
432975,374.69,794,769,0
432985,371.44,794,766,0
432995,368.70,794,769,0
433005,366.34,794,767,0
433015,364.95,794,770,0
433025,364.15,794,767,0
433035,364.19,794,769,0
433045,364.48,794,767,0
433055,365.45,794,769,0
433065,366.73,794,766,0
433075,368.35,794,769,0
433085,369.79,794,767,0
433095,371.22,794,769,0
433105,372.44,794,766,0
433115,373.90,794,770,0
433125,375.08,794,767,0
433135,376.30,794,770,0
433145,377.28,794,766,0
433155,378.70,794,770,0
433165,380.37,794,767,0
433175,383.00,794,769,0
433185,386.56,794,767,0
433196,392.14,794,770,0
433206,399.98,794,767,0
433216,411.34,794,770,0
433226,426.11,794,766,0
433236,444.94,794,770,0
433246,467.03,794,767,0
433256,492.30,794,770,0
433275,519.56,823,768,0
433278,546.99,823,771,0
433287,573.82,823,767,0
433297,598.77,823,770,0
433307,620.23,823,766,0
433317,637.52,823,770,0
433327,649.70,823,767,0
433337,656.39,823,770,0
433347,658.12,823,766,0
433357,654.23,823,770,0
433367,645.33,823,767,0
433377,632.29,823,770,0
433387,615.66,823,766,0
433397,596.39,823,769,0
433408,575.27,823,766,0
433417,553.63,823,769,0
433427,531.89,823,766,0
433437,510.71,823,770,0
433447,490.65,823,767,0
433457,472.63,823,770,0
433467,456.71,823,767,0
433477,443.21,823,770,0
433487,431.88,823,767,0
433497,423.04,823,770,0
433507,416.52,823,767,0
433517,412.08,823,769,0
433527,409.48,823,766,0
433537,408.69,823,770,0
433547,409.39,823,767,0
433557,411.46,823,770,0
433567,414.40,823,766,0
433577,417.97,823,770,0
433587,421.75,823,767,0
433597,425.34,823,770,0
433607,428.37,823,766,0
433617,430.70,823,770,0
433627,431.95,823,767,0
433637,432.22,823,770,0
433647,431.34,823,766,0
433657,429.39,823,770,0
433667,426.40,823,767,0
433677,422.60,823,769,0
433687,418.09,823,766,0
433697,413.01,823,770,0
433708,407.52,823,767,0
433718,401.79,823,769,0
433728,396.15,823,767,0
433738,390.58,823,769,0
433748,385.35,823,767,0
433758,380.44,823,769,0
433768,376.11,823,767,0
433778,372.13,823,770,0
433788,368.75,823,767,0
433798,365.70,823,769,0
433808,363.13,823,767,0
433818,360.78,823,769,0
433828,358.74,823,767,0
433838,356.94,823,769,0
433848,355.50,823,767,0
433858,354.28,823,770,0
433868,353.47,823,767,0
433879,352.90,823,769,0
433889,352.67,823,767,0
433899,352.64,823,769,0
433909,352.88,823,767,0
433920,353.13,823,768,0
433929,353.52,823,767,0
433939,353.83,823,769,0
433949,354.40,823,767,0
433959,354.79,823,768,0
433969,355.37,823,767,0
433979,355.90,823,769,0
433989,356.96,823,767,0
433999,358.43,823,768,0
434009,360.91,823,767,0
434019,364.50,823,769,0
434029,370.13,823,767,0
434039,378.07,823,768,0
434049,388.97,823,767,0
434059,403.08,823,769,0
434069,420.84,823,767,0
434079,441.80,823,769,0
434089,465.78,823,767,0
434108,491.56,833,766,0
434111,517.19,833,769,0
434120,542.63,833,769,0
434130,566.49,833,768,0
434140,587.21,833,769,0
434150,603.95,833,768,0
434160,615.41,833,769,0
434170,621.54,833,768,0
434180,623.01,833,769,0
434190,619.02,833,768,0
434200,609.59,833,768,0
434210,595.91,833,768,0
434220,578.54,833,769,0
434230,558.96,833,768,0
434240,537.67,833,769,0
434250,515.83,833,768,0
434260,493.81,833,769,0
434270,472.91,833,768,0
434280,453.14,833,769,0
434290,435.22,833,768,0
434300,418.96,833,769,0
434310,404.96,833,768,0
434320,392.97,833,769,0
434330,383.46,833,768,0
434340,376.17,833,769,0
434350,371.45,833,768,0
434360,368.83,833,769,0
434370,368.71,833,768,0
434380,370.38,833,769,0
434391,374.08,833,768,0
434401,378.81,833,768,0
434411,384.53,833,768,0
434421,390.24,833,768,0
434432,396.04,833,769,0
434441,400.78,833,768,0
434451,404.88,833,768,0
434461,407.57,833,768,0
434471,409.37,833,769,0
434481,409.77,833,768,0
434491,409.24,833,768,0
434501,407.16,833,768,0
434511,404.37,833,768,0
434521,400.44,833,768,0
434531,396.07,833,768,0
434541,390.82,833,768,0
434551,385.43,833,769,0
434561,379.69,833,769,0
434571,374.47,833,768,0
434581,369.31,833,768,0
434591,364.76,833,768,0
434601,360.20,833,768,0
434611,356.33,833,768,0
434621,352.72,833,768,0
434631,349.97,833,768,0
434641,347.41,833,768,0
434651,345.66,833,768,0
434661,344.17,833,768,0
434671,343.61,833,768,0
434681,343.38,833,768,0
434691,343.78,833,768,0
434701,344.23,833,768,0
434711,345.36,833,768,0
434721,346.50,833,768,0
434732,348.02,833,768,0
434742,349.34,833,768,0
434752,350.91,833,769,0
434762,352.18,833,767,0
434772,353.63,833,769,0
434782,354.72,833,768,0
434792,356.14,833,769,0
434802,357.55,833,767,0
434812,359.87,833,769,0
434822,362.95,833,768,0
434832,367.94,833,769,0
434842,374.77,833,767,0
434852,384.57,833,769,0
434862,397.04,833,768,0
434872,413.06,833,769,0
434882,432.15,833,768,0
434892,454.52,833,769,0
434912,478.97,804,768,0
434915,504.18,804,771,0
434924,529.49,804,767,0
434934,554.16,804,769,0
434945,576.23,804,767,0
434955,594.80,804,770,0
434965,608.45,804,767,0
434975,616.97,804,770,0
434985,620.58,804,767,0
434995,618.69,804,770,0
435005,611.33,804,767,0
435015,599.49,804,769,0
435025,583.70,804,767,0
435035,565.19,804,770,0
435045,544.52,804,767,0
435055,522.80,804,770,0
435065,500.62,804,767,0
435075,478.96,804,770,0
435085,458.32,804,767,0
435095,439.28,804,770,0
435105,422.01,804,767,0
435116,407.05,804,770,0
435126,394.43,804,767,0
435136,384.32,804,770,0
435146,376.68,804,766,0
435156,371.59,804,770,0
435166,368.80,804,767,0
435176,368.35,804,770,0
435186,369.70,804,766,0
435196,372.62,804,770,0
435206,376.72,804,767,0
435216,381.73,804,770,0
435226,387.08,804,766,0
435236,392.42,804,770,0
435246,397.26,804,767,0
435256,401.51,804,770,0
435266,405.04,804,766,0
435276,407.56,804,770,0
435287,408.89,804,767,0
435297,408.97,804,769,0
435307,407.95,804,767,0
435317,405.74,804,770,0
435328,402.47,804,767,0
435337,398.26,804,769,0
435347,393.47,804,767,0
435357,388.23,804,770,0
435367,382.93,804,767,0
435377,377.59,804,770,0
435387,372.49,804,767,0
435397,367.67,804,770,0
435407,363.27,804,767,0
435417,359.20,804,770,0
435427,355.50,804,767,0
435437,352.05,804,770,0
435447,348.99,804,767,0
435457,346.42,804,770,0
435467,344.45,804,767,0
435477,342.86,804,770,0
435487,341.79,804,767,0
435497,341.08,804,770,0
435507,341.01,804,766,0
435517,341.39,804,770,0
435527,342.26,804,767,0
435537,343.21,804,770,0
435547,344.26,804,767,0
435557,345.21,804,770,0
435567,346.56,804,767,0
435577,347.98,804,770,0
435587,349.70,804,767,0
435597,351.76,804,770,0
435607,354.66,804,767,0
435617,358.83,804,770,0
435628,364.93,804,767,0
435638,373.01,804,769,0
435648,383.93,804,767,0
435658,398.14,804,769,0
435668,416.23,804,767,0
435678,438.02,804,769,0
435688,463.47,804,767,0
435698,491.74,804,769,0
435718,522.16,805,767,0
435721,552.37,805,770,0
435730,582.17,805,768,0
435740,609.42,805,769,0
435750,633.08,805,768,0
435760,651.57,805,769,0
435770,664.34,805,768,0
435780,670.33,805,768,0
435790,670.66,805,768,0
435800,664.25,805,769,0
435810,652.39,805,768,0
435820,635.43,805,768,0
435830,614.81,805,768,0
435841,591.04,805,768,0
435851,566.17,805,769,0
435861,540.58,805,768,0
435871,515.63,805,769,0
435881,491.49,805,767,0
435891,469.35,805,769,0
435901,449.06,805,768,0
435911,431.47,805,769,0
435921,415.99,805,767,0
435931,403.31,805,769,0
435941,392.80,805,768,0
435951,384.93,805,769,0
435961,379.08,805,768,0
435971,375.58,805,769,0
435981,373.87,805,768,0
435991,374.34,805,769,0
436001,376.16,805,767,0
436012,379.59,805,770,0
436022,383.74,805,767,0
436032,388.75,805,769,0
436042,393.79,805,767,0
436052,399.00,805,770,0
436062,403.28,805,767,0
436072,406.93,805,769,0
436082,409.18,805,767,0
436092,410.45,805,770,0
436102,410.32,805,768,0
436112,409.19,805,769,0
436122,406.69,805,767,0
436132,403.48,805,770,0
436142,399.27,805,768,0
436152,394.64,805,769,0
436162,389.35,805,767,0
436172,383.93,805,770,0
436183,378.21,805,767,0
436193,372.75,805,770,0
436203,367.29,805,767,0
436213,362.23,805,770,0
436224,357.45,805,767,0
436233,353.33,805,769,0
436243,349.50,805,767,0
436253,346.44,805,770,0
436263,343.73,805,767,0
436273,341.76,805,770,0
436283,340.16,805,767,0
436293,339.21,805,770,0
436303,338.59,805,767,0
436313,338.67,805,770,0
436323,338.94,805,767,0
436333,339.82,805,770,0
436343,340.81,805,767,0
436353,342.33,805,770,0
436363,343.90,805,767,0
436373,345.82,805,770,0
436383,347.71,805,767,0
436393,350.16,805,770,0
436403,352.98,805,767,0
436413,357.02,805,770,0
436423,362.50,805,767,0
436433,370.45,805,770,0
436443,381.07,805,767,0
436453,395.45,805,770,0
436463,413.70,805,767,0
436473,436.42,805,770,0
436483,462.82,805,767,0
436493,492.79,805,770,0
436512,524.74,795,769,0
436515,557.22,795,770,0
436524,588.99,795,767,0
436534,618.74,795,770,0
436544,644.40,795,767,0
436554,665.28,795,770,0
436564,679.77,795,766,0
436574,687.77,795,770,0
436584,689.34,795,767,0
436594,684.26,795,770,0
436604,672.96,795,766,0
436614,656.73,795,770,0
436624,636.02,795,767,0
436634,612.14,795,770,0
436644,586.09,795,766,0
436654,559.36,795,770,0
436664,532.55,795,767,0
436674,506.59,795,770,0
436684,481.85,795,764,0
436695,459.27,795,770,0
436705,439.22,795,771,0
436715,422.01,795,772,0
436725,407.56,795,767,0
436736,396.17,795,770,0
436745,387.72,795,767,0
436755,382.32,795,770,0
436765,379.65,795,766,0
436775,379.54,795,770,0
436785,381.52,795,767,0
436795,385.26,795,770,0
436805,390.24,795,766,0
436815,396.00,795,770,0
436825,402.08,795,767,0
436835,408.10,795,770,0
436845,413.69,795,767,0
436855,418.58,795,770,0
436865,422.56,795,767,0
436875,425.57,795,770,0
436885,427.41,795,766,0
436895,427.97,795,770,0
436905,427.25,795,771,0
436915,425.42,795,770,0
436925,422.42,795,766,0
436935,418.44,795,770,0
436945,413.55,795,767,0
436955,408.11,795,770,0
436965,402.25,795,766,0
436975,396.18,795,770,0
436985,389.99,795,767,0
436995,384.08,795,770,0
437005,378.66,795,767,0
437015,373.79,795,770,0
437025,369.48,795,767,0
437036,365.74,795,770,0
437046,362.64,795,767,0
437056,360.05,795,770,0
437066,358.02,795,767,0
437076,356.13,795,771,0
437086,354.42,795,768,0
437096,352.71,795,770,0
437106,351.12,795,766,0
437116,349.89,795,770,0
437126,349.32,795,767,0
437136,349.61,795,770,0
437146,351.40,795,767,0
437156,355.14,795,770,0
437166,361.48,795,768,0
437176,370.98,795,770,0
437186,384.01,795,768,0
437196,400.94,795,770,0
437207,422.00,795,768,0
437217,446.81,795,770,0
437227,474.94,795,769,0
437237,505.22,795,771,0
437248,536.39,795,769,0
437257,566.70,795,771,0
437267,594.69,795,769,0
437286,618.49,774,768,0
437289,636.47,774,771,0
437298,648.63,774,771,0
437308,654.53,774,770,0
437318,653.47,774,770,0
437328,646.21,774,770,0
437338,633.16,774,771,0
437348,615.63,774,771,0
437358,594.91,774,771,0
437368,571.58,774,770,0
437378,546.72,774,770,0
437388,522.12,774,781,0
437398,497.91,774,774,0
437408,475.05,774,783,0
437419,453.87,774,774,0
437428,435.61,774,782,0
437438,420.00,774,772,0
437448,407.95,774,772,0
437458,399.01,774,770,0
437468,393.82,774,772,0
437478,391.69,774,771,0
437488,392.64,774,768,0
437498,395.36,774,770,0
437508,399.75,774,768,0
437518,404.67,774,769,0
437528,410.38,774,768,0
437538,415.93,774,768,0
437548,421.56,774,768,0
437558,426.58,774,768,0
437568,431.38,774,768,0
437578,435.42,774,768,0
437588,439.02,774,767,0
437598,441.37,774,769,0
437608,442.98,774,768,0
437618,443.28,774,768,0
437628,442.60,774,768,0
437638,440.58,774,769,0
437648,437.66,774,768,0
437658,433.26,774,768,0
437668,428.04,774,768,0
437678,421.56,774,769,0
437688,414.45,774,768,0
437698,406.38,774,768,0
437708,397.83,774,768,0
437719,388.45,774,768,0
437729,379.23,774,768,0
437739,369.82,774,768,0
437749,361.17,774,768,0
437760,352.85,774,768,0
437769,345.82,774,768,0
437779,339.75,774,768,0
437789,335.24,774,768,0
437799,331.82,774,768,0
437809,329.99,774,768,0
437819,329.09,774,768,0
437829,329.67,774,768,0
437839,331.01,774,768,0
437849,333.58,774,768,0
437859,336.79,774,768,0
437869,341.14,774,768,0
437879,346.28,774,768,0
437889,353.06,774,768,0
437899,361.40,774,768,0
437909,372.25,774,768,0
437919,385.76,774,768,0
437929,403.23,774,769,0
437939,424.38,774,768,0
437949,450.06,774,768,0
437959,479.40,774,768,0
437969,512.32,774,769,0
437979,547.16,774,768,0
437989,582.81,774,768,0
437999,616.98,774,768,0
438009,648.53,774,769,0
438019,675.28,774,768,0
438038,696.59,752,767,0
438041,710.04,752,767,0
438050,716.71,752,769,0
438060,716.33,752,768,0
438070,709.54,752,769,0
438080,696.52,752,767,0
438090,678.49,752,769,0
438100,655.76,752,767,0
438110,630.89,752,769,0
438120,603.41,752,767,0
438130,574.91,752,769,0
438140,545.93,752,767,0
438150,517.88,752,768,0
438160,490.96,752,767,0
438170,466.41,752,769,0
438180,444.00,752,767,0
438190,424.80,752,768,0
438200,408.32,752,767,0
438210,395.11,752,769,0
438220,384.70,752,767,0
438231,377.59,752,769,0
438241,373.22,752,767,0
438251,371.99,752,769,0
438261,373.07,752,767,0
438272,376.52,752,769,0
438281,381.68,752,767,0
438291,388.46,752,769,0
438301,396.04,752,767,0
438311,404.17,752,769,0
438321,411.92,752,767,0
438331,419.27,752,769,0
438341,425.36,752,766,0
438351,430.27,752,769,0
438361,433.32,752,767,0
438371,434.81,752,769,0
438381,434.31,752,766,0
438391,432.37,752,769,0
438401,428.79,752,767,0
438411,424.31,752,769,0
438421,418.77,752,767,0
438431,412.84,752,769,0
438441,406.29,752,766,0
438451,399.95,752,769,0
438461,393.58,752,767,0
438471,387.57,752,769,0
438481,381.79,752,766,0
438491,376.62,752,769,0
438501,371.81,752,767,0
438511,367.79,752,769,0
438521,364.13,752,766,0
438531,361.22,752,769,0
438541,358.71,752,767,0
438551,356.91,752,769,0
438561,355.39,752,766,0
438572,354.55,752,769,0
438582,353.91,752,767,0
438592,353.85,752,769,0
438602,353.90,752,766,0
438612,354.57,752,769,0
438622,355.56,752,766,0
438632,357.58,752,769,0
438642,360.66,752,766,0
438652,365.69,752,769,0
438662,372.94,752,766,0
438672,383.46,752,769,0
438682,397.55,752,766,0
438692,416.11,752,769,0
438702,439.05,752,766,0
438712,466.51,752,769,0
438722,497.55,752,766,0
438732,531.55,752,770,0
438743,566.70,752,766,0
438753,601.50,752,770,0
438772,633.88,734,768,0
438775,660.96,734,770,0
438785,682.79,734,766,0
438795,698.28,734,769,0
438805,706.68,734,766,0
438815,707.93,734,769,0
438825,702.34,734,767,0
438835,690.54,734,769,0
438845,674.69,734,766,0
438855,653.83,734,769,0
438865,629.36,734,767,0
438875,602.47,734,769,0
438885,574.51,734,766,0
438895,546.33,734,769,0
438905,518.89,734,767,0
438915,492.87,734,769,0
438925,469.38,734,766,0
438935,448.69,734,769,0
438945,430.96,734,767,0
438956,416.01,734,769,0
438966,404.14,734,767,0
438976,395.05,734,768,0
438986,388.95,734,767,0
438996,385.32,734,768,0
439006,384.11,734,767,0
439016,384.76,734,769,0
439026,387.36,734,767,0
439036,391.03,734,768,0
439046,395.73,734,767,0
439056,400.57,734,768,0
439066,405.54,734,767,0
439076,410.01,734,768,0
439086,414.25,734,767,0
439096,417.47,734,768,0
439106,419.86,734,767,0
439116,420.97,734,768,0
439127,421.20,734,767,0
439137,420.11,734,768,0
439147,418.19,734,767,0
439157,414.92,734,768,0
439168,410.91,734,768,0
439177,406.18,734,768,0
439187,401.16,734,767,0
439197,395.62,734,768,0
439207,390.12,734,767,0
439217,384.39,734,768,0
439227,379.17,734,768,0
439237,374.06,734,768,0
439247,369.59,734,768,0
439257,365.42,734,768,0
439267,362.17,734,767,0
439277,359.33,734,768,0
439287,357.43,734,767,0
439297,355.85,734,768,0
439307,355.25,734,767,0
439317,355.09,734,768,0
439327,355.70,734,767,0
439337,356.52,734,768,0
439347,357.99,734,767,0
439357,359.45,734,768,0
439367,361.42,734,767,0
439377,363.26,734,768,0
439387,365.50,734,768,0
439397,367.92,734,769,0
439407,371.29,734,767,0
439417,375.66,734,768,0
439427,382.10,734,768,0
439437,390.86,734,768,0
439447,403.24,734,767,0
439457,419.54,734,768,0
439468,440.85,734,768,0
439478,466.57,734,768,0
439488,496.74,734,768,0
439498,529.95,734,767,0
439518,565.41,745,766,0
439521,599.96,745,769,0
439530,632.97,745,769,0
439540,662.12,745,767,0
439550,686.43,745,769,0
439560,704.26,745,767,0
439570,715.45,745,769,0
439580,719.09,745,767,0
439590,716.62,745,769,0
439600,707.35,745,767,0
439610,692.41,745,769,0
439620,672.28,745,766,0
439630,648.36,745,769,0
439640,621.30,745,766,0
439650,592.75,745,769,0
439660,563.38,745,766,0
439670,534.43,745,769,0
439681,506.27,745,766,0
439691,480.09,745,769,0
439701,456.10,745,766,0
439711,435.07,745,769,0
439721,416.88,745,766,0
439731,401.96,745,769,0
439741,390.23,745,766,0
439751,381.97,745,769,0
439761,376.75,745,766,0
439771,374.47,745,769,0
439781,374.59,745,766,0
439791,377.11,745,769,0
439801,381.36,745,766,0
439811,387.04,745,769,0
439821,393.29,745,766,0
439831,399.97,745,769,0
439841,406.45,745,766,0
439852,412.53,745,769,0
439862,417.43,745,766,0
439872,421.20,745,769,0
439882,423.58,745,766,0
439892,424.65,745,769,0
439902,424.07,745,766,0
439912,422.21,745,769,0
439922,419.06,745,766,0
439932,414.93,745,769,0
439942,409.98,745,766,0
439952,404.28,745,769,0
439962,398.07,745,766,0
439972,391.58,745,769,0
439982,385.06,745,766,0
439992,378.79,745,769,0
440002,372.89,745,766,0
440012,367.48,745,769,0
440023,362.67,745,766,0
440033,358.65,745,769,0
440043,355.41,745,766,0
440053,352.68,745,769,0
440064,350.42,745,766,0
440073,348.88,745,769,0
440083,347.89,745,766,0
440093,347.49,745,769,0
440103,347.56,745,766,0
440113,348.16,745,770,0
440123,349.31,745,766,0
440133,350.85,745,770,0
440143,352.61,745,767,0
440153,354.48,745,770,0
440163,356.44,745,766,0
440173,358.32,745,769,0
440183,360.20,745,768,0
440193,362.37,745,770,0
440203,365.26,745,767,0
440213,369.29,745,769,0
440223,375.16,745,766,0
440233,383.60,745,770,0
440243,395.33,745,770,0
440253,411.22,745,770,0
440263,431.64,745,766,0
440273,456.69,745,770,0
440283,485.84,745,766,0
440293,518.25,745,769,0
440312,552.63,795,768,0
440315,586.73,795,769,0
440324,619.51,795,767,0
440334,649.10,795,769,0
440344,673.88,795,767,0
440354,692.52,795,769,0
440364,704.53,795,767,0
440374,709.30,795,769,0
440384,707.80,795,766,0
440394,699.33,795,769,0
440404,684.87,795,767,0
440414,665.28,795,769,0
440424,641.84,795,766,0
440434,615.15,795,769,0
440444,586.77,795,767,0
440454,557.61,795,769,0
440464,528.80,795,766,0
440474,500.92,795,769,0
440484,474.76,795,767,0
440494,450.74,795,769,0
440504,429.52,795,766,0
440514,410.98,795,769,0
440524,395.51,795,767,0
440535,383.02,795,769,0
440545,373.80,795,770,0
440555,367.56,795,770,0
440565,364.35,795,780,0
440576,363.34,795,772,0
440585,364.61,795,781,0
440595,367.21,795,772,0
440605,371.56,795,775,0
440615,376.84,795,771,0
440625,382.97,795,770,0
440635,389.11,795,770,0
440645,395.55,795,769,0
440655,401.30,795,770,0
440665,406.74,795,768,0
440675,410.54,795,770,0
440685,412.91,795,769,0
440695,413.37,795,770,0
440705,412.40,795,770,0
440715,409.79,795,770,0
440725,406.17,795,767,0
440735,401.23,795,768,0
440745,395.85,795,768,0
440755,389.98,795,768,0
440765,384.16,795,767,0
440775,378.07,795,768,0
440785,372.35,795,767,0
440795,366.89,795,768,0
440805,362.21,795,767,0
440815,357.94,795,768,0
440825,354.58,795,767,0
440835,351.66,795,768,0
440845,349.79,795,769,0
440855,348.40,795,768,0
440865,347.81,795,768,0
440876,347.52,795,768,0
440886,347.92,795,768,0
440896,348.37,795,770,0
440906,349.33,795,768,0
440916,350.22,795,768,0
440926,351.40,795,768,0
440936,352.35,795,768,0
440946,353.49,795,768,0
440956,354.24,795,768,0
440966,355.07,795,769,0
440976,355.43,795,769,0
440986,355.95,795,770,0
440996,356.05,795,770,0
441006,356.51,795,769,0
441016,356.91,795,768,0
441026,358.18,795,771,0
441036,360.18,795,770,0
441047,364.07,795,770,0
441057,369.92,795,770,0
441067,379.33,795,773,0
441077,392.26,795,771,0
441088,409.97,795,778,0
441097,431.92,795,772,0
441107,458.77,795,769,0
441126,489.57,814,768,0
441129,523.21,814,770,0
441138,558.25,814,767,0
441148,593.45,814,769,0
441158,626.44,814,766,0
441168,656.14,814,769,0
441178,680.35,814,767,0
441188,698.16,814,769,0
441198,709.00,814,766,0
441208,712.30,814,769,0
441218,708.10,814,767,0
441228,697.35,814,769,0
441238,680.40,814,766,0
441248,658.85,814,769,0
441259,633.44,814,767,0
441268,605.92,814,769,0
441278,577.02,814,766,0
441288,548.04,814,769,0
441298,519.36,814,768,0
441308,492.46,814,769,0
441318,467.30,814,767,0
441328,445.01,814,769,0
441338,425.25,814,767,0
441348,408.85,814,770,0
441358,395.35,814,768,0
441368,385.47,814,769,0
441378,378.47,814,769,0
441388,374.73,814,769,0
441398,373.27,814,769,0
441408,374.30,814,769,0
441418,376.91,814,769,0
441428,381.27,814,769,0
441438,386.33,814,768,0
441448,392.19,814,770,0
441458,397.79,814,769,0
441468,403.38,814,769,0
441478,408.07,814,766,0
441488,412.12,814,769,0
441498,414.78,814,764,0
441508,416.39,814,769,0
441518,416.36,814,770,0
441528,415.35,814,769,0
441538,412.89,814,770,0
441548,409.62,814,770,0
441559,405.15,814,769,0
441569,400.05,814,770,0
441579,394.20,814,766,0
441589,388.23,814,770,0
441600,381.90,814,766,0
441609,375.85,814,770,0
441619,369.89,814,767,0
441629,364.52,814,770,0
441639,359.52,814,769,0
441649,355.21,814,770,0
441659,351.33,814,769,0
441669,348.32,814,770,0
441679,345.74,814,769,0
441689,343.89,814,770,0
441699,342.38,814,768,0
441709,341.62,814,771,0
441719,341.18,814,766,0
441729,341.34,814,769,0
441739,341.62,814,767,0
441749,342.34,814,769,0
441759,343.09,814,767,0
441769,344.18,814,769,0
441779,345.15,814,767,0
441789,346.31,814,769,0
441799,347.37,814,767,0
441809,348.50,814,769,0
441819,349.55,814,767,0
441829,350.89,814,769,0
441839,352.42,814,767,0
441849,354.82,814,769,0
441859,358.26,814,767,0
441869,363.75,814,770,0
441879,371.84,814,769,0
441889,383.50,814,769,0
441900,399.17,814,766,0
441910,419.82,814,770,0
441920,445.29,814,767,0
441930,475.59,814,769,0
441950,509.40,823,768,0
441953,545.15,823,770,0
441962,581.79,823,767,0
441972,617.25,823,769,0
441982,649.45,823,767,0
441992,676.70,823,770,0
442002,697.45,823,767,0
442012,710.77,823,769,0
442022,716.80,823,767,0
442032,715.01,823,769,0
442042,706.14,823,767,0
442052,690.71,823,769,0
442062,669.84,823,767,0
442072,644.86,823,769,0
442082,617.22,823,766,0
442092,587.92,823,769,0
442102,558.03,823,767,0
442113,528.45,823,769,0
442123,500.42,823,767,0
442133,474.36,823,768,0
442143,450.85,823,767,0
442153,430.03,823,769,0
442163,412.45,823,767,0
442173,397.91,823,768,0
442183,386.88,823,767,0
442193,378.73,823,769,0
442203,373.67,823,767,0
442213,371.15,823,768,0
442223,371.32,823,767,0
442233,373.54,823,769,0
442243,377.71,823,767,0
442253,382.94,823,769,0
442263,389.26,823,767,0
442273,395.78,823,769,0
442284,402.45,823,768,0
442294,408.35,823,768,0
442304,413.35,823,768,0
442314,416.84,823,770,0
442324,419.08,823,768,0
442334,419.57,823,768,0
442344,418.75,823,768,0
442354,416.21,823,768,0
442364,412.64,823,768,0
442374,407.94,823,768,0
442384,402.86,823,768,0
442394,397.03,823,768,0
442404,391.19,823,768,0
442414,385.05,823,768,0
442424,379.25,823,770,0
442434,373.43,823,770,0
442444,368.07,823,768,0
442455,362.65,823,768,0
442465,357.87,823,768,0
442475,353.28,823,768,0
442485,349.43,823,768,0
442496,345.91,823,768,0
442505,343.24,823,768,0
442515,341.02,823,768,0
442525,339.77,823,768,0
442535,338.86,823,768,0
442545,338.68,823,768,0
442555,338.74,823,768,0
442565,339.54,823,768,0
442575,340.41,823,768,0
442585,341.79,823,768,0
442595,343.05,823,768,0
442605,344.79,823,768,0
442615,346.35,823,768,0
442625,348.35,823,768,0
442635,350.34,823,768,0
442645,353.16,823,768,0
442655,356.54,823,768,0
442665,361.69,823,769,0
442675,368.68,823,769,0
442685,378.94,823,769,0
442695,392.80,823,768,0
442705,411.46,823,769,0
442715,434.68,823,768,0
442725,463.02,823,768,0
442735,495.33,823,768,0
442745,531.23,823,769,0
442764,568.53,815,767,0
442767,605.01,815,770,0
442776,638.87,815,767,0
442786,669.08,815,769,0
442796,693.61,815,768,0
442806,711.81,815,769,0
442816,722.11,815,768,0
442826,724.95,815,769,0
442836,720.72,815,768,0
442846,710.01,815,769,0
442856,692.78,815,767,0
442866,670.34,815,769,0
442876,643.33,815,767,0
442886,613.70,815,769,0
442896,582.29,815,767,0
442906,550.75,815,768,0
442916,519.41,815,767,0
442926,489.89,815,770,0
442936,462.41,815,768,0
442946,438.16,815,769,0
442956,417.02,815,768,0
442967,399.62,815,770,0
442977,385.72,815,767,0
442987,375.73,815,769,0
442997,369.08,815,768,0
443008,366.14,815,770,0
443017,366.01,815,767,0
443027,368.80,815,769,0
443037,373.53,815,767,0
443047,380.10,815,770,0
443057,387.40,815,767,0
443067,395.34,815,769,0
443077,402.91,815,767,0
443087,410.13,815,769,0
443097,416.14,815,767,0
443107,420.98,815,769,0
443117,424.03,815,767,0
443127,425.74,815,770,0
443137,425.56,815,767,0
443147,424.06,815,769,0
443157,420.87,815,767,0
443167,416.58,815,769,0
443177,411.05,815,767,0
443187,404.95,815,769,0
443197,398.06,815,767,0
443207,391.06,815,770,0
443217,383.63,815,767,0
443227,376.62,815,769,0
443237,369.71,815,767,0
443247,363.50,815,770,0
443257,357.60,815,767,0
443267,352.71,815,769,0
443277,348.38,815,767,0
443287,345.05,815,770,0
443297,342.17,815,767,0
443308,340.14,815,769,0
443318,338.60,815,767,0
443328,337.91,815,770,0
443338,337.59,815,767,0
443348,337.84,815,769,0
443358,338.40,815,766,0
443368,339.61,815,770,0
443378,341.23,815,767,0
443388,343.47,815,769,0
443398,346.03,815,767,0
443408,348.85,815,770,0
443418,351.72,815,767,0
443428,354.98,815,769,0
443438,358.37,815,767,0
443448,362.46,815,770,0
443458,367.34,815,767,0
443468,373.96,815,769,0
443479,382.97,815,766,0
443489,395.58,815,770,0
443499,412.55,815,767,0
443509,434.76,815,770,0
443520,462.13,815,766,0
443529,494.49,815,770,0
443539,530.73,815,767,0
443558,568.87,794,765,0
443561,606.45,794,768,0
443570,641.46,794,770,0
443580,672.31,794,767,0
443590,698.01,794,770,0
443600,718.15,794,767,0
443610,732.46,794,770,0
443620,740.90,794,767,0
443630,743.37,794,770,0
443640,739.75,794,767,0
443650,729.96,794,769,0
443660,714.03,794,767,0
443670,692.04,794,769,0
443680,664.34,794,766,0
443691,632.44,794,769,0
443700,598.36,794,767,0
443710,563.58,794,769,0
443720,529.34,794,766,0
443730,496.71,794,769,0
443740,466.54,794,766,0
443750,439.42,794,769,0
443760,416.02,794,766,0
443770,396.39,794,770,0
443780,380.80,794,770,0
443790,369.20,794,770,0
443800,361.56,794,765,0
443810,357.53,794,770,0
443820,357.07,794,767,0
443830,359.49,794,770,0
443840,364.40,794,770,0
443850,371.05,794,770,0
443860,379.05,794,768,0
443870,387.56,794,770,0
443880,396.05,794,770,0
443890,403.84,794,770,0
443900,410.79,794,767,0
443910,416.42,794,770,0
443920,420.58,794,766,0
443930,422.98,794,769,0
443940,423.67,794,767,0
443950,422.87,794,770,0
443960,420.55,794,766,0
443970,416.70,794,769,0
443980,411.78,794,767,0
443991,405.84,794,769,0
444001,399.29,794,767,0
444011,392.26,794,769,0
444021,385.11,794,768,0
444032,377.92,794,770,0
444041,371.17,794,767,0
444051,364.61,794,770,0
444061,358.60,794,767,0
444071,352.93,794,769,0
444081,347.98,794,767,0
444091,343.36,794,769,0
444101,339.56,794,767,0
444111,336.22,794,769,0
444121,333.63,794,768,0
444131,331.43,794,769,0
444141,329.88,794,767,0
444151,328.80,794,769,0
444161,328.48,794,767,0
444171,328.59,794,769,0
444181,329.40,794,767,0
444191,330.48,794,769,0
444201,332.22,794,767,0
444211,334.21,794,769,0
444221,336.59,794,767,0
444231,338.90,794,769,0
444241,341.42,794,768,0
444251,343.82,794,769,0
444261,346.57,794,767,0
444271,349.83,794,770,0
444281,354.72,794,772,0
444291,361.49,794,771,0
444301,371.37,794,782,0
444311,384.59,794,770,0
444321,403.23,794,768,0
444332,427.80,794,769,0
444342,458.50,794,768,0
444352,494.18,794,769,0
444362,533.60,794,768,0
444382,573.96,823,767,0
444385,613.53,823,772,0
444394,649.41,823,768,0
444404,680.19,823,769,0
444414,704.86,823,767,0
444424,723.42,823,769,0
444434,736.36,823,769,0
444444,743.75,823,769,0
444454,745.24,823,767,0
444464,741.01,823,769,0
444474,730.55,823,768,0
444484,713.93,823,769,0
444494,690.72,823,767,0
444504,661.58,823,769,0
444514,628.15,823,768,0
444524,592.79,823,769,0
444534,556.29,823,767,0
444545,520.72,823,769,0
444555,486.82,823,767,0
444565,456.23,823,769,0
444575,428.90,823,767,0
444585,405.96,823,770,0
444595,386.99,823,767,0
444605,372.85,823,769,0
444615,362.91,823,767,0
444625,357.49,823,769,0
444635,355.67,823,767,0
444645,357.53,823,769,0
444655,361.91,823,767,0
444665,368.80,823,769,0
444675,376.87,823,767,0
444685,386.00,823,769,0
444695,395.00,823,767,0
444705,403.74,823,770,0
444716,411.40,823,767,0
444726,417.93,823,770,0
444736,422.53,823,767,0
444746,425.46,823,770,0
444756,426.35,823,767,0
444766,425.60,823,770,0
444776,422.89,823,766,0
444786,418.73,823,769,0
444796,413.06,823,767,0
444806,406.70,823,769,0
444816,399.55,823,766,0
444826,392.10,823,770,0
444836,384.27,823,767,0
444846,376.82,823,770,0
444856,369.46,823,766,0
444866,362.63,823,770,0
444876,356.10,823,767,0
444887,350.33,823,770,0
444897,345.09,823,766,0
444907,340.73,823,770,0
444917,337.00,823,767,0
444928,334.21,823,770,0
444937,332.31,823,766,0
444947,331.40,823,769,0
444957,331.19,823,767,0
444967,331.65,823,770,0
444977,332.57,823,766,0
444987,334.03,823,770,0
444997,335.69,823,767,0
445007,337.63,823,770,0
445017,339.45,823,766,0
445027,341.37,823,770,0
445037,343.28,823,767,0
445047,345.29,823,770,0
445057,347.13,823,766,0
445067,349.15,823,770,0
445077,351.38,823,767,0
445087,354.65,823,769,0
445097,359.51,823,766,0
445107,366.90,823,769,0
445117,377.43,823,767,0
445127,392.34,823,770,0
445137,412.47,823,766,0
445147,438.17,823,770,0
445157,469.19,823,767,0
445167,505.01,823,770,0
445187,543.83,805,768,0
445190,583.23,805,770,0
445199,620.87,805,767,0
445209,654.94,805,769,0
445219,684.23,805,767,0
445229,707.95,805,770,0
445239,725.62,805,767,0
445249,737.65,805,770,0
445259,744.05,805,767,0
445270,744.55,805,769,0
445279,739.11,805,767,0
445289,727.25,805,769,0
445299,708.92,805,767,0
445309,684.13,805,770,0
445319,653.70,805,767,0
445329,619.51,805,770,0
445339,583.53,805,767,0
445349,546.90,805,769,0
445359,511.53,805,767,0
445369,478.28,805,769,0
445379,448.28,805,767,0
445389,421.71,805,769,0
445399,399.21,805,767,0
445409,380.94,805,769,0
445419,367.33,805,767,0
445429,357.97,805,769,0
445440,353.01,805,762,0
445449,351.85,805,771,0
445459,354.34,805,779,0
445469,358.99,805,773,0
445479,365.68,805,783,0
445489,372.76,805,778,0
445499,380.46,805,783,0
445509,387.39,805,779,0
445519,394.05,805,783,0
445529,399.30,805,780,0
445539,404.40,805,783,0
445549,407.84,805,779,0
445559,410.93,805,783,0
445569,412.24,805,780,0
445579,413.24,805,783,0
445589,412.18,805,779,0
445599,410.41,805,783,0
445609,406.65,805,779,0
445619,402.68,805,783,0
445629,397.29,805,779,0
445639,391.97,805,783,0
445649,385.55,805,779,0
445659,379.86,805,783,0
445669,373.77,805,779,0
445679,368.61,805,783,0
445689,363.11,805,779,0
445699,358.84,805,783,0
445709,354.39,805,779,0
445719,351.23,805,783,0
445729,348.33,805,774,0
445740,347.42,805,768,0
445750,347.55,805,769,0
445760,349.23,805,768,0
445770,351.22,805,768,0
445780,354.19,805,767,0
445790,356.75,805,769,0
445800,359.40,805,767,0
445810,360.82,805,769,0
445820,361.52,805,768,0
445830,361.15,805,768,0
445840,360.55,805,767,0
445850,359.74,805,768,0
445860,359.69,805,768,0
445870,360.38,805,769,0
445880,362.80,805,767,0
445890,367.49,805,769,0
445900,375.83,805,768,0
445911,388.31,805,768,0
445921,406.21,805,768,0
445931,429.85,805,768,0
445941,459.60,805,768,0
445952,494.65,805,768,0
445961,533.62,805,768,0
445980,573.59,794,767,0
445983,612.46,794,770,0
445992,647.98,794,767,0
446002,678.80,794,768,0
446012,703.80,794,768,0
446022,722.72,794,769,0
446032,735.92,794,768,0
446042,743.78,794,768,0
446052,745.69,794,768,0
446062,741.76,794,769,0
446072,731.20,794,768,0
446082,714.34,794,768,0
446092,690.84,794,768,0
446102,660.97,794,768,0
446112,626.22,794,768,0
446123,589.17,794,769,0
446132,550.93,794,768,0
446142,513.67,794,768,0
446152,477.94,794,768,0
446162,445.34,794,769,0
446172,416.40,794,768,0
446182,392.02,794,768,0
446192,371.96,794,770,0
446202,356.97,794,769,0
446212,346.39,794,768,0
446222,340.66,794,768,0
446232,338.83,794,768,0
446242,340.98,794,769,0
446252,345.96,794,768,0
446262,353.69,794,768,0
446272,362.74,794,768,0
446282,373.10,794,769,0
446292,383.36,794,767,0
446302,393.54,794,769,0
446312,402.37,794,768,0
446322,410.02,794,769,0
446332,415.50,794,767,0
446342,419.21,794,768,0
446352,420.56,794,768,0
446362,420.18,794,769,0
446372,417.60,794,767,0
446382,413.73,794,769,0
446392,408.15,794,768,0
446402,401.81,794,768,0
446412,394.41,794,767,0
446423,386.70,794,769,0
446433,378.39,794,767,0
446443,370.26,794,769,0
446453,361.87,794,767,0
446464,354.19,794,769,0
446473,346.76,794,767,0
446483,340.32,794,769,0
446493,334.52,794,767,0
446503,330.08,794,769,0
446513,326.50,794,767,0
446523,324.29,794,769,0
446533,322.88,794,767,0
446543,322.74,794,769,0
446553,323.25,794,767,0
446563,324.63,794,769,0
446573,326.24,794,767,0
446583,328.44,794,769,0
446593,330.62,794,767,0
446603,333.18,794,769,0
446613,335.48,794,767,0
446623,338.04,794,769,0
446633,340.38,794,767,0
446643,343.18,794,769,0
446653,346.30,794,767,0
446663,350.84,794,769,0
446673,356.80,794,767,0
446683,365.47,794,769,0
446693,377.20,794,767,0
446703,393.73,794,769,0
446713,415.45,794,767,0
446723,443.05,794,769,0
446733,475.99,794,767,0
446743,514.14,794,769,0
446753,554.42,794,767,0
446773,594.67,793,765,0
446776,632.35,793,768,0
446785,665.85,793,770,0
446795,693.88,793,767,0
446806,715.77,793,770,0
446815,731.14,793,767,0
446825,741.90,793,770,0
446835,749.43,793,767,0
446845,752.90,793,770,0
446855,751.52,793,767,0
446865,744.55,793,770,0
446875,731.27,793,767,0
446885,711.43,793,769,0
446895,684.94,793,766,0
446905,652.05,793,770,0
446915,614.79,793,767,0
446925,575.34,793,769,0
446935,535.47,793,766,0
446945,497.05,793,770,0
446955,461.25,793,767,0
446965,429.16,793,770,0
446976,401.43,793,766,0
446985,378.71,793,770,0
446995,361.06,793,767,0
447005,348.61,793,770,0
447015,341.06,793,767,0
447025,338.13,793,770,0
447035,339.16,793,767,0
447045,343.74,793,770,0
447055,350.93,793,766,0
447065,360.21,793,770,0
447075,370.56,793,767,0
447085,381.36,793,770,0
447095,391.75,793,766,0
447105,401.39,793,770,0
447115,409.50,793,767,0
447125,415.91,793,770,0
447135,420.05,793,767,0
447145,421.96,793,770,0
447155,421.55,793,767,0
447165,419.20,793,770,0
447175,414.94,793,767,0
447185,409.08,793,770,0
447195,401.94,793,767,0
447205,393.99,793,770,0
447215,385.51,793,766,0
447225,376.87,793,770,0
447235,368.25,793,767,0
447245,360.08,793,770,0
447255,352.38,793,766,0
447265,345.45,793,770,0
447276,339.32,793,767,0
447286,334.16,793,770,0
447296,329.92,793,766,0
447306,326.68,793,770,0
447316,324.29,793,767,0
447326,322.96,793,770,0
447336,322.42,793,766,0
447346,322.59,793,769,0
447356,323.44,793,767,0
447366,324.94,793,770,0
447376,326.93,793,766,0
447386,329.22,793,769,0
447396,331.81,793,767,0
447406,334.57,793,770,0
447416,337.53,793,766,0
447426,340.63,793,770,0
447436,344.21,793,767,0
447447,348.60,793,770,0
447457,354.64,793,766,0
447467,362.89,793,769,0
447477,374.58,793,767,0
447488,390.56,793,769,0
447497,411.78,793,765,0
447507,438.85,793,770,0
447517,471.93,793,767,0
447527,510.23,793,770,0
447537,550.92,793,772,0
447556,591.35,783,781,0
447559,629.56,783,785,0
447568,663.77,783,774,0
447578,692.42,783,783,0
447588,714.62,783,777,0
447598,730.25,783,783,0
447608,741.15,783,778,0
447618,748.73,783,783,0
447628,751.68,783,778,0
447638,749.89,783,783,0
447648,742.17,783,778,0
447659,728.45,783,783,0
447668,708.00,783,778,0
447678,681.38,783,783,0
447688,648.14,783,778,0
447698,611.46,783,783,0
447708,572.28,783,778,0
447718,533.45,783,783,0
447728,495.60,783,778,0
447738,460.75,783,783,0
447748,428.81,783,778,0
447758,401.70,783,783,0
447768,378.90,783,778,0
447778,361.32,783,783,0
447788,348.02,783,778,0
447798,339.87,783,783,0
447808,335.67,783,778,0
447818,335.98,783,783,0
447828,339.24,783,778,0
447838,345.47,783,783,0
447848,353.17,783,778,0
447858,362.59,783,783,0
447868,372.10,783,778,0
447878,382.06,783,783,0
447888,390.78,783,778,0
447898,398.60,783,783,0
447908,404.55,783,778,0
447918,409.40,783,783,0
447928,411.89,783,778,0
447938,412.83,783,783,0
447948,411.38,783,777,0
447959,408.52,783,783,0
447969,403.87,783,777,0
447979,398.21,783,783,0
447989,391.16,783,778,0
448000,383.65,783,783,0
448009,375.53,783,777,0
448019,367.57,783,783,0
448029,359.81,783,777,0
448039,352.67,783,783,0
448049,345.87,783,777,0
448059,339.87,783,783,0
448069,334.63,783,777,0
448079,330.50,783,783,0
448089,327.14,783,777,0
448099,324.82,783,783,0
448109,323.33,783,777,0
448119,323.11,783,783,0
448129,323.59,783,777,0
448139,325.13,783,783,0
448149,327.02,783,777,0
448159,329.41,783,783,0
448169,331.90,783,778,0
448179,334.76,783,783,0
448189,337.66,783,777,0
448199,341.23,783,783,0
448209,345.49,783,778,0
448219,351.30,783,783,0
448229,359.23,783,777,0
448239,370.47,783,783,0
448249,385.80,783,778,0
448259,406.35,783,783,0
448269,432.34,783,777,0
448279,464.25,783,783,0
448289,501.51,783,778,0
448300,541.85,783,783,0
448310,582.40,783,778,0
448329,621.06,773,777,0
448332,655.93,773,783,0
448342,685.78,773,783,0
448351,709.33,773,779,0
448361,726.33,773,783,0
448371,738.28,773,780,0
448381,746.64,773,783,0
448391,752.32,773,779,0
448401,753.85,773,783,0
448411,750.47,773,780,0
448421,740.77,773,783,0
448431,724.64,773,779,0
448441,701.35,773,783,0
448451,671.16,773,780,0
448461,634.21,773,783,0
448471,593.82,773,779,0
448481,551.44,773,783,0
448491,509.87,773,780,0
448501,469.92,773,783,0
448512,433.82,773,781,0
448521,402.03,773,783,0
448531,375.88,773,780,0
448541,354.66,773,783,0
448551,339.46,773,780,0
448561,329.46,773,783,0
448571,325.17,773,780,0
448581,325.07,773,783,0
448591,329.38,773,781,0
448601,336.47,773,783,0
448611,346.40,773,780,0
448621,357.29,773,783,0
448631,369.29,773,781,0
448641,380.60,773,783,0
448651,391.44,773,780,0
448661,400.26,773,783,0
448671,407.56,773,780,0
448681,412.23,773,783,0
448691,415.03,773,780,0
448701,414.89,773,783,0
448711,412.91,773,781,0
448721,408.48,773,783,0
448731,402.81,773,780,0
448741,395.28,773,783,0
448751,387.10,773,780,0
448761,377.77,773,783,0
448771,368.71,773,780,0
448781,359.37,773,783,0
448791,350.99,773,780,0
448801,342.76,773,783,0
448812,336.10,773,781,0
448822,329.90,773,783,0
448832,325.43,773,782,0
448842,321.44,773,783,0
448852,319.13,773,783,0
448862,317.25,773,783,0
448872,317.00,773,782,0
448882,316.83,773,784,0
448892,318.17,773,782,0
448902,319.44,773,783,0
448912,321.88,773,782,0
448922,323.89,773,783,0
448932,326.71,773,783,0
448942,328.94,773,783,0
448952,332.00,773,782,0
448962,334.40,773,783,0
448972,337.75,773,782,0
448983,341.08,773,782,0
448993,346.54,773,783,0
449003,353.45,773,782,0
449013,364.12,773,783,0
449024,378.01,773,781,0
449033,397.64,773,783,0
449043,422.30,773,782,0
449053,453.93,773,783,0
449063,490.63,773,782,0
449073,531.29,773,783,0
449083,572.30,773,782,0
449102,612.28,773,781,0
449105,648.45,773,780,0
449114,680.03,773,783,0
449124,704.97,773,781,0
449134,723.45,773,783,0
449144,736.34,773,780,0
449154,745.41,773,783,0
449164,751.72,773,781,0
449174,756.13,773,784,0
449184,756.05,773,780,0
449195,751.02,773,783,0
449204,739.44,773,781,0
449214,721.35,773,783,0
449224,695.36,773,780,0
449234,662.47,773,783,0
449244,622.56,773,781,0
449254,580.00,773,783,0
449264,535.52,773,780,0
449274,492.59,773,783,0
449284,451.53,773,781,0
449294,415.71,773,783,0
449304,384.21,773,780,0
449314,359.08,773,783,0
449324,338.91,773,781,0
449334,325.52,773,783,0
449344,317.01,773,780,0
449354,314.56,773,783,0
449364,315.85,773,780,0
449374,321.90,773,783,0
449384,330.03,773,780,0
449394,340.99,773,783,0
449404,352.26,773,780,0
449414,364.66,773,783,0
449424,375.69,773,780,0
449434,386.28,773,783,0
449444,394.25,773,780,0
449454,400.99,773,783,0
449464,404.68,773,781,0
449474,406.83,773,783,0
449484,405.90,773,780,0
449495,403.70,773,783,0
449505,398.82,773,779,0
449515,393.26,773,783,0
449525,385.64,773,779,0
449536,377.90,773,783,0
449545,368.98,773,779,0
449555,360.67,773,783,0
449565,351.81,773,779,0
449575,344.02,773,783,0
449585,336.09,773,779,0
449595,329.76,773,783,0
449605,323.88,773,778,0
449615,319.71,773,784,0
449625,315.94,773,779,0
449635,313.95,773,783,0
449645,312.42,773,778,0
449655,312.51,773,784,0
449665,312.66,773,779,0
449675,314.09,773,783,0
449685,315.30,773,779,0
449695,317.53,773,784,0
449705,319.30,773,778,0
449715,321.99,773,783,0
449725,324.10,773,778,0
449735,326.90,773,784,0
449745,329.20,773,778,0
449755,332.61,773,783,0
449765,336.03,773,779,0
449775,341.16,773,783,0
449785,347.50,773,778,0
449795,357.29,773,783,0
449805,370.28,773,779,0
449815,388.71,773,783,0
449825,412.11,773,778,0
449836,442.25,773,783,0
449846,477.87,773,778,0
449856,518.15,773,783,0
449866,559.68,773,778,0
449886,600.62,783,776,0
449889,638.23,783,779,0
449898,671.38,783,783,0
449908,698.26,783,778,0
449918,718.67,783,783,0
449928,733.00,783,778,0
449938,743.03,783,783,0
449948,749.88,783,778,0
449958,752.10,783,783,0
449968,749.07,783,777,0
449978,739.79,783,783,0
449988,723.57,783,778,0
449998,699.95,783,783,0
450008,669.20,783,777,0
450018,631.77,783,783,0
450028,590.39,783,778,0
450038,546.95,783,783,0
450049,503.72,783,778,0
450059,462.40,783,783,0
450069,424.83,783,780,0
450079,391.49,783,783,0
450089,363.40,783,780,0
450099,340.74,783,781,0
450109,324.57,783,775,0
450119,314.07,783,780,0
450129,310.02,783,768,0
450139,311.82,783,769,0
450149,318.94,783,767,0
450159,330.36,783,769,0
450169,345.04,783,767,0
450179,361.23,783,769,0
450189,378.26,783,767,0
450199,394.68,783,769,0
450209,408.88,783,770,0
450220,420.96,783,770,0
450230,430.01,783,768,0
450240,436.39,783,770,0
450250,439.70,783,770,0
450260,440.52,783,770,0
450270,438.48,783,771,0
450280,434.78,783,771,0
450290,428.80,783,772,0
450300,420.80,783,779,0
450310,411.43,783,777,0
450320,400.55,783,783,0
450330,389.07,783,781,0
450340,377.09,783,778,0
450350,365.79,783,774,0
450360,355.65,783,778,0
450370,347.83,783,768,0
450380,342.14,783,770,0
450391,339.10,783,767,0
450401,338.00,783,770,0
450411,338.85,783,767,0
450421,340.36,783,770,0
450432,342.31,783,767,0
450441,343.97,783,770,0
450451,344.84,783,767,0
450461,345.01,783,769,0
450471,344.24,783,767,0
450481,343.05,783,770,0
450491,341.32,783,767,0
450501,339.51,783,770,0
450511,337.69,783,771,0
450521,336.15,783,774,0
450531,335.21,783,767,0
450541,335.36,783,771,0
450551,336.58,783,774,0
450561,338.85,783,777,0
450571,343.27,783,779,0
450581,349.53,783,780,0
450591,359.66,783,782,0
450601,373.39,783,780,0
450611,392.34,783,782,0
450621,416.41,783,782,0
450631,447.23,783,783,0
450641,482.82,783,782,0
450651,523.20,783,783,0
450670,564.24,785,782,0
450673,604.63,785,783,0
450682,641.38,785,781,0
450692,673.80,785,783,0
450702,699.83,785,782,0
450712,719.77,785,784,0
450722,733.12,785,781,0
450732,741.06,785,783,0
450742,742.54,785,782,0
450752,737.92,785,783,0
450762,726.07,785,781,0
450772,707.49,785,783,0
450782,681.67,785,782,0
450792,650.01,785,783,0
450802,612.81,785,781,0
450812,573.52,785,783,0
450822,532.65,785,782,0
450832,493.24,785,783,0
450842,455.16,785,781,0
450852,420.78,785,783,0
450862,389.60,785,782,0
450872,363.71,785,783,0
450882,342.07,785,781,0
450892,326.28,785,783,0
450903,315.14,785,781,0
450913,309.87,785,783,0
450923,308.79,785,780,0
450933,312.58,785,783,0
450944,319.09,785,779,0
450953,328.92,785,782,0
450963,339.87,785,780,0
450973,352.26,785,783,0
450983,364.14,785,779,0
450993,376.01,785,783,0
451003,386.08,785,780,0
451013,395.27,785,783,0
451023,401.87,785,779,0
451033,407.10,785,783,0
451043,409.38,785,780,0
451053,410.08,785,783,0
451063,407.79,785,779,0
451073,404.04,785,783,0
451083,397.77,785,780,0
451093,390.68,785,783,0
451103,381.78,785,779,0
451113,372.89,785,783,0
451123,363.02,785,780,0
451133,353.97,785,783,0
451143,344.64,785,779,0
451153,336.47,785,783,0
451163,328.66,785,780,0
451173,322.63,785,783,0
451183,317.17,785,779,0
451193,313.56,785,783,0
451203,310.57,785,780,0
451213,309.62,785,783,0
451223,309.39,785,779,0
451233,310.69,785,783,0
451244,311.98,785,779,0
451254,314.35,785,783,0
451264,316.38,785,779,0
451274,319.18,785,783,0
451284,321.44,785,779,0
451294,324.35,785,783,0
451304,326.78,785,779,0
451314,329.97,785,783,0
451324,333.19,785,779,0
451334,337.98,785,783,0
451344,343.77,785,779,0
451354,352.24,785,783,0
451364,363.31,785,779,0
451374,378.69,785,783,0
451384,398.20,785,779,0
451394,423.42,785,783,0
451404,453.51,785,779,0
451415,488.93,785,783,0
451425,527.69,785,779,0
451435,567.73,785,783,0
451454,606.47,784,782,0
451458,642.46,784,784,0
451467,673.69,784,780,0
451477,699.58,784,783,0
451487,719.17,784,781,0
451497,731.24,784,783,0
451507,736.36,784,780,0
451517,734.54,784,783,0
451527,725.89,784,781,0
451537,710.11,784,783,0
451547,687.62,784,780,0
451557,658.46,784,783,0
451567,624.94,784,780,0
451577,588.18,784,783,0
451587,550.24,784,780,0
451597,512.50,784,783,0
451607,476.52,784,781,0
451617,442.94,784,783,0
451628,413.08,784,781,0
451638,387.00,784,783,0
451648,365.74,784,782,0
451658,348.89,784,783,0
451668,337.01,784,782,0
451678,329.51,784,783,0
451688,326.74,784,782,0
451698,327.63,784,783,0
451708,332.41,784,782,0
451718,339.49,784,783,0
451728,348.99,784,782,0
451738,359.19,784,783,0
451748,370.32,784,782,0
451758,380.72,784,783,0
451768,390.58,784,782,0
451778,398.46,784,783,0
451788,405.01,784,782,0
451799,409.03,784,783,0
451809,411.34,784,783,0
451819,410.98,784,783,0
451829,409.14,784,783,0
451840,405.03,784,783,0
451849,400.05,784,783,0
451859,393.39,784,783,0
451869,386.46,784,783,0
451879,378.56,784,783,0
451889,371.07,784,783,0
451899,362.99,784,783,0
451909,355.92,784,783,0
451919,348.74,784,783,0
451929,342.99,784,783,0
451939,337.47,784,783,0
451949,333.51,784,783,0
451959,329.89,784,783,0
451969,327.82,784,782,0
451979,326.12,784,783,0
451989,325.95,784,783,0
451999,325.97,784,783,0
452009,327.31,784,783,0
452019,328.67,784,783,0
452029,331.13,784,783,0
452039,333.45,784,783,0
452049,336.61,784,783,0
452059,339.51,784,783,0
452069,343.30,784,783,0
452079,347.20,784,783,0
452089,352.62,784,782,0
452099,359.04,784,783,0
452109,368.24,784,783,0
452119,379.78,784,783,0
452129,395.70,784,783,0
452140,415.46,784,783,0
452150,441.13,784,768,0
452160,472.33,784,770,0
452170,508.87,784,767,0
452180,547.87,784,770,0
452190,587.55,784,767,0
452209,625.19,755,765,0
452212,659.89,755,767,0
452221,689.19,755,769,0
452231,712.11,755,767,0
452241,728.62,755,770,0
452251,738.85,755,767,0
452261,742.75,755,769,0
452271,740.55,755,767,0
452281,731.90,755,769,0
452291,716.50,755,766,0
452301,694.19,755,769,0
452311,665.25,755,766,0
452321,631.45,755,769,0
452331,594.84,755,766,0
452341,556.57,755,769,0
452352,518.30,755,767,0
452361,481.53,755,769,0
452371,447.34,755,766,0
452381,416.21,755,769,0
452391,388.55,755,767,0
452401,364.51,755,769,0
452411,344.73,755,767,0
452421,329.12,755,769,0
452431,317.82,755,767,0
452441,310.54,755,769,0
452451,307.29,755,766,0
452461,307.63,755,769,0
452471,311.22,755,767,0
452481,317.15,755,769,0
452491,324.91,755,766,0
452501,333.63,755,769,0
452511,342.92,755,767,0
452521,351.98,755,769,0
452531,360.43,755,767,0
452541,367.67,755,769,0
452551,373.64,755,767,0
452561,377.99,755,769,0
452571,380.74,755,766,0
452581,381.59,755,769,0
452591,380.73,755,767,0
452601,378.11,755,769,0
452611,374.30,755,767,0
452621,369.37,755,769,0
452631,363.77,755,767,0
452641,357.41,755,769,0
452652,350.95,755,767,0
452662,344.45,755,768,0
452672,338.36,755,767,0
452682,332.46,755,768,0
452692,327.10,755,767,0
452702,322.18,755,768,0
452712,318.23,755,767,0
452722,314.94,755,768,0
452732,312.56,755,767,0
452742,310.85,755,768,0
452752,310.12,755,767,0
452762,309.70,755,768,0
452772,309.92,755,767,0
452782,310.37,755,768,0
452792,311.33,755,768,0
452802,312.35,755,768,0
452812,313.70,755,768,0
452823,314.73,755,768,0
452833,316.23,755,768,0
452843,317.83,755,768,0
452853,320.28,755,768,0
452864,323.58,755,767,0
452873,328.94,755,767,0
452883,336.67,755,768,0
452893,348.30,755,768,0
452903,364.02,755,767,0
452913,384.89,755,767,0
452923,410.72,755,768,0
452933,441.79,755,768,0
452943,476.91,755,768,0
452953,515.12,755,767,0
452972,554.39,763,766,0
452975,592.03,763,770,0
452984,627.08,763,767,0
452994,657.91,763,768,0
453004,682.49,763,768,0
453014,700.00,763,768,0
453024,709.30,763,767,0
453035,710.58,763,768,0
453044,705.01,763,768,0
453054,692.11,763,768,0
453064,672.23,763,767,0
453074,647.09,763,768,0
453084,617.66,763,768,0
453094,586.05,763,768,0
453104,552.78,763,767,0
453114,519.59,763,768,0
453124,487.10,763,768,0
453134,456.90,763,768,0
453144,429.03,763,767,0
453154,404.33,763,768,0
453164,382.55,763,768,0
453174,364.73,763,768,0
453184,350.24,763,767,0
453194,339.54,763,768,0
453204,332.05,763,767,0
453214,328.35,763,768,0
453224,327.64,763,767,0
453234,330.11,763,768,0
453244,334.58,763,767,0
453254,341.30,763,768,0
453264,349.31,763,767,0
453274,358.43,763,768,0
453284,367.30,763,767,0
453294,376.08,763,768,0
453304,383.64,763,767,0
453314,390.18,763,768,0
453324,394.75,763,767,0
453335,397.74,763,769,0
453345,398.63,763,767,0
453355,398.06,763,769,0
453365,395.38,763,767,0
453376,391.45,763,769,0
453385,386.17,763,767,0
453395,380.25,763,768,0
453405,373.49,763,767,0
453415,366.70,763,769,0
453425,359.76,763,767,0
453435,353.58,763,768,0
453445,347.70,763,767,0
453455,342.78,763,769,0
453465,338.30,763,767,0
453475,334.78,763,768,0
453485,331.68,763,767,0
453495,329.42,763,769,0
453505,327.36,763,767,0
453515,326.05,763,768,0
453525,324.84,763,767,0
453535,324.33,763,769,0
453545,324.02,763,766,0
453555,324.40,763,768,0
453565,325.01,763,766,0
453575,326.50,763,769,0
453585,328.62,763,766,0
453595,332.12,763,768,0
453605,336.93,763,767,0
453615,344.28,763,769,0
453625,354.44,763,766,0
453635,368.54,763,768,0
453645,386.72,763,767,0
453655,409.99,763,769,0
453665,437.89,763,766,0
453676,470.37,763,769,0
453686,505.83,763,766,0
453696,543.34,763,769,0
453706,580.65,763,766,0
453726,616.24,753,764,0
453729,646.64,753,768,0
453738,671.65,753,769,0
453748,689.67,753,766,0
453758,700.14,753,769,0
453768,702.67,753,766,0
453778,697.63,753,769,0
453788,685.27,753,766,0
453798,667.61,753,769,0
453808,644.54,753,766,0
453818,617.42,753,769,0
453828,587.60,753,766,0
453838,556.09,753,769,0
453848,524.18,753,766,0
453858,492.97,753,769,0
453868,463.32,753,766,0
453878,435.92,753,769,0
453889,411.39,753,766,0
453899,390.06,753,769,0
453909,372.34,753,766,0
453919,358.27,753,769,0
453929,348.07,753,766,0
453939,341.49,753,769,0
453949,338.60,753,766,0
453959,338.98,753,769,0
453969,342.41,753,766,0
453979,348.12,753,769,0
453989,355.50,753,766,0
453999,363.92,753,769,0
454009,373.03,753,766,0
454019,382.02,753,769,0
454029,390.59,753,766,0
454039,397.95,753,769,0
454049,404.05,753,766,0
454060,408.71,753,769,0
454070,411.75,753,766,0
454080,412.94,753,768,0
454090,412.53,753,767,0
454100,410.44,753,768,0
454110,407.05,753,767,0
454120,402.28,753,768,0
454130,396.71,753,767,0
454140,390.28,753,768,0
454150,384.03,753,767,0
454160,377.50,753,768,0
454170,371.27,753,767,0
454180,365.14,753,768,0
454190,359.74,753,767,0
454200,354.72,753,769,0
454210,350.56,753,767,0
454220,346.62,753,768,0
454231,343.61,753,767,0
454241,341.02,753,768,0
454251,339.30,753,767,0
454261,338.10,753,768,0
454272,337.64,753,767,0
454281,337.53,753,768,0
454291,338.02,753,767,0
454301,338.78,753,768,0
454311,340.52,753,767,0
454321,342.98,753,768,0
454331,346.93,753,767,0
454341,352.61,753,768,0
454351,361.34,753,767,0
454361,373.24,753,768,0
454371,389.58,753,767,0
454381,410.62,753,768,0
454391,437.09,753,768,0
454401,468.01,753,768,0
454411,503.10,753,767,0
454421,540.57,753,768,0
454431,579.06,753,768,0
454451,615.98,725,767,0
454454,649.55,725,769,0
454463,678.40,725,767,0
454473,701.59,725,769,0
454483,717.40,725,767,0
454493,725.77,725,768,0
454503,726.31,725,767,0
454513,719.79,725,769,0
454523,706.31,725,767,0
454533,686.54,725,768,0
454543,661.10,725,767,0
454553,631.75,725,769,0
454563,599.34,725,767,0
454573,565.90,725,768,0
454583,532.11,725,767,0
454593,499.59,725,769,0
454603,468.56,725,767,0
454614,440.45,725,768,0
454623,415.41,725,767,0
454633,394.12,725,769,0
454643,376.21,725,766,0
454653,362.65,725,768,0
454663,352.98,725,767,0
454673,347.59,725,769,0
454683,345.70,725,767,0
454693,347.59,725,768,0
454703,352.17,725,767,0
454713,359.36,725,769,0
454723,367.78,725,767,0
454733,377.23,725,768,0
454743,386.63,725,767,0
454753,395.79,725,769,0
454763,403.57,725,767,0
454773,410.17,725,768,0
454784,414.87,725,767,0
454793,418.13,725,769,0
454803,419.16,725,767,0
454813,418.47,725,769,0
454823,415.84,725,767,0
454833,412.12,725,769,0
454843,407.11,725,767,0
454853,401.51,725,769,0
454863,394.93,725,767,0
454873,388.48,725,769,0
454883,381.86,725,767,0
454893,375.65,725,769,0
454903,369.41,725,767,0
454913,363.67,725,769,0
454923,358.24,725,767,0
454933,353.67,725,769,0
454943,349.48,725,767,0
454953,346.17,725,769,0
454963,343.33,725,767,0
454973,341.39,725,769,0
454983,339.90,725,767,0
454993,339.16,725,769,0
455003,338.64,725,767,0
455013,338.83,725,769,0
455023,339.05,725,766,0
455033,339.90,725,769,0
455043,340.83,725,767,0
455053,342.55,725,769,0
455063,344.96,725,767,0
455073,348.91,725,769,0
455084,354.51,725,766,0
455094,363.10,725,769,0
455104,374.98,725,766,0
455114,391.53,725,769,0
455124,413.02,725,766,0
455134,439.92,725,769,0
455144,471.83,725,766,0
455154,508.31,725,769,0
455164,547.48,725,767,0
455174,586.89,725,770,0
455193,624.21,743,768,0
455196,657.83,743,771,0
455205,686.51,743,766,0
455215,709.63,743,769,0
455225,726.84,743,766,0
455235,737.82,743,769,0
455245,742.67,743,766,0
455255,741.70,743,769,0
455265,734.50,743,766,0
455275,721.07,743,770,0
455285,701.16,743,766,0
455296,674.97,743,769,0
455305,643.74,743,766,0
455315,609.49,743,769,0
455325,573.34,743,766,0
455335,536.98,743,769,0
455345,501.67,743,766,0
455355,468.73,743,769,0
455365,438.72,743,766,0
455375,412.45,743,769,0
455385,390.11,743,766,0
455395,372.21,743,769,0
455405,358.90,743,766,0
455415,350.10,743,769,0
455425,345.27,743,766,0
455435,344.42,743,769,0
455445,346.91,743,766,0
455455,352.46,743,769,0
455465,360.25,743,765,0
455475,369.65,743,769,0
455485,379.78,743,766,0
455495,390.35,743,769,0
455505,400.57,743,766,0
455515,410.09,743,769,0
455525,417.99,743,766,0
455535,424.16,743,769,0
455545,428.19,743,766,0
455555,430.19,743,769,0
455565,430.05,743,766,0
455575,427.97,743,769,0
455585,424.04,743,766,0
455596,418.76,743,769,0
455606,412.36,743,766,0
455616,405.14,743,769,0
455626,397.30,743,766,0
455636,389.15,743,769,0
455646,380.88,743,766,0
455656,372.81,743,769,0
455666,365.24,743,766,0
455676,358.40,743,769,0
455686,352.54,743,766,0
455696,347.79,743,770,0
455706,344.12,743,766,0
455716,341.52,743,769,0
455726,339.90,743,766,0
455736,338.99,743,769,0
455746,338.61,743,766,0
455756,338.60,743,769,0
455767,338.97,743,766,0
455777,339.58,743,769,0
455787,340.61,743,766,0
455797,341.97,743,769,0
455808,344.21,743,767,0
455817,347.53,743,769,0
455827,352.77,743,766,0
455837,360.43,743,769,0
455847,371.83,743,767,0
455857,387.22,743,769,0
455867,407.68,743,767,0
455877,433.41,743,769,0
455887,464.48,743,767,0
455897,499.87,743,770,0
455907,538.48,743,767,0
455917,577.59,743,769,0
455927,615.39,743,767,0
455946,649.86,753,765,0
455949,679.47,753,768,0
455958,703.63,753,769,0
455968,721.40,753,768,0
455979,731.61,753,769,0
455988,734.90,753,767,0
455998,731.41,753,768,0
456008,721.47,753,768,0
456018,705.05,753,769,0
456028,682.45,753,767,0
456038,654.33,753,768,0
456048,622.69,753,767,0
456058,588.49,753,768,0
456068,553.67,753,767,0
456078,519.06,753,768,0
456088,486.13,753,767,0
456098,455.19,753,768,0
456108,427.57,753,767,0
456118,403.32,753,768,0
456128,383.12,753,767,0
456138,366.63,753,768,0
456148,354.40,753,768,0
456158,346.09,753,768,0
456168,341.86,753,767,0
456178,340.96,753,768,0
456188,343.42,753,768,0
456198,348.26,753,768,0
456208,355.38,753,767,0
456218,363.63,753,768,0
456228,372.78,753,768,0
456238,381.80,753,768,0
456248,390.61,753,767,0
456258,398.27,753,768,0
456268,404.96,753,768,0
456279,409.81,753,768,0
456289,413.21,753,768,0
456299,414.61,753,768,0
456309,414.51,753,768,0
456320,412.51,753,767,0
456329,409.32,753,768,0
456339,404.46,753,768,0
456349,398.84,753,768,0
456359,392.16,753,768,0
456369,385.17,753,768,0
456379,377.75,753,768,0
456389,370.58,753,768,0
456399,363.25,753,767,0
456409,356.79,753,768,0
456419,350.68,753,768,0
456429,345.80,753,768,0
456439,341.45,753,768,0
456449,338.19,753,768,0
456459,335.56,753,768,0
456469,334.11,753,768,0
456479,332.96,753,768,0
456489,332.71,753,768,0
456499,332.59,753,768,0
456509,333.22,753,768,0
456519,334.01,753,768,0
456529,335.60,753,768,0
456539,337.39,753,768,0
456549,340.27,753,768,0
456559,344.09,753,768,0
456569,349.81,753,768,0
456579,357.66,753,768,0
456589,368.86,753,768,0
456599,383.65,753,768,0
456609,403.51,753,768,0
456620,428.30,753,768,0
456630,458.55,753,769,0
456640,493.10,753,767,0
456650,531.39,753,769,0
456660,570.74,753,767,0
456670,609.13,753,769,0
456689,644.28,743,768,0
456692,675.05,743,769,0
456701,700.07,743,767,0
456711,718.65,743,769,0
456721,729.29,743,767,0
456731,732.81,743,769,0
456741,729.26,743,767,0
456751,719.41,743,769,0
456761,703.00,743,767,0
456771,680.46,743,769,0
456781,652.55,743,767,0
456791,621.36,743,769,0
456801,587.74,743,767,0
456811,553.44,743,769,0
456821,518.98,743,767,0
456832,486.07,743,770,0
456841,455.41,743,767,0
456851,428.07,743,769,0
456861,403.88,743,767,0
456871,383.47,743,769,0
456881,366.79,743,767,0
456891,354.51,743,769,0
456901,346.08,743,767,0
456911,341.77,743,770,0
456921,340.77,743,767,0
456931,343.24,743,769,0
456941,348.44,743,767,0
456951,356.11,743,770,0
456961,364.95,743,767,0
456971,374.86,743,769,0
456981,384.68,743,767,0
456991,394.20,743,770,0
457001,402.50,743,767,0
457011,409.46,743,769,0
457021,414.38,743,767,0
457031,417.61,743,770,0
457041,418.54,743,767,0
457051,417.69,743,769,0
457061,414.74,743,767,0
457071,410.28,743,769,0
457081,404.24,743,767,0
457091,397.65,743,769,0
457101,390.26,743,767,0
457111,382.85,743,769,0
457121,375.18,743,767,0
457132,368.10,743,769,0
457142,361.43,743,767,0
457152,355.64,743,770,0
457162,350.26,743,767,0
457172,345.81,743,769,0
457182,341.97,743,767,0
457192,339.11,743,770,0
457202,336.85,743,767,0
457212,335.44,743,769,0
457222,334.62,743,767,0
457232,334.65,743,770,0
457242,335.10,743,767,0
457252,336.10,743,769,0
457262,337.40,743,767,0
457272,339.21,743,770,0
457282,341.24,743,767,0
457292,343.83,743,769,0
457303,347.01,743,767,0
457313,351.59,743,769,0
457323,358.10,743,766,0
457333,367.46,743,769,0
457344,380.35,743,766,0
457353,397.81,743,770,0
457363,420.33,743,767,0
457373,448.26,743,770,0
457383,481.09,743,766,0
457393,517.97,743,770,0
457403,556.98,743,767,0
457413,595.64,743,770,0
457433,631.96,743,768,0
457436,664.37,743,770,0
457445,691.69,743,767,0
457455,713.34,743,769,0
457465,727.98,743,767,0
457475,735.44,743,770,0
457485,736.34,743,767,0
457495,730.54,743,769,0
457505,718.29,743,767,0
457516,699.47,743,769,0
457526,674.48,743,767,0
457536,644.46,743,768,0
457546,611.24,743,768,0
457556,575.89,743,769,0
457566,540.35,743,768,0
457576,505.41,743,769,0
457586,472.54,743,768,0
457596,442.12,743,769,0
457606,415.43,743,768,0
457616,392.29,743,769,0
457626,373.47,743,768,0
457636,358.54,743,769,0
457646,347.88,743,767,0
457656,340.97,743,769,0
457666,338.07,743,767,0
457676,338.39,743,769,0
457687,341.83,743,768,0
457697,347.41,743,768,0
457707,354.83,743,768,0
457717,363.07,743,768,0
457728,371.92,743,768,0
457737,380.39,743,768,0
457747,388.24,743,768,0
457757,394.55,743,768,0
457767,399.62,743,768,0
457777,402.95,743,768,0
457787,404.93,743,768,0
457797,404.95,743,768,0
457807,403.51,743,768,0
457817,400.27,743,768,0
457827,396.16,743,768,0
457837,390.67,743,768,0
457847,384.55,743,768,0
457857,377.66,743,768,0
457867,370.73,743,768,0
457877,363.57,743,768,0
457887,356.93,743,768,0
457897,350.44,743,768,0
457907,344.73,743,768,0
457917,339.33,743,768,0
457927,334.77,743,768,0
457937,330.77,743,768,0
457947,327.92,743,767,0
457957,325.63,743,768,0
457967,324.33,743,768,0
457977,323.42,743,768,0
457987,323.55,743,767,0
457997,324.16,743,768,0
458007,325.52,743,768,0
458017,326.95,743,768,0
458028,329.11,743,768,0
458038,331.39,743,768,0
458048,334.66,743,769,0
458058,338.58,743,767,0
458068,344.15,743,769,0
458078,351.47,743,768,0
458088,361.83,743,769,0
458098,375.51,743,767,0
458108,393.96,743,769,0
458118,416.94,743,768,0
458128,445.24,743,769,0
458138,477.91,743,767,0
458148,514.58,743,769,0
458158,553.19,743,768,0
458177,591.79,745,767,0
458180,627.68,745,768,0
458189,660.09,745,769,0
458199,687.15,745,767,0
458209,707.89,745,769,0
458219,720.87,745,767,0
458229,726.31,745,769,0
458240,724.29,745,767,0
458249,716.10,745,769,0
458259,701.28,745,767,0
458269,680.71,745,769,0
458279,654.91,745,767,0
458289,625.88,745,769,0
458299,594.42,745,767,0
458309,562.28,745,769,0
458319,529.88,745,767,0
458329,498.84,745,769,0
458339,469.53,745,767,0
458349,443.27,745,769,0
458359,420.01,745,767,0
458369,400.46,745,769,0
458379,384.47,745,767,0
458389,372.54,745,769,0
458399,364.15,745,767,0
458409,359.69,745,770,0
458419,358.37,745,767,0
458429,360.23,745,769,0
458439,364.40,745,767,0
458449,370.80,745,770,0
458459,378.19,745,767,0
458469,386.40,745,769,0
458479,394.47,745,767,0
458489,402.30,745,770,0
458499,408.98,745,767,0
458509,414.60,745,769,0
458519,418.49,745,767,0
458529,421.00,745,770,0
458540,421.77,745,767,0
458550,421.07,745,770,0
458560,418.69,745,767,0
458570,415.10,745,770,0
458580,410.23,745,767,0
458590,404.59,745,770,0
458600,398.11,745,767,0
458610,391.39,745,770,0
458620,384.37,745,767,0
458630,377.70,745,770,0
458640,371.24,745,767,0
458650,365.42,745,770,0
458660,360.07,745,767,0
458670,355.68,745,770,0
458680,351.92,745,767,0
458690,349.11,745,770,0
458700,346.94,745,767,0
458711,345.58,745,770,0
458721,344.64,745,767,0
458731,344.27,745,770,0
458741,344.24,745,766,0
458752,344.59,745,770,0
458761,345.27,745,767,0
458771,346.26,745,770,0
458781,347.47,745,767,0
458791,348.91,745,770,0
458801,350.53,745,767,0
458811,352.34,745,770,0
458821,354.47,745,767,0
458831,357.03,745,770,0
458841,360.36,745,766,0
458851,365.01,745,770,0
458861,371.65,745,766,0
458871,381.14,745,770,0
458881,393.91,745,766,0
458891,411.00,745,770,0
458901,432.64,745,767,0
458911,458.85,745,770,0
458921,488.85,745,766,0
458931,521.55,745,770,0
458950,555.33,773,769,0
458953,587.72,773,771,0
458962,617.72,773,767,0
458972,643.69,773,770,0
458982,664.14,773,767,0
458992,678.03,773,770,0
459002,684.92,773,766,0
459012,684.86,773,770,0
459022,679.16,773,767,0
459032,667.11,773,769,0
459042,649.55,773,766,0
459052,627.66,773,770,0
459062,602.60,773,767,0
459072,575.51,773,770,0
459082,547.41,773,766,0
459092,519.39,773,769,0
459102,492.44,773,767,0
459112,467.07,773,769,0
459122,443.65,773,766,0
459132,422.84,773,769,0
459142,405.02,773,767,0
459152,390.27,773,770,0
459162,378.70,773,766,0
459172,370.18,773,769,0
459182,365.11,773,767,0
459192,363.23,773,769,0
459202,364.28,773,767,0
459212,367.62,773,770,0
459223,373.01,773,767,0
459233,379.56,773,769,0
459243,387.07,773,767,0
459253,394.46,773,769,0
459264,401.61,773,768,0
459273,407.85,773,769,0
459283,413.13,773,767,0
459293,416.86,773,769,0
459303,419.22,773,767,0
459313,419.79,773,769,0
459323,419.04,773,767,0
459333,416.71,773,769,0
459343,413.29,773,767,0
459353,408.79,773,769,0
459363,403.71,773,767,0
459373,398.01,773,769,0
459383,392.26,773,768,0
459393,386.36,773,769,0
459403,380.81,773,767,0
459413,375.34,773,769,0
459423,370.35,773,768,0
459433,365.62,773,769,0
459443,361.57,773,767,0
459453,357.89,773,769,0
459463,354.92,773,767,0
459473,352.29,773,769,0
459483,350.32,773,767,0
459493,348.59,773,769,0
459503,347.43,773,768,0
459513,346.49,773,769,0
459523,346.08,773,767,0
459533,345.84,773,769,0
459543,346.19,773,767,0
459553,346.82,773,769,0
459564,348.03,773,768,0
459574,349.35,773,768,0
459584,351.22,773,768,0
459594,353.38,773,768,0
459604,356.48,773,768,0
459614,360.28,773,768,0
459624,365.60,773,768,0
459634,372.45,773,768,0
459644,382.13,773,768,0
459654,394.39,773,768,0
459664,410.26,773,768,0
459674,429.42,773,768,0
459684,452.14,773,768,0
459694,477.25,773,768,0
459704,504.26,773,768,0
459714,531.31,773,769,0
459734,557.70,783,767,0
459737,580.29,783,767,0
459746,599.53,783,769,0
459756,613.52,783,767,0
459766,622.06,783,769,0
459777,624.36,783,767,0
459787,621.08,783,769,0
459797,612.06,783,767,0
459807,599.44,783,769,0
459817,582.16,783,766,0
459827,562.27,783,769,0
459837,540.29,783,767,0
459847,517.62,783,769,0
459857,494.50,783,766,0
459867,472.41,783,769,0
459877,451.37,783,767,0
459887,432.40,783,769,0
459897,415.18,783,766,0
459907,400.43,783,769,0
459917,387.91,783,767,0
459927,378.17,783,769,0
459937,370.53,783,766,0
459948,365.57,783,769,0
459958,362.66,783,767,0
459968,361.95,783,769,0
459978,362.78,783,766,0
459988,365.76,783,770,0
459998,369.77,783,767,0
460008,374.86,783,769,0
460018,380.04,783,766,0
460028,385.51,783,770,0
460038,390.67,783,767,0
460048,395.66,783,769,0
460058,399.40,783,766,0
460068,402.41,783,770,0
460078,404.39,783,767,0
460088,405.56,783,769,0
460098,405.43,783,766,0
460108,404.32,783,770,0
460119,402.04,783,767,0
460129,398.94,783,770,0
460139,394.97,783,766,0
460149,390.39,783,770,0
460160,385.43,783,766,0
460169,380.46,783,769,0
460179,375.35,783,766,0
460189,370.49,783,770,0
460199,365.93,783,766,0
460209,361.96,783,770,0
460219,358.42,783,766,0
460229,355.46,783,770,0
460239,353.05,783,766,0
460249,351.49,783,770,0
460259,350.45,783,766,0
460269,349.88,783,770,0
460279,349.62,783,766,0
460289,349.86,783,770,0
460299,350.37,783,766,0
460309,351.21,783,770,0
460319,352.17,783,766,0
460329,353.23,783,770,0
460339,354.41,783,767,0
460349,355.66,783,770,0
460359,356.79,783,766,0
460369,357.88,783,770,0
460379,358.82,783,767,0
460389,359.64,783,770,0
460399,360.44,783,766,0
460409,361.29,783,770,0
460419,362.32,783,766,0
460429,364.15,783,770,0
460439,366.98,783,766,0
460449,371.53,783,770,0
460460,378.35,783,766,0
460470,387.98,783,769,0
460480,400.84,783,767,0
460490,417.52,783,770,0
460500,437.89,783,767,0
460519,461.49,786,765,0
460522,486.38,786,768,0
460531,512.96,786,769,0
460541,539.93,786,767,0
460551,565.67,786,769,0
460561,588.52,786,767,0
460571,606.97,786,769,0
460581,620.35,786,767,0
460591,629.24,786,769,0
460601,631.91,786,767,0
460611,628.47,786,769,0
460621,619.84,786,767,0
460631,606.77,786,769,0
460641,590.26,786,767,0
460651,571.02,786,769,0
460661,550.14,786,767,0
460672,528.37,786,769,0
460681,506.96,786,767,0
460691,486.19,786,769,0
460701,466.63,786,767,0
460711,448.66,786,768,0
460721,432.94,786,767,0
460731,419.29,786,769,0
460741,408.19,786,767,0
460751,399.22,786,768,0
460761,392.72,786,767,0
460771,388.44,786,769,0
460781,386.59,786,767,0
460791,386.50,786,768,0
460801,388.36,786,767,0
460811,391.55,786,769,0
460821,396.02,786,767,0
460831,400.98,786,768,0
460841,406.35,786,767,0
460851,411.47,786,769,0
460861,416.30,786,767,0
460871,420.24,786,768,0
460881,423.30,786,768,0
460891,425.14,786,769,0
460901,425.82,786,767,0
460911,425.11,786,768,0
460921,423.36,786,767,0
460931,420.55,786,769,0
460941,417.21,786,767,0
460951,413.04,786,769,0
460961,408.53,786,767,0
460972,403.61,786,769,0
460982,398.84,786,768,0
460992,393.79,786,768,0
461002,389.05,786,768,0
461012,384.19,786,768,0
461022,380.02,786,768,0
461032,376.16,786,768,0
461042,373.07,786,768,0
461052,370.43,786,768,0
461062,368.89,786,768,0
461072,367.81,786,768,0
461082,367.57,786,768,0
461092,367.48,786,768,0
461102,367.89,786,768,0
461112,368.35,786,768,0
461122,369.19,786,768,0
461132,369.73,786,768,0
461143,370.50,786,768,0
461153,370.91,786,768,0
461163,371.49,786,768,0
461173,371.73,786,768,0
461184,372.15,786,769,0
461193,372.15,786,768,0
461203,372.32,786,768,0
461213,372.10,786,768,0
461223,372.37,786,769,0
461233,372.64,786,768,0
461243,373.86,786,768,0
461253,375.96,786,768,0
461263,380.13,786,769,0
461273,386.31,786,768,0
461283,395.69,786,768,0
461293,408.17,786,768,0
461303,424.74,786,769,0
461313,444.75,786,768,0
461323,468.40,786,768,0
461342,494.42,823,767,0
461345,521.21,823,770,0
461355,548.32,823,767,0
461364,574.54,823,769,0
461374,598.03,823,767,0
461384,618.17,823,769,0
461394,633.16,823,767,0
461404,642.88,823,769,0
461414,647.63,823,767,0
461424,646.71,823,769,0
461434,640.07,823,767,0
461444,628.86,823,769,0
461454,613.35,823,767,0
461464,594.90,823,769,0
461474,573.76,823,767,0
461484,551.72,823,769,0
461494,528.92,823,767,0
461504,506.70,823,769,0
461514,485.06,823,767,0
461524,465.07,823,769,0
461534,446.92,823,767,0
461544,431.39,823,769,0
461554,417.90,823,767,0
461564,407.26,823,769,0
461574,399.17,823,767,0
461584,394.02,823,769,0
461594,391.18,823,767,0
461604,390.83,823,769,0
461614,392.34,823,767,0
461624,395.88,823,769,0
461634,400.42,823,767,0
461644,405.99,823,769,0
461655,411.61,823,767,0
461665,417.43,823,770,0
461675,422.57,823,767,0
461685,427.24,823,769,0
461696,430.73,823,767,0
461705,433.34,823,770,0
461715,434.52,823,767,0
461725,434.75,823,769,0
461735,433.67,823,767,0
461745,431.71,823,769,0
461755,428.63,823,767,0
461765,425.01,823,769,0
461775,420.64,823,767,0
461785,415.94,823,770,0
461795,410.78,823,767,0
461805,405.66,823,769,0
461815,400.40,823,767,0
461825,395.52,823,770,0
461835,390.57,823,767,0
461845,386.24,823,770,0
461855,382.27,823,767,0
461865,379.06,823,770,0
461875,376.17,823,767,0
461885,374.06,823,770,0
461895,372.37,823,767,0
461905,371.53,823,770,0
461915,370.82,823,767,0
461925,370.61,823,770,0
461935,370.52,823,767,0
461945,370.79,823,770,0
461955,371.07,823,767,0
461965,371.52,823,770,0
461975,371.79,823,767,0
461985,372.28,823,770,0
461996,372.63,823,767,0
462006,373.21,823,769,0
462016,373.83,823,767,0
462026,374.95,823,770,0
462036,376.68,823,767,0
462046,379.69,823,770,0
462056,384.07,823,767,0
462066,390.86,823,770,0
462076,400.38,823,767,0
462086,413.42,823,770,0
462096,430.22,823,767,0
462106,451.03,823,770,0
462116,475.28,823,767,0
462126,502.45,823,770,0
462145,530.99,803,768,0
462148,558.98,803,771,0
462157,586.03,803,767,0
462167,610.58,803,770,0
462177,630.97,803,766,0
462187,646.24,803,770,0
462197,655.55,803,766,0
462208,658.82,803,769,0
462217,656.94,803,766,0
462227,649.16,803,770,0
462237,636.13,803,766,0
462247,618.90,803,769,0
462257,598.66,803,766,0
462267,576.39,803,770,0
462277,553.13,803,766,0
462287,529.61,803,769,0
462297,506.62,803,766,0
462307,484.88,803,770,0
462317,464.82,803,766,0
462327,446.79,803,769,0
462337,431.12,803,766,0
462347,417.93,803,770,0
462357,407.36,803,766,0
462367,399.41,803,769,0
462377,394.15,803,766,0
462387,391.36,803,770,0
462397,390.87,803,766,0
462407,392.49,803,769,0
462417,395.99,803,766,0
462427,400.96,803,770,0
462437,406.85,803,766,0
462447,413.15,803,769,0
462457,419.58,803,766,0
462467,425.70,803,770,0
462477,431.15,803,766,0
462487,435.43,803,770,0
462497,438.35,803,766,0
462508,440.04,803,769,0
462518,440.42,803,767,0
462528,439.30,803,769,0
462538,436.77,803,767,0
462548,433.11,803,769,0
462558,428.75,803,767,0
462568,423.55,803,769,0
462578,417.86,803,767,0
462588,411.69,803,769,0
462598,405.69,803,767,0
462608,399.87,803,769,0
462618,394.47,803,767,0
462628,389.27,803,769,0
462638,384.90,803,767,0
462648,380.99,803,769,0
462658,377.82,803,767,0
462668,375.13,803,769,0
462679,373.21,803,767,0
462689,371.73,803,769,0
462699,371.13,803,768,0
462709,370.92,803,769,0
462720,371.28,803,768,0
462729,372.01,803,769,0
462739,373.25,803,768,0
462749,374.46,803,769,0
462759,375.87,803,768,0
462769,376.94,803,770,0
462779,377.90,803,767,0
462789,378.31,803,768,0
462799,378.86,803,769,0
462809,379.42,803,769,0
462819,381.05,803,770,0
462829,383.86,803,770,0
462839,389.00,803,768,0
462849,396.59,803,770,0
462859,408.03,803,769,0
462869,423.06,803,769,0
462879,442.29,803,771,0
462889,465.00,803,770,0
462899,490.84,803,769,0
462909,518.23,803,769,0
462928,546.53,783,768,0
462931,573.20,783,771,0
462940,598.90,783,769,0
462950,621.22,783,769,0
462960,639.28,783,770,0
462970,651.97,783,769,0
462980,659.69,783,769,0
462990,662.01,783,769,0
463000,660.04,783,769,0
463010,651.97,783,769,0
463020,639.59,783,770,0
463030,622.91,783,769,0
463040,603.40,783,768,0
463050,581.08,783,769,0
463060,557.70,783,769,0
463070,533.57,783,768,0
463080,510.26,783,769,0
463090,487.68,783,769,0
463100,467.42,783,770,0
463110,449.17,783,769,0
463120,433.77,783,769,0
463130,420.51,783,769,0
463140,410.12,783,769,0
463150,401.90,783,769,0
463160,396.44,783,770,0
463170,393.05,783,769,0
463180,392.35,783,769,0
463191,393.32,783,769,0
463201,396.22,783,770,0
463211,400.06,783,768,0
463221,404.97,783,769,0
463232,409.95,783,767,0
463241,415.06,783,770,0
463251,419.03,783,768,0
463261,422.45,783,770,0
463271,424.41,783,766,0
463281,425.58,783,769,0
463291,425.10,783,768,0
463301,423.70,783,769,0
463311,420.70,783,767,0
463321,417.06,783,769,0
463331,412.12,783,768,0
463341,406.64,783,769,0
463351,400.10,783,767,0
463361,393.69,783,769,0
463371,387.05,783,768,0
463381,380.99,783,769,0
463391,374.87,783,767,0
463401,369.51,783,769,0
463411,364.51,783,768,0
463421,360.63,783,769,0
463431,356.97,783,767,0
463441,354.11,783,769,0
463451,351.46,783,768,0
463461,349.91,783,769,0
463471,348.82,783,767,0
463481,348.70,783,769,0
463491,348.71,783,768,0
463501,349.48,783,769,0
463511,350.11,783,767,0
463521,351.23,783,769,0
463532,352.28,783,767,0
463542,353.74,783,769,0
463552,355.06,783,768,0
463562,356.88,783,769,0
463572,358.76,783,767,0
463582,361.58,783,769,0
463592,365.22,783,767,0
463602,370.72,783,769,0
463612,378.31,783,767,0
463622,388.97,783,769,0
463632,402.82,783,767,0
463642,420.96,783,769,0
463652,443.09,783,767,0
463662,469.20,783,769,0
463672,497.77,783,767,0
463682,528.05,783,769,0
463702,558.25,773,768,0
463705,586.29,773,771,0
463714,611.58,773,767,0
463724,632.53,773,769,0
463734,647.59,773,766,0
463745,656.50,773,769,0
463755,658.70,773,767,0
463765,654.68,773,769,0
463775,645.56,773,766,0
463785,630.69,773,769,0
463795,611.41,773,766,0
463805,589.05,773,769,0
463815,564.60,773,766,0
463825,539.27,773,769,0
463835,513.90,773,766,0
463845,489.33,773,769,0
463855,466.17,773,766,0
463865,444.99,773,769,0
463875,426.31,773,766,0
463885,410.40,773,769,0
463895,397.34,773,766,0
463905,387.08,773,769,0
463916,379.73,773,767,0
463926,375.05,773,769,0
463936,372.98,773,766,0
463946,373.07,773,769,0
463956,375.36,773,767,0
463966,379.15,773,769,0
463976,384.34,773,766,0
463986,390.24,773,769,0
463996,396.77,773,767,0
464006,403.01,773,769,0
464016,408.66,773,766,0
464026,413.01,773,769,0
464036,416.22,773,767,0
464046,417.95,773,769,0
464056,418.35,773,766,0
464066,417.09,773,769,0
464076,414.66,773,766,0
464087,411.08,773,768,0
464097,406.73,773,767,0
464107,401.62,773,768,0
464117,396.08,773,767,0
464128,389.97,773,768,0
464137,383.94,773,767,0
464147,377.87,773,768,0
464157,372.42,773,767,0
464167,367.24,773,768,0
464177,362.80,773,767,0
464187,358.74,773,768,0
464197,355.65,773,767,0
464207,353.05,773,768,0
464217,351.11,773,767,0
464227,349.45,773,768,0
464237,348.58,773,767,0
464247,347.94,773,768,0
464257,347.96,773,767,0
464267,348.18,773,768,0
464277,348.81,773,767,0
464287,349.77,773,768,0
464297,351.17,773,767,0
464307,352.66,773,768,0
464317,354.69,773,767,0
464327,356.97,773,768,0
464337,360.41,773,767,0
464347,365.04,773,768,0
464357,371.89,773,767,0
464367,381.22,773,768,0
464377,394.10,773,767,0
464387,410.57,773,768,0
464397,431.48,773,767,0
464407,456.11,773,768,0
464417,484.45,773,767,0
464428,514.87,773,768,0
464438,546.45,773,768,0
464457,576.96,756,767,0
464460,604.31,756,770,0
464470,627.49,756,767,0
464479,645.73,756,768,0
464489,657.38,756,768,0
464499,662.45,756,768,0
464509,660.56,756,767,0
464519,652.81,756,768,0
464529,640.22,756,768,0
464539,623.06,756,769,0
464549,601.48,756,767,0
464559,577.64,756,768,0
464569,551.95,756,768,0
464579,525.95,756,769,0
464589,499.86,756,768,0
464599,475.18,756,769,0
464609,451.77,756,767,0
464619,431.05,756,769,0
464629,412.48,756,769,0
464640,397.25,756,769,0
464649,384.83,756,769,0
464659,375.92,756,768,0
464669,369.73,756,766,0
464679,367.07,756,769,0
464689,366.92,756,769,0
464699,369.73,756,768,0
464709,374.23,756,767,0
464719,380.59,756,769,0
464729,387.61,756,767,0
464739,395.40,756,768,0
464749,402.74,756,768,0
464759,409.84,756,768,0
464769,415.63,756,768,0
464779,420.54,756,769,0
464789,423.59,756,769,0
464799,425.39,756,768,0
464809,425.31,756,769,0
464819,424.11,756,769,0
464829,421.12,756,767,0
464839,417.27,756,770,0
464849,412.00,756,768,0
464859,406.30,756,769,0
464869,399.61,756,769,0
464879,392.78,756,770,0
464889,385.35,756,766,0
464899,378.26,756,767,0
464909,371.07,756,767,0
464919,364.62,756,768,0
464929,358.43,756,766,0
464940,353.20,756,768,0
464950,348.43,756,767,0
464960,344.70,756,769,0
464970,341.58,756,768,0
464980,339.43,756,768,0
464990,337.72,756,767,0
465000,336.94,756,769,0
465010,336.45,756,767,0
465020,336.87,756,768,0
465030,337.64,756,766,0
465040,339.25,756,768,0
465050,341.36,756,767,0
465060,344.68,756,769,0
465070,348.98,756,768,0
465080,355.58,756,769,0
465090,364.49,756,767,0
465100,376.95,756,769,0
465111,393.03,756,767,0
465121,413.77,756,769,0
465131,438.69,756,766,0
465141,468.01,756,768,0
465152,500.28,756,766,0
465161,534.70,756,769,0
465171,569.16,756,768,0
465181,602.24,756,769,0
465201,631.65,743,768,0
465204,654.77,743,770,0
465213,671.68,743,766,0
465223,681.76,743,768,0
465233,684.45,743,766,0
465243,680.33,743,769,0
465253,669.56,743,766,0
465263,653.02,743,768,0
465273,633.04,743,765,0
465283,609.24,743,769,0
465293,582.90,743,766,0
465303,555.24,743,768,0
465313,526.97,743,766,0
465324,499.17,743,768,0
465334,472.72,743,766,0
465344,448.20,743,768,0
465354,426.20,743,766,0
465364,407.02,743,768,0
465374,390.86,743,767,0
465384,377.92,743,768,0
465394,368.30,743,769,0
465404,361.82,743,769,0
465414,358.40,743,765,0
465424,357.55,743,769,0
465434,359.02,743,769,0
465444,362.35,743,768,0
465454,367.05,743,766,0
465464,372.39,743,768,0
465474,378.23,743,767,0
465484,383.86,743,768,0
465495,389.05,743,766,0
465505,393.23,743,767,0
465515,396.46,743,766,0
465525,398.30,743,768,0
465536,399.11,743,767,0
465545,398.39,743,768,0
465555,396.69,743,766,0
465565,393.82,743,768,0
465575,390.28,743,767,0
465585,385.69,743,768,0
465595,380.77,743,766,0
465605,375.31,743,768,0
465615,369.99,743,766,0
465625,364.55,743,768,0
465635,359.46,743,766,0
465645,354.52,743,768,0
465655,350.21,743,767,0
465665,346.33,743,768,0
465675,343.15,743,766,0
465685,340.14,743,768,0
465695,337.87,743,766,0
465705,335.94,743,768,0
465715,334.67,743,766,0
465725,333.70,743,768,0
465735,333.36,743,767,0
465745,333.25,743,768,0
465755,333.99,743,766,0
465765,334.89,743,768,0
465775,336.51,743,766,0
465785,338.59,743,767,0
465795,341.84,743,766,0
465805,346.34,743,768,0
465815,353.10,743,766,0
465825,362.24,743,767,0
465836,374.90,743,767,0
465846,391.38,743,767,0
465856,412.53,743,767,0
465866,438.08,743,768,0
465876,468.02,743,767,0
465886,500.80,743,768,0
465896,535.57,743,767,0
465915,570.16,715,766,0
465918,602.34,715,769,0
465927,631.34,715,767,0
465937,655.54,715,767,0
465947,672.90,715,767,0
465957,683.39,715,767,0
465967,686.19,715,767,0
465977,682.02,715,767,0
465987,671.47,715,767,0
465997,654.49,715,767,0
466007,631.88,715,767,0
466017,605.60,715,767,0
466027,576.41,715,766,0
466037,546.07,715,767,0
466048,515.24,715,767,0
466057,485.72,715,767,0
466067,457.61,715,767,0
466077,432.05,715,767,0
466087,409.07,715,766,0
466097,389.42,715,767,0
466107,372.66,715,767,0
466117,359.52,715,767,0
466127,349.25,715,767,0
466137,342.45,715,767,0
466147,338.50,715,767,0
466157,337.71,715,767,0
466167,339.21,715,766,0
466177,343.26,715,767,0
466187,348.80,715,767,0
466197,355.93,715,768,0
466207,363.54,715,766,0
466217,371.60,715,768,0
466227,379.05,715,766,0
466237,385.94,715,767,0
466247,391.36,715,766,0
466257,395.62,715,768,0
466267,398.13,715,767,0
466277,399.29,715,767,0
466287,398.69,715,766,0
466297,396.90,715,768,0
466307,393.76,715,767,0
466317,389.93,715,767,0
466327,385.02,715,766,0
466337,379.79,715,768,0
466348,373.94,715,766,0
466358,368.21,715,768,0
466368,362.36,715,766,0
466378,357.07,715,768,0
466388,351.82,715,766,0
466398,347.46,715,768,0
466408,343.38,715,766,0
466418,340.18,715,768,0
466428,337.34,715,766,0
466438,335.52,715,768,0
466448,334.00,715,766,0
466458,333.27,715,768,0
466468,332.67,715,766,0
466478,332.81,715,768,0
466488,333.13,715,766,0
466498,334.07,715,768,0
466508,335.08,715,766,0
466519,336.94,715,768,0
466529,339.45,715,765,0
466539,343.43,715,768,0
466549,348.91,715,765,0
466560,357.04,715,768,0
466569,367.96,715,765,0
466579,382.88,715,768,0
466589,401.86,715,765,0
466599,425.82,715,768,0
466609,454.03,715,765,0
466619,486.33,715,768,0
466629,521.21,715,766,0
466639,557.74,715,768,0
466658,593.48,743,767,0
466661,625.95,743,770,0
466670,654.04,743,765,0
466680,676.57,743,768,0
466690,692.08,743,765,0
466700,700.46,743,769,0
466710,701.05,743,765,0
466720,694.61,743,768,0
466731,682.25,743,765,0
466740,664.13,743,768,0
466750,641.12,743,765,0
466760,614.51,743,768,0
466770,585.39,743,765,0
466780,555.27,743,768,0
466790,524.93,743,765,0
466800,495.72,743,768,0
466810,468.04,743,765,0
466820,443.00,743,768,0
466830,420.84,743,765,0
466840,401.90,743,768,0
466850,386.03,743,765,0
466860,373.68,743,768,0
466870,364.56,743,765,0
466880,358.86,743,768,0
466890,356.03,743,765,0
466900,356.02,743,768,0
466910,358.37,743,765,0
466920,362.80,743,768,0
466930,368.61,743,765,0
466940,375.41,743,768,0
466950,382.66,743,765,0
466960,390.00,743,768,0
466970,396.77,743,765,0
466980,402.76,743,768,0
466990,407.54,743,765,0
467000,411.15,743,768,0
467010,413.21,743,765,0
467020,413.83,743,768,0
467031,412.90,743,765,0
467041,410.74,743,768,0
467051,407.22,743,765,0
467061,402.74,743,768,0
467072,397.33,743,766,0
467081,391.53,743,769,0
467091,385.29,743,765,0
467101,378.94,743,768,0
467111,372.66,743,766,0
467121,366.76,743,769,0
467131,361.31,743,765,0
467141,356.37,743,768,0
467151,352.06,743,766,0
467161,348.40,743,768,0
467171,345.41,743,765,0
467181,343.06,743,768,0
467191,341.37,743,766,0
467201,340.32,743,768,0
467211,339.92,743,765,0
467221,340.16,743,768,0
467231,341.18,743,766,0
467241,343.14,743,768,0
467251,346.49,743,765,0
467261,351.74,743,768,0
467271,359.62,743,765,0
467281,370.79,743,768,0
467291,385.72,743,765,0
467301,405.18,743,768,0
467311,429.64,743,766,0
467321,458.85,743,768,0
467331,491.85,743,765,0
467341,527.60,743,768,0
467351,564.57,743,766,0
467361,600.96,743,768,0
467381,634.70,723,767,0
467384,662.30,723,768,0
467393,684.07,723,766,0
467403,698.71,723,768,0
467414,705.65,723,766,0
467423,704.81,723,768,0
467433,696.90,723,766,0
467443,682.31,723,767,0
467453,663.66,723,766,0
467463,640.19,723,767,0
467473,613.56,723,766,0
467483,584.77,723,767,0
467493,555.14,723,767,0
467503,525.35,723,767,0
467513,496.66,723,766,0
467523,469.51,723,768,0
467533,444.84,723,766,0
467543,422.90,723,768,0
467553,404.20,723,766,0
467563,388.58,723,767,0
467573,376.58,723,766,0
467584,367.84,723,767,0
467593,362.70,723,766,0
467603,360.52,723,767,0
467613,361.35,723,766,0
467623,364.42,723,767,0
467633,369.65,723,766,0
467643,376.05,723,768,0
467653,383.41,723,766,0
467663,390.79,723,767,0
467673,398.05,723,766,0
467683,404.38,723,767,0
467693,409.84,723,766,0
467703,413.79,723,767,0
467713,416.51,723,766,0
467723,417.64,723,767,0
467733,417.49,723,766,0
467743,415.67,723,767,0
467753,412.86,723,767,0
467763,408.79,723,767,0
467773,404.05,723,766,0
467783,398.38,723,767,0
467793,392.61,723,767,0
467803,386.38,723,767,0
467813,380.44,723,767,0
467823,374.44,723,767,0
467833,368.99,723,766,0
467843,363.81,723,767,0
467853,359.49,723,766,0
467863,355.49,723,767,0
467873,352.38,723,766,0
467884,349.87,723,767,0
467894,348.32,723,767,0
467904,347.24,723,767,0
467914,347.04,723,767,0
467924,347.20,723,767,0
467934,348.13,723,767,0
467944,349.50,723,766,0
467954,351.97,723,767,0
467964,355.49,723,767,0
467974,361.21,723,767,0
467984,369.29,723,766,0
467994,381.08,723,767,0
468004,396.83,723,767,0
468014,417.53,723,767,0
468024,442.75,723,767,0
468034,472.65,723,767,0
468044,505.88,723,767,0
468055,541.70,723,767,0
468065,577.71,723,766,0
468084,612.51,703,765,0
468087,642.36,703,766,0
468097,667.79,703,768,0
468107,686.71,703,765,0
468117,698.76,703,768,0
468127,703.07,703,766,0
468137,700.35,703,768,0
468147,690.69,703,765,0
468157,676.68,703,768,0
468167,657.02,703,765,0
468177,633.49,703,768,0
468187,606.55,703,765,0
468197,578.02,703,768,0
468207,548.53,703,766,0
468217,519.35,703,768,0
468227,491.00,703,765,0
468237,464.82,703,768,0
468247,440.83,703,766,0
468257,419.97,703,768,0
468268,401.89,703,765,0
468278,387.31,703,768,0
468288,376.03,703,765,0
468298,368.18,703,768,0
468308,363.33,703,765,0
468318,361.68,703,768,0
468328,362.59,703,765,0
468338,365.97,703,768,0
468348,370.91,703,765,0
468358,377.15,703,768,0
468368,383.83,703,765,0
468378,390.74,703,768,0
468388,397.12,703,765,0
468398,403.04,703,768,0
468408,407.83,703,765,0
468418,411.44,703,768,0
468428,413.53,703,765,0
468439,414.36,703,768,0
468449,413.65,703,765,0
468459,411.74,703,768,0
468469,408.52,703,765,0
468480,404.34,703,768,0
468489,399.48,703,765,0
468499,394.15,703,768,0
468509,388.62,703,765,0
468519,383.03,703,768,0
468529,377.58,703,765,0
468539,372.43,703,768,0
468549,367.68,703,765,0
468559,363.27,703,768,0
468569,359.33,703,765,0
468579,355.98,703,768,0
468589,353.24,703,765,0
468599,351.11,703,768,0
468609,349.32,703,765,0
468619,348.07,703,768,0
468629,347.32,703,765,0
468639,346.97,703,768,0
468649,346.93,703,765,0
468659,347.30,703,768,0
468669,348.02,703,765,0
468679,349.17,703,768,0
468689,350.62,703,765,0
468699,352.32,703,768,0
468709,354.41,703,765,0
468719,357.07,703,768,0
468729,360.65,703,765,0
468739,365.60,703,768,0
468749,372.70,703,765,0
468759,382.78,703,768,0
468769,396.56,703,765,0
468780,414.82,703,768,0
468790,437.89,703,766,0
468800,465.52,703,768,0
468810,497.08,703,766,0
468820,531.30,703,768,0
468839,566.65,755,767,0
468842,600.40,755,767,0
468851,631.74,755,766,0
468861,658.64,755,768,0
468871,679.88,755,766,0
468881,694.32,755,767,0
468891,701.72,755,766,0
468901,701.72,755,767,0
468911,695.93,755,766,0
468921,683.52,755,767,0
468931,665.71,755,766,0
468941,643.08,755,767,0
468951,617.17,755,766,0
468961,588.83,755,767,0
468971,559.66,755,766,0
468981,529.97,755,767,0
468992,501.18,755,766,0
469001,473.78,755,767,0
469011,448.99,755,766,0
469021,426.79,755,767,0
469031,407.83,755,766,0
469041,391.81,755,768,0
469051,379.48,755,766,0
469061,370.34,755,768,0
469071,364.54,755,767,0
469081,361.33,755,768,0
469091,360.80,755,766,0
469101,362.15,755,767,0
469111,365.49,755,766,0
469121,369.89,755,768,0
469131,375.41,755,766,0
469141,381.20,755,767,0
469151,387.35,755,766,0
469161,392.90,755,768,0
469171,398.12,755,767,0
469181,402.03,755,768,0
469191,404.89,755,767,0
469201,406.17,755,768,0
469211,406.29,755,766,0
469221,404.83,755,768,0
469231,402.52,755,767,0
469241,398.94,755,767,0
469251,394.84,755,766,0
469261,390.05,755,768,0
469271,385.15,755,766,0
469281,379.79,755,767,0
469292,374.62,755,767,0
469302,369.29,755,768,0
469312,364.53,755,767,0
469322,359.87,755,767,0
469332,355.84,755,767,0
469342,351.95,755,767,0
469352,348.92,755,767,0
469362,346.20,755,767,0
469372,344.38,755,767,0
469382,342.77,755,767,0
469392,341.94,755,767,0
469402,341.27,755,767,0
469412,341.40,755,767,0
469422,341.63,755,767,0
469432,342.47,755,767,0
469442,343.31,755,767,0
469452,344.63,755,767,0
469463,345.94,755,767,0
469473,347.63,755,767,0
469483,348.94,755,767,0
469493,350.33,755,767,0
469504,351.30,755,766,0
469513,352.37,755,767,0
469523,353.07,755,767,0
469533,353.95,755,767,0
469543,354.69,755,766,0
469553,356.24,755,767,0
469563,358.44,755,766,0
469573,362.42,755,767,0
469583,368.30,755,766,0
469593,377.29,755,767,0
469603,389.46,755,767,0
469613,406.12,755,767,0
469623,427.00,755,766,0
469633,452.59,755,767,0
469652,481.77,813,766,0
469655,513.12,813,770,0
469664,545.96,813,766,0
469675,579.10,813,768,0
469684,610.01,813,766,0
469694,637.44,813,768,0
469704,659.42,813,766,0
469714,675.32,813,768,0
469724,685.04,813,766,0
469734,687.64,813,768,0
469744,683.04,813,766,0
469754,672.31,813,768,0
469764,655.97,813,766,0
469774,635.58,813,767,0
469784,611.49,813,766,0
469794,585.46,813,769,0
469804,558.15,813,768,0
469814,530.98,813,768,0
469824,504.24,813,768,0
469834,479.14,813,769,0
469844,455.57,813,768,0
469854,434.78,813,769,0
469864,416.29,813,764,0
469874,400.69,813,769,0
469884,387.63,813,765,0
469894,377.67,813,768,0
469904,370.18,813,766,0
469914,365.67,813,768,0
469924,363.41,813,766,0
469934,363.67,813,768,0
469944,365.53,813,766,0
469954,369.14,813,768,0
469964,373.56,813,766,0
469975,378.92,813,768,0
469985,384.30,813,765,0
469995,389.74,813,768,0
470005,394.19,813,766,0
470016,397.99,813,768,0
470025,400.52,813,765,0
470035,402.29,813,768,0
470045,402.63,813,766,0
470055,402.02,813,768,0
470065,400.04,813,765,0
470075,397.50,813,768,0
470085,394.13,813,767,0
470095,390.37,813,768,0
470105,385.84,813,766,0
470115,381.13,813,768,0
470125,376.16,813,766,0
470135,371.31,813,768,0
470145,366.42,813,765,0
470155,362.01,813,768,0
470165,357.68,813,765,0
470175,353.92,813,768,0
470185,350.34,813,765,0
470195,347.45,813,768,0
470205,344.87,813,766,0
470215,343.07,813,768,0
470225,341.59,813,765,0
470235,340.99,813,768,0
470245,340.78,813,766,0
470255,341.23,813,768,0
470265,341.72,813,765,0
470275,342.79,813,768,0
470285,343.84,813,765,0
470295,345.13,813,768,0
470305,346.08,813,765,0
470316,347.04,813,768,0
470326,347.97,813,765,0
470336,349.05,813,768,0
470346,349.98,813,765,0
470356,350.93,813,768,0
470366,351.76,813,765,0
470376,352.91,813,768,0
470386,354.22,813,765,0
470396,356.08,813,768,0
470406,358.76,813,765,0
470416,362.77,813,768,0
470426,368.67,813,765,0
470436,377.25,813,768,0
470446,388.84,813,765,0
470456,404.31,813,768,0
470466,423.68,813,765,0
470476,447.09,813,768,0
470496,473.98,844,767,0
470499,502.83,844,769,0
470508,533.05,844,765,0
470518,563.03,844,768,0
470529,590.88,844,766,0
470539,615.17,844,768,0
470549,634.49,844,766,0
470559,647.85,844,767,0
470569,655.43,844,766,0
470579,656.29,844,768,0
470589,651.15,844,766,0
470599,640.39,844,767,0
470609,624.97,844,766,0
470619,605.65,844,768,0
470629,583.51,844,766,0
470639,559.49,844,767,0
470649,534.78,844,766,0
470659,509.95,844,768,0
470669,486.09,844,766,0
470679,463.48,844,768,0
470689,442.89,844,766,0
470700,424.50,844,767,0
470710,408.75,844,766,0
470720,395.24,844,767,0
470730,384.58,844,767,0
470740,376.26,844,767,0
470750,370.70,844,766,0
470760,367.32,844,767,0
470770,366.37,844,767,0
470780,367.07,844,767,0
470790,369.66,844,766,0
470800,373.24,844,767,0
470810,378.01,844,767,0
470820,383.02,844,767,0
470830,388.33,844,766,0
470840,393.12,844,767,0
470850,397.67,844,767,0
470860,401.20,844,767,0
470871,404.05,844,766,0
470881,405.49,844,767,0
470891,406.12,844,767,0
470901,405.31,844,767,0
470912,403.85,844,767,0
470921,401.19,844,767,0
470931,398.13,844,767,0
470941,394.19,844,767,0
470951,390.06,844,767,0
470961,385.33,844,767,0
470971,380.90,844,767,0
470981,376.26,844,767,0
470991,372.11,844,767,0
471001,367.96,844,767,0
471011,364.42,844,767,0
471021,361.08,844,766,0
471031,358.48,844,767,0
471041,356.07,844,767,0
471051,354.29,844,767,0
471061,352.53,844,767,0
471071,351.43,844,767,0
471081,350.57,844,766,0
471091,350.44,844,767,0
471101,350.35,844,767,0
471111,350.89,844,768,0
471121,351.31,844,766,0
471131,352.37,844,767,0
471141,353.25,844,767,0
471151,354.33,844,768,0
471161,355.13,844,766,0
471171,356.33,844,768,0
471181,357.56,844,767,0
471191,359.92,844,767,0
471201,363.16,844,766,0
471212,368.60,844,768,0
471222,376.26,844,766,0
471232,387.41,844,768,0
471242,402.29,844,766,0
471252,421.79,844,768,0
471262,445.17,844,766,0
471272,472.63,844,768,0
471282,502.61,844,766,0
471302,534.53,805,765,0
471305,565.70,805,766,0
471314,595.57,805,769,0
471324,621.89,805,765,0
471334,643.65,805,768,0
471344,659.40,805,766,0
471354,668.92,805,768,0
471364,671.39,805,765,0
471374,667.89,805,768,0
471384,657.98,805,766,0
471394,642.86,805,768,0
471404,623.06,805,765,0
471414,599.77,805,768,0
471425,573.95,805,766,0
471435,547.35,805,768,0
471445,520.72,805,765,0
471455,494.87,805,768,0
471465,470.31,805,765,0
471475,448.19,805,768,0
471485,428.50,805,765,0
471495,411.72,805,768,0
471505,397.62,805,765,0
471515,386.38,805,768,0
471525,377.86,805,765,0
471535,372.08,805,769,0
471545,368.71,805,765,0
471555,367.77,805,768,0
471565,368.82,805,765,0
471575,371.58,805,768,0
471585,375.60,805,765,0
471596,380.57,805,768,0
471606,386.05,805,765,0
471616,391.39,805,768,0
471626,396.50,805,766,0
471636,400.90,805,768,0
471646,404.44,805,765,0
471656,406.88,805,768,0
471666,408.07,805,766,0
471676,407.92,805,768,0
471686,406.79,805,765,0
471696,404.62,805,768,0
471706,401.61,805,766,0
471716,397.70,805,768,0
471726,393.20,805,765,0
471736,388.26,805,768,0
471746,383.21,805,766,0
