Time,PPG,IBI,GSR,GSR_Event
15278771,252.05,944,751,0
15278781,245.13,944,748,0
15278791,240.94,944,751,0
15278801,239.07,944,748,0
15278811,239.09,944,752,0
15278821,240.35,944,748,0
15278831,242.22,944,752,0
15278841,249.09,944,748,0
15278851,260.17,944,752,0
15278861,273.40,944,748,0
15278871,286.91,944,752,0
15278881,299.79,944,748,0
15278892,311.30,944,752,0
15278902,321.24,944,749,0
15278912,328.84,944,751,0
15278922,334.59,944,749,0
15278932,337.88,944,751,0
15278942,339.97,944,749,0
15278952,340.54,944,751,0
15278962,340.33,944,749,0
15278972,338.78,944,751,0
15278982,337.26,944,749,0
15278992,335.12,944,751,0
15279002,333.89,944,749,0
15279012,332.42,944,751,0
15279022,331.99,944,749,0
15279032,331.91,944,752,0
15279042,332.54,944,749,0
15279052,333.10,944,752,0
15279063,334.57,944,749,0
15279073,335.77,944,751,0
15279083,337.21,944,750,0
15279093,337.28,944,751,0
15279104,337.28,944,750,0
15279113,336.77,944,751,0
15279123,337.01,944,750,0
15279133,336.66,944,751,0
15279143,336.34,944,750,0
15279153,335.12,944,751,0
15279163,334.74,944,750,0
15279173,333.70,944,751,0
15279183,333.71,944,750,0
15279193,333.11,944,751,0
15279203,333.42,944,750,0
15279213,333.17,944,751,0
15279223,333.89,944,750,0
15279233,334.18,944,751,0
15279243,335.54,944,749,0
15279253,336.02,944,751,0
15279263,337.60,944,750,0
15279273,338.62,944,751,0
15279283,340.23,944,749,0
15279293,340.94,944,751,0
15279303,342.20,944,750,0
15279313,342.61,944,751,0
15279323,343.58,944,749,0
15279333,343.32,944,751,0
15279343,343.57,944,750,0
15279353,343.53,944,751,0
15279363,344.57,944,749,0
15279373,346.11,944,751,0
15279383,350.75,944,750,0
15279403,359.10,993,750,0
15279406,377.75,993,754,0
15279416,406.76,993,751,0
15279426,444.67,993,753,0
15279436,488.31,993,751,0
15279447,535.58,993,752,0
15279457,582.93,993,751,0
15279467,628.42,993,753,0
15279477,665.07,993,751,0
15279488,691.62,993,753,0
15279497,710.20,993,751,0
15279507,723.30,993,753,0
15279517,732.47,993,751,0
15279527,738.93,993,753,0
15279537,743.45,993,751,0
15279547,746.66,993,753,0
15279557,748.90,993,751,0
15279567,750.47,993,753,0
15279577,751.53,993,751,0
15279587,752.32,993,753,0
15279597,752.86,993,751,0
15279607,753.25,993,753,0
15279617,753.52,993,751,0
15279627,753.75,993,753,0
15279637,753.91,993,751,0
15279647,754.02,993,753,0
15279657,753.03,993,751,0
15279667,747.92,993,753,0
15279677,734.19,993,751,0
15279687,710.99,993,752,0
15279697,676.88,993,751,0
15279707,633.76,993,753,0
15279717,581.29,993,751,0
15279727,523.04,993,753,0
15279737,462.60,993,751,0
15279747,407.26,993,753,0
15279757,358.07,993,751,0
15279767,319.01,993,753,0
15279777,288.36,993,751,0
15279788,268.50,993,753,0
15279798,256.48,993,751,0
15279808,252.99,993,753,0
15279818,254.79,993,750,0
15279828,262.40,993,754,0
15279838,272.18,993,751,0
15279848,284.60,993,753,0
15279858,296.59,993,750,0
15279868,308.84,993,754,0
15279878,319.00,993,751,0
15279888,328.09,993,753,0
15279898,334.23,993,750,0
15279908,339.22,993,754,0
15279918,341.30,993,751,0
15279928,342.32,993,753,0
15279938,341.33,993,751,0
15279948,340.71,993,754,0
15279959,339.00,993,750,0
15279969,337.76,993,754,0
15279979,335.34,993,750,0
15279989,333.61,993,754,0
15280000,331.59,993,749,0
15280009,330.42,993,754,0
15280019,328.41,993,750,0
15280029,327.13,993,754,0
15280039,325.89,993,749,0
15280049,326.01,993,754,0
15280059,326.35,993,749,0
15280069,327.44,993,754,0
15280079,328.30,993,749,0
15280089,329.79,993,754,0
15280099,330.63,993,750,0
15280109,331.64,993,754,0
15280119,331.92,993,750,0
15280129,332.33,993,754,0
15280139,332.10,993,749,0
15280149,332.37,993,754,0
15280159,332.47,993,750,0
15280169,333.36,993,754,0
15280179,333.51,993,749,0
15280189,334.04,993,754,0
15280199,333.94,993,750,0
15280209,334.00,993,754,0
15280219,333.57,993,749,0
15280229,333.40,993,754,0
15280239,333.50,993,750,0
15280249,334.85,993,754,0
15280259,336.14,993,750,0
15280269,338.02,993,754,0
15280279,339.17,993,750,0
15280289,340.06,993,754,0
15280300,340.09,993,749,0
15280310,339.20,993,754,0
15280320,337.34,993,749,0
15280330,335.23,993,753,0
15280340,333.10,993,749,0
15280350,331.78,993,754,0
15280360,330.74,993,749,0
15280370,330.26,993,753,0
15280380,330.57,993,750,0
15280390,332.37,993,754,0
15280400,336.76,993,749,0
15280410,344.84,993,753,0
15280430,358.43,1027,752,0
15280433,380.20,1027,752,0
15280443,412.97,1027,752,0
15280453,453.44,1027,752,0
15280463,498.48,1027,752,0
15280473,545.18,1027,752,0
15280483,590.94,1027,752,0
15280493,633.17,1027,752,0
15280503,668.73,1027,751,0
15280513,694.14,1027,752,0
15280523,711.97,1027,751,0
15280533,724.41,1027,752,0
15280543,733.16,1027,751,0
15280553,739.24,1027,751,0
15280563,743.54,1027,751,0
15280573,746.51,1027,752,0
15280583,748.63,1027,751,0
15280593,750.07,1027,751,0
15280603,751.12,1027,751,0
15280613,751.81,1027,752,0
15280623,752.34,1027,752,0
15280633,752.67,1027,751,0
15280643,752.94,1027,751,0
15280653,753.08,1027,752,0
15280663,749.67,1027,751,0
15280673,738.54,1027,751,0
15280684,718.75,1027,752,0
15280694,688.53,1027,751,0
15280704,649.28,1027,752,0
15280714,600.55,1027,751,0
15280724,545.02,1027,753,0
15280734,486.60,1027,751,0
15280744,432.85,1027,752,0
15280754,384.85,1027,751,0
15280764,346.50,1027,753,0
15280774,316.00,1027,751,0
15280784,295.86,1027,752,0
15280794,282.96,1027,751,0
15280804,279.54,1027,753,0
15280814,281.14,1027,752,0
15280824,288.90,1027,753,0
15280834,298.70,1027,751,0
15280844,311.43,1027,753,0
15280855,323.35,1027,751,0
15280865,336.01,1027,753,0
15280875,345.14,1027,751,0
15280885,352.81,1027,753,0
15280896,356.21,1027,751,0
15280905,358.50,1027,753,0
15280915,357.92,1027,751,0
15280925,357.26,1027,753,0
15280935,354.18,1027,751,0
15280945,351.56,1027,752,0
15280955,347.19,1027,751,0
15280965,344.05,1027,753,0
15280975,340.13,1027,751,0
15280985,337.91,1027,753,0
15280995,334.89,1027,751,0
15281005,333.68,1027,753,0
15281015,331.81,1027,751,0
15281025,331.65,1027,752,0
15281035,330.64,1027,751,0
15281045,330.96,1027,753,0
15281055,330.12,1027,751,0
15281065,330.81,1027,753,0
15281075,330.48,1027,751,0
15281085,331.75,1027,753,0
15281095,332.17,1027,751,0
15281105,334.43,1027,753,0
15281115,336.27,1027,751,0
15281125,340.05,1027,754,0
15281135,342.91,1027,752,0
15281145,346.83,1027,754,0
15281155,348.81,1027,751,0
15281165,351.14,1027,753,0
15281175,350.93,1027,751,0
15281185,350.35,1027,753,0
15281196,347.12,1027,751,0
15281206,344.17,1027,753,0
15281216,339.53,1027,751,0
15281226,336.11,1027,753,0
15281236,331.79,1027,750,0
15281246,329.28,1027,753,0
15281256,326.16,1027,750,0
15281266,325.04,1027,753,0
15281276,323.40,1027,750,0
15281286,323.71,1027,753,0
15281296,323.54,1027,751,0
15281306,325.39,1027,753,0
15281316,327.37,1027,750,0
15281326,332.53,1027,753,0
15281336,339.62,1027,751,0
15281346,352.55,1027,753,0
15281356,371.15,1027,750,0
15281367,399.56,1027,753,0
15281386,436.60,957,752,0
15281389,479.87,957,755,0
15281399,525.43,957,744,0
15281409,571.76,957,754,0
15281419,615.03,957,747,0
15281429,653.42,957,754,0
15281439,683.42,957,743,0
15281449,704.47,957,754,0
15281459,719.24,957,745,0
15281469,729.63,957,757,0
15281479,736.90,957,744,0
15281489,741.98,957,759,0
15281499,745.55,957,746,0
15281509,748.08,957,754,0
15281519,749.81,957,746,0
15281529,751.03,957,754,0
15281539,751.88,957,750,0
15281549,752.47,957,754,0
15281559,752.84,957,744,0
15281569,753.10,957,754,0
15281580,753.29,957,746,0
15281590,751.79,957,753,0
15281600,744.61,957,747,0
15281610,729.08,957,753,0
15281620,704.07,957,749,0
15281630,669.51,957,753,0
15281640,625.73,957,748,0
15281650,573.44,957,753,0
15281660,515.83,957,749,0
15281670,458.33,957,754,0
15281680,405.21,957,747,0
15281690,358.99,957,753,0
15281700,321.58,957,748,0
15281710,293.46,957,753,0
15281720,274.85,957,747,0
15281730,264.70,957,757,0
15281740,262.35,957,749,0
15281751,265.97,957,753,0
15281761,274.59,957,750,0
15281771,285.52,957,753,0
15281781,298.22,957,751,0
15281792,310.71,957,752,0
15281801,323.01,957,750,0
15281811,333.29,957,753,0
15281821,342.03,957,751,0
15281831,347.77,957,752,0
15281841,351.78,957,749,0
15281851,353.13,957,753,0
15281861,353.39,957,751,0
15281871,351.43,957,752,0
15281881,348.94,957,750,0
15281891,345.19,957,753,0
15281901,342.26,957,752,0
15281911,339.18,957,753,0
15281921,337.46,957,751,0
15281931,335.99,957,753,0
15281941,335.99,957,752,0
15281951,336.00,957,752,0
15281961,337.24,957,751,0
15281971,338.15,957,753,0
15281981,340.34,957,748,0
15281991,342.34,957,752,0
15282001,345.62,957,752,0
15282011,349.29,957,752,0
15282021,355.03,957,751,0
15282031,361.37,957,753,0
15282041,369.27,957,751,0
15282051,376.65,957,753,0
15282061,384.64,957,750,0
15282071,391.00,957,753,0
15282081,395.80,957,752,0
15282092,396.46,957,753,0
15282102,393.84,957,752,0
15282112,386.04,957,753,0
15282122,374.54,957,753,0
15282132,357.37,957,752,0
15282142,337.03,957,752,0
15282152,312.93,957,752,0
15282162,288.18,957,752,0
15282172,262.03,957,752,0
15282182,237.93,957,753,0
15282192,215.37,957,752,0
15282202,197.86,957,753,0
15282212,184.53,957,751,0
15282222,178.76,957,752,0
15282232,180.11,957,754,0
15282242,192.08,957,758,0
15282252,213.27,957,754,0
15282263,245.80,957,765,0
15282273,287.35,957,755,0
15282283,338.54,957,765,0
15282293,395.64,957,754,0
15282304,455.62,957,764,0
15282313,513.46,957,755,0
15282332,567.15,946,754,0
15282335,613.65,946,755,0
15282344,652.45,946,762,0
15282354,682.10,946,755,0
15282364,703.54,946,763,0
15282374,718.51,946,754,0
15282384,729.03,946,765,0
15282394,736.39,946,755,0
15282404,741.59,946,763,0
15282414,745.18,946,754,0
15282424,747.74,946,764,0
15282434,749.49,946,755,0
15282444,750.76,946,763,0
15282454,751.60,946,754,0
15282464,752.19,946,764,0
15282475,752.56,946,755,0
15282484,752.87,946,764,0
15282494,753.08,946,755,0
15282504,753.31,946,764,0
15282514,753.48,946,756,0
15282524,753.68,946,765,0
15282534,753.82,946,755,0
15282544,754.00,946,763,0
15282554,754.13,946,756,0
15282564,754.26,946,765,0
15282574,754.31,946,755,0
15282584,753.36,946,764,0
15282594,745.15,946,755,0
15282604,727.45,946,766,0
15282614,697.23,946,755,0
15282624,654.73,946,768,0
15282634,599.74,946,756,0
15282644,534.25,946,767,0
15282654,460.29,946,756,0
15282664,386.79,946,768,0
15282674,318.07,946,757,0
15282684,259.93,946,768,0
15282694,212.98,946,756,0
15282704,179.56,946,768,0
15282714,158.39,946,756,0
15282724,149.92,946,768,0
15282734,151.44,946,756,0
15282744,161.94,946,768,0
15282754,177.51,946,756,0
15282764,197.67,946,768,0
15282775,219.37,946,756,0
15282785,242.10,946,768,0
15282795,263.24,946,756,0
15282805,282.46,946,768,0
15282816,298.52,946,756,0
15282825,312.21,946,768,0
15282835,322.47,946,756,0
15282845,330.56,946,768,0
15282855,335.83,946,756,0
15282865,339.74,946,768,0
15282875,342.39,946,756,0
15282885,344.63,946,768,0
15282895,346.58,946,756,0
15282905,349.28,946,768,0
15282915,351.90,946,756,0
15282925,355.10,946,768,0
15282935,358.88,946,756,0
15282945,363.72,946,768,0
15282955,368.35,946,756,0
15282965,372.83,946,768,0
15282975,376.57,946,756,0
15282985,379.91,946,768,0
15282995,382.51,946,756,0
15283005,383.94,946,768,0
15283015,383.49,946,756,0
15283025,381.63,946,768,0
15283035,378.22,946,756,0
15283045,373.91,946,768,0
15283055,368.58,946,756,0
15283065,362.45,946,768,0
15283075,355.29,946,756,0
15283085,347.79,946,768,0
15283095,340.01,946,757,0
15283105,332.33,946,768,0
15283116,324.56,946,757,0
15283126,316.85,946,768,0
15283136,309.44,946,757,0
15283146,302.36,946,768,0
15283156,296.04,946,757,0
15283166,290.24,946,768,0
15283176,285.16,946,757,0
15283186,280.57,946,768,0
15283196,277.40,946,757,0
15283206,275.61,946,768,0
15283216,276.45,946,757,0
15283226,280.30,946,767,0
15283236,289.47,946,756,0
15283246,304.97,946,768,0
15283256,329.07,946,756,0
15283266,362.82,946,766,0
15283276,406.41,946,756,0
15283287,455.75,946,761,0
15283297,507.59,946,756,0
15283316,558.42,984,755,0
15283319,605.82,984,764,0
15283329,646.89,984,757,0
15283339,679.15,984,759,0
15283349,701.73,984,756,0
15283359,717.59,984,763,0
15283369,728.68,984,756,0
15283379,736.49,984,758,0
15283389,741.92,984,756,0
15283399,745.71,984,762,0
15283409,748.37,984,756,0
15283419,750.27,984,759,0
15283429,751.56,984,756,0
15283439,752.51,984,762,0
15283449,753.17,984,756,0
15283459,753.68,984,759,0
15283469,753.99,984,756,0
15283479,754.21,984,761,0
15283489,751.74,984,756,0
15283500,743.08,984,767,0
15283510,724.24,984,755,0
15283520,695.28,984,769,0
15283530,654.65,984,756,0
15283540,604.57,984,768,0
15283550,544.79,984,756,0
15283560,481.21,984,769,0
15283570,417.50,984,756,0
15283580,361.08,984,768,0
15283590,311.98,984,757,0
15283600,274.92,984,768,0
15283610,247.39,984,756,0
15283620,232.06,984,768,0
15283630,224.62,984,756,0
15283640,226.88,984,769,0
15283650,233.82,984,756,0
15283660,246.69,984,768,0
15283671,260.49,984,756,0
15283681,276.50,984,768,0
15283691,290.45,984,756,0
15283701,304.16,984,768,0
15283712,314.10,984,755,0
15283721,322.68,984,768,0
15283731,326.93,984,756,0
15283741,329.83,984,768,0
15283751,329.06,984,756,0
15283761,327.80,984,768,0
15283771,324.00,984,756,0
15283781,320.75,984,768,0
15283791,316.02,984,756,0
15283801,313.10,984,769,0
15283811,309.60,984,756,0
15283821,308.31,984,768,0
15283831,306.84,984,756,0
15283841,308.00,984,769,0
15283851,308.90,984,756,0
15283861,311.89,984,768,0
15283871,314.15,984,756,0
15283881,317.88,984,768,0
15283891,320.49,984,756,0
15283901,324.24,984,768,0
15283911,326.70,984,756,0
15283921,330.17,984,768,0
15283931,332.05,984,756,0
15283941,334.69,984,768,0
15283951,335.94,984,755,0
15283961,337.97,984,768,0
15283971,338.37,984,756,0
15283981,339.33,984,768,0
15283991,338.76,984,756,0
15284001,339.13,984,768,0
15284012,338.36,984,756,0
15284022,338.85,984,768,0
15284032,338.56,984,756,0
15284042,339.20,984,769,0
15284052,338.37,984,756,0
15284062,337.96,984,768,0
15284072,335.91,984,756,0
15284082,334.27,984,768,0
15284092,331.19,984,755,0
15284102,328.82,984,768,0
15284112,326.00,984,756,0
15284122,325.57,984,768,0
15284132,327.16,984,756,0
15284142,334.10,984,768,0
15284152,346.15,984,755,0
15284162,367.24,984,768,0
15284172,397.46,984,755,0
15284192,437.31,876,754,0
15284195,482.22,876,758,0
15284204,529.94,876,767,0
15284214,576.71,876,756,0
15284225,620.69,876,766,0
15284235,657.94,876,756,0
15284245,686.76,876,764,0
15284255,706.93,876,756,0
15284265,721.05,876,764,0
15284275,730.94,876,756,0
15284285,737.85,876,764,0
15284295,742.70,876,756,0
15284305,746.09,876,762,0
15284315,748.46,876,756,0
15284325,750.12,876,763,0
15284335,751.29,876,756,0
15284345,752.10,876,762,0
15284355,752.67,876,756,0
15284365,753.07,876,763,0
15284375,753.35,876,756,0
15284385,753.54,876,762,0
15284396,753.68,876,756,0
15284406,752.36,876,760,0
15284416,744.97,876,756,0
15284426,727.88,876,761,0
15284436,700.40,876,756,0
15284446,661.97,876,767,0
15284456,613.33,876,756,0
15284466,554.99,876,767,0
15284476,490.41,876,757,0
15284486,425.61,876,767,0
15284496,366.46,876,757,0
15284506,315.28,876,768,0
15284516,274.82,876,758,0
15284526,245.13,876,768,0
15284536,227.14,876,757,0
15284546,219.00,876,768,0
15284556,220.20,876,757,0
15284567,228.37,876,766,0
15284577,242.36,876,758,0
15284587,258.66,876,762,0
15284597,276.81,876,760,0
15284608,293.62,876,759,0
15284617,309.34,876,758,0
15284627,321.58,876,763,0
15284637,331.05,876,760,0
15284647,335.62,876,760,0
15284657,337.58,876,758,0
15284667,335.43,876,764,0
15284677,331.75,876,760,0
15284687,324.79,876,762,0
15284697,317.40,876,757,0
15284707,308.36,876,766,0
15284717,300.63,876,759,0
15284727,293.92,876,755,0
15284737,288.68,876,749,0
15284747,284.32,876,755,0
15284757,281.14,876,747,0
15284767,277.75,876,755,0
15284777,274.05,876,746,0
15284787,268.98,876,755,0
15284797,261.14,876,749,0
15284807,251.72,876,755,0
15284817,240.79,876,755,0
15284827,230.69,876,756,0
15284837,222.30,876,756,0
15284847,217.07,876,759,0
15284857,217.30,876,758,0
15284867,223.98,876,764,0
15284877,238.69,876,757,0
15284887,261.11,876,760,0
15284897,291.21,876,760,0
15284908,327.44,876,757,0
15284918,369.65,876,760,0
15284928,413.47,876,756,0
15284938,457.90,876,766,0
15284958,498.65,765,765,0
15284961,534.41,765,768,0
15284971,561.59,765,755,0
15284981,580.48,765,768,0
15284992,588.44,765,755,0
15285001,587.92,765,768,0
15285011,578.13,765,755,0
15285021,562.45,765,768,0
15285031,541.31,765,755,0
15285041,519.36,765,768,0
15285051,497.48,765,756,0
15285061,479.94,765,769,0
15285071,465.68,765,755,0
15285081,457.85,765,768,0
15285091,454.98,765,755,0
15285101,459.96,765,769,0
15285111,470.81,765,756,0
15285121,489.38,765,769,0
15285131,513.91,765,756,0
15285141,543.98,765,769,0
15285151,576.17,765,756,0
15285161,609.68,765,768,0
15285171,641.57,765,756,0
15285181,670.85,765,768,0
15285191,694.76,765,754,0
15285201,712.66,765,767,0
15285211,725.11,765,754,0
15285221,733.82,765,767,0
15285231,739.83,765,754,0
15285241,743.95,765,765,0
15285251,746.67,765,749,0
15285261,747.32,765,724,0
15285271,741.70,765,741,0
15285281,720.10,765,744,0
15285292,680.56,765,740,0
15285302,627.42,765,752,0
15285312,561.38,765,735,0
15285322,489.09,765,759,0
15285332,435.19,765,750,0
15285342,399.18,765,742,0
15285352,359.35,765,733,0
15285362,329.29,765,748,0
15285372,303.06,765,733,0
15285382,290.70,765,753,0
15285392,286.89,765,740,0
15285402,268.37,765,748,0
15285412,234.40,765,734,0
15285422,213.28,765,742,0
15285432,196.74,765,734,0
15285442,188.16,765,744,0
15285452,177.10,765,732,0
15285463,162.24,765,742,0
15285473,143.27,765,731,0
15285483,127.03,765,742,0
15285493,113.82,765,730,0
15285504,103.46,765,735,0
15285513,92.95,765,729,0
15285523,91.34,765,744,0
15285533,99.81,765,733,0
15285543,118.89,765,744,0
15285553,146.44,765,734,0
15285563,183.77,765,745,0
15285573,224.94,765,733,0
15285583,269.61,765,744,0
15285593,307.14,765,733,0
15285603,335.60,765,744,0
15285613,353.25,765,732,0
15285623,361.19,765,743,0
15285633,360.79,765,732,0
15285643,355.88,765,744,0
15285653,347.65,765,732,0
15285663,337.72,765,742,0
15285673,320.75,765,727,0
15285683,302.40,765,741,0
15285693,284.23,765,728,0
15285703,266.46,765,737,0
15285713,244.68,765,723,0
15285723,226.35,765,751,0
15285733,228.64,765,736,0
15285743,249.07,765,748,0
15285753,282.77,765,739,0
15285763,328.48,765,744,0
15285773,380.24,765,738,0
15285783,434.90,765,742,0
15285793,487.51,765,735,0
15285804,516.12,765,744,0
15285814,526.41,765,729,0
15285824,531.34,765,752,0
15285834,530.47,765,740,0
15285844,527.41,765,750,0
15285854,524.76,765,736,0
15285864,519.82,765,748,0
15285874,520.56,765,740,0
15285884,529.69,765,756,0
15285894,536.30,765,745,0
15285904,538.44,765,756,0
15285914,537.79,765,745,0
15285924,536.57,765,756,0
15285934,534.60,765,745,0
15285944,527.30,765,757,0
15285954,515.30,765,745,0
15285964,493.39,765,752,0
15285975,468.33,765,746,0
15285985,438.70,765,749,0
15285995,405.19,765,740,0
15286005,371.45,765,752,0
15286016,343.20,765,742,0
15286025,326.81,765,755,0
15286035,330.08,765,744,0
15286045,349.34,765,759,0
15286055,383.95,765,749,0
15286065,431.97,765,757,0
15286075,487.95,765,744,0
15286085,546.42,765,755,0
15286095,599.70,765,750,0
15286105,642.69,765,756,0
15286115,673.89,765,750,0
15286125,695.74,765,755,0
15286135,711.08,765,750,0
15286154,722.28,1197,749,0
15286157,730.17,1197,754,0
15286167,735.65,1197,750,0
15286177,739.52,1197,758,0
15286188,742.20,1197,750,0
15286198,744.11,1197,760,0
15286208,745.40,1197,750,0
15286218,746.35,1197,762,0
15286228,746.98,1197,750,0
15286238,747.46,1197,762,0
15286248,746.89,1197,750,0
15286258,741.48,1197,762,0
15286268,726.64,1197,750,0
15286278,702.19,1197,763,0
15286288,665.96,1197,750,0
15286298,619.94,1197,762,0
15286308,563.56,1197,750,0
15286318,501.12,1197,763,0
15286328,436.41,1197,751,0
15286338,377.36,1197,763,0
15286348,324.37,1197,751,0
15286359,282.69,1197,763,0
15286369,250.34,1197,751,0
15286379,230.52,1197,763,0
15286389,219.27,1197,750,0
15286400,218.37,1197,763,0
15286409,223.36,1197,750,0
15286419,235.29,1197,763,0
15286429,249.56,1197,750,0
15286439,267.05,1197,763,0
15286449,283.28,1197,750,0
15286459,299.52,1197,763,0
15286469,312.14,1197,750,0
15286479,322.90,1197,762,0
15286489,328.93,1197,750,0
15286499,332.76,1197,762,0
15286509,332.23,1197,750,0
15286519,330.28,1197,762,0
15286529,324.67,1197,750,0
15286539,318.64,1197,762,0
15286549,309.92,1197,749,0
15286559,291.86,1197,754,0
15286569,265.29,1197,741,0
15286579,234.17,1197,751,0
15286589,199.23,1197,746,0
15286599,169.68,1197,757,0
15286609,145.65,1197,747,0
15286619,130.37,1197,762,0
15286629,137.89,1197,751,0
15286639,165.86,1197,763,0
15286649,208.59,1197,751,0
15286659,262.71,1197,764,0
15286669,316.24,1197,751,0
15286679,366.74,1197,764,0
15286689,409.85,1197,751,0
15286700,440.24,1197,764,0
15286710,456.54,1197,752,0
15286720,461.99,1197,764,0
15286730,456.94,1197,752,0
15286740,446.41,1197,765,0
15286750,430.65,1197,752,0
15286760,413.27,1197,764,0
15286770,393.81,1197,752,0
15286780,375.31,1197,765,0
15286790,357.05,1197,752,0
15286800,341.39,1197,764,0
15286810,326.96,1197,752,0
15286820,315.40,1197,764,0
15286830,305.38,1197,752,0
15286840,298.41,1197,764,0
15286850,292.97,1197,752,0
15286860,290.71,1197,764,0
15286871,289.90,1197,752,0
15286881,292.33,1197,764,0
15286891,298.06,1197,751,0
15286901,309.27,1197,763,0
15286912,325.69,1197,751,0
15286921,349.74,1197,763,0
15286931,381.79,1197,751,0
15286941,423.08,1197,763,0
15286951,469.51,1197,751,0
15286961,518.09,1197,763,0
15286971,565.63,1197,751,0
15286981,609.97,1197,764,0
15286991,648.29,1197,751,0
15287001,678.63,1197,763,0
15287011,699.92,1197,750,0
15287021,714.86,1197,763,0
15287031,725.36,1197,751,0
15287041,732.71,1197,763,0
15287051,737.81,1197,750,0
15287061,741.38,1197,763,0
15287071,743.84,1197,751,0
15287081,745.56,1197,763,0
15287091,746.76,1197,750,0
15287110,747.60,956,749,0
15287113,748.24,956,752,0
15287122,748.68,956,761,0
15287132,748.95,956,750,0
15287142,747.72,956,762,0
15287152,740.69,956,750,0
15287162,725.01,956,762,0
15287172,699.47,956,750,0
15287182,663.88,956,763,0
15287192,619.00,956,751,0
15287202,565.30,956,762,0
15287212,505.43,956,750,0
15287222,445.38,956,763,0
15287232,389.43,956,751,0
15287242,340.53,956,763,0
15287252,300.55,956,751,0
15287262,270.17,956,763,0
15287272,249.55,956,751,0
15287282,238.41,956,763,0
15287292,235.42,956,750,0
15287302,239.36,956,763,0
15287312,248.30,956,751,0
15287322,260.51,956,763,0
15287332,274.24,956,750,0
15287342,288.53,956,763,0
15287352,301.61,956,751,0
15287362,312.91,956,763,0
15287372,321.85,956,750,0
15287383,328.28,956,763,0
15287393,332.06,956,751,0
15287403,333.41,956,763,0
15287413,334.14,956,751,0
15287424,334.36,956,763,0
15287433,334.17,956,752,0
15287443,333.56,956,763,0
15287453,332.96,956,751,0
15287463,332.07,956,763,0
15287473,331.28,956,752,0
15287483,328.88,956,764,0
15287493,325.92,956,751,0
15287503,322.17,956,763,0
15287513,318.48,956,752,0
15287523,314.65,956,763,0
15287533,311.45,956,751,0
15287543,308.49,956,763,0
15287553,306.46,956,752,0
15287563,304.82,956,763,0
15287573,304.15,956,751,0
15287583,303.76,956,763,0
15287593,304.30,956,752,0
15287603,305.11,956,763,0
15287613,306.32,956,751,0
15287623,307.21,956,763,0
15287633,308.13,956,751,0
15287643,308.61,956,763,0
15287653,308.68,956,751,0
15287663,307.45,956,762,0
15287673,305.73,956,751,0
15287683,303.45,956,762,0
15287693,301.30,956,750,0
15287703,299.03,956,762,0
15287713,297.65,956,751,0
15287724,297.54,956,762,0
15287734,300.42,956,750,0
15287744,306.47,956,762,0
15287754,318.37,956,751,0
15287764,336.52,956,760,0
15287774,363.27,956,750,0
15287784,399.06,956,760,0
15287803,442.54,693,755,0
15287806,489.78,693,751,0
15287815,538.36,693,751,0
15287825,584.45,693,752,0
15287835,626.40,693,751,0
15287845,661.25,693,751,0
15287855,687.41,693,751,0
15287865,705.67,693,752,0
15287875,718.50,693,751,0
15287885,727.48,693,751,0
15287895,733.81,693,751,0
15287905,738.19,693,753,0
15287915,741.31,693,751,0
15287925,743.44,693,751,0
15287936,744.98,693,751,0
15287945,746.02,693,752,0
15287955,746.78,693,751,0
15287965,747.28,693,751,0
15287975,747.66,693,752,0
15287985,746.01,693,752,0
15287995,739.32,693,751,0
15288005,723.84,693,751,0
15288015,699.07,693,753,0
15288025,663.82,693,757,0
15288035,619.22,693,752,0
15288045,564.98,693,758,0
15288055,505.46,693,760,0
15288065,444.38,693,761,0
15288075,388.04,693,753,0
15288085,337.33,693,759,0
15288095,296.17,693,760,0
15288105,263.38,693,757,0
15288115,241.45,693,752,0
15288125,227.56,693,760,0
15288135,222.76,693,759,0
15288145,223.65,693,756,0
15288155,231.30,693,751,0
15288165,241.75,693,757,0
15288175,256.05,693,755,0
15288185,270.14,693,753,0
15288195,285.10,693,750,0
15288205,297.84,693,758,0
15288215,310.10,693,753,0
15288225,318.90,693,755,0
15288236,326.52,693,762,0
15288246,330.43,693,751,0
15288256,333.69,693,762,0
15288266,333.95,693,750,0
15288276,334.14,693,762,0
15288286,331.61,693,753,0
15288296,331.51,693,763,0
15288306,331.19,693,752,0
15288316,333.10,693,763,0
15288326,333.93,693,753,0
15288336,336.44,693,763,0
15288346,337.38,693,751,0
15288356,340.18,693,764,0
15288366,340.21,693,754,0
15288376,340.58,693,764,0
15288386,338.43,693,752,0
15288396,337.53,693,764,0
15288407,335.06,693,751,0
15288417,334.31,693,764,0
15288427,331.90,693,751,0
15288437,330.52,693,764,0
15288448,327.23,693,751,0
15288457,325.66,693,764,0
15288467,322.59,693,751,0
15288477,321.22,693,764,0
15288487,318.49,693,751,0
15288497,317.53,693,764,0
15288507,315.40,693,751,0
15288517,315.02,693,764,0
15288527,313.43,693,751,0
15288537,313.60,693,764,0
15288547,312.44,693,751,0
15288557,313.08,693,764,0
15288567,312.62,693,751,0
15288577,313.89,693,764,0
15288587,313.67,693,751,0
15288597,314.63,693,764,0
15288607,313.79,693,751,0
15288617,314.37,693,763,0
15288627,313.49,693,751,0
15288637,314.88,693,763,0
15288647,317.15,693,751,0
15288657,325.03,693,763,0
15288667,337.41,693,751,0
15288677,359.44,693,763,0
15288687,390.25,693,750,0
15288707,431.06,903,749,0
15288710,476.73,903,751,0
15288719,525.24,903,763,0
15288729,572.14,903,750,0
15288739,616.24,903,763,0
15288749,653.24,903,750,0
15288759,681.97,903,763,0
15288769,701.99,903,750,0
15288779,716.01,903,762,0
15288790,725.73,903,749,0
15288799,732.50,903,762,0
15288809,737.19,903,749,0
15288819,740.43,903,762,0
15288829,742.62,903,748,0
15288839,744.15,903,762,0
15288849,745.17,903,749,0
15288859,745.94,903,761,0
15288869,746.43,903,748,0
15288879,746.77,903,761,0
15288889,746.97,903,748,0
15288899,747.15,903,761,0
15288909,746.50,903,749,0
15288919,742.45,903,762,0
15288929,730.96,903,749,0
15288939,710.66,903,762,0
15288949,680.25,903,750,0
15288960,640.44,903,762,0
15288969,591.45,903,750,0
15288979,536.16,903,762,0
15288989,477.70,903,750,0
15288999,422.25,903,762,0
15289009,371.81,903,750,0
15289019,330.00,903,762,0
15289029,296.53,903,750,0
15289039,273.14,903,762,0
15289049,257.50,903,750,0
15289059,250.62,903,763,0
15289069,250.01,903,750,0
15289079,255.75,903,762,0
15289089,264.61,903,750,0
15289099,276.90,903,763,0
15289109,289.49,903,750,0
15289119,302.54,903,762,0
15289129,313.39,903,750,0
15289139,322.45,903,762,0
15289149,327.97,903,750,0
15289159,331.49,903,762,0
15289169,331.82,903,750,0
15289179,330.59,903,763,0
15289189,327.02,903,750,0
15289199,323.03,903,762,0
15289209,317.79,903,750,0
15289219,313.18,903,762,0
15289229,307.60,903,750,0
15289239,302.58,903,762,0
15289249,297.26,903,750,0
15289260,293.63,903,762,0
15289270,290.82,903,750,0
15289280,290.23,903,762,0
15289290,290.98,903,750,0
15289300,294.11,903,763,0
15289310,298.15,903,751,0
15289320,303.59,903,763,0
15289330,308.90,903,751,0
15289340,314.12,903,763,0
15289350,318.20,903,751,0
15289360,321.44,903,763,0
15289370,323.28,903,750,0
15289380,324.35,903,763,0
15289390,324.25,903,750,0
15289400,323.57,903,763,0
15289410,322.16,903,750,0
15289420,320.57,903,762,0
15289431,318.43,903,750,0
15289441,316.33,903,762,0
15289451,314.34,903,750,0
15289461,312.95,903,762,0
15289472,312.03,903,750,0
15289481,311.80,903,763,0
15289491,312.16,903,750,0
15289501,313.36,903,763,0
15289511,315.31,903,751,0
15289521,317.57,903,763,0
15289531,319.67,903,750,0
15289541,321.27,903,763,0
15289551,322.56,903,751,0
15289561,323.42,903,762,0
15289571,323.94,903,750,0
15289581,324.21,903,762,0
15289591,325.39,903,751,0
15289601,328.66,903,762,0
15289611,336.26,903,750,0
15289621,349.90,903,762,0
15289631,372.26,903,750,0
15289641,405.09,903,762,0
15289660,446.04,954,761,0
15289663,491.63,954,757,0
15289673,539.22,954,751,0
15289683,585.57,954,752,0
15289693,627.96,954,750,0
15289703,663.11,954,756,0
15289713,688.71,954,751,0
15289723,706.62,954,752,0
15289733,719.21,954,750,0
15289743,727.97,954,757,0
15289753,734.15,954,751,0
15289763,738.44,954,752,0
15289773,741.48,954,750,0
15289783,743.60,954,758,0
15289793,745.14,954,751,0
15289803,746.17,954,753,0
15289814,746.93,954,750,0
15289823,747.47,954,757,0
15289833,747.88,954,751,0
15289843,748.13,954,753,0
15289853,748.31,954,751,0
15289863,748.34,954,757,0
15289873,743.70,954,751,0
15289883,730.50,954,753,0
15289893,708.15,954,751,0
15289903,675.83,954,762,0
15289913,634.53,954,751,0
15289923,584.14,954,760,0
15289933,526.97,954,752,0
15289943,468.39,954,762,0
15289953,414.40,954,751,0
15289963,366.28,954,762,0
15289973,327.24,954,753,0
15289984,296.70,954,757,0
15289993,276.26,954,751,0
15290003,263.58,954,762,0
15290013,259.29,954,752,0
15290023,260.32,954,756,0
15290033,266.82,954,751,0
15290043,275.11,954,761,0
15290053,285.23,954,750,0
15290063,294.50,954,756,0
15290073,303.70,954,750,0
15290083,310.47,954,761,0
15290093,316.37,954,750,0
15290103,319.78,954,755,0
15290113,322.41,954,750,0
15290123,323.10,954,761,0
15290133,324.02,954,750,0
15290143,323.28,954,757,0
15290153,322.81,954,755,0
15290163,321.45,954,761,0
15290173,321.06,954,750,0
15290183,319.84,954,757,0
15290193,319.46,954,756,0
15290203,318.17,954,761,0
15290213,318.37,954,750,0
15290223,318.00,954,758,0
15290233,318.73,954,754,0
15290243,319.07,954,761,0
15290253,320.55,954,750,0
15290263,321.50,954,758,0
15290273,323.79,954,753,0
15290284,324.80,954,751,0
15290294,326.92,954,761,0
15290304,327.71,954,751,0
15290314,329.26,954,762,0
15290324,329.82,954,750,0
15290334,331.25,954,760,0
15290344,331.26,954,751,0
15290354,332.72,954,762,0
15290364,332.55,954,750,0
15290374,333.58,954,760,0
15290384,333.07,954,754,0
15290394,333.39,954,762,0
15290404,332.12,954,751,0
15290414,331.78,954,756,0
15290424,329.92,954,754,0
15290434,329.17,954,762,0
15290444,326.85,954,751,0
15290455,326.17,954,762,0
15290465,326.12,954,750,0
15290475,331.52,954,763,0
15290485,340.41,954,750,0
15290505,356.49,844,747,0
15290508,378.75,844,750,0
15290518,411.79,844,761,0
15290528,452.14,844,749,0
15290539,497.44,844,761,0
15290548,542.48,844,748,0
15290558,586.61,844,762,0
15290568,626.28,844,749,0
15290578,661.00,844,761,0
15290588,686.88,844,748,0
15290598,705.05,844,761,0
15290608,717.80,844,748,0
15290618,726.78,844,761,0
15290628,733.02,844,749,0
15290638,737.38,844,761,0
15290648,740.44,844,748,0
15290658,742.58,844,761,0
15290668,744.03,844,748,0
15290678,745.05,844,761,0
15290688,745.72,844,748,0
15290698,746.19,844,761,0
15290708,746.48,844,748,0
15290718,746.68,844,761,0
15290728,746.82,844,748,0
15290738,743.40,844,761,0
15290748,732.65,844,748,0
15290758,713.60,844,761,0
15290768,684.40,844,748,0
15290778,645.84,844,761,0
15290788,597.93,844,748,0
15290798,542.62,844,761,0
15290808,483.98,844,749,0
15290818,427.76,844,761,0
15290828,376.02,844,748,0
15290839,332.51,844,761,0
15290849,297.47,844,749,0
15290859,272.52,844,761,0
15290869,256.12,844,748,0
15290880,248.67,844,761,0
15290889,248.00,844,749,0
15290899,253.44,844,761,0
15290909,262.78,844,748,0
15290919,274.63,844,761,0
15290929,286.83,844,748,0
15290939,298.84,844,761,0
15290949,309.30,844,748,0
15290959,318.17,844,761,0
15290969,324.76,844,749,0
15290979,329.25,844,761,0
15290989,331.27,844,748,0
15290999,331.58,844,761,0
15291009,330.20,844,749,0
15291019,327.91,844,761,0
15291029,324.55,844,748,0
15291039,320.79,844,761,0
15291049,316.69,844,749,0
15291059,313.44,844,761,0
15291069,310.82,844,749,0
15291079,309.16,844,761,0
15291089,308.13,844,749,0
15291099,308.26,844,761,0
15291109,309.13,844,749,0
15291119,310.85,844,761,0
15291129,312.95,844,749,0
15291139,315.54,844,761,0
15291149,318.03,844,749,0
15291159,320.68,844,761,0
15291169,323.13,844,749,0
15291180,325.45,844,761,0
15291190,327.54,844,749,0
15291200,329.27,844,761,0
15291210,330.73,844,749,0
15291220,331.92,844,761,0
15291230,332.80,844,749,0
15291240,333.38,844,761,0
15291250,333.78,844,749,0
15291260,333.84,844,761,0
15291270,333.85,844,749,0
15291280,333.59,844,761,0
15291290,333.50,844,749,0
15291300,333.09,844,761,0
15291310,332.64,844,749,0
15291320,331.85,844,761,0
15291330,331.04,844,749,0
15291340,330.00,844,761,0
15291351,328.97,844,749,0
15291361,327.78,844,761,0
15291371,327.84,844,750,0
15291381,329.52,844,761,0
15291392,335.15,844,749,0
15291401,345.56,844,761,0
15291411,363.56,844,749,0
15291421,390.82,844,761,0
15291441,428.08,936,759,0
15291444,471.21,936,750,0
15291453,517.73,936,753,0
15291463,563.97,936,749,0
15291473,607.99,936,759,0
15291483,646.35,936,750,0
15291493,676.68,936,752,0
15291503,697.90,936,749,0
15291513,712.80,936,758,0
15291523,723.19,936,750,0
15291533,730.50,936,752,0
15291543,735.58,936,749,0
15291553,739.18,936,758,0
15291564,741.65,936,749,0
15291574,743.43,936,762,0
15291584,744.67,936,749,0
15291594,745.58,936,762,0
15291604,746.22,936,749,0
15291614,746.71,936,762,0
15291624,747.06,936,749,0
15291634,747.34,936,762,0
15291644,747.49,936,749,0
15291654,747.60,936,762,0
15291664,746.52,936,749,0
15291674,741.01,936,762,0
15291684,726.52,936,749,0
15291694,702.88,936,762,0
15291704,668.29,936,749,0
15291714,624.61,936,762,0
15291724,571.46,936,749,0
15291735,512.65,936,762,0
15291745,451.85,936,749,0
15291755,396.66,936,762,0
15291765,347.56,936,748,0
15291776,308.91,936,762,0
15291785,279.02,936,749,0
15291795,260.37,936,762,0
15291805,249.85,936,748,0
15291815,248.35,936,762,0
15291825,251.76,936,749,0
15291835,260.83,936,761,0
15291845,271.60,936,748,0
15291855,284.62,936,762,0
15291865,296.26,936,749,0
15291875,307.88,936,761,0
15291885,316.53,936,748,0
15291895,324.26,936,762,0
15291905,328.51,936,749,0
15291915,331.74,936,762,0
15291925,331.91,936,749,0
15291935,331.68,936,762,0
15291945,328.95,936,749,0
15291955,326.65,936,762,0
15291965,322.64,936,748,0
15291975,319.58,936,762,0
15291985,315.46,936,749,0
15291995,313.01,936,762,0
15292005,310.09,936,749,0
15292015,309.08,936,762,0
15292025,307.81,936,749,0
15292035,308.64,936,762,0
15292045,309.43,936,749,0
15292055,312.26,936,762,0
15292065,314.80,936,749,0
15292076,318.93,936,762,0
15292086,322.42,936,748,0
15292096,326.84,936,762,0
15292106,330.19,936,749,0
15292116,334.03,936,762,0
15292126,336.42,936,749,0
15292136,339.08,936,762,0
15292146,340.04,936,749,0
15292156,341.19,936,761,0
15292166,341.00,936,749,0
15292176,341.13,936,762,0
15292186,340.11,936,749,0
15292196,339.56,936,761,0
15292206,338.02,936,749,0
15292216,337.41,936,762,0
15292226,336.39,936,749,0
15292236,336.40,936,761,0
15292247,335.94,936,749,0
15292257,336.26,936,762,0
15292267,336.05,936,749,0
15292277,336.29,936,761,0
15292288,335.82,936,749,0
15292297,335.79,936,762,0
15292307,335.55,936,749,0
15292317,337.10,936,762,0
15292327,340.97,936,749,0
15292337,349.64,936,762,0
15292347,364.32,936,749,0
15292357,388.01,936,761,0
15292367,421.56,936,748,0
15292386,462.49,946,747,0
15292389,507.17,946,750,0
15292399,553.06,946,761,0
15292409,597.10,946,749,0
15292419,637.06,946,762,0
15292429,669.65,946,749,0
15292439,693.03,946,762,0
15292449,709.39,946,749,0
15292460,720.89,946,762,0
15292470,728.98,946,749,0
15292480,734.69,946,761,0
15292490,738.68,946,749,0
15292500,741.48,946,760,0
15292510,743.43,946,749,0
15292520,744.80,946,761,0
15292530,745.76,946,749,0
15292540,746.43,946,760,0
15292550,746.90,946,749,0
15292560,747.23,946,761,0
15292570,747.46,946,749,0
15292580,747.62,946,760,0
15292590,745.98,946,749,0
15292600,738.19,946,761,0
15292610,721.72,946,749,0
15292620,694.84,946,761,0
15292631,657.91,946,750,0
15292641,610.83,946,761,0
15292651,555.51,946,750,0
15292661,494.33,946,761,0
15292672,434.32,946,753,0
15292681,378.81,946,761,0
15292691,331.94,946,750,0
15292701,294.20,946,761,0
15292711,267.61,946,752,0
15292721,250.46,946,761,0
15292731,243.29,946,750,0
15292741,243.12,946,761,0
15292751,249.98,946,751,0
15292761,260.66,946,761,0
15292771,274.48,946,750,0
15292781,288.30,946,761,0
15292791,302.53,946,750,0
15292801,314.75,946,761,0
15292811,325.54,946,750,0
15292821,333.09,946,761,0
15292831,338.77,946,750,0
15292841,341.24,946,756,0
15292851,342.49,946,750,0
15292861,341.06,946,761,0
15292871,338.94,946,750,0
15292881,335.02,946,757,0
15292891,331.20,946,750,0
15292901,326.34,946,761,0
15292911,322.34,946,750,0
15292921,317.69,946,758,0
15292931,314.23,946,750,0
15292941,310.82,946,761,0
15292951,309.07,946,750,0
15292961,307.29,946,758,0
15292972,307.21,946,756,0
15292982,307.19,946,751,0
15292992,309.02,946,762,0
15293002,310.60,946,750,0
15293012,313.59,946,762,0
15293022,316.03,946,752,0
15293032,319.70,946,762,0
15293042,322.24,946,750,0
15293052,326.02,946,761,0
15293062,328.42,946,752,0
15293072,331.72,946,762,0
15293082,333.39,946,750,0
15293092,335.97,946,761,0
15293102,337.10,946,752,0
15293112,339.00,946,761,0
15293122,339.08,946,750,0
15293132,340.09,946,762,0
15293143,339.50,946,749,0
15293153,339.95,946,761,0
15293163,338.77,946,749,0
15293173,338.54,946,761,0
15293184,336.88,946,748,0
15293193,336.23,946,761,0
15293203,334.10,946,749,0
15293213,333.43,946,761,0
15293223,331.71,946,748,0
15293233,332.14,946,761,0
15293243,332.74,946,749,0
15293253,337.66,946,761,0
15293263,345.74,946,748,0
15293273,361.16,946,761,0
15293283,383.10,946,749,0
15293293,415.85,946,761,0
15293313,455.37,926,760,0
15293316,499.96,926,760,0
15293326,545.18,926,748,0
15293336,589.70,926,761,0
15293346,629.73,926,748,0
15293356,664.01,926,761,0
15293366,688.91,926,748,0
15293376,706.42,926,761,0
15293386,718.68,926,748,0
15293396,727.26,926,761,0
15293406,733.27,926,748,0
15293416,737.52,926,761,0
15293426,740.49,926,748,0
15293436,742.57,926,761,0
15293446,743.99,926,748,0
15293456,745.02,926,761,0
15293466,745.74,926,748,0
15293476,746.20,926,761,0
15293486,742.20,926,748,0
15293496,731.60,926,761,0
15293506,712.00,926,748,0
15293516,683.12,926,761,0
15293527,644.42,926,748,0
15293537,596.85,926,761,0
15293547,541.27,926,748,0
15293557,483.93,926,761,0
15293568,428.32,926,749,0
15293577,378.68,926,761,0
15293587,336.39,926,749,0
15293597,303.40,926,761,0
15293607,279.71,926,749,0
15293617,265.53,926,761,0
15293627,258.98,926,748,0
15293637,259.55,926,761,0
15293647,265.21,926,749,0
15293657,275.05,926,761,0
15293667,286.90,926,748,0
15293677,299.96,926,761,0
15293687,312.57,926,748,0
15293697,324.57,926,761,0
15293707,334.43,926,748,0
15293717,342.27,926,761,0
15293727,347.50,926,748,0
15293737,350.61,926,761,0
15293747,351.24,926,748,0
15293757,350.10,926,761,0
15293767,346.90,926,748,0
15293777,342.60,926,761,0
15293787,337.28,926,748,0
15293797,331.88,926,761,0
15293807,326.52,926,749,0
15293817,321.95,926,761,0
15293827,318.02,926,748,0
15293837,315.61,926,761,0
15293847,314.36,926,748,0
15293857,314.59,926,761,0
15293868,315.83,926,748,0
15293878,318.24,926,761,0
15293888,321.38,926,749,0
15293898,325.17,926,761,0
15293908,329.06,926,749,0
15293918,333.11,926,761,0
15293928,336.59,926,749,0
15293938,339.42,926,760,0
15293948,341.65,926,748,0
15293958,343.21,926,760,0
15293968,344.22,926,748,0
15293978,344.58,926,760,0
15293988,344.66,926,748,0
15293998,344.64,926,760,0
15294008,344.57,926,748,0
15294018,344.23,926,760,0
15294028,343.90,926,748,0
15294039,343.55,926,760,0
15294049,343.34,926,748,0
15294059,342.85,926,760,0
15294069,342.55,926,748,0
15294080,341.92,926,760,0
15294089,341.51,926,748,0
15294099,340.59,926,760,0
15294109,339.68,926,748,0
15294119,338.58,926,760,0
15294129,338.28,926,748,0
15294139,338.75,926,760,0
15294149,342.17,926,748,0
15294159,348.93,926,759,0
15294169,360.95,926,747,0
15294179,378.97,926,757,0
15294189,398.86,926,735,0
15294199,414.42,926,750,0
15294218,438.08,906,748,0
15294221,465.14,906,739,0
15294231,496.64,906,743,0
15294241,528.85,906,741,0
15294252,559.15,906,752,0
15294262,590.52,906,741,0
15294272,627.61,906,754,0
15294282,656.95,906,739,0
15294292,681.44,906,754,0
15294302,698.79,906,741,0
15294312,711.20,906,754,0
15294322,719.75,906,742,0
15294332,725.78,906,753,0
15294342,729.88,906,740,0
15294352,733.00,906,758,0
15294362,735.31,906,746,0
15294372,737.19,906,759,0
15294382,738.63,906,746,0
15294392,739.99,906,759,0
15294402,741.06,906,746,0
15294412,742.11,906,759,0
15294423,742.89,906,745,0
15294433,740.27,906,758,0
15294443,729.90,906,745,0
15294453,710.86,906,758,0
15294464,681.55,906,746,0
15294473,643.97,906,759,0
15294483,597.65,906,746,0
15294493,545.38,906,759,0
15294503,490.45,906,747,0
15294513,439.70,906,759,0
15294523,394.11,906,746,0
15294533,357.99,906,759,0
15294543,329.19,906,746,0
15294553,310.28,906,759,0
15294563,297.59,906,747,0
15294573,292.79,906,759,0
15294583,292.29,906,746,0
15294593,297.56,906,759,0
15294603,303.91,906,746,0
15294613,312.59,906,759,0
15294623,320.09,906,747,0
15294633,328.20,906,759,0
15294643,333.71,906,747,0
15294653,338.56,906,759,0
15294663,340.70,906,747,0
15294673,343.32,906,759,0
15294683,344.00,906,747,0
15294693,345.37,906,760,0
15294703,345.13,906,747,0
15294713,345.91,906,760,0
15294723,345.42,906,747,0
15294733,345.98,906,760,0
15294743,344.96,906,748,0
15294753,344.93,906,760,0
15294764,343.45,906,747,0
15294774,343.01,906,760,0
15294784,341.34,906,747,0
15294794,340.72,906,760,0
15294804,338.83,906,747,0
15294814,338.03,906,760,0
15294824,336.13,906,747,0
15294834,335.41,906,760,0
15294844,333.87,906,747,0
15294854,333.57,906,760,0
15294864,332.58,906,747,0
15294874,332.49,906,759,0
15294884,331.45,906,747,0
15294894,331.65,906,760,0
15294904,330.86,906,747,0
15294914,331.16,906,760,0
15294924,330.77,906,747,0
15294935,331.65,906,760,0
15294945,332.18,906,747,0
15294955,334.10,906,760,0
15294965,335.36,906,747,0
15294976,337.86,906,760,0
15294985,339.62,906,747,0
15294995,342.18,906,759,0
15295005,343.71,906,747,0
15295015,345.68,906,760,0
15295025,346.55,906,747,0
15295035,347.97,906,760,0
15295045,348.58,906,747,0
15295055,349.65,906,760,0
15295065,349.88,906,748,0
15295075,350.82,906,760,0
15295085,351.13,906,748,0
15295095,351.78,906,760,0
15295105,351.33,906,748,0
15295115,351.23,906,760,0
15295125,350.26,906,747,0
15295135,350.18,906,760,0
15295145,350.51,906,747,0
15295155,354.00,906,760,0
15295174,361.37,956,758,0
15295177,376.09,956,761,0
15295187,400.32,956,748,0
15295197,434.81,956,760,0
15295207,475.50,956,748,0
15295217,520.13,956,760,0
15295227,565.18,956,748,0
15295237,608.67,956,760,0
15295247,647.04,956,748,0
15295257,676.81,956,760,0
15295267,697.70,956,748,0
15295277,712.36,956,760,0
15295287,722.67,956,748,0
15295297,729.88,956,760,0
15295307,734.93,956,748,0
15295318,738.47,956,760,0
15295327,740.98,956,748,0
15295337,742.70,956,760,0
15295347,743.91,956,748,0
15295357,744.75,956,760,0
15295367,745.38,956,748,0
15295377,745.78,956,760,0
15295387,746.06,956,748,0
15295397,746.21,956,760,0
15295407,746.36,956,748,0
15295417,746.43,956,760,0
15295427,745.53,956,748,0
15295437,739.15,956,760,0
15295447,724.58,956,747,0
15295457,700.06,956,759,0
15295467,665.42,956,748,0
15295477,620.93,956,760,0
15295488,567.90,956,748,0
15295497,508.66,956,760,0
15295507,449.53,956,748,0
15295517,394.73,956,760,0
15295527,347.84,956,748,0
15295537,310.39,956,760,0
15295547,283.36,956,748,0
15295557,266.54,956,760,0
15295567,259.13,956,748,0
15295577,259.31,956,760,0
15295587,265.60,956,748,0
15295597,275.92,956,760,0
15295607,288.84,956,748,0
15295617,302.61,956,760,0
15295627,315.80,956,748,0
15295637,327.34,956,760,0
15295647,336.93,956,748,0
15295657,344.10,956,760,0
15295667,348.96,956,748,0
15295677,351.16,956,760,0
15295687,351.11,956,748,0
15295697,349.06,956,760,0
15295707,345.74,956,747,0
15295717,341.75,956,760,0
15295727,337.32,956,748,0
15295737,332.77,956,760,0
15295747,329.20,956,748,0
15295757,326.48,956,760,0
15295767,324.62,956,748,0
15295777,323.36,956,760,0
15295788,322.44,956,748,0
15295798,322.22,956,760,0
15295808,322.63,956,748,0
15295818,322.52,956,760,0
15295828,322.45,956,748,0
15295838,321.76,956,759,0
15295848,319.95,956,747,0
15295858,316.92,956,758,0
15295868,312.57,956,746,0
15295878,307.13,956,758,0
15295888,296.42,956,743,0
15295898,279.79,956,751,0
15295908,259.41,956,741,0
15295918,237.05,956,751,0
15295928,216.03,956,740,0
15295938,198.75,956,755,0
15295948,187.55,956,743,0
15295959,188.67,956,755,0
15295969,202.27,956,744,0
15295979,225.20,956,755,0
15295989,255.53,956,744,0
15296000,288.50,956,748,0
15296009,321.39,956,744,0
15296019,350.07,956,753,0
15296029,373.45,956,744,0
15296039,390.12,956,749,0
15296049,401.87,956,745,0
15296059,408.42,956,755,0
15296069,412.19,956,745,0
15296079,412.31,956,750,0
15296089,410.93,956,745,0
15296099,406.67,956,755,0
15296109,402.18,956,745,0
15296119,397.63,956,753,0
15296129,395.94,956,746,0
15296139,397.41,956,756,0
15296149,405.73,956,746,0
15296159,421.58,956,751,0
15296169,448.54,956,747,0
15296179,482.92,956,751,0
15296189,522.41,956,746,0
15296199,563.48,956,747,0
15296209,603.92,956,746,0
15296219,640.46,956,751,0
15296229,671.18,956,746,0
15296239,693.07,956,748,0
15296249,708.43,956,746,0
15296259,719.19,956,752,0
15296269,726.72,956,746,0
15296279,731.95,956,750,0
15296289,735.65,956,746,0
15296300,738.24,956,747,0
15296310,740.10,956,747,0
15296320,741.35,956,746,0
15296330,742.28,956,752,0
15296340,742.92,956,746,0
15296359,743.42,1185,745,0
15296362,739.56,1185,747,0
15296372,730.39,1185,758,0
15296382,712.53,1185,745,0
15296392,686.53,1185,758,0
15296402,651.01,1185,746,0
15296412,607.68,1185,758,0
15296422,556.18,1185,746,0
15296432,503.32,1185,758,0
15296442,449.83,1185,746,0
15296452,402.09,1185,758,0
15296462,359.51,1185,746,0
15296472,326.23,1185,758,0
15296482,300.02,1185,746,0
15296492,283.60,1185,758,0
15296502,273.60,1185,746,0
15296513,272.01,1185,758,0
15296523,274.83,1185,745,0
15296533,283.37,1185,758,0
15296543,293.46,1185,746,0
15296553,306.26,1185,758,0
15296563,318.18,1185,745,0
15296573,330.34,1185,758,0
15296583,339.93,1185,746,0
15296593,348.22,1185,758,0
15296603,353.04,1185,745,0
15296613,356.46,1185,758,0
15296623,356.96,1185,746,0
15296633,356.46,1185,758,0
15296643,353.88,1185,746,0
15296653,351.86,1185,759,0
15296663,349.16,1185,746,0
15296673,347.52,1185,759,0
15296684,345.48,1185,746,0
15296694,344.48,1185,759,0
15296704,343.22,1185,746,0
15296714,342.90,1185,759,0
15296724,341.64,1185,746,0
15296734,340.81,1185,759,0
15296744,339.02,1185,746,0
15296754,337.60,1185,759,0
15296764,335.62,1185,746,0
15296774,334.45,1185,759,0
15296784,333.07,1185,746,0
15296794,332.36,1185,759,0
15296804,331.53,1185,746,0
15296814,331.80,1185,759,0
15296824,332.20,1185,746,0
15296834,333.51,1185,759,0
15296844,334.39,1185,746,0
15296855,335.64,1185,759,0
15296865,336.52,1185,747,0
15296875,337.82,1185,759,0
15296885,338.73,1185,747,0
15296896,339.67,1185,759,0
15296905,340.20,1185,747,0
15296915,341.04,1185,759,0
15296925,341.58,1185,746,0
15296935,342.22,1185,759,0
15296945,342.50,1185,747,0
15296955,342.91,1185,759,0
15296965,343.19,1185,746,0
15296975,343.39,1185,759,0
15296985,343.10,1185,747,0
15296995,342.90,1185,759,0
15297005,342.46,1185,746,0
15297015,342.11,1185,759,0
15297025,341.30,1185,747,0
15297035,340.83,1185,759,0
15297045,341.05,1185,746,0
15297055,343.01,1185,759,0
15297065,347.89,1185,747,0
15297075,357.52,1185,759,0
15297094,373.48,735,758,0
15297097,398.45,735,759,0
15297107,433.07,735,748,0
15297117,473.98,735,759,0
15297127,518.30,735,747,0
15297137,563.17,735,758,0
15297147,605.97,735,747,0
15297157,644.08,735,759,0
15297167,674.57,735,747,0
15297177,695.91,735,758,0
15297187,710.90,735,747,0
15297197,721.43,735,759,0
15297207,728.76,735,747,0
15297217,733.89,735,758,0
15297227,737.48,735,747,0
15297238,739.99,735,757,0
15297247,741.71,735,747,0
15297257,742.87,735,758,0
15297267,743.68,735,747,0
15297277,744.29,735,757,0
15297287,744.72,735,747,0
15297297,745.02,735,759,0
15297307,745.23,735,747,0
15297317,745.41,735,757,0
15297327,742.89,735,747,0
15297337,733.58,735,759,0
15297347,715.36,735,747,0
15297357,686.71,735,759,0
15297367,648.48,735,747,0
15297377,600.90,735,759,0
15297387,545.43,735,748,0
15297397,485.73,735,759,0
15297408,428.04,735,748,0
15297417,375.66,735,759,0
15297427,331.96,735,747,0
15297437,297.17,735,759,0
15297447,272.82,735,748,0
15297457,257.75,735,759,0
15297467,252.04,735,747,0
15297477,253.18,735,759,0
15297487,260.76,735,748,0
15297497,272.06,735,759,0
15297507,286.18,735,747,0
15297517,300.44,735,759,0
15297527,314.67,735,747,0
15297537,326.72,735,759,0
15297547,336.96,735,747,0
15297557,343.96,735,759,0
15297567,348.82,735,747,0
15297577,350.54,735,759,0
15297587,350.64,735,747,0
15297597,348.43,735,759,0
15297607,345.52,735,747,0
15297617,341.38,735,759,0
15297627,337.36,735,747,0
15297637,332.84,735,759,0
15297647,329.37,735,748,0
15297657,325.92,735,759,0
15297667,323.71,735,747,0
15297677,321.70,735,759,0
15297687,321.06,735,748,0
15297697,320.49,735,759,0
15297708,321.24,735,748,0
15297718,321.64,735,758,0
15297728,322.95,735,750,0
15297738,323.39,735,751,0
15297748,324.77,735,759,0
15297758,325.44,735,758,0
15297768,326.68,735,750,0
15297778,326.91,735,751,0
15297788,327.96,735,759,0
15297798,328.02,735,758,0
15297808,328.95,735,750,0
15297818,328.54,735,751,0
15297828,328.76,735,758,0
15297838,328.28,735,758,0
15297848,328.49,735,749,0
15297858,327.70,735,752,0
15297868,328.26,735,758,0
15297879,328.27,735,748,0
15297889,329.95,735,759,0
15297899,330.86,735,746,0
15297909,333.00,735,759,0
15297920,334.46,735,746,0
15297929,337.06,735,759,0
15297939,338.29,735,746,0
15297949,340.52,735,759,0
15297959,341.09,735,746,0
15297969,342.69,735,759,0
15297979,342.70,735,746,0
15297989,343.69,735,759,0
15297999,343.18,735,746,0
15298009,343.64,735,759,0
15298019,342.46,735,746,0
15298029,342.62,735,759,0
15298039,342.01,735,746,0
15298049,343.81,735,759,0
15298059,346.78,735,746,0
15298078,355.29,984,745,0
15298081,369.13,984,746,0
15298092,393.39,984,759,0
15298102,427.09,984,746,0
15298112,468.03,984,759,0
15298122,512.25,984,746,0
15298132,558.12,984,759,0
15298142,601.67,984,745,0
15298152,641.20,984,759,0
15298162,672.34,984,746,0
15298172,694.18,984,759,0
15298182,709.47,984,746,0
15298192,720.21,984,759,0
15298202,727.78,984,746,0
15298212,733.07,984,759,0
15298222,736.74,984,746,0
15298232,739.34,984,759,0
15298242,741.21,984,746,0
15298252,742.56,984,759,0
15298263,743.47,984,746,0
15298273,744.10,984,759,0
15298283,744.58,984,746,0
15298293,744.96,984,759,0
15298304,745.19,984,746,0
15298313,745.35,984,759,0
15298323,745.41,984,746,0
15298333,741.65,984,759,0
15298343,729.97,984,746,0
15298353,709.32,984,759,0
15298363,678.24,984,746,0
15298373,637.32,984,759,0
15298383,587.13,984,746,0
15298393,529.45,984,759,0
15298403,469.14,984,746,0
15298413,412.31,984,759,0
15298423,361.39,984,746,0
15298433,319.79,984,759,0
15298443,287.67,984,746,0
15298453,266.17,984,759,0
15298463,253.82,984,746,0
15298473,250.44,984,759,0
15298483,253.65,984,746,0
15298493,262.54,984,759,0
15298503,274.64,984,746,0
15298513,289.19,984,759,0
15298523,303.53,984,746,0
15298533,317.30,984,759,0
15298543,328.83,984,746,0
15298553,338.43,984,759,0
15298563,345.03,984,746,0
15298573,349.22,984,759,0
15298583,350.40,984,746,0
15298593,349.68,984,759,0
15298604,346.90,984,746,0
15298614,343.08,984,759,0
15298624,338.17,984,747,0
15298634,333.10,984,759,0
15298644,328.01,984,747,0
15298654,323.68,984,759,0
15298664,319.88,984,747,0
15298674,317.13,984,759,0
15298684,315.42,984,746,0
15298694,314.78,984,759,0
15298704,314.80,984,747,0
15298714,315.50,984,759,0
15298724,316.68,984,747,0
15298734,318.53,984,759,0
15298744,320.60,984,746,0
15298754,322.69,984,759,0
15298764,324.76,984,747,0
15298775,326.80,984,759,0
15298785,328.62,984,747,0
15298795,330.15,984,759,0
15298805,331.47,984,747,0
15298816,332.49,984,758,0
15298825,333.24,984,747,0
15298835,333.60,984,759,0
15298845,333.98,984,747,0
15298855,333.98,984,758,0
15298865,334.07,984,747,0
15298875,333.84,984,759,0
15298885,333.89,984,747,0
15298895,333.92,984,759,0
15298905,334.16,984,747,0
15298915,334.11,984,759,0
15298925,334.38,984,747,0
15298935,334.56,984,758,0
15298945,335.00,984,747,0
15298955,335.21,984,759,0
15298965,335.70,984,747,0
15298975,336.22,984,758,0
15298985,337.40,984,747,0
15298995,338.65,984,759,0
15299005,340.34,984,747,0
15299015,341.82,984,759,0
15299025,343.59,984,747,0
15299035,345.09,984,758,0
15299045,346.65,984,747,0
15299055,347.48,984,759,0
15299065,348.24,984,747,0
15299075,348.17,984,758,0
15299085,347.82,984,747,0
15299095,346.67,984,759,0
15299105,345.61,984,747,0
15299116,344.83,984,758,0
15299126,345.99,984,747,0
15299145,349.81,1067,746,0
15299148,359.90,1067,759,0
15299159,377.63,1067,746,0
15299169,406.54,1067,759,0
15299179,444.01,1067,747,0
15299189,487.16,1067,759,0
15299200,532.80,1067,746,0
15299209,578.72,1067,760,0
15299219,620.80,1067,746,0
15299229,657.08,1067,759,0
15299239,683.67,1067,746,0
15299249,702.32,1067,760,0
15299259,715.38,1067,747,0
15299269,724.61,1067,759,0
15299279,731.03,1067,746,0
15299289,735.56,1067,760,0
15299299,738.69,1067,747,0
15299309,740.93,1067,759,0
15299319,742.45,1067,746,0
15299329,743.51,1067,760,0
15299339,744.22,1067,747,0
15299349,744.80,1067,759,0
15299359,745.16,1067,746,0
15299369,745.45,1067,759,0
15299379,745.62,1067,747,0
15299389,745.82,1067,760,0
15299399,745.92,1067,746,0
15299409,743.54,1067,760,0
15299419,733.95,1067,747,0
15299429,715.96,1067,759,0
15299439,687.00,1067,746,0
15299449,648.56,1067,759,0
15299459,600.26,1067,747,0
15299469,544.56,1067,759,0
15299479,484.05,1067,746,0
15299489,426.18,1067,759,0
15299500,372.81,1067,747,0
15299510,329.28,1067,759,0
15299520,294.48,1067,747,0
15299530,270.81,1067,759,0
15299540,255.82,1067,747,0
15299550,250.82,1067,759,0
15299560,252.29,1067,747,0
15299570,260.64,1067,759,0
15299580,271.89,1067,747,0
15299590,286.28,1067,759,0
15299600,300.17,1067,747,0
15299610,314.18,1067,759,0
15299620,325.39,1067,747,0
15299630,335.26,1067,759,0
15299640,341.31,1067,747,0
15299650,345.42,1067,759,0
15299660,345.89,1067,747,0
15299671,344.98,1067,759,0
15299681,341.39,1067,747,0
15299691,337.33,1067,759,0
15299701,331.70,1067,747,0
15299712,326.56,1067,759,0
15299721,320.61,1067,746,0
15299731,315.93,1067,759,0
15299741,311.49,1067,746,0
15299751,308.94,1067,759,0
15299761,306.90,1067,746,0
15299771,306.55,1067,759,0
15299781,306.60,1067,746,0
15299791,308.30,1067,759,0
15299801,310.06,1067,746,0
15299811,313.04,1067,759,0
15299821,315.56,1067,746,0
15299831,318.90,1067,759,0
15299841,321.55,1067,746,0
15299851,324.94,1067,759,0
15299861,327.53,1067,746,0
15299871,330.50,1067,759,0
15299881,332.32,1067,746,0
15299891,334.41,1067,759,0
15299901,335.19,1067,746,0
15299911,336.25,1067,759,0
15299921,336.30,1067,746,0
15299931,336.85,1067,759,0
15299941,336.47,1067,746,0
15299951,336.50,1067,759,0
15299961,335.79,1067,746,0
15299971,335.81,1067,759,0
15299981,335.01,1067,746,0
15299991,334.62,1067,759,0
15300001,333.41,1067,746,0
15300012,332.86,1067,759,0
15300022,331.74,1067,746,0
15300032,331.22,1067,759,0
15300042,330.30,1067,746,0
15300052,330.08,1067,759,0
15300062,329.58,1067,746,0
15300072,329.88,1067,759,0
15300082,329.96,1067,746,0
15300092,330.61,1067,759,0
15300102,330.94,1067,746,0
15300112,331.56,1067,759,0
15300122,331.86,1067,746,0
15300132,332.16,1067,758,0
15300142,331.86,1067,746,0
15300152,331.60,1067,759,0
15300162,331.29,1067,746,0
15300172,331.98,1067,758,0
15300183,334.38,1067,747,0
15300193,340.22,1067,758,0
15300203,351.21,1067,746,0
15300222,369.58,1077,744,0
15300226,397.95,1077,748,0
15300236,435.46,1077,753,0
15300246,478.61,1077,747,0
15300256,524.41,1077,747,0
15300267,570.15,1077,748,0
15300276,613.05,1077,751,0
15300286,650.40,1077,747,0
15300296,678.83,1077,747,0
15300306,698.76,1077,748,0
15300316,712.72,1077,752,0
15300326,722.58,1077,747,0
15300336,729.39,1077,747,0
15300346,734.20,1077,748,0
15300356,737.53,1077,752,0
15300366,739.90,1077,747,0
15300376,741.47,1077,748,0
15300386,742.62,1077,748,0
15300396,743.37,1077,752,0
15300406,743.99,1077,747,0
15300416,744.34,1077,748,0
15300426,744.58,1077,747,0
15300436,744.66,1077,747,0
15300446,744.76,1077,747,0
15300456,741.19,1077,748,0
15300466,731.66,1077,748,0
15300476,712.91,1077,747,0
15300486,684.95,1077,747,0
15300496,646.56,1077,751,0
15300506,599.34,1077,752,0
15300516,543.39,1077,748,0
15300526,484.86,1077,747,0
15300536,426.79,1077,756,0
15300546,375.68,1077,757,0
15300556,331.93,1077,751,0
15300567,298.78,1077,759,0
15300577,274.16,1077,747,0
15300587,260.01,1077,759,0
15300597,253.15,1077,746,0
15300608,254.52,1077,758,0
15300617,259.68,1077,747,0
15300627,269.50,1077,759,0
15300637,280.97,1077,747,0
15300647,295.76,1077,759,0
15300657,309.81,1077,747,0
15300667,324.35,1077,759,0
15300677,335.47,1077,746,0
15300687,345.06,1077,758,0
15300697,350.44,1077,747,0
15300707,353.65,1077,759,0
15300717,352.09,1077,747,0
15300727,349.23,1077,759,0
15300737,343.50,1077,747,0
15300747,338.81,1077,759,0
15300757,333.34,1077,746,0
15300767,329.38,1077,758,0
15300777,324.29,1077,746,0
15300787,321.03,1077,759,0
15300797,316.61,1077,747,0
15300807,314.46,1077,758,0
15300817,311.79,1077,746,0
15300827,311.77,1077,760,0
15300837,312.14,1077,747,0
15300847,315.10,1077,758,0
15300857,317.64,1077,746,0
15300867,322.20,1077,759,0
15300877,325.14,1077,746,0
15300887,329.17,1077,758,0
15300897,330.28,1077,745,0
15300908,330.58,1077,758,0
15300918,328.82,1077,745,0
15300928,328.15,1077,758,0
15300938,325.27,1077,745,0
15300948,325.71,1077,759,0
15300958,326.05,1077,746,0
15300968,328.82,1077,759,0
15300978,333.29,1077,747,0
15300988,340.96,1077,759,0
15300998,347.79,1077,746,0
15301008,356.68,1077,759,0
15301018,362.52,1077,746,0
15301028,366.73,1077,757,0
15301038,362.53,1077,743,0
15301048,353.84,1077,756,0
15301058,341.25,1077,745,0
15301068,329.34,1077,756,0
15301079,316.00,1077,744,0
15301089,304.08,1077,756,0
15301099,292.23,1077,744,0
15301109,290.45,1077,757,0
15301120,291.51,1077,744,0
15301129,295.73,1077,756,0
15301139,299.84,1077,743,0
15301149,306.45,1077,756,0
15301159,312.91,1077,744,0
15301169,322.20,1077,756,0
15301179,330.32,1077,744,0
15301189,342.44,1077,755,0
15301199,358.29,1077,745,0
15301209,382.81,1077,758,0
15301219,414.58,1077,744,0
15301229,453.02,1077,754,0
15301249,495.31,1026,755,0
15301252,539.96,1026,755,0
15301262,583.77,1026,744,0
15301272,624.38,1026,756,0
15301282,657.31,1026,744,0
15301292,682.46,1026,756,0
15301302,700.71,1026,744,0
15301312,713.48,1026,756,0
15301322,722.34,1026,744,0
15301332,728.54,1026,756,0
15301342,732.88,1026,744,0
15301352,735.91,1026,756,0
15301362,738.04,1026,744,0
15301372,739.53,1026,756,0
15301382,740.57,1026,744,0
15301392,741.34,1026,757,0
15301402,741.88,1026,744,0
15301412,741.15,1026,757,0
15301422,736.04,1026,744,0
15301432,724.29,1026,756,0
15301442,704.06,1026,744,0
15301452,674.90,1026,757,0
15301463,637.17,1026,744,0
15301473,591.39,1026,756,0
15301483,540.06,1026,745,0
15301493,487.11,1026,757,0
15301504,436.72,1026,745,0
15301513,391.93,1026,756,0
15301523,354.37,1026,745,0
15301533,324.56,1026,757,0
15301543,303.18,1026,745,0
15301553,289.19,1026,756,0
15301563,282.58,1026,745,0
15301573,281.63,1026,757,0
15301583,285.52,1026,745,0
15301593,292.73,1026,757,0
15301603,302.24,1026,745,0
15301613,312.54,1026,757,0
15301623,323.31,1026,746,0
15301633,333.20,1026,757,0
15301643,341.63,1026,745,0
15301653,347.52,1026,757,0
15301663,351.35,1026,745,0
15301673,352.66,1026,756,0
15301683,351.91,1026,745,0
15301693,348.63,1026,757,0
15301703,343.94,1026,745,0
15301713,337.66,1026,756,0
15301723,329.88,1026,744,0
15301733,321.17,1026,756,0
15301743,313.53,1026,744,0
15301753,306.73,1026,756,0
15301763,302.10,1026,745,0
15301773,299.84,1026,757,0
15301783,300.70,1026,745,0
15301793,304.86,1026,757,0
15301804,311.68,1026,745,0
15301814,318.93,1026,756,0
15301824,327.22,1026,745,0
15301834,334.83,1026,756,0
15301844,341.44,1026,745,0
15301854,346.28,1026,757,0
15301864,350.48,1026,746,0
15301874,353.25,1026,757,0
15301884,355.96,1026,746,0
15301894,357.39,1026,757,0
15301904,358.69,1026,746,0
15301914,358.52,1026,757,0
15301924,358.32,1026,745,0
15301934,356.73,1026,757,0
15301944,354.88,1026,745,0
15301954,351.83,1026,757,0
15301964,349.31,1026,746,0
15301975,345.92,1026,755,0
15301985,343.50,1026,749,0
15301995,340.65,1026,748,0
15302005,339.08,1026,758,0
15302016,337.34,1026,746,0
15302025,336.98,1026,749,0
15302035,336.13,1026,749,0
15302045,336.78,1026,757,0
15302055,336.84,1026,746,0
15302065,337.88,1026,748,0
15302075,337.61,1026,749,0
15302085,339.87,1026,758,0
15302095,340.38,1026,745,0
15302105,339.62,1026,747,0
15302115,335.79,1026,747,0
15302125,332.47,1026,756,0
15302135,328.94,1026,746,0
15302145,329.17,1026,747,0
15302155,331.01,1026,750,0
15302165,340.52,1026,751,0
15302175,359.56,1026,745,0
15302185,392.14,1026,756,0
15302204,433.28,956,744,0
15302207,480.21,956,757,0
15302217,528.36,956,744,0
15302227,575.91,956,757,0
15302237,618.92,956,744,0
15302247,655.42,956,756,0
15302257,681.78,956,744,0
15302267,700.36,956,758,0
15302277,713.37,956,744,0
15302287,722.51,956,756,0
15302297,728.87,956,744,0
15302307,733.33,956,756,0
15302317,736.40,956,744,0
15302327,738.59,956,757,0
15302337,740.00,956,744,0
15302347,741.07,956,757,0
15302358,741.82,956,744,0
15302367,742.39,956,757,0
15302377,742.83,956,745,0
15302387,743.22,956,757,0
15302397,743.50,956,744,0
15302407,743.74,956,757,0
15302417,743.86,956,745,0
15302427,743.99,956,757,0
15302437,739.53,956,745,0
15302447,728.79,956,757,0
15302457,708.49,956,744,0
15302467,679.16,956,757,0
15302477,639.81,956,745,0
15302487,592.68,956,757,0
15302497,537.58,956,744,0
15302507,481.86,956,757,0
15302517,427.35,956,745,0
15302528,379.93,956,757,0
15302537,339.32,956,745,0
15302547,309.18,956,757,0
15302557,286.88,956,745,0
15302567,274.28,956,757,0
15302577,267.72,956,745,0
15302587,268.75,956,757,0
15302597,273.37,956,745,0
15302607,282.26,956,757,0
15302617,291.39,956,744,0
15302627,301.90,956,757,0
15302637,310.50,956,744,0
15302647,318.84,956,757,0
15302657,323.86,956,744,0
15302667,328.92,956,758,0
15302677,332.67,956,745,0
15302687,336.75,956,757,0
15302697,338.84,956,745,0
15302707,342.53,956,758,0
15302717,345.20,956,746,0
15302727,348.91,956,758,0
15302737,350.44,956,745,0
15302747,350.74,956,758,0
15302757,348.46,956,745,0
15302767,347.72,956,758,0
15302777,344.89,956,745,0
15302787,341.79,956,757,0
15302797,335.51,956,742,0
15302807,331.42,956,758,0
15302817,327.95,956,745,0
15302828,327.71,956,758,0
15302838,327.24,956,746,0
15302848,328.75,956,758,0
15302858,331.23,956,745,0
15302868,337.37,956,758,0
15302878,341.98,956,745,0
15302888,346.27,956,757,0
15302898,346.27,956,743,0
15302908,343.49,956,755,0
15302918,335.97,956,742,0
15302928,326.51,956,753,0
15302938,321.51,956,747,0
15302948,321.96,956,759,0
15302958,325.40,956,748,0
15302968,336.17,956,761,0
15302978,350.73,956,747,0
15302988,370.18,956,761,0
15302999,391.21,956,748,0
15303009,406.75,956,761,0
15303028,415.65,824,759,0
15303031,419.57,824,759,0
15303041,417.09,824,748,0
15303051,411.02,824,760,0
15303061,401.67,824,748,0
15303071,390.54,824,760,0
15303081,377.82,824,748,0
15303091,365.06,824,760,0
15303101,353.21,824,748,0
15303111,342.22,824,760,0
15303121,333.84,824,749,0
15303131,328.92,824,760,0
15303141,328.81,824,748,0
15303151,335.90,824,760,0
15303161,351.19,824,748,0
15303171,375.77,824,760,0
15303181,411.71,824,747,0
15303191,454.66,824,760,0
15303201,501.34,824,746,0
15303212,548.86,824,761,0
15303222,593.73,824,747,0
15303232,633.79,824,759,0
15303242,667.16,824,748,0
15303252,690.90,824,758,0
15303271,707.47,0,760,0
15303274,719.16,0,752,0
15303283,727.42,0,750,0
15303293,733.25,0,752,0
15303303,737.42,0,749,0
15303313,740.38,0,758,0
15303323,742.54,0,749,0
15303333,744.00,0,752,0
15303343,744.99,0,746,0
15303353,745.68,0,756,0
15303363,746.20,0,749,0
15303373,746.31,0,749,0
15303383,746.39,0,749,0
15303393,746.15,0,754,0
15303403,745.93,0,742,0
15303413,740.47,0,750,0
15303424,728.24,0,741,0
15303433,705.45,0,758,0
15303443,672.62,0,747,0
15303453,629.92,0,756,0
15303463,579.33,0,749,0
15303473,525.02,0,762,0
15303483,475.98,0,751,0
15303493,433.47,0,762,0
15303503,402.35,0,752,0
15303513,381.80,0,763,0
15303523,372.65,0,752,0
15303533,372.32,0,763,0
15303543,376.73,0,752,0
15303553,380.84,0,763,0
15303563,385.69,0,752,0
15303573,389.17,0,763,0
15303583,392.24,0,752,0
15303593,392.30,0,757,0
15303603,391.05,0,752,0
15303613,387.09,0,763,0
15303623,382.14,0,752,0
15303633,374.30,0,758,0
15303643,365.94,0,752,0
15303653,355.84,0,763,0
15303663,346.20,0,753,0
15303673,335.21,0,759,0
15303683,325.12,0,752,0
15303693,315.06,0,763,0
15303703,307.28,0,752,0
15303713,299.91,0,760,0
15303724,295.22,0,758,0
15303734,291.21,0,753,0
15303744,290.42,0,764,0
15303754,290.59,0,751,0
15303764,293.50,0,764,0
15303774,296.78,0,753,0
15303784,301.99,0,763,0
15303794,306.45,0,751,0
15303804,312.66,0,764,0
15303814,317.56,0,754,0
15303824,323.52,0,763,0
15303834,327.52,0,751,0
15303844,332.17,0,764,0
15303854,334.94,0,753,0
15303864,338.30,0,762,0
15303874,339.41,0,751,0
15303884,341.35,0,764,0
15303895,341.24,0,751,0
15303905,342.24,0,764,0
15303915,341.44,0,751,0
15303925,341.87,0,764,0
15303936,340.79,0,751,0
15303945,341.15,0,763,0
15303955,339.82,0,750,0
15303965,339.88,0,763,0
15303975,337.73,0,750,0
15303985,336.31,0,763,0
15303995,332.70,0,750,0
15304005,329.62,0,762,0
15304015,324.59,0,750,0
15304025,320.81,0,762,0
15304035,316.07,0,750,0
15304045,313.78,0,763,0
15304055,312.09,0,750,0
15304065,313.56,0,763,0
15304075,315.06,0,749,0
15304085,318.52,0,762,0
15304095,322.56,0,750,0
15304105,329.08,0,761,0
15304115,337.80,0,749,0
15304125,351.92,0,763,0
15304135,373.37,0,751,0
15304145,406.73,0,764,0
15304164,447.53,893,763,0
15304167,493.05,893,765,0
15304177,540.57,893,751,0
15304187,587.75,893,764,0
15304197,630.98,893,751,0
15304207,666.60,893,764,0
15304217,691.54,893,751,0
15304227,709.03,893,764,0
15304237,721.32,893,751,0
15304247,729.97,893,764,0
15304257,736.02,893,751,0
15304267,740.30,893,764,0
15304278,743.30,893,751,0
15304287,745.44,893,764,0
15304297,746.93,893,751,0
15304307,747.98,893,764,0
15304317,748.67,893,751,0
15304327,749.20,893,764,0
15304337,749.53,893,751,0
15304347,749.75,893,764,0
15304357,749.83,893,751,0
15304367,746.62,893,764,0
15304377,735.81,893,751,0
15304387,716.15,893,764,0
15304397,686.11,893,751,0
15304407,647.03,893,764,0
15304417,598.76,893,751,0
15304427,543.46,893,764,0
15304437,484.91,893,751,0
15304448,429.48,893,764,0
15304457,379.41,893,751,0
15304467,338.53,893,764,0
15304477,306.01,893,751,0
15304487,283.64,893,764,0
15304497,269.30,893,751,0
15304507,263.68,893,764,0
15304517,264.08,893,751,0
15304527,270.36,893,764,0
15304537,279.16,893,751,0
15304547,290.64,893,763,0
15304557,301.94,893,751,0
15304567,313.48,893,764,0
15304577,322.94,893,751,0
15304587,331.66,893,764,0
15304597,337.46,893,751,0
15304607,341.91,893,764,0
15304617,343.39,893,751,0
15304627,343.92,893,764,0
15304637,342.10,893,751,0
15304647,339.67,893,764,0
15304657,335.44,893,751,0
15304667,331.58,893,764,0
15304677,326.69,893,751,0
15304687,322.97,893,764,0
15304697,318.91,893,751,0
15304707,316.54,893,764,0
15304717,314.45,893,751,0
15304727,314.10,893,764,0
15304737,313.85,893,751,0
15304748,315.48,893,764,0
15304758,317.14,893,751,0
15304768,320.01,893,764,0
15304778,322.49,893,751,0
15304788,325.82,893,764,0
15304798,328.40,893,751,0
15304808,331.49,893,764,0
15304818,333.62,893,751,0
15304828,335.75,893,764,0
15304838,337.02,893,751,0
15304848,338.47,893,764,0
15304858,339.15,893,751,0
15304868,340.00,893,764,0
15304878,340.09,893,751,0
15304888,340.49,893,764,0
15304898,340.34,893,751,0
15304908,340.54,893,764,0
15304919,340.12,893,751,0
15304929,339.83,893,763,0
15304939,339.11,893,751,0
15304949,338.52,893,763,0
15304960,337.55,893,751,0
15304969,336.83,893,764,0
15304979,335.72,893,751,0
15304989,334.99,893,763,0
15304999,334.44,893,751,0
15305009,334.91,893,763,0
15305019,337.16,893,751,0
15305029,342.56,893,763,0
15305039,352.89,893,751,0
15305049,369.98,893,763,0
15305059,395.57,893,751,0
15305078,431.19,914,750,0
15305081,473.09,914,752,0
15305091,518.36,914,763,0
15305101,564.15,914,752,0
15305111,607.52,914,762,0
15305121,646.06,914,751,0
15305132,677.16,914,759,0
15305142,698.93,914,752,0
15305152,714.21,914,755,0
15305162,724.90,914,752,0
15305172,732.34,914,752,0
15305182,737.56,914,751,0
15305192,741.20,914,755,0
15305202,743.80,914,752,0
15305212,745.57,914,752,0
15305222,746.82,914,752,0
15305232,747.64,914,755,0
15305242,748.26,914,752,0
15305252,748.66,914,752,0
15305262,748.93,914,751,0
15305272,749.08,914,755,0
15305282,749.23,914,752,0
15305292,746.55,914,752,0
15305303,738.07,914,753,0
15305313,720.00,914,751,0
15305323,692.49,914,763,0
15305333,654.07,914,751,0
15305344,606.99,914,764,0
15305353,551.19,914,753,0
15305363,492.34,914,764,0
15305373,433.56,914,752,0
15305383,381.75,914,764,0
15305393,336.95,914,755,0
15305403,303.24,914,764,0
15305413,278.10,914,752,0
15305423,263.92,914,764,0
15305433,256.83,914,754,0
15305443,258.43,914,764,0
15305453,264.26,914,752,0
15305463,275.49,914,764,0
15305473,287.65,914,754,0
15305483,301.89,914,764,0
15305493,314.01,914,752,0
15305503,325.84,914,764,0
15305513,333.90,914,751,0
15305523,340.62,914,763,0
15305533,343.09,914,752,0
15305543,344.22,914,764,0
15305553,341.58,914,751,0
15305563,338.45,914,763,0
15305573,332.70,914,752,0
15305583,327.60,914,764,0
15305593,320.44,914,751,0
15305603,312.72,914,762,0
15305613,302.22,914,751,0
15305623,292.72,914,762,0
15305633,282.05,914,749,0
15305644,272.61,914,760,0
15305654,264.32,914,750,0
15305664,261.14,914,762,0
15305674,261.31,914,750,0
15305684,264.78,914,760,0
15305694,266.81,914,747,0
15305704,273.60,914,763,0
15305714,284.73,914,751,0
15305724,300.07,914,764,0
15305734,315.35,914,752,0
15305744,332.86,914,764,0
15305754,351.20,914,752,0
15305764,373.17,914,764,0
15305774,391.33,914,752,0
15305784,405.72,914,765,0
15305794,413.00,914,752,0
15305804,416.22,914,764,0
15305815,413.28,914,752,0
15305825,408.14,914,765,0
15305835,399.18,914,752,0
15305845,389.66,914,764,0
15305856,378.02,914,752,0
15305865,367.77,914,764,0
15305875,356.91,914,752,0
15305885,348.54,914,764,0
15305895,340.66,914,752,0
15305905,335.75,914,764,0
15305915,331.50,914,752,0
15305925,329.98,914,764,0
15305935,328.83,914,752,0
15305945,329.99,914,764,0
15305955,330.85,914,752,0
15305965,333.12,914,765,0
15305975,334.50,914,752,0
15305985,337.01,914,764,0
15305995,338.21,914,752,0
15306005,340.12,914,764,0
15306015,340.81,914,752,0
15306025,343.14,914,764,0
15306035,346.10,914,752,0
15306045,353.70,914,764,0
15306055,365.87,914,752,0
15306065,387.25,914,764,0
15306075,417.35,914,752,0
15306085,456.16,914,765,0
15306095,499.44,914,752,0
15306105,545.38,914,764,0
15306115,589.88,914,752,0
15306125,631.23,914,765,0
15306135,665.32,914,752,0
15306155,691.07,1076,750,0
15306158,709.09,1076,753,0
15306168,721.71,1076,764,0
15306178,730.54,1076,752,0
15306188,736.68,1076,764,0
15306199,740.93,1076,752,0
15306209,743.91,1076,764,0
15306219,745.99,1076,752,0
15306229,747.41,1076,764,0
15306240,748.40,1076,752,0
15306249,749.09,1076,764,0
15306259,749.62,1076,752,0
15306269,749.99,1076,764,0
15306279,750.25,1076,752,0
15306289,750.43,1076,765,0
15306299,750.60,1076,752,0
15306309,750.68,1076,764,0
15306319,747.90,1076,752,0
15306329,738.80,1076,764,0
15306339,720.65,1076,752,0
15306349,692.17,1076,764,0
15306359,653.63,1076,752,0
15306369,605.74,1076,764,0
15306379,549.85,1076,752,0
15306389,490.19,1076,764,0
15306399,432.11,1076,753,0
15306409,379.62,1076,764,0
15306419,335.85,1076,752,0
15306429,301.78,1076,764,0
15306439,278.10,1076,753,0
15306449,264.01,1076,765,0
15306459,258.65,1076,752,0
15306469,260.17,1076,764,0
15306479,267.36,1076,752,0
15306489,277.84,1076,764,0
15306499,290.32,1076,752,0
15306509,302.91,1076,764,0
15306519,314.89,1076,752,0
15306529,324.91,1076,764,0
15306540,333.04,1076,753,0
15306550,338.30,1076,764,0
15306560,341.72,1076,753,0
15306570,342.53,1076,764,0
15306580,341.90,1076,753,0
15306590,339.45,1076,764,0
15306600,336.44,1076,753,0
15306610,332.37,1076,764,0
15306620,329.00,1076,753,0
15306630,325.31,1076,764,0
15306640,322.65,1076,753,0
15306650,319.93,1076,764,0
15306660,318.45,1076,753,0
15306670,317.16,1076,764,0
15306680,317.07,1076,752,0
15306690,316.70,1076,764,0
15306700,317.35,1076,753,0
15306711,317.67,1076,764,0
15306721,319.01,1076,753,0
15306731,319.65,1076,759,0
15306741,321.21,1076,758,0
15306752,321.88,1076,754,0
15306761,323.46,1076,753,0
15306771,324.26,1076,759,0
15306781,326.07,1076,758,0
15306791,326.69,1076,755,0
15306801,328.28,1076,753,0
15306811,328.80,1076,760,0
15306821,330.40,1076,758,0
15306831,330.67,1076,755,0
15306841,331.58,1076,753,0
15306851,331.32,1076,760,0
15306861,332.12,1076,757,0
15306871,331.70,1076,755,0
15306881,332.05,1076,753,0
15306891,331.43,1076,761,0
15306901,331.95,1076,756,0
15306911,331.36,1076,755,0
15306921,331.90,1076,765,0
15306931,331.58,1076,761,0
15306941,332.48,1076,756,0
15306951,332.34,1076,755,0
15306961,333.14,1076,764,0
15306971,332.75,1076,761,0
15306981,333.38,1076,756,0
15306991,332.50,1076,756,0
15307001,332.43,1076,764,0
15307011,331.45,1076,761,0
15307021,332.34,1076,755,0
15307031,333.87,1076,755,0
15307041,339.86,1076,762,0
15307052,349.85,1076,753,0
15307062,368.41,1076,765,0
15307081,395.07,927,764,0
15307084,431.99,927,765,0
15307095,474.64,927,752,0
15307105,520.99,927,765,0
15307115,566.98,927,752,0
15307125,611.04,927,765,0
15307136,649.04,927,752,0
15307145,679.59,927,765,0
15307155,701.01,927,752,0
15307165,716.01,927,764,0
15307175,726.51,927,752,0
15307185,733.90,927,765,0
15307195,739.07,927,752,0
15307205,742.69,927,765,0
15307215,745.23,927,752,0
15307225,747.04,927,765,0
15307235,748.32,927,752,0
15307245,749.21,927,765,0
15307255,749.79,927,752,0
15307265,750.24,927,765,0
15307275,750.55,927,752,0
15307285,749.70,927,765,0
15307295,742.72,927,752,0
15307305,727.59,927,765,0
15307315,702.47,927,752,0
15307325,667.79,927,765,0
15307335,623.15,927,752,0
15307345,570.35,927,765,0
15307355,511.40,927,752,0
15307365,453.47,927,764,0
15307375,399.67,927,752,0
15307385,353.87,927,765,0
15307395,316.41,927,752,0
15307405,289.71,927,765,0
15307415,272.23,927,752,0
15307425,264.36,927,765,0
15307436,263.44,927,752,0
15307446,269.01,927,765,0
15307456,278.52,927,752,0
15307466,291.43,927,765,0
15307476,305.02,927,752,0
15307486,319.03,927,765,0
15307496,331.10,927,752,0
15307506,341.70,927,765,0
15307516,349.42,927,752,0
15307526,354.99,927,765,0
15307536,357.40,927,752,0
15307546,357.62,927,765,0
15307556,355.08,927,752,0
15307566,351.37,927,765,0
15307576,346.07,927,752,0
15307586,340.48,927,765,0
15307596,334.25,927,752,0
15307607,328.69,927,764,0
15307617,323.38,927,752,0
15307627,319.28,927,765,0
15307637,315.90,927,752,0
15307648,313.66,927,764,0
15307657,312.13,927,752,0
15307667,311.79,927,764,0
15307677,312.03,927,752,0
15307687,313.09,927,764,0
15307697,314.43,927,752,0
15307707,316.28,927,765,0
15307717,318.46,927,752,0
15307727,320.98,927,764,0
15307737,323.26,927,752,0
15307747,325.62,927,764,0
15307757,327.75,927,752,0
15307767,329.84,927,764,0
15307777,331.39,927,752,0
15307787,332.77,927,765,0
15307797,333.74,927,752,0
15307807,334.68,927,764,0
15307817,335.24,927,752,0
15307827,335.69,927,765,0
15307837,335.82,927,752,0
15307847,335.66,927,764,0
15307857,334.99,927,752,0
15307867,334.05,927,765,0
15307877,332.54,927,752,0
15307887,330.70,927,764,0
15307897,328.48,927,752,0
15307907,326.36,927,764,0
15307917,324.75,927,752,0
15307927,324.53,927,764,0
15307937,326.90,927,752,0
15307948,333.70,927,764,0
15307958,346.69,927,752,0
15307968,367.95,927,764,0
15307987,399.38,906,763,0
15307991,439.60,906,754,0
15308001,485.06,906,757,0
15308011,532.61,906,753,0
15308021,579.32,906,764,0
15308032,622.33,906,752,0
15308041,658.92,906,756,0
15308051,686.46,906,753,0
15308061,705.78,906,763,0
15308071,719.30,906,752,0
15308081,728.81,906,755,0
15308091,735.47,906,752,0
15308101,740.13,906,762,0
15308111,743.39,906,752,0
15308121,745.67,906,755,0
15308131,747.27,906,753,0
15308141,748.39,906,762,0
15308151,749.17,906,753,0
15308161,748.74,906,755,0
15308171,742.26,906,752,0
15308181,728.34,906,763,0
15308191,704.41,906,752,0
15308201,671.63,906,765,0
15308211,629.14,906,753,0
15308221,579.08,906,765,0
15308231,522.23,906,753,0
15308241,466.40,906,765,0
15308251,413.05,906,755,0
15308261,367.65,906,765,0
15308271,329.31,906,754,0
15308281,301.49,906,765,0
15308291,281.63,906,756,0
15308301,271.97,906,765,0
15308311,268.46,906,754,0
15308321,272.87,906,765,0
15308332,280.75,906,753,0
15308342,293.13,906,765,0
15308352,305.69,906,752,0
15308362,319.67,906,765,0
15308372,331.42,906,752,0
15308382,342.95,906,765,0
15308392,350.64,906,753,0
15308402,357.00,906,765,0
15308412,359.10,906,752,0
15308422,360.02,906,765,0
15308432,357.31,906,752,0
15308442,354.05,906,765,0
15308452,347.95,906,752,0
15308462,342.48,906,765,0
15308472,335.13,906,752,0
15308482,329.22,906,765,0
15308492,322.51,906,752,0
15308503,318.03,906,765,0
15308513,313.31,906,752,0
15308523,311.07,906,765,0
15308533,308.91,906,752,0
15308544,309.36,906,765,0
15308553,309.81,906,752,0
15308563,312.18,906,765,0
15308573,314.18,906,752,0
15308583,317.82,906,765,0
15308593,320.70,906,752,0
15308603,324.56,906,765,0
15308613,327.18,906,752,0
15308623,330.64,906,765,0
15308633,332.85,906,752,0
15308643,335.51,906,765,0
15308653,336.51,906,752,0
15308663,337.73,906,765,0
15308673,337.13,906,752,0
15308683,337.09,906,765,0
15308693,335.65,906,752,0
15308703,334.81,906,765,0
15308713,332.72,906,752,0
15308723,331.52,906,765,0
15308733,329.31,906,752,0
15308743,328.44,906,765,0
15308753,327.33,906,752,0
15308763,328.86,906,765,0
15308773,332.29,906,752,0
15308783,341.37,906,765,0
15308793,356.35,906,751,0
15308803,381.23,906,765,0
15308822,415.74,835,764,0
15308825,458.08,835,765,0
15308835,503.91,835,752,0
15308845,551.38,835,765,0
15308855,596.61,835,752,0
15308865,637.57,835,765,0
15308875,670.74,835,752,0
15308886,694.78,835,765,0
15308895,711.64,835,752,0
15308905,723.45,835,765,0
15308915,731.72,835,751,0
15308925,737.50,835,765,0
15308935,741.55,835,752,0
15308945,744.39,835,765,0
15308955,746.37,835,751,0
15308965,747.76,835,765,0
15308975,748.73,835,752,0
15308985,749.41,835,765,0
15308995,749.89,835,751,0
15309005,750.22,835,765,0
15309015,750.46,835,752,0
15309025,750.62,835,765,0
15309035,745.63,835,751,0
15309045,732.71,835,765,0
15309056,709.70,835,752,0
15309065,676.92,835,765,0
15309075,634.17,835,752,0
15309085,582.78,835,765,0
15309095,523.62,835,752,0
15309105,463.82,835,765,0
15309115,407.43,835,752,0
15309125,358.70,835,765,0
15309135,318.42,835,752,0
15309145,288.46,835,765,0
15309155,268.14,835,752,0
15309165,257.55,835,765,0
15309175,254.82,835,752,0
15309185,259.11,835,765,0
15309195,267.82,835,752,0
15309205,280.13,835,765,0
15309215,293.59,835,752,0
15309225,307.39,835,765,0
15309235,319.79,835,752,0
15309245,330.61,835,765,0
15309255,338.65,835,752,0
15309265,344.33,835,765,0
15309275,346.89,835,752,0
15309285,347.31,835,765,0
15309295,345.29,835,752,0
15309305,341.86,835,765,0
15309315,336.84,835,752,0
15309325,331.62,835,765,0
15309335,325.99,835,752,0
15309345,320.85,835,765,0
15309356,316.14,835,752,0
15309366,312.45,835,765,0
15309376,309.75,835,752,0
15309386,308.28,835,765,0
15309396,307.64,835,752,0
15309406,308.26,835,765,0
15309416,309.60,835,752,0
15309426,311.48,835,764,0
15309436,313.95,835,753,0
15309446,316.66,835,765,0
15309456,319.51,835,752,0
15309466,322.18,835,764,0
15309476,324.74,835,752,0
15309486,327.31,835,765,0
15309496,329.61,835,752,0
15309506,331.44,835,765,0
15309516,332.98,835,752,0
15309527,334.10,835,765,0
15309537,335.10,835,753,0
15309547,335.54,835,764,0
15309557,335.81,835,753,0
15309568,335.61,835,765,0
15309577,335.34,835,753,0
15309587,334.77,835,765,0
15309597,334.28,835,753,0
15309607,333.30,835,765,0
15309617,332.52,835,753,0
15309627,331.59,835,764,0
15309637,332.23,835,753,0
15309647,334.82,835,765,0
15309657,341.43,835,753,0
15309667,353.52,835,764,0
15309677,374.36,835,753,0
15309697,405.50,874,751,0
15309700,445.33,874,763,0
15309710,490.06,874,752,0
15309720,537.19,874,765,0
15309730,583.46,874,752,0
15309740,626.39,874,759,0
15309750,662.40,874,753,0
15309760,689.15,874,765,0
15309770,707.84,874,752,0
15309780,720.96,874,765,0
15309790,730.10,874,753,0
15309800,736.54,874,765,0
15309810,741.01,874,752,0
15309820,744.18,874,765,0
15309830,746.35,874,753,0
15309840,747.92,874,764,0
15309850,748.97,874,752,0
15309860,749.75,874,766,0
15309870,750.25,874,753,0
15309880,750.65,874,764,0
15309890,750.88,874,752,0
15309900,751.09,874,766,0
15309911,751.19,874,752,0
15309921,751.31,874,766,0
15309931,751.34,874,752,0
15309941,747.47,874,765,0
15309952,734.64,874,752,0
15309961,712.46,874,765,0
15309971,678.90,874,752,0
15309981,635.60,874,765,0
15309991,582.10,874,752,0
15310001,521.34,874,765,0
15310011,457.51,874,752,0
15310021,398.99,874,765,0
15310031,346.53,874,752,0
15310041,305.15,874,765,0
15310051,273.04,874,752,0
15310061,253.10,874,765,0
15310071,241.67,874,752,0
15310081,240.14,874,765,0
15310091,243.74,874,752,0
15310101,253.25,874,765,0
15310111,264.19,874,752,0
15310121,277.63,874,765,0
15310131,289.44,874,752,0
15310141,301.48,874,765,0
15310151,310.25,874,752,0
15310161,318.10,874,765,0
15310171,322.49,874,752,0
15310181,326.03,874,765,0
15310191,326.36,874,752,0
15310201,326.25,874,765,0
15310211,323.31,874,752,0
15310221,320.90,874,765,0
15310231,316.86,874,752,0
15310241,314.03,874,765,0
15310252,310.16,874,752,0
15310262,307.93,874,765,0
15310272,305.46,874,752,0
15310282,305.03,874,765,0
15310292,304.33,874,752,0
15310302,305.56,874,765,0
15310312,306.29,874,752,0
15310322,308.52,874,765,0
15310332,310.21,874,752,0
15310342,313.06,874,765,0
15310352,314.97,874,752,0
15310362,317.64,874,765,0
15310372,319.25,874,752,0
15310382,321.66,874,765,0
15310392,322.92,874,752,0
15310402,324.70,874,765,0
15310412,325.22,874,752,0
15310423,326.57,874,765,0
15310433,327.00,874,752,0
15310443,327.98,874,765,0
15310453,328.12,874,752,0
15310464,328.94,874,765,0
15310473,329.17,874,752,0
15310483,330.23,874,765,0
15310493,330.55,874,752,0
15310503,331.58,874,765,0
15310513,332.01,874,752,0
15310523,333.08,874,765,0
15310533,333.57,874,752,0
15310543,334.38,874,765,0
15310553,334.40,874,752,0
15310563,334.75,874,765,0
15310573,334.14,874,752,0
15310583,333.84,874,765,0
15310593,332.90,874,752,0
15310603,333.40,874,765,0
15310613,335.34,874,752,0
15310623,341.49,874,765,0
15310633,352.83,874,752,0
15310643,372.73,874,765,0
15310662,402.42,966,764,0
15310665,441.38,966,764,0
15310675,485.54,966,752,0
15310685,532.52,966,765,0
15310695,578.78,966,752,0
15310705,621.92,966,765,0
15310715,658.50,966,752,0
15310725,686.29,966,765,0
15310735,705.75,966,752,0
15310745,719.37,966,765,0
15310755,728.94,966,752,0
15310765,735.65,966,765,0
15310775,740.38,966,752,0
15310785,743.69,966,765,0
15310795,746.01,966,752,0
15310806,747.64,966,765,0
15310815,748.82,966,752,0
15310825,749.60,966,765,0
15310835,750.19,966,752,0
15310845,750.56,966,765,0
15310855,750.87,966,752,0
15310865,751.03,966,764,0
15310875,751.20,966,752,0
15310885,751.31,966,765,0
15310895,751.43,966,752,0
15310905,750.79,966,765,0
15310915,744.08,966,752,0
15310925,727.94,966,764,0
15310935,701.13,966,752,0
15310945,663.38,966,764,0
15310955,615.48,966,753,0
15310965,558.33,966,765,0
15310976,494.63,966,753,0
15310985,431.36,966,764,0
15310995,373.74,966,753,0
15311005,324.79,966,765,0
15311015,286.37,966,753,0
15311025,258.70,966,764,0
15311035,241.77,966,753,0
15311045,234.04,966,765,0
15311055,234.37,966,753,0
15311065,240.60,966,765,0
15311075,250.84,966,752,0
15311085,263.01,966,765,0
15311095,275.82,966,753,0
15311105,288.01,966,765,0
15311115,298.68,966,752,0
15311125,306.96,966,765,0
15311135,312.93,966,753,0
15311145,316.38,966,765,0
15311155,317.85,966,752,0
15311165,317.34,966,764,0
15311175,315.44,966,753,0
15311185,312.39,966,765,0
15311195,308.80,966,752,0
15311205,304.92,966,765,0
15311215,301.34,966,753,0
15311225,297.90,966,764,0
15311235,295.23,966,752,0
15311245,293.10,966,764,0
15311255,291.87,966,753,0
15311265,291.31,966,764,0
15311276,291.73,966,753,0
15311286,292.58,966,764,0
15311296,294.42,966,753,0
15311306,296.44,966,764,0
15311316,299.26,966,753,0
15311326,302.14,966,764,0
15311336,305.44,966,753,0
15311346,308.14,966,764,0
15311356,311.23,966,753,0
15311366,313.60,966,764,0
15311376,316.16,966,753,0
15311386,317.74,966,764,0
15311396,319.66,966,753,0
15311406,320.92,966,765,0
15311416,322.53,966,753,0
15311426,323.27,966,764,0
15311436,324.43,966,752,0
15311447,324.77,966,764,0
15311457,325.70,966,753,0
15311467,325.45,966,762,0
15311477,325.83,966,757,0
15311488,325.49,966,758,0
15311497,326.20,966,754,0
15311507,326.31,966,762,0
15311517,327.55,966,756,0
15311527,327.77,966,757,0
15311537,329.12,966,753,0
15311547,329.52,966,762,0
15311557,330.73,966,756,0
15311567,330.30,966,756,0
15311577,330.34,966,753,0
15311587,329.04,966,763,0
15311597,328.68,966,755,0
15311607,327.32,966,758,0
15311617,327.48,966,753,0
15311627,328.32,966,763,0
15311637,333.80,966,755,0
15311647,343.46,966,756,0
15311657,361.84,966,761,0
15311667,388.88,966,760,0
15311686,426.50,1024,753,0
15311689,470.02,1024,754,0
15311699,517.46,1024,765,0
15311709,564.59,1024,752,0
15311719,609.72,1024,765,0
15311729,648.42,1024,752,0
15311739,679.28,1024,765,0
15311749,700.88,1024,752,0
15311759,716.09,1024,765,0
15311769,726.69,1024,752,0
15311779,734.15,1024,765,0
15311789,739.34,1024,752,0
15311799,743.01,1024,765,0
15311809,745.53,1024,752,0
15311819,747.39,1024,765,0
15311830,748.64,1024,752,0
15311839,749.56,1024,765,0
15311849,750.17,1024,752,0
15311859,750.67,1024,765,0
15311869,750.99,1024,752,0
15311879,751.25,1024,765,0
15311889,751.34,1024,752,0
15311899,751.46,1024,765,0
15311909,751.49,1024,752,0
15311919,749.29,1024,765,0
15311929,739.04,1024,752,0
15311939,719.57,1024,765,0
15311949,688.54,1024,752,0
15311959,647.88,1024,765,0
15311969,596.62,1024,752,0
15311979,537.63,1024,765,0
15311989,473.54,1024,752,0
15312000,413.21,1024,765,0
15312009,358.37,1024,753,0
15312019,314.46,1024,765,0
15312029,279.48,1024,752,0
15312039,256.54,1024,765,0
15312049,242.19,1024,752,0
15312059,237.85,1024,765,0
15312069,239.31,1024,753,0
15312079,247.40,1024,765,0
15312089,257.31,1024,752,0
15312099,270.42,1024,765,0
15312109,282.85,1024,752,0
15312119,296.09,1024,765,0
15312129,306.48,1024,752,0
15312139,316.15,1024,765,0
15312149,322.19,1024,753,0
15312159,327.28,1024,765,0
15312169,328.78,1024,753,0
15312179,329.53,1024,765,0
15312189,327.27,1024,752,0
15312199,325.30,1024,765,0
15312209,321.31,1024,752,0
15312219,318.35,1024,765,0
15312229,314.00,1024,752,0
15312239,311.17,1024,765,0
15312249,307.48,1024,752,0
15312259,305.83,1024,765,0
15312269,303.44,1024,752,0
15312279,303.14,1024,765,0
15312289,302.02,1024,752,0
15312300,303.00,1024,765,0
15312310,303.22,1024,752,0
15312320,305.04,1024,765,0
15312330,305.84,1024,752,0
15312340,307.95,1024,765,0
15312350,308.78,1024,752,0
15312360,310.90,1024,765,0
15312370,312.00,1024,752,0
15312380,314.19,1024,765,0
15312390,315.42,1024,752,0
15312400,317.82,1024,765,0
15312410,319.25,1024,752,0
15312420,321.66,1024,765,0
15312430,322.96,1024,752,0
15312440,324.90,1024,765,0
15312450,325.44,1024,752,0
15312460,326.51,1024,765,0
15312471,326.23,1024,752,0
15312481,326.63,1024,765,0
15312491,325.97,1024,752,0
15312501,325.89,1024,765,0
15312512,324.98,1024,752,0
15312521,325.16,1024,765,0
15312531,324.55,1024,752,0
15312541,324.69,1024,765,0
15312551,324.05,1024,752,0
15312561,324.12,1024,765,0
15312571,323.87,1024,752,0
15312581,325.15,1024,765,0
15312591,327.94,1024,752,0
15312601,335.11,1024,765,0
15312611,347.25,1024,752,0
15312621,368.09,1024,765,0
15312641,398.45,954,763,0
15312644,438.04,954,766,0
15312654,482.82,954,752,0
15312664,530.19,954,765,0
15312674,576.76,954,753,0
15312684,620.33,954,765,0
15312694,657.17,954,752,0
15312704,685.28,954,765,0
15312714,705.00,954,753,0
15312724,718.80,954,764,0
15312734,728.46,954,752,0
15312744,735.22,954,765,0
15312754,740.00,954,753,0
15312764,743.34,954,764,0
15312774,745.68,954,752,0
15312784,747.32,954,765,0
15312794,748.51,954,753,0
15312804,749.34,954,764,0
15312814,749.93,954,752,0
15312824,750.29,954,765,0
15312834,750.55,954,752,0
15312844,746.01,954,764,0
15312855,733.71,954,752,0
15312865,711.21,954,765,0
15312875,678.66,954,753,0
15312885,635.65,954,764,0
15312896,583.85,954,753,0
15312905,524.03,954,765,0
15312915,463.03,954,753,0
15312925,404.74,954,765,0
15312935,354.03,954,754,0
15312945,311.59,954,765,0
15312955,279.79,954,754,0
15312965,257.14,954,764,0
15312975,244.54,954,753,0
15312985,239.58,954,765,0
15312995,242.40,954,753,0
15313005,249.91,954,764,0
15313015,262.02,954,753,0
15313025,275.69,954,765,0
15313035,290.82,954,753,0
15313045,304.76,954,765,0
15313055,317.95,954,753,0
15313065,328.12,954,764,0
15313075,336.18,954,753,0
15313085,340.41,954,764,0
15313095,342.56,954,753,0
15313105,341.45,954,764,0
15313115,338.87,954,753,0
15313125,333.85,954,765,0
15313135,328.45,954,753,0
15313145,321.68,954,765,0
15313155,315.52,954,753,0
15313165,308.89,954,764,0
15313175,303.82,954,753,0
15313185,299.08,954,765,0
15313196,296.61,954,755,0
15313206,294.58,954,760,0
15313216,295.05,954,764,0
15313226,295.94,954,755,0
15313236,299.13,954,766,0
15313246,302.22,954,761,0
15313256,306.70,954,763,0
15313266,310.26,954,756,0
15313276,315.07,954,766,0
15313286,318.52,954,760,0
15313296,322.73,954,761,0
15313306,324.91,954,754,0
15313316,327.81,954,765,0
15313326,329.28,954,760,0
15313336,331.34,954,761,0
15313346,331.67,954,755,0
15313356,332.88,954,766,0
15313367,332.45,954,753,0
15313377,333.21,954,765,0
15313387,332.29,954,752,0
15313397,332.46,954,765,0
15313408,331.25,954,752,0
15313417,331.30,954,765,0
15313427,329.67,954,752,0
15313437,329.47,954,765,0
15313447,327.49,954,753,0
15313457,326.78,954,765,0
15313467,324.36,954,752,0
15313477,323.52,954,765,0
15313487,321.70,954,752,0
15313497,322.69,954,765,0
15313507,324.84,954,752,0
15313517,333.24,954,765,0
15313527,347.06,954,752,0
15313537,371.00,954,766,0
15313547,404.34,954,752,0
15313566,446.54,926,751,0
15313569,492.79,926,752,0
15313580,541.45,926,765,0
15313590,587.86,926,751,0
15313600,630.50,926,765,0
15313610,665.41,926,752,0
15313620,691.17,926,765,0
15313630,709.16,926,752,0
15313640,721.76,926,765,0
15313650,730.53,926,752,0
15313660,736.67,926,765,0
15313670,740.97,926,752,0
15313680,743.98,926,765,0
15313690,746.09,926,752,0
15313700,747.60,926,765,0
15313710,748.66,926,752,0
15313720,749.41,926,765,0
15313730,749.93,926,752,0
15313740,750.29,926,765,0
15313751,750.55,926,752,0
15313761,750.73,926,765,0
15313771,745.11,926,752,0
15313781,731.19,926,765,0
15313792,706.88,926,751,0
15313801,672.71,926,765,0
15313811,628.61,926,752,0
15313821,575.80,926,765,0
15313831,515.47,926,752,0
15313841,455.33,926,765,0
15313851,399.26,926,752,0
15313861,351.10,926,765,0
15313871,311.55,926,752,0
15313881,282.29,926,765,0
15313891,262.62,926,752,0
15313901,252.49,926,765,0
15313911,249.94,926,752,0
15313921,253.99,926,765,0
15313931,262.43,926,752,0
15313941,274.22,926,765,0
15313951,287.10,926,752,0
15313961,300.22,926,765,0
15313971,311.73,926,752,0
15313981,321.50,926,765,0
15313991,328.42,926,752,0
15314001,332.88,926,765,0
15314011,334.24,926,752,0
15314021,333.40,926,765,0
15314031,330.37,926,752,0
15314041,326.10,926,765,0
15314051,320.67,926,752,0
15314061,315.28,926,765,0
15314071,309.93,926,752,0
15314081,305.45,926,765,0
15314092,301.63,926,752,0
15314102,299.00,926,765,0
15314112,297.67,926,752,0
15314122,297.68,926,765,0
15314132,298.76,926,753,0
15314142,300.89,926,764,0
15314152,303.71,926,752,0
15314162,307.14,926,765,0
15314172,310.95,926,753,0
15314182,314.65,926,765,0
15314192,317.89,926,752,0
15314202,320.41,926,765,0
15314212,322.47,926,753,0
15314222,324.09,926,765,0
15314232,325.09,926,752,0
15314242,325.23,926,765,0
15314252,324.99,926,753,0
15314263,324.39,926,764,0
15314273,323.85,926,753,0
15314283,322.91,926,765,0
15314293,322.12,926,753,0
15314304,321.06,926,764,0
15314313,320.61,926,753,0
15314323,320.00,926,765,0
15314333,320.08,926,753,0
15314343,319.93,926,764,0
15314353,320.51,926,753,0
15314363,320.83,926,765,0
15314373,322.04,926,753,0
15314383,322.93,926,765,0
15314393,324.28,926,753,0
15314403,325.05,926,765,0
15314413,326.15,926,753,0
15314423,326.36,926,765,0
15314433,326.60,926,753,0
15314443,326.46,926,765,0
15314453,327.95,926,753,0
15314463,331.39,926,765,0
15314473,339.93,926,753,0
15314483,354.78,926,765,0
15314493,379.45,926,753,0
15314512,414.93,946,752,0
15314515,457.89,946,764,0
15314525,504.60,946,753,0
15314535,552.85,946,755,0
15314545,598.79,946,753,0
15314555,640.21,946,759,0
15314565,673.53,946,754,0
15314575,696.90,946,755,0
15314585,713.26,946,753,0
15314595,724.75,946,759,0
15314605,732.76,946,754,0
15314615,738.40,946,754,0
15314625,742.31,946,753,0
15314635,745.09,946,759,0
15314646,746.99,946,753,0
15314655,748.36,946,754,0
15314665,749.28,946,753,0
15314675,749.97,946,759,0
15314685,750.41,946,753,0
15314695,750.76,946,754,0
15314705,750.96,946,753,0
15314715,751.14,946,758,0
15314725,751.23,946,753,0
15314735,751.33,946,754,0
15314745,751.36,946,753,0
15314755,748.08,946,759,0
15314765,736.10,946,752,0
15314775,714.64,946,755,0
15314785,681.62,946,754,0
15314795,638.62,946,766,0
15314805,584.99,946,753,0
15314816,523.84,946,766,0
15314825,458.61,946,756,0
15314835,397.83,946,766,0
15314845,342.72,946,755,0
15314855,298.41,946,766,0
15314865,263.18,946,757,0
15314875,240.03,946,766,0
15314885,225.49,946,754,0
15314895,221.44,946,766,0
15314905,223.33,946,757,0
15314915,231.88,946,766,0
15314925,242.42,946,754,0
15314935,256.39,946,766,0
15314945,269.43,946,755,0
15314955,282.93,946,766,0
15314965,292.94,946,754,0
15314975,302.08,946,766,0
15314985,307.42,946,753,0
15314995,311.88,946,766,0
15315005,312.64,946,754,0
15315015,313.18,946,766,0
15315025,310.98,946,753,0
15315035,309.49,946,765,0
15315045,306.26,946,754,0
15315055,304.55,946,766,0
15315065,301.73,946,753,0
15315075,300.95,946,765,0
15315085,299.42,946,754,0
15315095,300.24,946,766,0
15315105,300.42,946,753,0
15315116,302.83,946,765,0
15315126,304.29,946,753,0
15315136,307.72,946,765,0
15315146,309.95,946,753,0
15315156,313.65,946,765,0
15315166,315.68,946,753,0
15315176,318.82,946,765,0
15315186,319.99,946,753,0
15315196,322.26,946,765,0
15315206,322.40,946,753,0
15315216,323.35,946,765,0
15315226,322.43,946,753,0
15315236,322.56,946,765,0
15315246,321.06,946,753,0
15315256,320.83,946,765,0
15315266,319.21,946,753,0
15315276,319.15,946,765,0
15315287,317.95,946,753,0
15315297,318.09,946,765,0
15315307,317.16,946,752,0
15315317,317.54,946,765,0
15315328,316.91,946,752,0
15315337,317.54,946,765,0
15315347,317.12,946,753,0
15315357,317.94,946,765,0
15315367,317.91,946,752,0
15315377,319.05,946,765,0
15315387,319.08,946,752,0
15315397,320.00,946,765,0
15315407,319.87,946,752,0
15315417,320.85,946,765,0
15315427,320.64,946,752,0
15315437,321.26,946,765,0
15315447,320.71,946,752,0
15315457,321.48,946,765,0
15315467,321.85,946,752,0
15315477,324.64,946,765,0
15315487,329.16,946,752,0
15315497,339.57,946,765,0
15315516,355.81,1004,764,0
15315519,382.87,1004,766,0
15315529,419.64,1004,752,0
15315539,463.55,1004,765,0
15315549,510.57,1004,752,0
15315559,558.74,1004,765,0
15315569,604.12,1004,752,0
15315579,644.93,1004,765,0
15315589,676.71,1004,752,0
15315599,698.95,1004,765,0
15315609,714.57,1004,752,0
15315619,725.50,1004,765,0
15315629,733.15,1004,752,0
15315639,738.50,1004,765,0
15315649,742.25,1004,752,0
15315659,744.88,1004,765,0
15315670,746.71,1004,752,0
15315679,748.00,1004,765,0
15315689,748.90,1004,752,0
15315699,749.53,1004,765,0
15315709,749.97,1004,752,0
15315719,750.28,1004,765,0
15315729,750.50,1004,752,0
15315739,750.65,1004,765,0
15315749,750.75,1004,752,0
15315759,750.83,1004,765,0
15315769,750.88,1004,752,0
15315779,749.29,1004,765,0
15315789,741.06,1004,752,0
15315799,724.20,1004,765,0
15315809,696.54,1004,752,0
15315819,658.36,1004,764,0
15315829,609.87,1004,752,0
15315840,552.48,1004,765,0
15315849,489.21,1004,752,0
15315859,427.30,1004,765,0
15315869,369.87,1004,752,0
15315879,321.14,1004,765,0
15315889,281.75,1004,752,0
15315899,253.24,1004,765,0
15315909,234.87,1004,752,0
15315919,226.08,1004,765,0
15315929,224.51,1004,752,0
15315939,229.50,1004,765,0
15315949,238.48,1004,752,0
15315959,250.46,1004,764,0
15315969,263.14,1004,752,0
15315979,275.83,1004,764,0
15315989,286.89,1004,751,0
15315999,296.44,1004,765,0
15316009,303.34,1004,752,0
15316019,308.38,1004,765,0
15316029,311.05,1004,751,0
15316039,312.28,1004,765,0
15316049,311.72,1004,752,0
15316059,310.65,1004,765,0
15316069,308.70,1004,752,0
15316079,307.03,1004,765,0
15316089,305.22,1004,752,0
15316099,304.26,1004,764,0
15316109,303.49,1004,752,0
15316119,303.60,1004,764,0
15316129,303.98,1004,752,0
15316140,304.97,1004,764,0
15316150,306.01,1004,751,0
15316160,307.46,1004,764,0
15316170,308.91,1004,752,0
15316180,310.48,1004,764,0
15316190,311.96,1004,752,0
15316200,313.60,1004,764,0
15316210,315.44,1004,752,0
15316220,317.32,1004,764,0
15316230,319.02,1004,752,0
15316240,320.52,1004,764,0
15316250,321.86,1004,752,0
15316260,322.85,1004,764,0
15316270,323.45,1004,752,0
15316280,323.74,1004,764,0
15316290,323.91,1004,752,0
15316300,323.76,1004,764,0
15316311,323.49,1004,752,0
15316321,322.96,1004,764,0
15316331,322.63,1004,753,0
15316341,322.14,1004,764,0
15316352,321.84,1004,752,0
15316361,321.50,1004,764,0
15316371,321.57,1004,753,0
15316381,321.44,1004,764,0
15316391,321.86,1004,752,0
15316401,322.03,1004,764,0
15316411,322.54,1004,753,0
15316421,322.42,1004,764,0
15316431,322.42,1004,752,0
15316441,321.87,1004,764,0
15316451,321.52,1004,752,0
15316461,320.68,1004,764,0
15316471,320.60,1004,752,0
15316481,321.32,1004,764,0
15316491,324.95,1004,752,0
15316501,332.34,1004,764,0
15316511,346.42,1004,752,0
15316531,368.75,1014,751,0
15316534,403.03,1014,766,0
15316544,444.93,1014,752,0
15316554,491.71,1014,765,0
15316564,539.97,1014,752,0
15316574,587.25,1014,763,0
15316584,630.12,1014,752,0
15316594,666.17,1014,765,0
15316604,691.45,1014,752,0
15316614,709.18,1014,762,0
15316624,721.56,1014,752,0
15316634,730.26,1014,765,0
15316644,736.31,1014,752,0
15316654,740.59,1014,761,0
15316664,743.54,1014,752,0
15316674,745.65,1014,765,0
15316684,747.08,1014,751,0
15316695,748.13,1014,765,0
15316705,748.82,1014,751,0
15316715,749.35,1014,764,0
15316725,749.67,1014,751,0
15316736,749.94,1014,764,0
15316745,750.09,1014,752,0
15316755,750.28,1014,764,0
15316765,750.36,1014,751,0
15316775,749.48,1014,764,0
15316785,742.35,1014,751,0
15316795,727.29,1014,764,0
15316805,701.36,1014,751,0
15316815,665.59,1014,764,0
15316825,619.47,1014,752,0
15316835,565.37,1014,764,0
15316845,504.32,1014,751,0
15316855,444.48,1014,764,0
15316865,387.94,1014,752,0
15316875,340.56,1014,764,0
15316885,301.69,1014,751,0
15316895,274.31,1014,764,0
15316905,255.45,1014,752,0
15316915,247.13,1014,764,0
15316925,245.29,1014,751,0
15316935,251.12,1014,764,0
15316945,260.21,1014,752,0
15316955,273.22,1014,764,0
15316965,285.75,1014,751,0
15316975,299.41,1014,765,0
15316985,310.47,1014,752,0
15316995,320.96,1014,765,0
15317005,327.57,1014,751,0
15317015,332.76,1014,764,0
15317025,334.16,1014,752,0
15317036,334.50,1014,764,0
15317046,331.78,1014,751,0
15317056,328.42,1014,764,0
15317066,322.89,1014,751,0
15317076,318.04,1014,764,0
15317086,312.07,1014,751,0
15317096,307.63,1014,764,0
15317106,303.46,1014,751,0
15317116,301.44,1014,764,0
15317126,299.93,1014,751,0
15317136,300.55,1014,764,0
15317146,301.20,1014,751,0
15317156,303.50,1014,763,0
15317166,305.28,1014,751,0
15317176,307.81,1014,763,0
15317186,309.28,1014,751,0
15317196,311.34,1014,763,0
15317207,312.18,1014,750,0
15317217,313.28,1014,763,0
15317227,312.81,1014,750,0
15317237,311.80,1014,762,0
15317248,307.49,1014,748,0
15317257,300.70,1014,762,0
15317267,297.02,1014,751,0
15317277,297.27,1014,764,0
15317287,299.50,1014,750,0
15317297,304.11,1014,763,0
15317307,305.75,1014,749,0
15317317,312.89,1014,764,0
15317327,324.84,1014,751,0
15317337,334.92,1014,764,0
15317347,341.54,1014,751,0
15317357,345.84,1014,763,0
15317367,346.87,1014,750,0
15317377,350.51,1014,763,0
15317387,350.36,1014,751,0
15317397,347.98,1014,763,0
15317407,342.63,1014,750,0
15317417,336.57,1014,763,0
15317427,330.70,1014,751,0
15317437,326.72,1014,763,0
15317447,323.76,1014,750,0
15317457,321.86,1014,763,0
15317467,320.57,1014,751,0
15317477,321.17,1014,763,0
15317487,322.84,1014,751,0
15317497,325.84,1014,763,0
15317507,330.47,1014,751,0
15317517,338.82,1014,763,0
15317527,352.84,1014,751,0
15317537,375.69,1014,764,0
15317548,408.66,1014,752,0
15317558,449.34,1014,764,0
15317577,494.50,1047,763,0
15317580,542.01,1047,763,0
15317591,588.72,1047,752,0
15317601,631.53,1047,760,0
15317611,666.51,1047,752,0
15317621,691.69,1047,755,0
15317632,709.35,1047,753,0
15317641,721.72,1047,761,0
15317651,730.33,1047,752,0
15317661,736.32,1047,756,0
15317671,740.55,1047,753,0
15317681,743.51,1047,761,0
15317691,745.63,1047,753,0
15317701,747.07,1047,757,0
15317711,748.12,1047,753,0
15317721,748.86,1047,761,0
15317731,749.41,1047,753,0
15317741,749.80,1047,756,0
15317751,750.12,1047,753,0
15317761,750.34,1047,761,0
15317771,750.54,1047,753,0
15317781,750.63,1047,756,0
15317791,750.70,1047,753,0
15317801,746.42,1047,753,0
15317811,735.58,1047,753,0
15317821,714.96,1047,759,0
15317831,684.89,1047,753,0
15317841,644.51,1047,756,0
15317851,595.88,1047,753,0
15317861,539.26,1047,764,0
15317871,481.15,1047,754,0
15317881,424.32,1047,761,0
15317891,374.64,1047,753,0
15317901,332.32,1047,764,0
15317911,300.42,1047,754,0
15317921,276.64,1047,760,0
15317932,262.43,1047,763,0
15317942,254.89,1047,755,0
15317952,255.01,1047,765,0
15317962,258.86,1047,754,0
15317972,267.18,1047,765,0
15317982,276.17,1047,754,0
15317992,287.09,1047,766,0
15318002,296.45,1047,753,0
15318012,306.17,1047,765,0
15318022,313.02,1047,754,0
15318032,319.44,1047,766,0
15318042,322.48,1047,753,0
15318052,325.17,1047,765,0
15318062,325.07,1047,754,0
15318072,325.35,1047,766,0
15318082,323.49,1047,753,0
15318092,322.70,1047,765,0
15318103,320.30,1047,752,0
15318113,319.78,1047,765,0
15318123,318.31,1047,753,0
15318133,318.81,1047,765,0
15318144,318.53,1047,752,0
15318153,320.17,1047,765,0
15318163,320.72,1047,753,0
15318173,323.03,1047,765,0
15318183,323.75,1047,752,0
15318193,325.67,1047,765,0
15318203,325.90,1047,753,0
15318213,327.26,1047,765,0
15318223,327.01,1047,752,0
15318233,328.12,1047,765,0
15318243,327.61,1047,753,0
15318253,328.59,1047,765,0
15318263,328.20,1047,752,0
15318273,329.25,1047,765,0
15318283,328.70,1047,753,0
15318293,329.44,1047,765,0
15318303,328.53,1047,752,0
15318313,328.97,1047,765,0
15318323,327.95,1047,753,0
15318333,328.31,1047,765,0
15318343,327.27,1047,752,0
15318353,327.75,1047,765,0
15318363,326.92,1047,753,0
15318373,327.63,1047,765,0
15318383,327.23,1047,752,0
15318393,328.27,1047,765,0
15318403,328.02,1047,753,0
15318413,329.26,1047,765,0
15318423,329.09,1047,752,0
15318433,330.05,1047,765,0
15318444,329.61,1047,752,0
15318454,330.20,1047,765,0
15318464,329.49,1047,752,0
15318474,329.78,1047,765,0
15318484,328.69,1047,752,0
15318494,328.99,1047,765,0
15318504,328.48,1047,752,0
15318514,329.88,1047,765,0
15318524,331.97,1047,752,0
15318534,338.02,1047,765,0
15318553,347.66,976,763,0
15318556,365.03,976,765,0
15318566,391.21,976,752,0
15318576,427.87,976,765,0
15318586,470.34,976,752,0
15318596,516.61,976,765,0
15318606,562.97,976,752,0
15318616,607.81,976,765,0
15318626,647.17,976,752,0
15318636,678.27,976,765,0
15318646,700.05,976,752,0
15318657,715.33,976,765,0
15318667,726.03,976,752,0
15318677,733.52,976,765,0
15318687,738.77,976,752,0
15318697,742.44,976,765,0
15318707,745.01,976,752,0
15318717,746.80,976,765,0
15318727,748.06,976,752,0
15318737,748.94,976,765,0
15318747,749.56,976,752,0
15318757,749.99,976,765,0
15318767,750.29,976,752,0
15318777,750.51,976,765,0
15318787,750.65,976,752,0
15318797,750.76,976,765,0
15318807,746.89,976,752,0
15318817,735.99,976,764,0
15318828,715.77,976,752,0
15318838,685.54,976,765,0
15318848,645.69,976,752,0
15318858,596.84,976,764,0
15318868,540.45,976,753,0
15318878,481.85,976,765,0
15318888,425.84,976,753,0
15318898,376.05,976,764,0
15318908,334.80,976,752,0
15318918,302.76,976,764,0
15318928,280.55,976,752,0
15318938,267.10,976,764,0
15318948,261.80,976,753,0
15318958,262.80,976,764,0
15318968,268.90,976,753,0
15318978,278.06,976,764,0
15318988,289.36,976,753,0
15318999,300.78,976,764,0
15319009,312.12,976,753,0
15319019,321.55,976,764,0
15319029,329.57,976,753,0
15319040,334.97,976,764,0
15319049,338.88,976,753,0
15319059,340.46,976,765,0
15319069,340.92,976,753,0
15319079,339.27,976,764,0
15319089,337.26,976,753,0
15319099,333.97,976,764,0
15319109,331.24,976,753,0
15319119,327.74,976,764,0
15319129,324.94,976,753,0
15319139,321.88,976,764,0
15319149,320.16,976,753,0
15319159,318.44,976,764,0
15319169,318.05,976,753,0
15319179,317.69,976,764,0
15319189,318.68,976,753,0
15319199,319.42,976,764,0
15319209,321.40,976,753,0
15319219,322.95,976,765,0
15319229,325.24,976,753,0
15319239,326.79,976,764,0
15319249,328.91,976,753,0
15319259,330.18,976,765,0
15319269,331.93,976,753,0
15319279,332.51,976,764,0
15319289,333.47,976,753,0
15319299,333.71,976,764,0
15319309,334.36,976,753,0
15319319,333.78,976,764,0
15319329,333.59,976,753,0
15319340,332.55,976,763,0
15319350,332.52,976,756,0
15319360,331.55,976,755,0
15319370,331.47,976,765,0
15319380,330.47,976,753,0
15319390,330.80,976,756,0
15319400,330.22,976,756,0
15319410,330.67,976,765,0
15319420,329.70,976,753,0
15319430,329.79,976,755,0
15319440,328.52,976,755,0
15319450,328.58,976,765,0
15319460,327.72,976,753,0
15319470,329.09,976,755,0
15319480,331.46,976,755,0
15319490,338.78,976,763,0
15319500,350.38,976,753,0
15319511,370.88,976,765,0
15319530,399.67,977,764,0
15319533,438.17,977,765,0
15319543,481.75,977,752,0
15319553,528.49,977,765,0
15319563,574.33,977,752,0
15319573,617.69,977,765,0
15319583,654.43,977,752,0
15319593,683.40,977,765,0
15319603,703.72,977,752,0
15319613,717.95,977,765,0
15319623,727.86,977,752,0
15319633,734.80,977,765,0
15319643,739.66,977,752,0
15319653,743.06,977,765,0
15319663,745.44,977,752,0
15319673,747.11,977,765,0
15319683,748.28,977,752,0
15319693,749.09,977,765,0
15319703,749.67,977,752,0
15319713,747.28,977,765,0
15319724,737.90,977,752,0
15319734,720.36,977,765,0
15319744,693.08,977,752,0
15319754,656.88,977,765,0
15319764,611.83,977,752,0
15319774,559.81,977,765,0
15319784,504.03,977,752,0
15319794,450.66,977,765,0
15319804,401.82,977,752,0
15319814,361.07,977,765,0
15319824,328.14,977,752,0
15319834,304.52,977,765,0
15319844,288.42,977,752,0
15319854,280.63,977,765,0
15319864,278.72,977,752,0
15319874,282.84,977,765,0
15319884,290.26,977,752,0
15319895,300.81,977,765,0
15319905,312.09,977,752,0
15319915,323.94,977,764,0
15319925,334.58,977,752,0
15319936,344.09,977,765,0
15319945,350.92,977,752,0
15319955,355.88,977,765,0
15319965,358.01,977,752,0
15319975,358.31,977,765,0
15319985,356.42,977,752,0
15319995,353.33,977,765,0
15320005,348.99,977,752,0
15320015,344.24,977,765,0
15320025,338.89,977,752,0
15320035,333.91,977,765,0
15320045,329.14,977,752,0
15320055,325.24,977,765,0
15320065,321.78,977,752,0
15320075,319.53,977,765,0
15320085,317.96,977,752,0
15320095,317.41,977,764,0
15320105,317.59,977,752,0
15320115,318.66,977,765,0
15320125,320.13,977,752,0
15320135,322.19,977,764,0
15320145,324.19,977,752,0
15320155,326.71,977,765,0
15320165,329.07,977,752,0
15320175,331.49,977,764,0
15320185,333.53,977,752,0
15320195,335.64,977,765,0
15320205,337.25,977,752,0
15320215,338.63,977,764,0
15320225,339.26,977,752,0
15320236,339.74,977,764,0
15320246,339.77,977,752,0
15320256,339.41,977,764,0
15320266,338.77,977,752,0
15320276,337.98,977,764,0
15320286,337.09,977,752,0
15320296,336.03,977,764,0
15320306,334.78,977,752,0
15320316,333.18,977,764,0
15320326,332.01,977,752,0
15320336,331.32,977,764,0
15320346,332.25,977,752,0
15320356,335.91,977,765,0
15320366,344.08,977,752,0
15320376,358.58,977,764,0
15320386,381.76,977,753,0
15320406,415.22,875,751,0
15320409,456.30,875,755,0
15320419,501.59,875,753,0
15320429,548.26,875,755,0
15320439,593.52,875,753,0
15320449,634.64,875,754,0
15320459,668.78,875,753,0
15320469,693.49,875,755,0
15320479,710.74,875,753,0
15320489,722.90,875,761,0
15320499,731.38,875,753,0
15320509,737.31,875,755,0
15320519,741.41,875,753,0
15320529,744.38,875,761,0
15320539,746.36,875,754,0
15320549,747.80,875,755,0
15320559,748.76,875,753,0
15320569,749.52,875,760,0
15320579,750.00,875,754,0
15320589,750.39,875,754,0
15320599,750.61,875,753,0
15320609,750.86,875,760,0
15320620,750.94,875,753,0
15320630,748.35,875,766,0
15320640,738.13,875,752,0
15320650,719.40,875,765,0
15320660,689.88,875,752,0
15320670,651.35,875,765,0
15320680,603.03,875,752,0
15320690,547.65,875,765,0
15320700,487.71,875,752,0
15320710,431.57,875,766,0
15320720,380.18,875,753,0
15320730,338.60,875,765,0
15320740,304.95,875,753,0
15320750,282.29,875,766,0
15320760,267.50,875,753,0
15320770,262.60,875,765,0
15320780,263.06,875,753,0
15320791,270.16,875,766,0
15320801,279.41,875,753,0
15320811,291.89,875,766,0
15320821,303.62,875,753,0
15320832,315.65,875,766,0
15320841,324.58,875,753,0
15320851,332.38,875,765,0
15320861,336.17,875,753,0
15320871,338.60,875,766,0
15320881,337.52,875,753,0
15320891,335.86,875,765,0
15320901,331.71,875,753,0
15320911,327.85,875,766,0
15320921,322.45,875,753,0
15320931,318.63,875,766,0
15320941,314.46,875,753,0
15320951,312.35,875,766,0
15320961,310.01,875,753,0
15320971,310.22,875,766,0
15320981,310.46,875,753,0
15320991,312.63,875,765,0
15321001,314.33,875,753,0
15321011,317.62,875,766,0
15321021,320.09,875,753,0
15321031,323.88,875,766,0
15321041,326.40,875,753,0
15321051,329.92,875,766,0
15321061,332.09,875,753,0
15321071,334.93,875,765,0
15321081,336.07,875,753,0
15321091,337.89,875,766,0
15321101,338.01,875,753,0
15321111,338.69,875,765,0
15321121,337.84,875,753,0
15321132,337.80,875,766,0
15321142,336.58,875,753,0
15321152,336.15,875,765,0
15321162,334.73,875,753,0
15321172,334.21,875,766,0
15321182,332.91,875,753,0
15321192,332.55,875,765,0
15321202,331.48,875,753,0
15321212,331.25,875,765,0
15321222,330.53,875,753,0
15321232,330.63,875,765,0
15321242,330.14,875,753,0
15321252,330.18,875,765,0
15321262,329.49,875,753,0
15321272,329.68,875,765,0
15321282,329.39,875,753,0
15321292,330.65,875,766,0
15321303,332.98,875,753,0
15321313,339.20,875,765,0
15321323,350.20,875,753,0
15321333,369.12,875,765,0
15321344,396.99,875,753,0
15321362,434.75,957,751,0
15321365,478.07,957,754,0
15321375,524.68,957,765,0
15321385,571.10,957,753,0
15321395,614.91,957,765,0
15321405,652.87,957,753,0
15321415,682.52,957,765,0
15321425,703.32,957,753,0
15321435,717.84,957,765,0
15321445,728.00,957,753,0
15321455,735.12,957,766,0
15321465,740.14,957,753,0
15321475,743.61,957,766,0
15321485,746.04,957,753,0
15321495,747.74,957,765,0
15321505,748.98,957,753,0
15321516,749.80,957,765,0
15321526,750.37,957,753,0
15321536,750.78,957,764,0
15321546,751.10,957,753,0
15321556,751.28,957,762,0
15321566,751.41,957,753,0
15321576,751.50,957,764,0
15321586,750.20,957,753,0
15321596,742.47,957,763,0
15321606,726.60,957,753,0
15321616,700.53,957,765,0
15321626,664.59,957,754,0
15321636,618.90,957,765,0
15321646,565.06,957,753,0
15321656,505.38,957,765,0
15321666,447.02,957,754,0
15321676,392.85,957,765,0
15321687,347.25,957,754,0
15321697,310.49,957,765,0
15321707,284.50,957,756,0
15321717,267.46,957,762,0
15321728,260.17,957,765,0
15321737,259.60,957,765,0
15321747,265.59,957,755,0
15321757,274.50,957,761,0
15321767,286.69,957,763,0
15321777,298.53,957,765,0
15321787,310.80,957,755,0
15321797,320.33,957,760,0
15321807,328.89,957,762,0
15321817,334.06,957,765,0
15321827,337.90,957,755,0
15321837,338.27,957,760,0
15321847,337.76,957,762,0
15321857,334.75,957,765,0
15321867,331.78,957,754,0
15321877,326.96,957,761,0
15321887,322.99,957,762,0
15321897,317.98,957,756,0
15321907,314.60,957,755,0
15321917,310.73,957,762,0
15321927,308.76,957,761,0
15321937,306.56,957,756,0
15321947,306.52,957,754,0
15321957,306.32,957,761,0
15321967,308.41,957,760,0
15321977,310.04,957,755,0
15321987,313.50,957,754,0
15321997,316.57,957,761,0
15322007,321.20,957,760,0
15322017,324.57,957,755,0
15322028,329.02,957,766,0
15322038,331.76,957,754,0
15322048,335.47,957,766,0
15322058,337.35,957,754,0
15322068,339.86,957,766,0
15322078,340.33,957,754,0
15322088,341.64,957,766,0
15322098,340.98,957,753,0
15322108,341.41,957,766,0
15322118,339.92,957,754,0
15322128,339.47,957,765,0
15322138,337.10,957,753,0
15322148,336.09,957,766,0
15322158,333.40,957,754,0
15322168,332.17,957,765,0
15322178,329.25,957,753,0
15322188,328.19,957,766,0
15322199,326.37,957,753,0
15322209,327.46,957,765,0
15322219,329.68,957,753,0
15322229,337.66,957,766,0
15322240,350.41,957,753,0
15322249,372.66,957,765,0
15322259,403.23,957,753,0
15322278,443.32,916,752,0
15322281,487.84,916,754,0
15322291,535.16,916,765,0
15322301,580.88,916,753,0
15322311,623.56,916,766,0
15322321,659.35,916,753,0
15322331,687.06,916,766,0
15322341,706.41,916,753,0
15322351,720.00,916,766,0
15322361,729.56,916,753,0
15322371,736.29,916,766,0
15322381,741.00,916,753,0
15322391,744.30,916,766,0
15322401,746.61,916,753,0
15322412,748.23,916,766,0
15322422,749.36,916,753,0
15322432,750.15,916,766,0
15322442,750.71,916,753,0
15322452,751.09,916,765,0
15322462,748.24,916,753,0
15322472,739.08,916,766,0
15322482,720.84,916,753,0
15322492,692.78,916,765,0
15322502,654.91,916,753,0
15322512,608.14,916,766,0
15322522,553.03,916,753,0
15322532,494.35,916,765,0
15322542,436.51,916,753,0
15322552,384.29,916,766,0
15322562,339.54,916,753,0
15322572,304.11,916,766,0
15322583,278.02,916,753,0
15322593,261.86,916,765,0
15322603,254.49,916,753,0
15322613,254.85,916,766,0
15322624,261.20,916,753,0
15322633,272.24,916,766,0
15322643,285.84,916,753,0
15322653,300.59,916,765,0
15322663,315.07,916,753,0
15322673,328.25,916,766,0
15322683,339.36,916,753,0
15322693,347.78,916,765,0
15322703,353.42,916,753,0
15322713,356.29,916,766,0
15322723,356.63,916,753,0
15322733,354.60,916,766,0
15322743,350.69,916,753,0
15322753,345.56,916,766,0
15322763,339.60,916,754,0
15322773,333.34,916,766,0
15322783,327.15,916,753,0
15322793,321.32,916,765,0
15322803,316.42,916,753,0
15322813,312.61,916,765,0
15322823,309.98,916,753,0
15322833,308.45,916,766,0
15322843,308.10,916,754,0
15322853,308.80,916,765,0
15322863,310.62,916,753,0
15322873,312.87,916,765,0
15322883,315.65,916,753,0
15322893,318.63,916,766,0
15322903,321.91,916,753,0
15322913,324.85,916,766,0
15322924,327.64,916,753,0
15322934,329.93,916,765,0
15322944,332.35,916,753,0
15322954,334.05,916,765,0
15322964,335.62,916,754,0
15322974,336.50,916,765,0
15322984,337.25,916,753,0
15322994,337.18,916,765,0
15323004,337.08,916,754,0
15323014,336.03,916,765,0
15323024,334.99,916,753,0
15323034,333.07,916,765,0
15323044,331.46,916,754,0
15323054,329.69,916,765,0
15323064,329.10,916,753,0
15323074,329.58,916,765,0
15323084,333.78,916,754,0
15323095,342.46,916,765,0
15323105,358.95,916,753,0
15323115,384.21,916,763,0
15323134,420.27,856,756,0
15323138,463.09,856,754,0
15323148,510.08,856,767,0
15323158,557.50,856,753,0
15323168,603.21,856,766,0
15323179,643.43,856,753,0
15323188,676.09,856,766,0
15323198,698.95,856,753,0
15323208,715.03,856,766,0
15323218,726.25,856,753,0
15323228,734.15,856,766,0
15323238,739.63,856,753,0
15323248,743.51,856,766,0
15323258,746.19,856,753,0
15323268,748.10,856,766,0
15323278,749.40,856,753,0
15323288,750.35,856,766,0
15323298,750.97,856,753,0
15323308,751.45,856,766,0
15323318,751.75,856,753,0
15323328,751.99,856,766,0
15323338,749.60,856,753,0
15323348,741.66,856,766,0
15323358,724.70,856,753,0
15323368,698.52,856,766,0
15323378,661.64,856,753,0
15323388,615.76,856,766,0
15323398,560.76,856,753,0
15323408,501.90,856,766,0
15323418,442.23,856,753,0
15323428,388.21,856,766,0
15323438,340.36,856,753,0
15323448,303.05,856,766,0
15323458,274.28,856,753,0
15323468,256.49,856,766,0
15323479,246.62,856,753,0
15323489,246.18,856,766,0
15323499,251.09,856,753,0
15323509,261.99,856,766,0
15323520,274.77,856,753,0
15323529,290.27,856,766,0
15323539,304.71,856,753,0
15323549,318.73,856,766,0
15323559,329.48,856,753,0
15323569,338.47,856,766,0
15323579,343.38,856,753,0
15323589,345.93,856,765,0
15323599,344.83,856,753,0
15323609,342.23,856,766,0
15323619,336.97,856,753,0
15323629,331.37,856,766,0
15323639,324.40,856,753,0
15323649,318.67,856,766,0
15323659,312.81,856,753,0
15323669,308.79,856,766,0
15323679,305.08,856,753,0
15323689,303.60,856,766,0
15323699,302.61,856,753,0
15323709,303.63,856,766,0
15323719,304.72,856,753,0
15323729,307.46,856,766,0
15323739,309.85,856,753,0
15323749,313.54,856,766,0
15323759,316.68,856,753,0
15323769,320.50,856,766,0
15323779,323.14,856,753,0
15323789,326.10,856,766,0
15323799,327.78,856,753,0
15323809,329.78,856,766,0
15323820,330.61,856,753,0
15323830,331.67,856,766,0
15323840,331.81,856,753,0
15323850,332.43,856,766,0
15323860,332.38,856,753,0
15323870,332.91,856,766,0
15323880,332.64,856,753,0
15323890,332.66,856,766,0
15323900,332.03,856,753,0
15323910,331.94,856,766,0
15323920,331.40,856,753,0
15323930,331.32,856,766,0
15323940,330.93,856,753,0
15323950,331.21,856,766,0
15323960,331.14,856,753,0
15323970,331.40,856,766,0
15323980,331.24,856,753,0
15323991,331.64,856,765,0
15324001,332.52,856,753,0
15324011,335.49,856,766,0
15324021,341.82,856,753,0
15324032,353.87,856,765,0
15324041,373.50,856,753,0
15324051,403.60,856,766,0
15324070,442.42,936,764,0
15324073,486.74,936,764,0
15324083,533.53,936,753,0
15324093,579.74,936,765,0
15324103,622.68,936,754,0
15324113,659.59,936,763,0
15324123,687.23,936,753,0
15324133,706.57,936,765,0
15324143,720.16,936,753,0
15324153,729.67,936,763,0
15324163,736.37,936,753,0
15324173,741.06,936,764,0
15324183,744.34,936,754,0
15324193,746.64,936,763,0
15324204,748.25,936,753,0
15324214,749.37,936,759,0
15324224,750.16,936,754,0
15324234,750.71,936,755,0
15324244,751.10,936,754,0
15324254,751.37,936,760,0
15324264,751.56,936,754,0
15324274,751.69,936,755,0
15324284,751.78,936,754,0
15324294,751.85,936,760,0
15324304,749.45,936,754,0
15324314,739.33,936,755,0
15324324,719.99,936,755,0
15324334,689.78,936,764,0
15324344,649.77,936,754,0
15324354,599.48,936,760,0
15324364,541.48,936,760,0
15324375,478.51,936,756,0
15324385,419.26,936,766,0
15324395,365.39,936,755,0
15324405,321.65,936,766,0
15324416,286.87,936,754,0
15324425,264.02,936,766,0
15324435,249.74,936,755,0
15324445,245.66,936,766,0
15324455,246.96,936,754,0
15324465,254.82,936,766,0
15324475,264.52,936,755,0
15324485,277.22,936,766,0
15324495,288.55,936,754,0
15324505,300.34,936,766,0
15324515,308.81,936,755,0
15324525,316.54,936,766,0
15324535,320.32,936,754,0
15324545,323.10,936,766,0
15324555,322.21,936,755,0
15324565,321.12,936,766,0
15324575,317.10,936,754,0
15324585,313.81,936,766,0
15324595,308.55,936,755,0
15324605,304.96,936,766,0
15324615,300.39,936,754,0
15324625,298.26,936,766,0
15324635,295.52,936,755,0
15324645,295.45,936,766,0
15324655,294.80,936,754,0
15324665,296.66,936,766,0
15324675,297.83,936,754,0
15324685,301.14,936,766,0
15324695,303.16,936,753,0
15324705,306.84,936,766,0
15324716,309.11,936,754,0
15324726,312.85,936,766,0
15324736,315.00,936,753,0
15324746,318.21,936,766,0
15324756,319.65,936,753,0
15324766,322.28,936,766,0
15324776,322.93,936,753,0
15324786,324.58,936,766,0
15324796,324.28,936,753,0
15324806,325.14,936,766,0
15324816,324.41,936,753,0
15324826,324.93,936,766,0
