Time,PPG,IBI,GSR,GSR_Event
14601235,329.17,883,768,0
14601245,336.28,883,770,0
14601255,338.68,883,769,0
14601265,339.03,883,770,0
14601275,335.21,883,769,0
14601285,330.22,883,770,0
14601295,322.48,883,769,0
14601305,320.97,883,770,0
14601315,320.76,883,769,0
14601325,323.23,883,770,0
14601335,325.69,883,769,0
14601345,330.03,883,770,0
14601355,333.75,883,769,0
14601365,338.58,883,770,0
14601375,343.16,883,767,0
14601385,348.51,883,770,0
14601395,353.03,883,766,0
14601405,357.95,883,769,0
14601415,361.87,883,767,0
14601425,366.06,883,770,0
14601435,369.17,883,766,0
14601445,371.65,883,770,0
14601455,373.13,883,767,0
14601465,374.07,883,770,0
14601475,374.22,883,766,0
14601485,374.37,883,769,0
14601495,374.09,883,767,0
14601505,373.98,883,769,0
14601516,373.38,883,767,0
14601526,373.05,883,769,0
14601536,372.65,883,768,0
14601546,372.58,883,770,0
14601556,372.20,883,768,0
14601566,371.92,883,769,0
14601576,371.26,883,768,0
14601586,370.75,883,770,0
14601596,369.67,883,768,0
14601606,368.48,883,769,0
14601616,366.71,883,768,0
14601626,364.78,883,769,0
14601636,362.88,883,768,0
14601646,362.10,883,769,0
14601656,363.44,883,768,0
14601666,369.09,883,769,0
14601676,380.98,883,768,0
14601687,401.94,883,769,0
14601697,433.72,883,769,0
14601707,472.89,883,769,0
14601726,516.42,854,769,0
14601730,561.68,854,769,0
14601739,605.75,854,772,0
14601749,645.68,854,769,0
14601759,678.35,854,772,0
14601769,701.34,854,769,0
14601779,717.53,854,772,0
14601789,728.90,854,770,0
14601799,736.90,854,771,0
14601809,742.46,854,769,0
14601819,746.39,854,772,0
14601829,749.10,854,769,0
14601839,751.04,854,772,0
14601849,752.36,854,769,0
14601859,753.32,854,772,0
14601869,754.00,854,770,0
14601879,754.51,854,771,0
14601889,754.83,854,769,0
14601900,755.05,854,772,0
14601910,751.74,854,768,0
14601920,741.57,854,771,0
14601930,721.69,854,768,0
14601940,691.57,854,772,0
14601950,651.20,854,768,0
14601960,601.47,854,771,0
14601970,543.00,854,768,0
14601980,481.46,854,772,0
14601990,421.58,854,768,0
14602000,368.39,854,771,0
14602010,323.66,854,768,0
14602020,289.52,854,772,0
14602030,265.83,854,771,0
14602040,253.24,854,771,0
14602050,250.04,854,768,0
14602060,255.56,854,771,0
14602071,267.05,854,767,0
14602081,283.70,854,771,0
14602091,302.31,854,767,0
14602101,322.10,854,772,0
14602112,340.58,854,767,0
14602121,357.21,854,771,0
14602131,370.13,854,767,0
14602141,380.08,854,772,0
14602151,385.71,854,767,0
14602161,388.46,854,771,0
14602171,387.68,854,767,0
14602181,385.16,854,771,0
14602191,380.48,854,767,0
14602201,375.37,854,771,0
14602211,369.17,854,767,0
14602221,363.46,854,771,0
14602231,357.54,854,767,0
14602241,352.96,854,771,0
14602251,348.86,854,767,0
14602261,346.42,854,771,0
14602271,344.53,854,767,0
14602281,344.37,854,771,0
14602291,344.78,854,767,0
14602301,346.69,854,771,0
14602311,348.62,854,767,0
14602321,351.48,854,771,0
14602331,354.08,854,767,0
14602341,357.44,854,771,0
14602351,360.31,854,767,0
14602361,363.73,854,771,0
14602371,366.60,854,767,0
14602381,369.89,854,771,0
14602391,372.24,854,767,0
14602401,374.48,854,771,0
14602412,375.41,854,767,0
14602422,375.84,854,771,0
14602432,374.48,854,767,0
14602442,372.62,854,772,0
14602452,369.39,854,767,0
14602462,366.49,854,771,0
14602472,363.43,854,767,0
14602482,362.66,854,771,0
14602492,364.73,854,767,0
14602502,372.61,854,771,0
14602512,387.51,854,767,0
14602522,412.82,854,772,0
14602532,447.54,854,767,0
14602551,488.91,825,766,0
14602554,533.21,825,769,0
14602564,578.27,825,772,0
14602574,620.92,825,769,0
14602584,658.49,825,771,0
14602594,687.61,825,769,0
14602604,708.04,825,772,0
14602614,722.39,825,770,0
14602625,732.47,825,771,0
14602635,739.53,825,770,0
14602645,744.47,825,771,0
14602655,747.93,825,770,0
14602665,750.35,825,771,0
14602675,752.05,825,770,0
14602685,753.23,825,771,0
14602695,754.06,825,770,0
14602705,750.87,825,771,0
14602715,740.92,825,770,0
14602725,722.48,825,771,0
14602735,694.05,825,770,0
14602745,655.76,825,771,0
14602755,608.05,825,770,0
14602765,552.15,825,771,0
14602775,492.70,825,770,0
14602785,434.42,825,771,0
14602796,380.59,825,771,0
14602806,334.69,825,771,0
14602816,298.01,825,771,0
14602826,271.78,825,771,0
14602836,255.82,825,772,0
14602846,250.04,825,771,0
14602856,252.73,825,771,0
14602866,262.58,825,771,0
14602876,277.54,825,772,0
14602886,295.85,825,771,0
14602896,315.35,825,771,0
14602906,334.36,825,771,0
14602916,351.39,825,772,0
14602926,365.80,825,771,0
14602936,376.75,825,771,0
14602946,383.90,825,771,0
14602956,387.23,825,772,0
14602967,386.94,825,770,0
14602977,383.62,825,771,0
14602987,377.78,825,770,0
14602997,370.17,825,772,0
14603008,361.42,825,769,0
14603017,352.34,825,771,0
14603027,343.49,825,770,0
14603037,335.59,825,772,0
14603047,328.73,825,769,0
14603057,323.58,825,771,0
14603067,319.98,825,770,0
14603077,318.31,825,772,0
14603087,318.22,825,769,0
14603097,319.61,825,771,0
14603107,322.13,825,770,0
14603117,325.77,825,771,0
14603127,329.87,825,769,0
14603137,334.54,825,771,0
14603147,339.18,825,770,0
14603157,343.84,825,772,0
14603167,348.00,825,769,0
14603177,351.77,825,771,0
14603187,354.75,825,770,0
14603197,356.97,825,771,0
14603207,358.01,825,769,0
14603217,358.09,825,772,0
14603227,357.08,825,770,0
14603237,355.38,825,771,0
14603247,352.91,825,769,0
14603257,350.62,825,771,0
14603267,349.28,825,770,0
14603277,350.52,825,771,0
14603287,355.98,825,769,0
14603297,368.12,825,771,0
14603308,389.25,825,769,0
14603318,421.83,825,771,0
14603328,462.13,825,768,0
14603347,507.22,796,767,0
14603351,553.95,796,768,0
14603359,599.57,796,771,0
14603369,640.88,796,767,0
14603379,675.03,796,772,0
14603389,699.11,796,767,0
14603399,716.00,796,771,0
14603409,727.83,796,768,0
14603419,736.15,796,772,0
14603429,742.02,796,767,0
14603439,746.17,796,771,0
14603449,749.08,796,768,0
14603459,751.15,796,772,0
14603469,752.61,796,767,0
14603479,753.63,796,772,0
14603489,754.30,796,767,0
14603499,754.76,796,772,0
14603509,755.09,796,767,0
14603520,752.92,796,771,0
14603529,744.67,796,767,0
14603539,728.23,796,772,0
14603549,701.37,796,767,0
14603559,664.36,796,771,0
14603569,617.24,796,768,0
14603579,561.45,796,772,0
14603589,500.12,796,767,0
14603599,439.18,796,771,0
14603609,381.96,796,768,0
14603619,332.94,796,772,0
14603629,293.10,796,767,0
14603639,264.23,796,771,0
14603649,245.52,796,767,0
14603659,237.69,796,771,0
14603669,238.38,796,767,0
14603679,247.01,796,772,0
14603689,260.59,796,767,0
14603699,278.03,796,771,0
14603709,296.36,796,767,0
14603719,314.98,796,772,0
14603729,331.23,796,767,0
14603739,345.18,796,772,0
14603749,354.98,796,767,0
14603759,361.54,796,771,0
14603769,363.74,796,767,0
14603779,363.26,796,772,0
14603789,359.67,796,767,0
14603799,354.75,796,772,0
14603809,347.93,796,766,0
14603820,341.18,796,772,0
14603830,333.88,796,766,0
14603840,327.92,796,772,0
14603850,322.33,796,766,0
14603860,318.33,796,772,0
14603870,314.80,796,766,0
14603880,312.98,796,772,0
14603890,311.70,796,766,0
14603900,312.00,796,772,0
14603910,312.69,796,766,0
14603920,314.84,796,771,0
14603930,316.90,796,765,0
14603940,319.89,796,771,0
14603950,322.54,796,766,0
14603960,325.93,796,772,0
14603970,328.82,796,765,0
14603980,332.13,796,771,0
14603991,334.45,796,766,0
14604001,337.06,796,771,0
14604011,338.93,796,767,0
14604021,341.01,796,771,0
14604032,342.08,796,768,0
14604041,343.21,796,772,0
14604051,343.28,796,767,0
14604061,343.36,796,771,0
14604071,342.36,796,768,0
14604081,341.26,796,771,0
14604091,339.21,796,767,0
14604101,337.22,796,771,0
14604111,334.54,796,768,0
14604121,332.15,796,771,0
14604131,329.36,796,766,0
14604141,327.97,796,771,0
14604151,328.19,796,768,0
14604161,332.29,796,771,0
14604171,341.33,796,767,0
14604181,358.63,796,772,0
14604191,385.87,796,768,0
14604211,423.84,863,767,0
14604214,468.20,863,771,0
14604224,516.18,863,771,0
14604234,564.51,863,771,0
14604244,610.60,863,771,0
14604254,650.71,863,771,0
14604264,682.25,863,771,0
14604274,704.33,863,771,0
14604284,719.83,863,771,0
14604294,730.68,863,770,0
14604304,738.28,863,771,0
14604314,743.59,863,771,0
14604324,747.32,863,771,0
14604334,749.92,863,771,0
14604344,751.75,863,771,0
14604354,753.02,863,771,0
14604364,753.92,863,771,0
14604375,754.54,863,771,0
14604385,754.98,863,770,0
14604395,755.28,863,772,0
14604405,753.19,863,769,0
14604416,744.90,863,771,0
14604425,728.13,863,770,0
14604435,701.31,863,771,0
14604445,663.80,863,770,0
14604455,616.20,863,771,0
14604465,559.48,863,770,0
14604475,497.41,863,771,0
14604485,435.19,863,770,0
14604495,377.10,863,771,0
14604505,326.46,863,770,0
14604515,285.65,863,771,0
14604525,255.45,863,770,0
14604535,236.25,863,771,0
14604545,227.13,863,770,0
14604555,227.26,863,771,0
14604565,234.85,863,770,0
14604575,248.23,863,771,0
14604585,265.13,863,769,0
14604595,283.65,863,771,0
14604605,301.88,863,770,0
14604615,318.89,863,771,0
14604625,333.32,863,770,0
14604635,344.80,863,771,0
14604645,352.57,863,770,0
14604655,356.94,863,771,0
14604665,357.90,863,769,0
14604675,356.22,863,772,0
14604685,352.00,863,770,0
14604695,346.25,863,771,0
14604705,339.11,863,769,0
14604716,331.62,863,771,0
14604726,323.89,863,769,0
14604736,317.07,863,771,0
14604746,310.92,863,768,0
14604756,306.40,863,771,0
14604766,302.94,863,769,0
14604776,301.03,863,771,0
14604786,300.16,863,769,0
14604796,300.76,863,771,0
14604806,302.03,863,769,0
14604816,304.25,863,771,0
14604826,306.49,863,768,0
14604836,309.30,863,771,0
14604846,311.87,863,769,0
14604856,314.52,863,771,0
14604866,316.64,863,768,0
14604876,318.85,863,772,0
14604887,320.35,863,768,0
14604897,321.87,863,772,0
14604907,322.55,863,767,0
14604917,323.37,863,772,0
14604928,323.48,863,767,0
14604937,323.80,863,771,0
14604947,323.39,863,767,0
14604957,323.32,863,772,0
14604967,322.45,863,767,0
14604977,322.02,863,772,0
14604987,320.90,863,767,0
14604997,320.24,863,772,0
14605007,318.84,863,767,0
14605017,317.73,863,772,0
14605027,315.80,863,767,0
14605037,314.19,863,772,0
14605047,311.77,863,767,0
14605057,309.78,863,772,0
14605067,307.32,863,767,0
14605077,305.94,863,772,0
14605087,305.23,863,767,0
14605097,307.82,863,772,0
14605107,314.17,863,767,0
14605117,327.66,863,772,0
14605127,349.79,863,767,0
14605137,384.10,863,772,0
14605156,427.05,946,770,0
14605159,475.85,946,771,0
14605168,526.51,946,767,0
14605178,576.71,946,772,0
14605188,622.66,946,767,0
14605198,661.55,946,772,0
14605208,689.80,946,767,0
14605218,709.61,946,772,0
14605228,723.44,946,767,0
14605238,733.13,946,772,0
14605248,739.90,946,767,0
14605258,744.69,946,772,0
14605268,748.00,946,767,0
14605278,750.31,946,772,0
14605288,751.93,946,767,0
14605298,753.11,946,772,0
14605308,753.89,946,767,0
14605318,754.44,946,772,0
14605328,754.82,946,767,0
14605338,755.13,946,772,0
14605348,755.31,946,767,0
14605358,752.86,946,772,0
14605368,743.21,946,767,0
14605378,724.38,946,771,0
14605388,694.69,946,767,0
14605399,654.89,946,772,0
14605409,605.21,946,767,0
14605419,547.54,946,772,0
14605429,485.58,946,768,0
14605440,426.48,946,772,0
14605449,373.45,946,767,0
14605459,330.33,946,771,0
14605469,297.27,946,768,0
14605479,275.76,946,772,0
14605489,263.23,946,770,0
14605499,260.25,946,772,0
14605509,263.26,946,770,0
14605519,272.40,946,772,0
14605529,284.06,946,770,0
14605539,298.14,946,771,0
14605549,311.99,946,766,0
14605559,326.43,946,772,0
14605569,338.52,946,767,0
14605579,349.38,946,771,0
14605589,356.34,946,767,0
14605599,360.86,946,771,0
14605609,361.16,946,768,0
14605619,358.71,946,771,0
14605629,352.54,946,769,0
14605639,344.71,946,771,0
14605649,334.51,946,770,0
14605659,324.84,946,771,0
14605669,314.82,946,770,0
14605679,306.99,946,771,0
14605689,299.96,946,771,0
14605699,296.25,946,771,0
14605709,294.16,946,770,0
14605719,295.82,946,771,0
14605729,298.66,946,770,0
14605740,305.11,946,771,0
14605750,312.36,946,770,0
14605760,322.67,946,771,0
14605770,332.80,946,771,0
14605780,344.81,946,771,0
14605790,355.54,946,770,0
14605800,367.25,946,771,0
14605810,376.60,946,771,0
14605820,385.94,946,771,0
14605830,392.17,946,771,0
14605840,397.78,946,771,0
14605850,399.94,946,771,0
14605860,401.25,946,771,0
14605870,398.90,946,770,0
14605880,395.67,946,771,0
14605890,389.00,946,771,0
14605900,381.76,946,771,0
14605911,371.67,946,771,0
14605921,361.96,946,771,0
14605931,350.61,946,771,0
14605941,341.30,946,771,0
14605952,332.94,946,771,0
14605961,329.74,946,771,0
14605971,331.36,946,771,0
14605981,343.00,946,771,0
14605991,364.17,946,771,0
14606001,398.88,946,771,0
14606011,441.81,946,771,0
14606021,490.51,946,771,0
14606031,540.50,946,770,0
14606041,589.68,946,771,0
14606051,633.36,946,770,0
14606061,669.81,946,771,0
14606071,695.62,946,771,0
14606090,713.74,934,769,0
14606093,726.42,934,771,0
14606102,735.29,934,771,0
14606112,741.50,934,772,0
14606123,745.81,934,770,0
14606132,748.82,934,771,0
14606142,750.93,934,771,0
14606152,752.41,934,771,0
14606162,753.44,934,771,0
14606172,753.57,934,771,0
14606182,749.50,934,771,0
14606192,738.59,934,771,0
14606202,719.30,934,771,0
14606212,690.71,934,771,0
14606222,652.65,934,771,0
14606232,605.40,934,771,0
14606242,550.42,934,771,0
14606252,492.14,934,772,0
14606262,434.71,934,771,0
14606272,381.10,934,771,0
14606282,333.75,934,771,0
14606292,294.40,934,771,0
14606302,264.28,934,771,0
14606312,243.67,934,771,0
14606322,232.54,934,771,0
14606332,230.11,934,771,0
14606342,235.39,934,771,0
14606352,246.93,934,771,0
14606362,263.06,934,771,0
14606372,281.95,934,771,0
14606382,301.98,934,771,0
14606392,321.35,934,771,0
14606402,338.95,934,770,0
14606412,353.84,934,771,0
14606423,365.33,934,770,0
14606433,373.16,934,771,0
14606443,377.22,934,769,0
14606453,377.84,934,771,0
14606464,375.28,934,768,0
14606473,370.44,934,771,0
14606483,363.49,934,769,0
14606493,355.50,934,771,0
14606503,346.61,934,768,0
14606513,337.90,934,771,0
14606523,329.31,934,768,0
14606533,322.06,934,771,0
14606543,315.49,934,767,0
14606553,310.63,934,771,0
14606563,306.84,934,768,0
14606573,305.04,934,771,0
14606583,304.26,934,767,0
14606593,305.30,934,771,0
14606603,307.05,934,768,0
14606613,310.03,934,771,0
14606623,313.20,934,768,0
14606633,316.99,934,771,0
14606643,320.38,934,769,0
14606653,323.95,934,771,0
14606663,326.67,934,769,0
14606673,329.08,934,771,0
14606683,330.64,934,769,0
14606693,331.74,934,771,0
14606703,331.81,934,769,0
14606713,331.66,934,771,0
14606723,330.90,934,770,0
14606733,330.25,934,771,0
14606743,329.31,934,769,0
14606753,328.66,934,771,0
14606764,327.86,934,768,0
14606774,327.48,934,771,0
14606784,326.82,934,768,0
14606794,326.40,934,771,0
14606804,325.68,934,767,0
14606814,325.35,934,771,0
14606824,324.69,934,768,0
14606834,324.48,934,771,0
14606844,324.08,934,767,0
14606854,324.10,934,771,0
14606864,323.81,934,768,0
14606874,324.00,934,771,0
14606884,324.30,934,767,0
14606894,326.31,934,771,0
14606904,330.50,934,768,0
14606914,339.48,934,771,0
14606924,354.85,934,767,0
14606935,379.84,934,771,0
14606954,415.54,864,770,0
14606957,458.62,864,772,0
14606967,505.62,864,767,0
14606977,554.04,864,771,0
14606987,600.52,864,767,0
14606997,642.41,864,772,0
14607007,676.23,864,767,0
14607017,699.95,864,771,0
14607027,716.59,864,767,0
14607037,728.29,864,771,0
14607047,736.51,864,767,0
14607057,742.32,864,771,0
14607067,746.38,864,767,0
14607077,749.22,864,772,0
14607087,751.26,864,767,0
14607097,752.68,864,771,0
14607107,753.63,864,767,0
14607117,754.30,864,772,0
14607127,754.77,864,767,0
14607137,755.09,864,771,0
14607148,752.49,864,768,0
14607158,743.86,864,771,0
14607168,726.16,864,768,0
14607178,698.68,864,771,0
14607188,660.85,864,769,0
14607198,613.75,864,771,0
14607208,557.68,864,768,0
14607218,497.22,864,771,0
14607228,436.81,864,769,0
14607238,381.58,864,771,0
14607248,333.62,864,768,0
14607258,295.51,864,771,0
14607268,267.41,864,768,0
14607278,250.27,864,771,0
14607288,242.69,864,768,0
14607298,244.28,864,771,0
14607308,252.81,864,768,0
14607319,267.23,864,771,0
14607329,284.77,864,769,0
14607339,304.04,864,771,0
14607349,322.84,864,770,0
14607360,340.42,864,771,0
14607369,355.08,864,769,0
14607379,366.67,864,771,0
14607389,374.27,864,770,0
14607399,378.43,864,771,0
14607409,378.77,864,769,0
14607419,376.44,864,771,0
14607429,371.55,864,769,0
14607439,365.30,864,771,0
14607449,357.88,864,769,0
14607459,350.46,864,771,0
14607469,343.12,864,769,0
14607479,336.74,864,771,0
14607489,331.16,864,769,0
14607499,327.13,864,771,0
14607509,324.05,864,770,0
14607519,322.49,864,771,0
14607529,321.70,864,770,0
14607539,322.13,864,771,0
14607549,323.04,864,769,0
14607559,324.70,864,771,0
14607569,326.37,864,770,0
14607579,328.40,864,771,0
14607589,330.21,864,769,0
14607599,332.25,864,771,0
14607609,333.89,864,770,0
14607619,335.72,864,771,0
14607629,337.05,864,769,0
14607639,338.32,864,771,0
14607649,339.29,864,770,0
14607660,340.28,864,771,0
14607670,340.88,864,770,0
14607680,341.30,864,771,0
14607690,341.43,864,771,0
14607700,341.56,864,771,0
14607710,341.56,864,770,0
14607720,341.43,864,771,0
14607730,340.83,864,771,0
14607740,339.94,864,770,0
14607750,338.80,864,770,0
14607760,337.32,864,771,0
14607770,335.51,864,771,0
14607780,333.26,864,770,0
14607790,330.82,864,770,0
14607800,329.20,864,771,0
14607810,329.61,864,771,0
14607820,333.76,864,770,0
14607831,343.86,864,771,0
14607841,362.37,864,770,0
14607860,391.75,906,768,0
14607863,431.08,906,769,0
14607873,476.61,906,771,0
14607883,525.11,906,768,0
14607893,573.51,906,772,0
14607903,618.57,906,767,0
14607913,657.23,906,771,0
14607923,686.65,906,768,0
14607933,707.24,906,771,0
14607943,721.65,906,767,0
14607953,731.74,906,771,0
14607963,738.76,906,768,0
14607973,743.72,906,771,0
14607983,747.19,906,767,0
14607993,749.62,906,771,0
14608003,751.28,906,768,0
14608013,752.48,906,771,0
14608023,753.32,906,767,0
14608033,753.91,906,771,0
14608044,749.65,906,767,0
14608054,738.31,906,771,0
14608064,717.43,906,767,0
14608074,686.96,906,771,0
14608084,646.47,906,767,0
14608094,597.43,906,772,0
14608104,540.22,906,767,0
14608114,481.31,906,771,0
14608124,424.13,906,767,0
14608134,373.26,906,771,0
14608144,329.98,906,767,0
14608154,296.69,906,771,0
14608164,272.91,906,766,0
14608174,259.44,906,771,0
14608184,254.59,906,767,0
14608194,258.19,906,771,0
14608204,267.69,906,766,0
14608215,282.27,906,771,0
14608225,298.99,906,766,0
14608235,316.90,906,771,0
14608245,333.65,906,767,0
14608256,349.05,906,771,0
14608265,361.08,906,766,0
14608275,370.10,906,771,0
14608285,374.70,906,766,0
14608295,376.03,906,771,0
14608305,373.49,906,766,0
14608315,368.72,906,771,0
14608325,361.17,906,766,0
14608335,352.68,906,771,0
14608345,343.00,906,767,0
14608355,334.00,906,771,0
14608365,325.26,906,766,0
14608375,318.11,906,771,0
14608385,311.86,906,766,0
14608395,307.79,906,771,0
14608405,304.81,906,766,0
14608415,303.97,906,771,0
14608425,304.02,906,767,0
14608435,305.73,906,771,0
14608445,307.74,906,766,0
14608455,310.86,906,771,0
14608465,313.94,906,767,0
14608475,317.73,906,771,0
14608485,320.86,906,766,0
14608495,324.24,906,771,0
14608505,326.78,906,766,0
14608515,329.51,906,771,0
14608525,331.37,906,766,0
14608535,333.23,906,771,0
14608545,334.15,906,766,0
14608556,335.09,906,771,0
14608566,335.02,906,766,0
14608576,334.93,906,771,0
14608586,334.01,906,767,0
14608596,333.15,906,771,0
14608606,331.52,906,766,0
14608616,330.16,906,771,0
14608626,328.14,906,767,0
14608636,326.64,906,771,0
14608646,324.78,906,766,0
14608656,323.69,906,771,0
14608666,322.41,906,767,0
14608676,321.82,906,771,0
14608686,320.97,906,766,0
14608696,320.98,906,771,0
14608706,320.73,906,767,0
14608716,321.11,906,771,0
14608727,321.12,906,768,0
14608737,322.11,906,771,0
14608747,324.14,906,768,0
14608757,329.37,906,771,0
14608768,338.94,906,769,0
14608777,355.67,906,771,0
14608787,381.61,906,768,0
14608806,418.42,946,767,0
14608809,462.01,946,773,0
14608819,509.58,946,771,0
14608829,557.87,946,771,0
14608839,604.20,946,771,0
14608849,645.37,946,771,0
14608859,678.39,946,771,0
14608869,701.50,946,771,0
14608879,717.72,946,770,0
14608889,729.08,946,771,0
14608899,737.07,946,771,0
14608909,742.66,946,771,0
14608919,746.62,946,771,0
14608929,749.39,946,771,0
14608940,751.33,946,771,0
14608950,752.69,946,771,0
14608960,753.68,946,770,0
14608970,754.33,946,771,0
14608980,754.75,946,769,0
14608990,755.04,946,771,0
14609000,755.24,946,770,0
14609010,755.38,946,771,0
14609020,755.44,946,770,0
14609030,751.96,946,771,0
14609040,742.03,946,770,0
14609050,724.15,946,771,0
14609060,697.83,946,769,0
14609070,664.03,946,771,0
14609080,623.52,946,770,0
14609090,577.72,946,771,0
14609100,531.35,946,770,0
14609111,488.81,946,771,0
14609121,452.40,946,769,0
14609131,423.69,946,771,0
14609141,401.93,946,768,0
14609152,387.12,946,771,0
14609161,377.61,946,769,0
14609171,372.42,946,771,0
14609181,369.55,946,768,0
14609191,368.35,946,771,0
14609201,367.22,946,769,0
14609211,365.87,946,771,0
14609221,362.99,946,768,0
14609231,359.10,946,771,0
14609241,353.84,946,769,0
14609251,348.27,946,771,0
14609261,341.98,946,768,0
14609271,335.98,946,771,0
14609281,330.29,946,769,0
14609291,325.87,946,771,0
14609301,322.31,946,768,0
14609311,320.16,946,771,0
14609321,318.57,946,768,0
14609331,318.40,946,772,0
14609341,318.75,946,768,0
14609351,320.15,946,771,0
14609361,321.65,946,768,0
14609371,323.94,946,771,0
14609381,326.06,946,768,0
14609391,328.44,946,771,0
14609401,329.98,946,768,0
14609411,331.31,946,771,0
14609421,331.73,946,768,0
14609431,331.73,946,772,0
14609441,330.44,946,768,0
14609452,328.68,946,771,0
14609462,325.99,946,767,0
14609472,323.42,946,772,0
14609482,320.04,946,768,0
14609492,317.07,946,771,0
14609502,314.01,946,770,0
14609512,311.43,946,772,0
14609522,309.07,946,770,0
14609532,307.72,946,771,0
14609542,306.65,946,770,0
14609552,307.31,946,771,0
14609562,308.25,946,770,0
14609572,310.02,946,771,0
14609582,312.24,946,770,0
14609592,315.25,946,772,0
14609602,319.42,946,767,0
14609612,326.75,946,771,0
14609623,337.71,946,768,0
14609633,355.88,946,772,0
14609652,383.22,846,770,0
14609655,420.82,846,771,0
14609665,465.11,846,767,0
14609675,513.12,846,772,0
14609685,561.51,846,767,0
14609695,607.90,846,771,0
14609705,648.43,846,768,0
14609715,680.62,846,772,0
14609725,703.10,846,771,0
14609735,718.89,846,772,0
14609745,729.89,846,770,0
14609755,737.60,846,772,0
14609765,742.95,846,770,0
14609775,746.73,846,771,0
14609785,749.34,846,770,0
14609795,751.21,846,772,0
14609805,752.48,846,770,0
14609815,753.40,846,771,0
14609825,754.01,846,770,0
14609836,754.48,846,772,0
14609846,753.26,846,770,0
14609856,747.79,846,772,0
14609866,733.75,846,770,0
14609876,710.77,846,771,0
14609886,677.37,846,770,0
14609896,634.87,846,771,0
14609906,582.41,846,770,0
14609916,524.17,846,772,0
14609926,462.92,846,771,0
14609936,406.03,846,772,0
14609946,354.34,846,771,0
14609956,312.53,846,772,0
14609966,279.55,846,770,0
14609976,258.94,846,772,0
14609986,247.81,846,770,0
14609996,248.08,846,772,0
14610007,255.47,846,771,0
14610017,270.93,846,771,0
14610027,289.42,846,771,0
14610037,311.32,846,771,0
14610048,331.88,846,771,0
14610057,351.80,846,771,0
14610067,367.85,846,770,0
14610077,381.14,846,771,0
14610087,389.11,846,770,0
14610097,394.65,846,771,0
14610107,396.21,846,770,0
14610117,397.13,846,772,0
14610127,396.15,846,770,0
14610137,395.98,846,771,0
14610147,395.81,846,770,0
14610157,398.27,846,771,0
14610167,401.32,846,770,0
14610177,406.71,846,771,0
14610187,411.64,846,771,0
14610197,418.05,846,771,0
14610207,423.00,846,771,0
14610217,428.10,846,771,0
14610227,430.47,846,770,0
14610237,431.70,846,771,0
14610247,430.63,846,770,0
14610257,428.30,846,771,0
14610267,423.28,846,770,0
14610277,416.90,846,771,0
14610287,408.01,846,771,0
14610297,398.28,846,771,0
14610307,386.88,846,770,0
14610317,374.87,846,771,0
14610327,362.61,846,771,0
14610337,350.86,846,771,0
14610348,339.97,846,771,0
14610358,330.94,846,771,0
14610368,324.18,846,771,0
14610378,320.49,846,770,0
14610388,319.78,846,771,0
14610398,322.68,846,770,0
14610408,329.03,846,771,0
14610418,338.71,846,771,0
14610428,350.41,846,771,0
14610438,364.22,846,771,0
14610448,378.21,846,771,0
14610458,391.90,846,771,0
14610468,403.37,846,771,0
14610478,412.35,846,771,0
14610488,417.69,846,771,0
14610498,421.21,846,771,0
14610508,422.26,846,771,0
14610519,424.37,846,771,0
14610529,428.71,846,771,0
14610539,439.81,846,769,0
14610549,459.80,846,769,0
14610560,489.00,846,769,0
14610569,523.93,846,772,0
14610579,562.87,846,771,0
14610589,602.38,846,772,0
14610599,640.32,846,769,0
14610609,673.01,846,772,0
14610628,697.86,976,770,0
14610631,715.31,976,772,0
14610640,727.47,976,768,0
14610650,735.99,976,772,0
14610660,741.95,976,768,0
14610670,746.12,976,771,0
14610680,749.00,976,768,0
14610690,747.84,976,772,0
14610700,738.63,976,769,0
14610710,719.03,976,771,0
14610720,687.22,976,768,0
14610731,643.40,976,772,0
14610740,587.82,976,769,0
14610750,521.79,976,772,0
14610760,449.34,976,768,0
14610770,377.15,976,772,0
14610780,309.73,976,769,0
14610790,251.70,976,772,0
14610800,205.16,976,768,0
14610810,172.50,976,772,0
14610820,153.79,976,769,0
14610830,149.91,976,771,0
14610840,158.98,976,768,0
14610850,179.69,976,772,0
14610860,208.71,976,769,0
14610870,243.60,976,771,0
14610880,280.27,976,768,0
14610890,316.58,976,772,0
14610900,348.89,976,768,0
14610910,376.05,976,771,0
14610920,395.88,976,768,0
14610930,408.43,976,772,0
14610940,412.80,976,768,0
14610950,410.63,976,772,0
14610960,402.21,976,768,0
14610970,389.85,976,771,0
14610980,374.12,976,768,0
14610990,357.46,976,771,0
14611000,340.52,976,769,0
14611010,325.32,976,771,0
14611020,311.90,976,768,0
14611031,301.73,976,772,0
14611041,294.14,976,768,0
14611051,289.90,976,772,0
14611061,287.74,976,768,0
14611072,287.99,976,771,0
14611081,289.24,976,768,0
14611091,291.61,976,771,0
14611101,293.44,976,768,0
14611111,295.37,976,772,0
14611121,295.94,976,768,0
14611131,296.04,976,771,0
14611141,294.57,976,768,0
14611151,292.86,976,772,0
14611161,290.16,976,768,0
14611171,287.97,976,772,0
14611181,285.83,976,768,0
14611191,285.37,976,771,0
14611201,286.03,976,768,0
14611211,289.24,976,771,0
14611221,294.05,976,768,0
14611231,301.54,976,771,0
14611241,310.46,976,767,0
14611251,321.29,976,771,0
14611261,332.39,976,767,0
14611271,343.97,976,771,0
14611281,354.22,976,767,0
14611291,363.97,976,772,0
14611301,370.92,976,768,0
14611311,375.53,976,771,0
14611321,376.36,976,768,0
14611331,374.66,976,771,0
14611341,369.84,976,768,0
14611351,364.01,976,772,0
14611361,357.24,976,767,0
14611381,353.61,753,766,0
14611384,355.74,753,769,0
14611393,367.78,753,771,0
14611403,391.07,753,767,0
14611414,426.24,753,772,0
14611423,469.15,753,767,0
14611433,517.02,753,772,0
14611443,565.91,753,767,0
14611453,612.23,753,771,0
14611463,652.10,753,767,0
14611473,683.18,753,772,0
14611483,704.99,753,767,0
14611493,720.25,753,772,0
14611503,730.93,753,767,0
14611513,738.41,753,772,0
14611523,743.64,753,767,0
14611533,747.31,753,772,0
14611543,749.87,753,767,0
14611553,748.54,753,772,0
14611563,739.68,753,767,0
14611573,721.90,753,771,0
14611584,693.86,753,768,0
14611593,656.62,753,772,0
14611603,610.02,753,767,0
14611613,555.80,753,771,0
14611623,497.87,753,768,0
14611633,442.28,753,772,0
14611643,391.41,753,767,0
14611653,348.60,753,771,0
14611663,313.71,753,768,0
14611673,288.42,753,772,0
14611683,271.67,753,767,0
14611693,263.97,753,771,0
14611703,263.12,753,767,0
14611713,269.00,753,772,0
14611723,279.16,753,767,0
14611733,293.29,753,771,0
14611743,309.19,753,767,0
14611753,326.62,753,771,0
14611763,343.23,753,767,0
14611773,359.32,753,771,0
14611783,373.07,753,767,0
14611793,385.09,753,771,0
14611803,393.72,753,767,0
14611813,399.76,753,771,0
14611823,401.98,753,767,0
14611833,401.68,753,771,0
14611843,397.96,753,767,0
14611853,392.45,753,771,0
14611863,384.56,753,767,0
14611873,376.03,753,772,0
14611884,366.59,753,768,0
14611894,357.93,753,771,0
14611904,349.51,753,768,0
14611914,342.84,753,771,0
14611924,337.23,753,769,0
14611934,333.82,753,771,0
14611944,331.52,753,768,0
14611954,331.10,753,771,0
14611964,331.20,753,769,0
14611974,332.56,753,771,0
14611984,333.72,753,768,0
14611994,335.30,753,771,0
14612004,336.15,753,769,0
14612014,337.31,753,771,0
14612024,337.52,753,768,0
14612034,337.96,753,771,0
14612044,337.72,753,769,0
14612055,337.80,753,771,0
14612065,337.30,753,769,0
14612075,337.17,753,771,0
14612085,336.35,753,770,0
14612096,335.81,753,771,0
14612105,334.37,753,768,0
14612115,333.02,753,771,0
14612125,330.87,753,770,0
14612135,328.42,753,771,0
14612145,325.00,753,769,0
14612155,321.35,753,771,0
14612165,317.05,753,770,0
14612175,313.69,753,771,0
14612185,311.13,753,769,0
14612195,311.69,753,771,0
14612205,316.75,753,770,0
14612215,329.00,753,771,0
14612225,349.61,753,769,0
14612235,381.36,753,772,0
14612254,422.74,873,770,0
14612257,470.34,873,770,0
14612268,520.30,873,771,0
14612278,569.75,873,770,0
14612288,615.30,873,772,0
14612298,654.72,873,770,0
14612308,684.93,873,771,0
14612318,706.08,873,770,0
14612328,720.93,873,772,0
14612338,731.32,873,769,0
14612348,738.55,873,772,0
14612358,743.57,873,770,0
14612368,747.13,873,772,0
14612378,749.62,873,769,0
14612388,751.32,873,772,0
14612398,749.90,873,770,0
14612408,742.90,873,772,0
14612418,728.44,873,769,0
14612428,705.98,873,771,0
14612439,675.09,873,769,0
14612449,636.70,873,772,0
14612459,591.11,873,768,0
14612469,542.17,873,771,0
14612480,493.14,873,768,0
14612489,447.71,873,771,0
14612499,407.38,873,768,0
14612509,374.40,873,771,0
14612519,348.69,873,768,0
14612529,331.30,873,772,0
14612539,321.65,873,768,0
14612549,320.17,873,771,0
14612559,325.18,873,768,0
14612569,336.18,873,771,0
14612579,350.96,873,768,0
14612589,368.75,873,771,0
14612599,387.39,873,768,0
14612609,405.83,873,771,0
14612619,422.04,873,768,0
14612629,435.65,873,771,0
14612639,445.10,873,768,0
14612649,450.86,873,771,0
14612659,452.06,873,768,0
14612669,449.55,873,771,0
14612679,443.00,873,768,0
14612689,433.70,873,772,0
14612699,421.71,873,769,0
14612709,408.51,873,771,0
14612719,393.91,873,768,0
14612729,379.37,873,772,0
14612739,364.86,873,769,0
14612749,351.61,873,772,0
14612759,339.26,873,768,0
14612769,328.68,873,772,0
14612780,319.48,873,768,0
14612790,312.39,873,771,0
14612800,306.57,873,767,0
14612810,302.76,873,772,0
14612820,299.87,873,767,0
14612830,298.63,873,772,0
14612840,297.80,873,767,0
14612850,298.03,873,772,0
14612860,298.06,873,767,0
14612870,298.60,873,771,0
14612880,298.38,873,767,0
14612890,298.39,873,772,0
14612900,297.29,873,767,0
14612910,296.17,873,771,0
14612920,294.02,873,767,0
14612930,292.22,873,772,0
14612940,289.92,873,767,0
14612951,288.62,873,772,0
14612961,287.96,873,767,0
14612971,290.24,873,772,0
14612981,295.87,873,767,0
14612992,307.52,873,771,0
14613001,325.45,873,767,0
14613011,352.53,873,772,0
14613021,389.10,873,767,0
14613031,434.07,873,772,0
14613041,483.16,873,767,0
14613051,533.60,873,772,0
14613061,581.81,873,767,0
14613081,625.92,826,766,0
14613084,662.76,826,769,0
14613093,690.65,826,772,0
14613103,710.17,826,769,0
14613113,723.87,826,771,0
14613123,733.43,826,768,0
14613133,740.16,826,772,0
14613143,744.87,826,768,0
14613153,748.16,826,771,0
14613164,750.43,826,768,0
14613174,750.09,826,771,0
14613184,743.97,826,769,0
14613194,730.61,826,771,0
14613204,708.53,826,770,0
14613214,678.20,826,771,0
14613224,639.27,826,770,0
14613234,592.64,826,771,0
14613244,540.51,826,770,0
14613254,487.86,826,772,0
14613264,436.98,826,770,0
14613274,390.92,826,771,0
14613284,350.06,826,770,0
14613294,316.31,826,771,0
14613304,289.39,826,769,0
14613314,270.29,826,771,0
14613324,257.86,826,770,0
14613335,252.37,826,771,0
14613345,252.47,826,770,0
14613355,257.73,826,771,0
14613365,266.43,826,771,0
14613376,278.04,826,771,0
14613385,290.97,826,770,0
14613395,304.61,826,771,0
14613405,317.50,826,771,0
14613415,329.26,826,771,0
14613425,338.91,826,770,0
14613435,346.52,826,771,0
14613445,351.47,826,771,0
14613455,353.98,826,771,0
14613465,353.95,826,770,0
14613475,352.08,826,771,0
14613485,348.20,826,771,0
14613495,343.17,826,771,0
14613505,337.03,826,770,0
14613515,330.85,826,771,0
14613525,324.72,826,771,0
14613535,319.15,826,771,0
14613545,314.09,826,771,0
14613555,310.21,826,771,0
14613565,307.19,826,771,0
14613575,305.29,826,771,0
14613585,304.13,826,771,0
14613595,303.79,826,771,0
14613605,303.77,826,771,0
14613615,304.18,826,771,0
14613625,304.47,826,771,0
14613635,305.06,826,771,0
14613645,305.38,826,771,0
14613655,305.65,826,771,0
14613665,305.59,826,771,0
14613676,306.01,826,771,0
14613686,307.21,826,771,0
14613696,310.66,826,771,0
14613706,317.28,826,771,0
14613716,329.06,826,770,0
14613726,347.09,826,771,0
14613736,373.38,826,771,0
14613746,408.71,826,772,0
14613756,451.65,826,770,0
14613775,498.51,695,769,0
14613778,546.19,695,770,0
14613787,591.86,695,771,0
14613797,633.26,695,769,0
14613807,667.98,695,771,0
14613817,694.22,695,769,0
14613827,712.62,695,772,0
14613837,725.46,695,769,0
14613847,734.50,695,772,0
14613857,740.78,695,769,0
14613867,745.21,695,772,0
14613877,748.28,695,769,0
14613888,750.47,695,771,0
14613897,750.50,695,769,0
14613907,746.23,695,771,0
14613917,735.79,695,769,0
14613927,718.28,695,771,0
14613937,693.17,695,769,0
14613947,660.55,695,771,0
14613957,620.31,695,769,0
14613967,574.75,695,771,0
14613977,526.82,695,770,0
14613987,479.39,695,772,0
14613997,434.10,695,769,0
14614007,392.80,695,771,0
14614017,356.35,695,770,0
14614027,326.07,695,772,0
14614037,301.92,695,770,0
14614047,284.46,695,771,0
14614057,273.09,695,768,0
14614067,268.01,695,771,0
14614077,268.09,695,769,0
14614087,272.78,695,771,0
14614097,280.52,695,768,0
14614107,290.73,695,771,0
14614117,301.96,695,769,0
14614127,313.75,695,771,0
14614137,324.67,695,768,0
14614147,334.50,695,772,0
14614157,342.23,695,769,0
14614167,348.08,695,771,0
14614177,351.31,695,769,0
14614188,352.38,695,772,0
14614198,350.81,695,768,0
14614208,347.65,695,771,0
14614218,342.48,695,768,0
14614228,336.64,695,772,0
14614238,329.89,695,768,0
14614248,323.41,695,771,0
14614258,316.77,695,768,0
14614268,311.18,695,772,0
14614278,306.07,695,768,0
14614288,302.36,695,771,0
14614298,299.17,695,768,0
14614308,297.23,695,772,0
14614318,295.79,695,768,0
14614328,295.60,695,771,0
14614338,295.63,695,768,0
14614348,296.56,695,772,0
14614359,297.33,695,768,0
14614369,298.60,695,771,0
14614379,299.41,695,767,0
14614389,300.40,695,772,0
14614400,300.92,695,767,0
14614409,302.19,695,772,0
14614419,303.50,695,767,0
14614429,306.82,695,772,0
14614439,312.23,695,767,0
14614449,321.94,695,771,0
14614459,336.35,695,767,0
14614469,357.89,695,772,0
14614479,386.55,695,767,0
14614489,423.54,695,772,0
14614499,466.58,695,767,0
14614509,512.82,695,772,0
14614529,558.95,753,770,0
14614532,602.89,753,771,0
14614541,641.67,753,767,0
14614551,673.95,753,772,0
14614561,698.31,753,767,0
14614572,715.40,753,772,0
14614582,727.37,753,768,0
14614592,735.74,753,772,0
14614602,739.93,753,768,0
14614612,739.40,753,771,0
14614622,732.72,753,767,0
14614632,719.95,753,771,0
14614642,700.25,753,768,0
14614652,674.07,753,771,0
14614662,641.39,753,767,0
14614672,604.72,753,771,0
14614682,565.12,753,768,0
14614692,525.40,753,771,0
14614702,486.06,753,767,0
14614712,449.06,753,771,0
14614722,414.20,753,768,0
14614732,382.85,753,771,0
14614743,354.44,753,769,0
14614753,330.39,753,771,0
14614763,310.18,753,769,0
14614773,294.87,753,771,0
14614784,283.85,753,770,0
14614793,277.98,753,771,0
14614803,276.06,753,769,0
14614813,278.57,753,771,0
14614823,284.10,753,770,0
14614833,292.55,753,771,0
14614843,302.20,753,769,0
14614853,312.90,753,771,0
14614863,323.17,753,770,0
14614873,332.98,753,771,0
14614883,340.87,753,769,0
14614893,347.12,753,771,0
14614903,350.86,753,770,0
14614913,352.79,753,771,0
14614923,352.42,753,769,0
14614933,350.45,753,771,0
14614943,346.55,753,769,0
14614953,341.80,753,771,0
14614963,335.99,753,769,0
14614973,330.20,753,771,0
14614983,324.06,753,770,0
14614993,318.55,753,771,0
14615003,313.42,753,769,0
14615013,309.69,753,771,0
14615023,306.74,753,769,0
14615033,305.15,753,771,0
14615043,304.25,753,769,0
14615053,304.82,753,771,0
14615063,305.86,753,769,0
14615073,308.04,753,771,0
14615084,310.30,753,770,0
14615094,313.04,753,771,0
14615104,315.51,753,770,0
14615114,318.06,753,771,0
14615124,320.01,753,771,0
14615134,321.59,753,771,0
14615144,322.10,753,770,0
14615154,322.33,753,771,0
14615164,322.40,753,771,0
14615174,323.40,753,771,0
14615184,325.63,753,770,0
14615194,330.63,753,771,0
14615204,339.53,753,771,0
14615214,353.85,753,771,0
14615224,374.38,753,770,0
14615234,402.34,753,771,0
14615244,437.47,753,771,0
14615255,478.90,753,771,0
14615274,522.94,746,770,0
14615277,566.97,746,768,0
14615286,608.55,746,772,0
14615297,645.72,746,769,0
14615307,676.49,746,771,0
14615317,700.04,746,768,0
14615327,716.53,746,772,0
14615337,728.07,746,768,0
14615347,734.86,746,771,0
14615357,735.76,746,768,0
14615367,730.48,746,772,0
14615377,718.29,746,768,0
14615387,699.52,746,771,0
14615397,673.73,746,768,0
14615407,641.63,746,772,0
14615417,604.45,746,768,0
14615427,565.45,746,771,0
14615437,525.71,746,768,0
14615447,487.44,746,772,0
14615457,450.84,746,768,0
14615468,417.76,746,771,0
14615478,387.96,746,768,0
14615488,362.94,746,772,0
14615498,341.96,746,767,0
14615508,326.33,746,771,0
14615518,315.09,746,768,0
14615528,308.98,746,771,0
14615538,306.80,746,767,0
14615548,309.00,746,771,0
14615558,313.97,746,768,0
14615568,321.87,746,771,0
14615578,330.78,746,767,0
14615588,340.92,746,771,0
14615598,350.63,746,768,0
14615608,360.04,746,771,0
14615618,367.57,746,767,0
14615628,373.74,746,771,0
14615639,377.25,746,767,0
14615649,379.02,746,771,0
14615659,378.11,746,767,0
14615669,375.64,746,771,0
14615680,371.07,746,767,0
14615689,365.95,746,771,0
14615699,359.37,746,767,0
14615709,353.00,746,771,0
14615719,346.01,746,767,0
14615729,339.97,746,771,0
14615739,333.93,746,767,0
14615749,329.11,746,772,0
14615759,324.45,746,767,0
14615769,321.40,746,771,0
14615779,318.71,746,767,0
14615789,317.51,746,772,0
14615799,316.41,746,767,0
14615809,316.46,746,771,0
14615819,316.49,746,767,0
14615829,317.42,746,772,0
14615839,317.98,746,767,0
14615849,319.23,746,771,0
14615859,320.02,746,767,0
14615869,321.38,746,772,0
14615879,322.34,746,767,0
14615889,323.99,746,771,0
14615899,325.50,746,767,0
14615909,328.48,746,772,0
14615919,332.70,746,767,0
14615929,340.46,746,771,0
14615939,352.03,746,767,0
14615949,369.89,746,772,0
14615959,394.31,746,767,0
14615969,427.13,746,772,0
14615980,466.86,746,767,0
14615990,510.75,746,772,0
14616009,555.18,735,770,0
14616012,598.24,735,772,0
14616022,637.13,735,769,0
14616031,670.30,735,772,0
14616041,695.80,735,768,0
14616051,713.64,735,772,0
14616061,726.14,735,769,0
14616071,734.92,735,772,0
14616081,741.12,735,768,0
14616091,745.45,735,772,0
14616101,748.45,735,768,0
14616111,750.50,735,772,0
14616121,748.85,735,768,0
14616131,742.51,735,772,0
14616141,729.88,735,768,0
14616151,711.02,735,772,0
14616161,684.91,735,767,0
14616171,652.24,735,772,0
14616181,612.74,735,768,0
14616192,570.39,735,772,0
14616201,526.51,735,768,0
14616211,484.23,735,772,0
14616221,443.96,735,768,0
14616231,408.15,735,772,0
14616241,376.60,735,768,0
14616251,351.01,735,772,0
14616261,330.82,735,768,0
14616271,317.07,735,772,0
14616281,308.35,735,767,0
14616291,305.29,735,772,0
14616301,306.14,735,768,0
14616311,311.07,735,772,0
14616321,318.08,735,767,0
14616331,327.18,735,772,0
14616341,336.39,735,768,0
14616351,345.91,735,772,0
14616361,353.78,735,768,0
14616371,360.66,735,772,0
14616381,365.09,735,768,0
14616391,367.89,735,772,0
14616401,368.01,735,768,0
14616411,366.64,735,772,0
14616421,362.97,735,767,0
14616431,358.40,735,772,0
14616441,352.28,735,769,0
14616451,346.02,735,772,0
14616461,339.12,735,767,0
14616471,332.87,735,772,0
14616481,326.48,735,768,0
14616492,321.28,735,772,0
14616502,316.52,735,769,0
14616512,313.11,735,772,0
14616522,310.38,735,770,0
14616532,309.02,735,772,0
14616542,308.11,735,768,0
14616552,308.51,735,772,0
14616562,309.21,735,770,0
14616572,311.03,735,772,0
14616582,312.95,735,768,0
14616592,315.67,735,772,0
14616602,318.21,735,769,0
14616612,321.23,735,772,0
14616622,323.69,735,769,0
14616632,326.14,735,772,0
14616642,327.68,735,769,0
14616652,329.15,735,771,0
14616663,329.66,735,770,0
14616673,330.24,735,772,0
14616683,330.55,735,771,0
14616693,331.97,735,771,0
14616704,334.89,735,770,0
14616713,341.01,735,771,0
14616723,351.42,735,770,0
14616733,368.31,735,771,0
14616743,392.73,735,771,0
14616753,425.73,735,772,0
14616763,465.92,735,770,0
14616782,510.17,773,769,0
14616785,555.46,773,772,0
14616795,599.21,773,771,0
14616805,638.66,773,772,0
14616815,671.76,773,770,0
14616825,696.95,773,771,0
14616835,714.58,773,771,0
14616845,726.92,773,772,0
14616855,735.60,773,770,0
14616865,741.63,773,772,0
14616876,745.86,773,770,0
14616886,748.82,773,772,0
14616896,750.93,773,769,0
14616906,752.36,773,772,0
14616916,752.77,773,769,0
14616926,750.01,773,772,0
14616936,741.65,773,769,0
14616946,726.28,773,771,0
14616956,702.54,773,769,0
14616966,670.71,773,772,0
14616976,630.64,773,769,0
14616986,583.56,773,772,0
14616996,532.14,773,769,0
14617006,480.41,773,772,0
14617016,430.53,773,769,0
14617026,385.58,773,772,0
14617036,346.15,773,769,0
14617047,313.92,773,772,0
14617057,288.92,773,768,0
14617067,272.06,773,772,0
14617077,262.14,773,768,0
14617088,259.44,773,772,0
14617097,261.84,773,768,0
14617107,269.00,773,772,0
14617117,279.03,773,768,0
14617127,291.36,773,772,0
14617137,303.94,773,768,0
14617147,316.43,773,772,0
14617157,327.01,773,768,0
14617167,336.22,773,772,0
14617177,342.84,773,768,0
14617187,347.35,773,772,0
14617197,348.79,773,768,0
14617207,348.29,773,772,0
14617217,345.42,773,768,0
14617227,341.57,773,772,0
14617237,336.17,773,768,0
14617247,330.50,773,772,0
14617257,324.09,773,768,0
14617267,318.49,773,772,0
14617277,313.07,773,768,0
14617287,308.81,773,772,0
14617297,304.92,773,768,0
14617307,302.55,773,772,0
14617317,300.71,773,768,0
14617327,300.37,773,772,0
14617337,300.43,773,768,0
14617347,301.63,773,772,0
14617357,303.07,773,768,0
14617367,305.32,773,772,0
14617377,307.32,773,768,0
14617388,310.06,773,772,0
14617398,312.44,773,767,0
14617408,315.31,773,772,0
14617418,317.49,773,767,0
14617428,319.95,773,772,0
14617438,321.60,773,767,0
14617448,323.22,773,772,0
14617458,323.71,773,767,0
14617468,324.18,773,772,0
14617478,323.83,773,767,0
14617488,324.52,773,772,0
14617498,325.91,773,767,0
14617508,330.52,773,772,0
14617518,338.59,773,767,0
14617528,352.77,773,772,0
14617538,373.84,773,767,0
14617548,404.06,773,772,0
14617559,442.66,773,767,0
14617578,486.86,796,766,0
14617581,532.80,796,770,0
14617590,578.50,796,772,0
14617601,620.82,796,768,0
14617611,657.78,796,772,0
14617621,686.94,796,769,0
14617631,707.58,796,772,0
14617641,721.97,796,769,0
14617651,732.10,796,772,0
14617661,739.18,796,769,0
14617671,744.18,796,772,0
14617681,747.64,796,769,0
14617691,750.06,796,772,0
14617701,751.76,796,768,0
14617711,750.72,796,772,0
14617721,744.12,796,768,0
14617731,731.05,796,772,0
14617741,709.87,796,768,0
14617751,680.63,796,772,0
14617761,642.90,796,769,0
14617772,597.67,796,772,0
14617782,547.37,796,770,0
14617792,496.43,796,772,0
14617802,446.80,796,770,0
14617812,401.69,796,771,0
14617822,361.97,796,769,0
14617832,329.92,796,771,0
14617842,305.30,796,770,0
14617852,289.18,796,772,0
14617862,280.04,796,769,0
14617872,277.93,796,771,0
14617882,281.29,796,770,0
14617892,289.61,796,772,0
14617902,300.52,796,769,0
14617912,313.44,796,771,0
14617922,326.38,796,770,0
14617932,339.29,796,772,0
14617943,350.52,796,770,0
14617953,359.79,796,771,0
14617963,366.28,796,771,0
14617973,370.14,796,771,0
14617984,370.96,796,771,0
14617993,369.60,796,771,0
14618003,365.90,796,771,0
14618013,360.66,796,771,0
14618023,354.25,796,771,0
14618033,347.49,796,771,0
14618043,340.66,796,771,0
14618053,334.37,796,772,0
14618063,328.69,796,771,0
14618073,324.24,796,771,0
14618083,320.87,796,771,0
14618093,318.76,796,772,0
14618103,317.59,796,771,0
14618113,317.67,796,771,0
14618123,318.63,796,771,0
14618133,320.45,796,772,0
14618143,322.67,796,771,0
14618153,325.43,796,771,0
14618163,328.43,796,770,0
14618173,331.60,796,772,0
14618183,334.59,796,771,0
14618193,337.46,796,771,0
14618203,340.02,796,771,0
14618213,342.29,796,772,0
14618223,343.91,796,771,0
14618233,344.93,796,771,0
14618243,345.12,796,771,0
14618253,344.70,796,772,0
14618263,343.25,796,771,0
14618273,340.86,796,771,0
14618284,337.51,796,772,0
14618294,333.59,796,772,0
14618304,329.56,796,772,0
14618314,326.60,796,770,0
14618324,326.08,796,772,0
14618334,329.87,796,771,0
14618344,339.72,796,772,0
14618354,357.63,796,770,0
14618364,385.39,796,772,0
14618383,423.24,805,770,0
14618386,467.87,805,772,0
14618396,515.61,805,768,0
14618406,563.47,805,772,0
14618416,608.50,805,769,0
14618426,648.08,805,772,0
14618436,679.73,805,768,0
14618446,702.44,805,772,0
14618456,718.33,805,769,0
14618466,729.51,805,772,0
14618476,737.28,805,768,0
14618486,742.77,805,772,0
14618497,746.57,805,768,0
14618507,749.27,805,772,0
14618517,750.73,805,768,0
14618527,749.10,805,772,0
14618537,741.91,805,767,0
14618547,728.74,805,772,0
14618557,708.03,805,768,0
14618567,679.82,805,772,0
14618577,643.75,805,767,0
14618587,601.27,805,772,0
14618597,554.56,805,768,0
14618607,507.42,805,772,0
14618617,460.88,805,767,0
14618627,418.10,805,772,0
14618637,379.63,805,768,0
14618647,347.38,805,772,0
14618657,320.70,805,768,0
14618668,301.07,805,772,0
14618678,287.38,805,768,0
14618688,280.32,805,772,0
14618698,278.13,805,767,0
14618708,281.35,805,772,0
14618718,287.76,805,768,0
14618728,297.56,805,772,0
14618738,308.32,805,767,0
14618748,320.39,805,772,0
14618758,331.63,805,768,0
14618768,342.50,805,772,0
14618778,350.96,805,767,0
14618788,357.88,805,772,0
14618798,361.90,805,768,0
14618808,364.16,805,772,0
14618818,363.42,805,767,0
14618828,361.24,805,772,0
14618839,356.80,805,768,0
14618849,351.76,805,772,0
14618859,345.44,805,767,0
14618869,339.31,805,772,0
14618880,332.75,805,768,0
14618889,327.21,805,772,0
14618899,321.66,805,767,0
14618909,317.43,805,772,0
14618919,313.40,805,768,0
14618929,310.67,805,772,0
14618939,308.11,805,767,0
14618949,306.83,805,772,0
14618959,305.60,805,767,0
14618969,305.55,805,772,0
14618979,305.38,805,767,0
14618989,306.17,805,772,0
14618999,306.67,805,767,0
14619009,307.97,805,772,0
14619019,308.84,805,767,0
14619029,310.47,805,772,0
14619039,311.83,805,768,0
14619049,313.94,805,772,0
14619059,315.76,805,767,0
14619069,318.40,805,772,0
14619079,320.77,805,768,0
14619089,323.88,805,772,0
14619099,326.40,805,767,0
14619109,329.24,805,772,0
14619119,331.01,805,768,0
14619129,332.64,805,772,0
14619139,332.96,805,767,0
14619149,332.89,805,772,0
14619159,331.16,805,767,0
14619169,329.10,805,772,0
14619180,325.90,805,768,0
14619190,323.87,805,772,0
14619200,323.22,805,768,0
14619210,326.97,805,772,0
14619220,336.15,805,769,0
14619230,353.85,805,772,0
14619249,381.15,866,771,0
14619252,419.63,866,773,0
14619262,464.70,866,771,0
14619272,513.52,866,772,0
14619282,562.14,866,770,0
14619292,608.08,866,772,0
14619302,648.21,866,771,0
14619312,680.38,866,772,0
14619322,702.94,866,770,0
14619332,718.77,866,772,0
14619342,729.85,866,771,0
14619352,737.65,866,772,0
14619362,743.12,866,770,0
14619372,746.98,866,772,0
14619382,749.64,866,771,0
14619393,751.51,866,772,0
14619403,752.81,866,771,0
14619413,753.73,866,771,0
14619423,754.37,866,772,0
14619433,753.06,866,771,0
14619443,746.95,866,771,0
14619453,733.68,866,771,0
14619463,711.41,866,771,0
14619473,679.74,866,771,0
14619483,638.93,866,771,0
14619493,589.67,866,771,0
14619503,534.48,866,771,0
14619513,477.55,866,771,0
14619523,422.74,866,771,0
14619533,373.41,866,771,0
14619543,331.33,866,771,0
14619553,297.59,866,770,0
14619564,272.60,866,772,0
14619574,256.47,866,770,0
14619584,248.62,866,771,0
14619594,247.62,866,769,0
14619604,252.23,866,772,0
14619614,260.86,866,770,0
14619624,272.05,866,771,0
14619634,284.08,866,769,0
14619644,295.92,866,772,0
14619654,306.58,866,771,0
14619664,315.66,866,772,0
14619674,322.36,866,769,0
14619684,326.88,866,772,0
14619694,329.15,866,771,0
14619704,329.57,866,772,0
14619714,328.12,866,770,0
14619724,325.17,866,772,0
14619735,320.92,866,770,0
14619745,316.10,866,772,0
14619755,310.54,866,769,0
14619765,304.76,866,772,0
14619776,298.75,866,768,0
14619785,293.12,866,772,0
14619795,287.69,866,769,0
14619805,283.15,866,772,0
14619815,278.82,866,768,0
14619825,275.45,866,771,0
14619835,272.48,866,769,0
14619845,270.67,866,772,0
14619855,269.18,866,769,0
14619865,268.66,866,772,0
14619875,268.37,866,769,0
14619885,269.16,866,772,0
14619895,270.06,866,768,0
14619905,271.84,866,772,0
14619915,273.94,866,769,0
14619925,277.05,866,772,0
14619935,280.38,866,768,0
14619945,284.51,866,772,0
14619955,288.73,866,769,0
14619965,293.65,866,772,0
14619975,298.34,866,769,0
14619985,303.00,866,772,0
14619995,307.03,866,769,0
14620005,310.75,866,772,0
14620015,313.31,866,769,0
14620025,315.44,866,772,0
14620035,316.68,866,770,0
14620045,317.59,866,772,0
14620055,317.63,866,769,0
14620065,317.48,866,772,0
14620076,317.04,866,768,0
14620086,317.88,866,772,0
14620096,320.19,866,768,0
14620106,326.39,866,772,0
14620116,337.76,866,767,0
14620135,357.16,886,767,0
14620138,386.43,886,768,0
14620148,425.77,886,772,0
14620158,471.05,886,767,0
14620168,519.64,886,772,0
14620178,567.87,886,767,0
14620188,613.30,886,772,0
14620198,652.72,886,767,0
14620208,683.41,886,772,0
14620218,704.88,886,767,0
14620228,719.92,886,772,0
14620238,730.44,886,767,0
14620248,737.81,886,772,0
14620258,742.97,886,767,0
14620268,746.58,886,772,0
14620278,749.10,886,767,0
14620289,750.92,886,772,0
14620299,752.18,886,767,0
14620309,753.11,886,772,0
14620319,753.77,886,767,0
14620329,754.22,886,772,0
14620339,754.54,886,767,0
14620349,754.81,886,772,0
14620359,754.95,886,768,0
14620369,753.59,886,772,0
14620379,746.30,886,767,0
14620389,730.87,886,772,0
14620399,705.11,886,767,0
14620409,669.38,886,772,0
14620419,623.88,886,767,0
14620429,570.34,886,772,0
14620439,511.10,886,768,0
14620449,452.65,886,772,0
14620460,398.50,886,768,0
14620470,352.96,886,772,0
14620480,316.68,886,769,0
14620490,291.23,886,771,0
14620500,275.39,886,769,0
14620510,269.06,886,771,0
14620520,269.64,886,769,0
14620530,275.92,886,771,0
14620540,284.86,886,769,0
14620550,295.19,886,772,0
14620560,303.66,886,769,0
14620570,309.76,886,771,0
14620580,311.50,886,769,0
14620590,309.68,886,771,0
14620600,303.56,886,768,0
14620610,294.69,886,771,0
14620620,283.21,886,769,0
14620631,271.66,886,771,0
14620641,260.37,886,769,0
14620651,251.77,886,771,0
14620661,246.01,886,770,0
14620672,244.81,886,771,0
14620681,247.44,886,769,0
14620691,254.76,886,771,0
14620701,265.42,886,770,0
14620711,279.27,886,771,0
14620721,294.49,886,769,0
14620731,310.84,886,771,0
14620741,326.87,886,770,0
14620751,342.68,886,771,0
14620761,356.84,886,769,0
14620771,369.48,886,771,0
14620781,379.84,886,770,0
14620791,388.46,886,771,0
14620801,394.54,886,769,0
14620811,398.62,886,771,0
14620821,400.15,886,770,0
14620831,399.93,886,771,0
14620841,397.59,886,770,0
14620851,393.99,886,771,0
14620861,388.55,886,770,0
14620871,382.04,886,771,0
14620881,373.93,886,770,0
14620891,365.25,886,771,0
14620901,355.58,886,770,0
14620911,345.93,886,771,0
14620921,336.35,886,770,0
14620931,328.62,886,771,0
14620941,323.55,886,770,0
14620951,323.77,886,771,0
14620961,330.65,886,770,0
14620972,347.60,886,771,0
14620982,376.65,886,771,0
14620992,416.65,886,771,0
14621002,463.39,886,771,0
14621012,513.76,886,771,0
14621022,564.14,886,771,0
14621032,611.63,886,771,0
14621042,652.41,886,771,0
14621052,683.32,886,771,0
14621071,704.99,936,770,0
14621074,720.21,936,769,0
14621083,730.90,936,772,0
14621093,738.39,936,770,0
14621103,743.63,936,772,0
14621113,747.30,936,771,0
14621123,749.91,936,772,0
14621133,751.74,936,770,0
14621143,753.02,936,771,0
14621153,753.91,936,771,0
14621163,754.54,936,772,0
14621173,754.98,936,770,0
14621184,755.28,936,772,0
14621193,755.50,936,771,0
14621203,755.65,936,772,0
14621213,755.75,936,770,0
14621223,755.83,936,772,0
14621233,755.88,936,771,0
14621243,755.92,936,772,0
14621253,755.04,936,770,0
14621263,748.26,936,772,0
14621273,732.92,936,771,0
14621283,707.10,936,772,0
14621293,670.34,936,770,0
14621303,623.14,936,772,0
14621313,566.78,936,771,0
14621323,503.55,936,772,0
14621333,440.13,936,771,0
14621343,381.20,936,771,0
14621353,330.49,936,770,0
14621363,290.18,936,772,0
14621373,261.20,936,770,0
14621383,243.53,936,771,0
14621393,236.47,936,770,0
14621403,238.90,936,771,0
14621413,248.70,936,770,0
14621423,263.75,936,771,0
14621433,281.61,936,770,0
14621443,300.11,936,771,0
14621453,317.05,936,770,0
14621463,330.92,936,771,0
14621473,340.33,936,770,0
14621484,344.73,936,772,0
14621494,343.78,936,769,0
14621504,337.98,936,771,0
14621514,327.87,936,769,0
14621524,314.75,936,772,0
14621534,299.87,936,770,0
14621544,284.78,936,771,0
14621554,270.75,936,769,0
14621564,259.64,936,771,0
14621574,252.25,936,770,0
14621584,249.69,936,771,0
14621594,251.88,936,769,0
14621604,259.20,936,771,0
14621614,270.71,936,770,0
14621624,286.06,936,771,0
14621634,303.40,936,769,0
14621644,321.83,936,771,0
14621655,339.46,936,768,0
14621665,355.56,936,771,0
14621675,368.16,936,768,0
14621685,377.20,936,772,0
14621696,381.26,936,768,0
14621705,381.14,936,771,0
14621715,376.29,936,768,0
14621725,367.98,936,772,0
14621735,356.24,936,768,0
14621745,342.84,936,772,0
14621755,328.06,936,768,0
14621765,313.77,936,771,0
14621775,300.00,936,768,0
14621785,288.47,936,772,0
14621795,278.94,936,768,0
14621805,272.79,936,772,0
14621815,269.55,936,768,0
14621825,270.41,936,771,0
14621835,275.35,936,768,0
14621845,285.96,936,771,0
14621855,302.47,936,768,0
14621865,327.01,936,771,0
14621875,359.28,936,768,0
14621885,400.73,936,772,0
14621895,448.29,936,769,0
14621905,498.82,936,771,0
14621915,548.80,936,769,0
14621925,595.92,936,772,0
14621935,637.21,936,770,0
14621945,671.39,936,772,0
14621964,696.48,893,770,0
14621967,714.03,893,772,0
14621976,726.32,893,770,0
14621986,734.93,893,772,0
14621996,740.95,893,770,0
14622006,745.16,893,772,0
14622016,748.11,893,770,0
14622026,747.57,893,772,0
14622036,740.71,893,770,0
14622046,726.70,893,772,0
14622056,703.99,893,770,0
14622066,672.71,893,772,0
14622076,632.51,893,770,0
14622086,584.78,893,772,0
14622096,532.56,893,770,0
14622106,480.54,893,772,0
14622116,430.62,893,770,0
14622126,386.25,893,772,0
14622136,348.42,893,770,0
14622146,319.06,893,771,0
14622156,297.44,893,770,0
14622167,284.33,893,772,0
14622177,278.06,893,771,0
14622187,278.51,893,772,0
14622197,283.16,893,770,0
14622208,291.47,893,772,0
14622217,300.84,893,771,0
14622227,310.79,893,772,0
14622237,318.91,893,770,0
14622247,325.62,893,772,0
14622257,329.04,893,770,0
14622267,330.35,893,772,0
14622277,328.19,893,769,0
14622287,324.32,893,772,0
14622297,317.75,893,769,0
14622307,310.33,893,772,0
14622317,301.36,893,768,0
14622327,292.64,893,772,0
14622337,283.36,893,768,0
14622347,275.11,893,772,0
14622357,266.76,893,768,0
14622367,260.02,893,772,0
14622377,253.88,893,768,0
14622387,249.42,893,772,0
14622397,245.56,893,768,0
14622407,243.60,893,772,0
14622417,242.30,893,768,0
14622427,242.85,893,771,0
14622437,243.97,893,768,0
14622447,246.85,893,772,0
14622457,250.24,893,768,0
14622467,255.14,893,771,0
14622477,260.03,893,768,0
14622487,266.15,893,771,0
14622497,271.97,893,768,0
14622508,278.54,893,771,0
14622518,284.42,893,768,0
14622528,290.64,893,772,0
14622538,295.85,893,768,0
14622548,300.99,893,771,0
14622558,304.59,893,768,0
14622568,307.97,893,772,0
14622578,309.91,893,768,0
14622588,311.52,893,771,0
14622598,311.67,893,768,0
14622608,311.68,893,772,0
14622618,310.66,893,768,0
14622628,310.08,893,771,0
14622638,308.90,893,768,0
14622648,308.80,893,771,0
14622658,309.50,893,768,0
14622668,313.64,893,771,0
14622679,321.50,893,768,0
14622689,336.14,893,772,0
14622699,358.17,893,769,0
14622718,390.56,754,768,0
14622722,431.71,754,771,0
14622732,478.59,754,771,0
14622742,527.23,754,771,0
14622752,575.33,754,771,0
14622763,619.46,754,771,0
14622772,657.59,754,772,0
14622782,686.77,754,771,0
14622792,707.24,754,771,0
14622802,721.57,754,771,0
14622812,731.60,754,772,0
14622822,738.62,754,771,0
14622832,743.53,754,771,0
14622842,746.97,754,771,0
14622852,749.38,754,771,0
14622862,751.07,754,771,0
14622872,752.25,754,771,0
14622882,753.07,754,771,0
14622892,753.65,754,771,0
14622902,754.06,754,771,0
14622912,754.34,754,771,0
14622922,752.05,754,771,0
14622932,743.94,754,771,0
14622942,728.27,754,771,0
14622952,703.89,754,771,0
14622962,670.79,754,771,0
14622972,629.54,754,770,0
14622982,581.34,754,771,0
14622992,529.94,754,771,0
14623002,479.94,754,771,0
14623012,434.49,754,770,0
14623022,395.98,754,771,0
14623032,365.56,754,771,0
14623042,343.49,754,771,0
14623052,329.24,754,770,0
14623063,321.84,754,771,0
14623073,319.96,754,770,0
14623083,322.29,754,771,0
14623093,327.30,754,769,0
14623104,333.60,754,771,0
14623113,339.89,754,770,0
14623123,345.24,754,771,0
14623133,348.68,754,769,0
14623143,350.15,754,772,0
14623153,349.07,754,770,0
14623163,345.80,754,771,0
14623173,340.24,754,769,0
14623183,333.18,754,771,0
14623193,324.77,754,770,0
14623203,315.88,754,771,0
14623213,306.53,754,769,0
14623223,297.63,754,771,0
14623233,289.26,754,770,0
14623243,282.15,754,771,0
14623253,275.98,754,769,0
14623263,271.44,754,772,0
14623273,268.14,754,769,0
14623283,266.55,754,771,0
14623293,266.09,754,769,0
14623303,266.96,754,772,0
14623313,268.56,754,769,0
14623323,271.13,754,771,0
14623333,273.71,754,770,0
14623343,276.58,754,772,0
14623353,278.98,754,769,0
14623363,281.26,754,771,0
14623373,282.64,754,769,0
14623383,283.35,754,771,0
14623393,282.68,754,769,0
14623404,281.45,754,771,0
14623414,279.43,754,768,0
14623424,277.93,754,772,0
14623434,277.39,754,768,0
14623444,280.06,754,771,0
14623454,287.07,754,768,0
14623464,301.28,754,771,0
14623474,324.21,754,768,0
14623484,358.13,754,771,0
14623494,402.11,754,768,0
14623504,452.39,754,772,0
14623514,504.90,754,768,0
14623534,557.00,815,766,0
14623537,605.22,815,766,0
14623546,646.85,815,772,0
14623556,679.21,815,767,0
14623566,701.90,815,772,0
14623576,717.79,815,767,0
14623586,728.95,815,772,0
14623596,736.77,815,767,0
14623606,742.24,815,772,0
14623617,746.07,815,766,0
14623627,748.75,815,772,0
14623637,750.62,815,767,0
14623647,751.94,815,772,0
14623657,752.85,815,767,0
14623667,753.50,815,772,0
14623677,753.95,815,767,0
14623687,754.26,815,772,0
14623697,750.03,815,767,0
14623707,739.73,815,772,0
14623717,721.00,815,767,0
14623727,693.66,815,771,0
14623737,657.42,815,767,0
14623747,613.45,815,772,0
14623757,562.36,815,767,0
14623767,510.26,815,771,0
14623777,459.53,815,767,0
14623788,414.58,815,772,0
14623798,376.52,815,767,0
14623808,347.14,815,771,0
14623818,325.75,815,768,0
14623828,312.67,815,771,0
14623838,306.17,815,767,0
14623848,306.08,815,771,0
14623858,309.91,815,768,0
14623868,317.01,815,771,0
14623878,325.06,815,767,0
14623888,333.62,815,771,0
14623898,340.89,815,768,0
14623908,347.01,815,771,0
14623918,350.56,815,767,0
14623928,352.28,815,771,0
14623938,351.12,815,768,0
14623948,348.22,815,771,0
14623959,343.01,815,768,0
14623969,336.83,815,771,0
14623979,329.17,815,769,0
14623989,321.23,815,771,0
14624000,312.72,815,769,0
14624009,305.05,815,771,0
14624019,297.70,815,769,0
14624029,291.62,815,771,0
14624039,286.38,815,770,0
14624049,282.88,815,771,0
14624059,280.30,815,769,0
14624069,278.97,815,771,0
14624079,278.08,815,769,0
14624089,278.27,815,771,0
14624099,278.83,815,769,0
14624109,280.04,815,771,0
14624119,281.31,815,769,0
14624129,283.40,815,771,0
14624139,286.15,815,768,0
14624149,290.87,815,771,0
14624159,297.93,815,769,0
14624169,309.35,815,771,0
14624179,325.70,815,768,0
14624189,349.28,815,771,0
14624199,380.95,815,769,0
14624209,421.90,815,771,0
14624219,468.21,815,769,0
14624229,516.88,815,771,0
14624248,564.66,715,770,0
14624251,609.59,715,771,0
14624261,648.75,715,771,0
14624271,680.37,715,771,0
14624281,702.76,715,771,0
14624291,718.43,715,771,0
14624301,729.40,715,771,0
14624311,737.08,715,771,0
14624321,742.46,715,771,0
14624331,746.22,715,771,0
14624342,748.85,715,771,0
14624351,750.65,715,771,0
14624361,748.53,715,771,0
14624371,740.53,715,771,0
14624381,725.28,715,771,0
14624391,702.27,715,771,0
14624401,671.33,715,771,0
14624411,632.66,715,771,0
14624421,586.82,715,771,0
14624431,538.19,715,771,0
14624441,489.57,715,771,0
14624451,443.72,715,771,0
14624461,402.32,715,771,0
14624471,366.74,715,771,0
14624481,337.84,715,771,0
14624491,316.08,715,771,0
14624501,301.18,715,771,0
14624512,292.98,715,770,0
14624521,290.72,715,771,0
14624531,293.50,715,771,0
14624541,300.17,715,771,0
14624551,309.33,715,770,0
14624561,319.99,715,771,0
14624571,330.96,715,771,0
14624581,341.26,715,771,0
14624591,349.97,715,770,0
14624601,356.45,715,771,0
14624611,360.39,715,771,0
14624621,361.90,715,771,0
14624631,360.73,715,770,0
14624641,357.12,715,771,0
14624651,351.52,715,771,0
14624661,344.29,715,771,0
14624671,335.93,715,770,0
14624681,327.08,715,771,0
14624691,318.06,715,771,0
14624701,309.34,715,771,0
14624711,301.22,715,770,0
14624721,294.08,715,771,0
14624731,288.27,715,771,0
14624741,283.91,715,771,0
14624751,280.76,715,770,0
14624761,278.95,715,771,0
14624771,278.54,715,771,0
14624781,279.27,715,771,0
14624791,280.91,715,771,0
14624801,283.03,715,771,0
14624812,285.34,715,770,0
14624822,287.77,715,771,0
14624832,289.94,715,770,0
14624842,291.80,715,771,0
14624852,293.70,715,769,0
14624862,296.36,715,771,0
14624872,300.63,715,769,0
14624882,308.24,715,771,0
14624892,320.38,715,769,0
14624902,338.99,715,771,0
14624912,365.31,715,769,0
14624922,400.70,715,771,0
14624932,443.82,715,769,0
14624942,491.23,715,771,0
14624952,539.46,715,769,0
14624962,586.00,715,771,0
14624982,628.17,733,770,0
14624985,663.99,733,772,0
14624994,691.34,733,766,0
14625004,710.48,733,771,0
14625014,723.88,733,766,0
14625025,733.26,733,771,0
14625035,739.82,733,765,0
14625045,744.42,733,771,0
14625055,747.59,733,765,0
14625065,749.82,733,772,0
14625075,751.37,733,765,0
14625085,751.30,733,771,0
14625095,746.71,733,765,0
14625105,736.30,733,771,0
14625115,718.64,733,765,0
14625125,693.33,733,771,0
14625135,660.02,733,765,0
14625145,619.43,733,771,0
14625155,573.10,733,765,0
14625165,525.28,733,771,0
14625175,477.88,733,765,0
14625185,433.90,733,771,0
14625196,394.42,733,765,0
14625206,361.34,733,771,0
14625216,334.62,733,765,0
14625226,315.15,733,771,0
14625236,302.03,733,765,0
14625246,295.55,733,771,0
14625256,294.06,733,765,0
14625266,297.38,733,771,0
14625276,303.48,733,765,0
14625286,312.08,733,771,0
14625296,321.19,733,766,0
14625306,330.56,733,771,0
14625316,338.53,733,767,0
14625326,345.44,733,771,0
14625336,349.94,733,767,0
14625346,352.79,733,771,0
14625356,352.85,733,768,0
14625367,351.31,733,771,0
14625377,347.36,733,768,0
14625387,342.54,733,771,0
14625397,336.08,733,769,0
14625408,329.50,733,771,0
14625417,322.19,733,769,0
14625427,315.62,733,771,0
14625437,308.96,733,769,0
14625447,303.83,733,771,0
14625457,299.04,733,768,0
14625467,295.90,733,771,0
14625477,293.36,733,768,0
14625487,292.44,733,771,0
14625497,291.79,733,768,0
14625507,292.45,733,771,0
14625517,293.09,733,767,0
14625527,294.65,733,771,0
14625537,295.87,733,766,0
14625547,297.71,733,771,0
14625557,299.00,733,767,0
14625567,300.75,733,771,0
14625577,301.94,733,768,0
14625587,303.85,733,771,0
14625597,306.21,733,768,0
14625607,310.90,733,771,0
14625617,318.30,733,768,0
14625627,330.64,733,771,0
14625637,348.71,733,768,0
14625647,375.02,733,771,0
14625657,409.56,733,768,0
14625667,451.86,733,772,0
14625677,497.98,733,768,0
14625696,545.17,715,766,0
14625699,590.46,715,771,0
14625709,631.77,715,771,0
14625719,666.34,715,770,0
14625729,692.94,715,771,0
14625739,711.55,715,770,0
14625750,724.59,715,771,0
14625759,733.71,715,769,0
14625769,740.10,715,771,0
14625779,744.57,715,770,0
14625789,747.70,715,771,0
14625799,749.89,715,769,0
14625809,751.42,715,771,0
14625819,750.95,715,769,0
14625829,746.21,715,771,0
14625839,735.69,715,769,0
14625849,718.47,715,771,0
14625859,693.64,715,769,0
14625869,661.26,715,771,0
14625879,621.76,715,769,0
14625889,577.30,715,771,0
14625899,530.92,715,769,0
14625909,485.22,715,771,0
14625920,442.08,715,770,0
14625929,403.70,715,771,0
14625939,370.83,715,769,0
14625949,344.31,715,771,0
14625959,324.16,715,770,0
14625969,310.57,715,771,0
14625979,302.86,715,769,0
14625989,300.67,715,771,0
14625999,302.83,715,770,0
14626009,308.62,715,771,0
14626019,316.28,715,769,0
14626029,325.32,715,771,0
14626039,334.61,715,770,0
14626049,343.77,715,771,0
14626059,352.03,715,769,0
14626069,359.05,715,771,0
14626079,364.26,715,770,0
14626089,368.00,715,771,0
14626099,369.84,715,769,0
14626109,370.10,715,771,0
14626119,368.49,715,770,0
14626129,365.25,715,771,0
14626139,360.38,715,770,0
14626149,354.56,715,771,0
14626159,347.84,715,770,0
14626169,340.60,715,771,0
14626179,332.84,715,770,0
14626189,325.17,715,772,0
14626199,317.53,715,770,0
14626209,310.47,715,771,0
14626220,303.82,715,771,0
14626230,297.91,715,771,0
14626240,292.71,715,771,0
14626250,288.47,715,771,0
14626260,284.90,715,771,0
14626270,282.27,715,771,0
14626280,280.31,715,771,0
14626290,279.14,715,771,0
14626300,278.50,715,771,0
14626310,278.48,715,771,0
14626320,278.85,715,771,0
14626330,279.84,715,771,0
14626340,281.21,715,771,0
14626350,283.55,715,771,0
14626360,287.11,715,771,0
14626370,293.17,715,771,0
14626380,302.50,715,771,0
14626391,316.67,715,771,0
14626401,336.99,715,771,0
14626411,365.07,715,770,0
14626421,401.43,715,771,0
14626432,445.27,715,770,0
14626441,492.81,715,771,0
14626451,541.16,715,770,0
14626461,587.53,715,771,0
14626481,629.46,784,770,0
14626484,664.72,784,772,0
14626493,691.80,784,768,0
14626503,710.76,784,771,0
14626513,724.03,784,767,0
14626523,733.32,784,771,0
14626533,739.83,784,768,0
14626543,744.38,784,772,0
14626553,747.56,784,767,0
14626563,749.80,784,772,0
14626573,751.36,784,768,0
14626583,750.09,784,771,0
14626593,743.76,784,767,0
14626604,731.49,784,771,0
14626614,711.84,784,767,0
14626624,684.81,784,771,0
14626634,650.02,784,767,0
14626644,608.49,784,771,0
14626654,562.91,784,767,0
14626664,516.87,784,771,0
14626674,471.74,784,767,0
14626684,430.46,784,772,0
14626694,393.63,784,767,0
14626704,363.06,784,771,0
14626714,338.23,784,767,0
14626724,320.07,784,771,0
14626734,307.49,784,767,0
14626744,300.92,784,771,0
14626754,298.67,784,767,0
14626764,300.78,784,771,0
14626775,305.31,784,767,0
14626785,312.11,784,771,0
14626795,319.07,784,767,0
14626805,326.37,784,771,0
14626816,332.35,784,768,0
14626825,337.47,784,771,0
14626835,340.33,784,768,0
14626845,341.95,784,772,0
14626855,341.10,784,768,0
14626865,339.23,784,771,0
14626875,335.39,784,767,0
14626885,331.12,784,771,0
14626895,325.60,784,766,0
14626905,320.32,784,771,0
14626915,314.39,784,766,0
14626925,309.22,784,771,0
14626935,303.88,784,766,0
14626945,299.59,784,771,0
14626955,295.30,784,766,0
14626965,292.29,784,771,0
14626975,289.42,784,767,0
14626985,287.79,784,771,0
14626995,286.48,784,767,0
14627005,286.55,784,771,0
14627015,286.82,784,768,0
14627025,288.41,784,771,0
14627035,290.05,784,769,0
14627045,292.90,784,772,0
14627055,295.55,784,769,0
14627065,298.94,784,771,0
14627075,301.70,784,768,0
14627085,304.96,784,772,0
14627095,307.37,784,767,0
14627105,309.96,784,771,0
14627116,311.56,784,766,0
14627126,313.19,784,772,0
14627136,313.95,784,765,0
14627146,314.86,784,771,0
14627156,315.59,784,766,0
14627166,317.64,784,772,0
14627176,321.39,784,766,0
14627186,329.07,784,771,0
14627196,341.65,784,767,0
14627206,361.13,784,772,0
14627216,388.39,784,766,0
14627226,425.04,784,772,0
14627246,468.15,765,770,0
14627249,514.56,765,772,0
14627258,560.93,765,769,0
14627268,604.88,765,771,0
14627278,643.96,765,770,0
14627288,676.37,765,772,0
14627298,699.96,765,769,0
14627308,716.47,765,771,0
14627318,728.03,765,770,0
14627329,736.12,765,772,0
14627339,741.79,765,770,0
14627349,745.75,765,771,0
14627359,748.52,765,771,0
14627369,750.47,765,771,0
14627379,751.83,765,770,0
14627389,752.78,765,771,0
14627399,751.00,765,770,0
14627409,744.10,765,771,0
14627419,730.61,765,770,0
14627429,709.56,765,771,0
14627439,680.46,765,770,0
14627449,643.55,765,771,0
14627459,599.59,765,770,0
14627469,551.80,765,771,0
14627479,503.64,765,771,0
14627489,457.76,765,771,0
14627500,416.39,765,771,0
14627510,381.09,765,771,0
14627520,352.73,765,771,0
14627530,331.21,765,770,0
14627540,316.75,765,771,0
14627550,308.60,765,771,0
14627560,305.89,765,771,0
14627570,307.38,765,770,0
14627580,312.15,765,771,0
14627590,318.75,765,770,0
14627600,326.32,765,771,0
14627610,333.56,765,770,0
14627620,339.95,765,771,0
14627630,344.93,765,771,0
14627640,348.21,765,771,0
14627650,349.48,765,770,0
14627660,348.99,765,771,0
14627671,346.64,765,770,0
14627681,342.89,765,771,0
14627691,337.74,765,769,0
14627701,331.82,765,771,0
14627712,325.27,765,769,0
14627721,318.72,765,771,0
14627731,311.99,765,769,0
14627741,305.99,765,771,0
14627751,300.42,765,769,0
14627761,296.05,765,771,0
14627771,292.44,765,769,0
14627781,290.16,765,771,0
14627791,288.49,765,769,0
14627801,288.21,765,771,0
14627811,288.41,765,769,0
14627821,289.53,765,771,0
14627831,290.74,765,769,0
14627841,292.49,765,771,0
14627851,294.40,765,769,0
14627861,296.98,765,771,0
14627871,299.39,765,769,0
14627881,302.18,765,771,0
14627891,304.70,765,769,0
14627901,307.45,765,771,0
14627911,309.58,765,769,0
14627921,311.51,765,771,0
14627931,312.69,765,769,0
14627941,313.64,765,771,0
14627951,313.70,765,769,0
14627961,313.58,765,771,0
14627971,312.85,765,769,0
14627981,312.08,765,771,0
14627991,310.77,765,769,0
14628001,309.85,765,771,0
14628012,309.43,765,768,0
14628022,311.06,765,771,0
14628032,315.32,765,768,0
14628042,324.31,765,771,0
14628052,339.18,765,767,0
14628062,362.01,765,771,0
14628081,393.76,836,770,0
14628084,434.55,836,772,0
14628094,480.37,836,766,0
14628104,528.34,836,772,0
14628114,575.21,836,766,0
14628124,618.78,836,771,0
14628134,656.30,836,766,0
14628144,685.78,836,772,0
14628154,706.46,836,766,0
14628164,720.98,836,772,0
14628174,731.14,836,766,0
14628184,738.26,836,772,0
14628194,743.24,836,766,0
14628204,746.77,836,771,0
14628214,749.24,836,766,0
14628225,750.97,836,772,0
14628235,752.18,836,766,0
14628245,753.02,836,772,0
14628255,753.62,836,766,0
14628265,754.03,836,772,0
14628275,751.15,836,766,0
14628285,742.62,836,771,0
14628295,726.02,836,766,0
14628305,700.94,836,772,0
14628315,667.32,836,766,0
14628325,625.99,836,771,0
14628335,577.48,836,766,0
14628345,526.64,836,772,0
14628355,476.69,836,767,0
14628365,431.82,836,771,0
14628375,393.22,836,766,0
14628385,362.55,836,771,0
14628396,339.42,836,767,0
14628406,324.38,836,771,0
14628416,315.78,836,767,0
14628426,313.40,836,771,0
14628436,315.08,836,768,0
14628446,320.20,836,771,0
14628456,326.53,836,767,0
14628466,333.74,836,771,0
14628476,339.99,836,768,0
14628486,345.35,836,771,0
14628496,348.42,836,767,0
14628506,349.83,836,771,0
14628516,348.98,836,768,0
14628526,346.76,836,771,0
14628536,342.37,836,767,0
14628546,337.16,836,771,0
14628556,330.73,836,768,0
14628567,324.47,836,771,0
14628577,317.90,836,768,0
14628587,312.10,836,771,0
14628597,306.63,836,769,0
14628608,302.67,836,771,0
14628617,299.51,836,768,0
14628627,297.69,836,771,0
14628637,296.32,836,769,0
14628647,295.97,836,771,0
14628657,295.81,836,768,0
14628667,296.25,836,771,0
14628677,296.43,836,769,0
14628687,296.99,836,771,0
14628697,297.33,836,769,0
14628707,298.13,836,771,0
14628717,298.57,836,769,0
14628727,299.30,836,771,0
14628737,299.64,836,768,0
14628747,300.60,836,771,0
14628757,301.24,836,769,0
14628767,302.32,836,771,0
14628777,302.95,836,770,0
14628787,303.95,836,771,0
14628797,304.48,836,769,0
14628807,305.45,836,771,0
14628817,305.96,836,769,0
14628827,306.74,836,771,0
14628837,306.99,836,769,0
14628847,307.59,836,771,0
14628857,307.93,836,769,0
14628867,308.89,836,771,0
14628877,310.08,836,769,0
14628887,312.93,836,771,0
14628897,317.92,836,769,0
14628908,327.20,836,771,0
14628918,341.71,836,770,0
14628937,364.13,856,769,0
14628940,396.28,856,771,0
14628951,437.25,856,769,0
14628961,483.12,856,771,0
14628971,531.17,856,769,0
14628981,578.26,856,771,0
14628992,622.07,856,768,0
14629001,659.63,856,771,0
14629011,688.16,856,769,0
14629021,708.17,856,771,0
14629031,722.13,856,768,0
14629041,731.91,856,772,0
14629051,738.75,856,769,0
14629061,743.58,856,771,0
14629071,746.92,856,768,0
14629081,749.26,856,772,0
14629091,750.90,856,769,0
14629101,752.08,856,771,0
14629111,752.87,856,768,0
14629121,753.43,856,772,0
14629131,753.81,856,769,0
14629141,754.13,856,771,0
14629151,750.96,856,768,0
14629161,741.37,856,771,0
14629171,723.30,856,769,0
14629181,696.17,856,771,0
14629191,659.52,856,768,0
14629201,614.49,856,771,0
14629211,561.97,856,769,0
14629221,506.91,856,771,0
14629231,453.54,856,768,0
14629241,405.89,856,772,0
14629251,365.72,856,769,0
14629261,334.86,856,771,0
14629271,312.70,856,768,0
14629281,299.38,856,771,0
14629292,293.35,856,768,0
14629302,293.80,856,771,0
14629312,298.23,856,767,0
14629322,305.96,856,772,0
14629332,314.72,856,767,0
14629342,323.97,856,771,0
14629352,331.78,856,767,0
14629362,338.23,856,771,0
14629372,342.15,856,767,0
14629382,344.42,856,771,0
14629392,344.04,856,767,0
14629402,342.23,856,771,0
14629412,338.39,856,767,0
14629422,334.07,856,771,0
14629432,328.52,856,767,0
14629442,323.01,856,771,0
14629452,316.83,856,767,0
14629463,311.14,856,771,0
14629473,305.01,856,767,0
14629483,299.82,856,772,0
14629493,294.60,856,767,0
14629504,290.61,856,771,0
14629513,286.83,856,767,0
14629523,284.18,856,771,0
14629533,281.55,856,767,0
14629543,280.14,856,771,0
14629553,278.64,856,767,0
14629563,278.11,856,771,0
14629573,277.39,856,767,0
14629583,277.62,856,771,0
14629593,277.73,856,767,0
14629603,278.84,856,771,0
14629613,279.70,856,767,0
14629623,281.51,856,771,0
14629633,282.94,856,767,0
14629643,285.27,856,771,0
14629653,287.25,856,767,0
14629663,289.79,856,771,0
14629673,291.69,856,767,0
14629683,294.10,856,771,0
14629693,295.70,856,767,0
14629703,297.76,856,771,0
14629713,299.16,856,767,0
14629723,301.47,856,771,0
14629733,304.63,856,767,0
14629743,311.21,856,771,0
14629753,321.86,856,767,0
14629763,339.39,856,771,0
14629773,365.07,856,767,0
14629783,401.91,856,771,0
14629803,445.99,865,770,0
14629806,494.51,865,773,0
14629815,543.77,865,767,0
14629825,591.37,865,771,0
14629835,634.29,865,767,0
14629846,669.99,865,771,0
14629855,695.45,865,767,0
14629865,713.31,865,771,0
14629875,725.82,865,767,0
14629885,734.57,865,771,0
14629895,740.70,865,767,0
14629905,744.99,865,771,0
14629915,747.99,865,767,0
14629925,750.10,865,771,0
14629935,751.57,865,767,0
14629945,752.60,865,771,0
14629955,753.32,865,767,0
14629965,753.82,865,771,0
14629975,754.18,865,767,0
14629985,754.42,865,772,0
14629995,754.60,865,767,0
14630005,752.23,865,771,0
14630016,743.20,865,768,0
14630025,726.13,865,771,0
14630035,699.30,865,767,0
14630045,663.34,865,771,0
14630055,618.41,865,768,0
14630065,566.34,865,771,0
14630075,510.27,865,767,0
14630085,456.45,865,771,0
14630095,407.28,865,768,0
14630105,366.40,865,771,0
14630115,333.58,865,767,0
14630125,310.13,865,771,0
14630135,294.41,865,768,0
14630145,286.74,865,771,0
14630155,284.59,865,767,0
14630165,287.59,865,771,0
14630175,293.20,865,767,0
14630185,301.24,865,771,0
14630195,309.44,865,767,0
14630205,317.83,865,771,0
14630215,324.66,865,767,0
14630225,330.63,865,771,0
14630235,334.30,865,767,0
14630245,336.65,865,771,0
14630255,336.80,865,767,0
14630265,336.05,865,771,0
14630275,333.55,865,767,0
14630285,330.72,865,771,0
14630295,326.74,865,767,0
14630305,323.13,865,771,0
14630316,319.10,865,768,0
14630326,315.99,865,771,0
14630336,312.95,865,768,0
14630346,311.16,865,771,0
14630356,309.74,865,769,0
14630366,309.82,865,771,0
14630376,310.17,865,768,0
14630386,311.66,865,771,0
14630396,313.39,865,769,0
14630406,316.02,865,771,0
14630416,318.46,865,768,0
14630426,321.45,865,771,0
14630436,323.80,865,769,0
14630446,326.35,865,771,0
14630456,328.00,865,768,0
14630466,329.46,865,771,0
14630476,329.88,865,769,0
14630487,330.17,865,771,0
14630497,329.39,865,769,0
14630507,328.55,865,771,0
14630517,326.80,865,770,0
14630528,325.10,865,771,0
14630537,322.76,865,769,0
14630547,320.64,865,771,0
14630557,318.14,865,770,0
14630567,316.21,865,771,0
14630577,314.73,865,769,0
14630587,315.58,865,771,0
14630597,319.87,865,770,0
14630607,329.98,865,771,0
14630617,347.26,865,769,0
14630627,374.52,865,771,0
14630646,412.51,844,770,0
14630649,457.70,844,771,0
14630659,506.47,844,771,0
14630669,555.83,844,770,0
14630679,602.51,844,771,0
14630689,644.02,844,769,0
14630700,677.22,844,771,0
14630710,700.51,844,769,0
14630720,716.86,844,771,0
14630730,728.30,844,768,0
14630740,736.31,844,771,0
14630750,741.92,844,769,0
14630760,745.84,844,771,0
14630770,748.59,844,768,0
14630780,750.51,844,771,0
14630790,751.86,844,769,0
14630800,752.80,844,771,0
14630810,753.46,844,768,0
14630820,753.92,844,771,0
14630830,754.20,844,769,0
14630840,750.03,844,771,0
14630850,738.32,844,768,0
14630860,717.91,844,771,0
14630871,688.07,844,768,0
14630881,649.52,844,771,0
14630891,602.90,844,767,0
14630901,549.92,844,771,0
14630912,495.99,844,767,0
14630921,446.28,844,771,0
14630931,402.95,844,768,0
14630941,368.51,844,771,0
14630951,342.68,844,767,0
14630961,325.94,844,771,0
14630971,316.74,844,767,0
14630981,314.85,844,771,0
14630991,317.68,844,767,0
14631001,324.59,844,772,0
14631011,333.07,844,768,0
14631021,342.65,844,771,0
14631031,351.24,844,767,0
14631041,358.80,844,771,0
14631051,363.57,844,768,0
14631061,366.19,844,771,0
14631071,365.53,844,767,0
14631081,362.71,844,772,0
14631091,357.31,844,768,0
14631101,350.71,844,772,0
14631111,342.48,844,768,0
14631121,334.06,844,772,0
14631131,325.13,844,768,0
14631141,316.95,844,772,0
14631151,308.95,844,767,0
14631161,302.19,844,772,0
14631171,296.01,844,768,0
14631181,291.42,844,771,0
14631191,287.52,844,767,0
14631201,285.14,844,772,0
14631212,283.42,844,767,0
14631222,283.25,844,772,0
14631232,283.52,844,767,0
14631242,285.34,844,772,0
14631252,287.42,844,767,0
14631262,290.64,844,772,0
14631272,293.79,844,767,0
14631282,297.62,844,772,0
14631292,300.87,844,767,0
14631302,304.51,844,771,0
14631312,307.23,844,767,0
14631322,309.99,844,772,0
14631332,311.66,844,767,0
14631342,313.18,844,772,0
14631352,313.51,844,767,0
14631362,313.79,844,772,0
14631372,312.95,844,767,0
14631383,312.15,844,771,0
14631393,310.39,844,766,0
14631403,309.20,844,772,0
14631413,308.33,844,767,0
14631424,309.94,844,772,0
14631433,314.20,844,766,0
14631443,324.21,844,771,0
14631453,341.16,844,767,0
14631463,368.71,844,771,0
14631473,406.73,844,766,0
14631492,452.15,846,765,0
14631495,501.09,846,770,0
14631505,551.29,846,772,0
14631515,598.99,846,767,0
14631525,641.59,846,772,0
14631535,675.44,846,768,0
14631545,699.44,846,772,0
14631555,716.24,846,767,0
14631565,728.04,846,772,0
14631575,736.25,846,768,0
14631585,742.05,846,772,0
14631596,746.06,846,769,0
14631606,748.92,846,772,0
14631616,750.91,846,769,0
14631626,752.35,846,771,0
14631636,753.32,846,770,0
14631646,754.04,846,772,0
14631656,754.54,846,769,0
14631666,754.94,846,771,0
14631676,752.64,846,770,0
14631686,744.73,846,772,0
14631696,728.14,846,769,0
14631706,702.09,846,771,0
14631716,666.23,846,770,0
14631726,621.85,846,772,0
14631736,569.56,846,769,0
14631746,513.64,846,771,0
14631756,458.29,846,770,0
14631767,408.53,846,772,0
14631777,366.50,846,771,0
14631787,333.86,846,771,0
14631797,310.21,846,771,0
14631808,295.70,846,771,0
14631817,288.80,846,770,0
14631827,288.65,846,771,0
14631837,293.08,846,771,0
14631847,300.64,846,771,0
14631857,309.54,846,770,0
14631867,318.76,846,771,0
14631877,327.10,846,771,0
14631887,334.32,846,772,0
14631897,339.66,846,770,0
14631907,343.19,846,771,0
14631917,344.59,846,771,0
14631927,344.29,846,771,0
14631937,342.31,846,770,0
14631947,339.35,846,771,0
14631957,335.30,846,771,0
14631967,330.67,846,772,0
14631977,325.58,846,771,0
14631987,320.74,846,771,0
14631997,316.02,846,771,0
14632007,311.77,846,772,0
14632017,307.72,846,771,0
14632027,304.21,846,771,0
14632037,301.02,846,771,0
14632047,298.44,846,772,0
14632057,296.51,846,771,0
14632067,295.41,846,771,0
14632077,294.86,846,771,0
14632087,295.07,846,771,0
14632097,295.95,846,771,0
14632108,297.64,846,771,0
14632118,299.89,846,772,0
14632128,302.32,846,771,0
14632138,305.05,846,772,0
14632148,307.74,846,770,0
14632158,310.39,846,771,0
14632168,312.93,846,771,0
14632178,315.22,846,772,0
14632188,317.17,846,770,0
14632198,319.05,846,771,0
14632208,320.62,846,771,0
14632218,322.19,846,772,0
14632228,323.25,846,770,0
14632238,323.94,846,771,0
14632248,324.18,846,771,0
14632258,324.38,846,772,0
14632268,324.82,846,770,0
14632279,326.68,846,772,0
14632289,331.19,846,770,0
14632299,340.86,846,772,0
14632309,357.79,846,769,0
14632320,384.98,846,772,0
14632338,422.44,846,770,0
14632341,466.67,846,772,0
14632351,514.34,846,767,0
14632361,562.84,846,772,0
14632371,608.83,846,767,0
14632381,649.42,846,772,0
14632391,681.18,846,767,0
14632401,703.46,846,772,0
14632411,719.05,846,767,0
14632421,730.00,846,772,0
14632431,737.63,846,767,0
14632441,743.01,846,772,0
14632451,746.74,846,767,0
14632461,749.39,846,772,0
14632471,751.20,846,767,0
14632481,752.51,846,772,0
14632492,753.39,846,767,0
14632502,754.04,846,772,0
14632512,754.46,846,767,0
14632522,754.19,846,772,0
14632532,748.09,846,766,0
14632542,734.22,846,772,0
14632552,710.24,846,767,0
14632562,676.27,846,772,0
14632572,632.09,846,766,0
14632582,579.35,846,772,0
14632592,519.33,846,767,0
14632602,459.44,846,772,0
14632612,402.78,846,767,0
14632622,353.86,846,772,0
14632632,313.53,846,767,0
14632642,283.93,846,772,0
14632652,264.02,846,767,0
14632663,254.33,846,772,0
14632673,252.39,846,767,0
14632683,257.93,846,772,0
14632693,268.02,846,767,0
14632704,281.99,846,772,0
14632713,296.82,846,767,0
14632723,311.96,846,772,0
14632733,324.96,846,767,0
14632743,336.11,846,772,0
14632753,343.62,846,767,0
14632763,348.28,846,772,0
14632773,349.09,846,767,0
14632783,347.35,846,772,0
14632793,342.62,846,767,0
14632803,336.52,846,772,0
14632813,328.43,846,767,0
14632823,319.95,846,772,0
14632833,310.62,846,767,0
14632843,302.03,846,772,0
14632853,293.54,846,767,0
14632863,286.43,846,772,0
14632873,279.96,846,768,0
14632883,275.47,846,772,0
14632893,272.12,846,767,0
14632903,271.01,846,772,0
14632913,270.96,846,768,0
14632923,273.07,846,772,0
14632933,275.92,846,767,0
14632943,280.45,846,773,0
14632953,285.28,846,768,0
14632963,291.28,846,772,0
14632973,297.20,846,767,0
14632983,303.53,846,772,0
14632993,309.07,846,768,0
14633004,314.88,846,772,0
14633014,319.71,846,768,0
14633024,324.43,846,772,0
14633034,327.86,846,769,0
14633044,330.56,846,772,0
14633054,331.89,846,768,0
14633064,332.78,846,772,0
14633074,332.55,846,769,0
14633084,332.73,846,772,0
14633094,333.28,846,768,0
14633104,336.58,846,772,0
14633114,343.86,846,769,0
14633124,358.22,846,772,0
14633134,380.52,846,768,0
14633144,413.41,846,772,0
14633154,454.13,846,769,0
14633174,499.86,835,768,0
14633177,547.05,835,773,0
14633186,593.15,835,772,0
14633196,634.72,835,771,0
14633206,669.86,835,772,0
14633217,695.70,835,772,0
14633227,713.79,835,772,0
14633237,726.45,835,772,0
14633247,735.32,835,772,0
14633257,741.52,835,772,0
14633267,745.87,835,772,0
14633277,748.91,835,772,0
14633287,751.03,835,772,0
14633297,752.52,835,772,0
14633307,752.11,835,772,0
14633317,745.65,835,772,0
14633327,730.45,835,772,0
14633337,705.33,835,772,0
14633347,670.39,835,772,0
14633357,626.09,835,772,0
14633367,573.43,835,772,0
14633377,515.40,835,772,0
14633388,457.94,835,771,0
14633398,405.59,835,772,0
14633408,361.14,835,771,0
14633418,326.17,835,772,0
14633428,301.48,835,770,0
14633438,287.02,835,772,0
14633448,281.66,835,771,0
14633458,284.29,835,772,0
14633468,292.90,835,770,0
14633478,305.96,835,772,0
14633488,321.36,835,771,0
14633498,337.45,835,772,0
14633508,352.40,835,770,0
14633518,365.44,835,772,0
14633528,375.16,835,771,0
14633538,381.54,835,772,0
14633548,383.69,835,770,0
14633559,382.16,835,772,0
14633569,376.80,835,770,0
14633579,368.80,835,772,0
14633589,358.19,835,769,0
14633600,346.30,835,773,0
14633609,333.44,835,770,0
14633619,321.05,835,772,0
14633629,308.95,835,769,0
14633639,298.51,835,773,0
14633649,289.44,835,770,0
14633659,282.58,835,772,0
14633669,277.22,835,769,0
14633679,274.07,835,773,0
14633689,272.38,835,770,0
14633699,272.52,835,772,0
14633709,273.44,835,769,0
14633719,275.58,835,773,0
14633729,278.19,835,770,0
14633739,281.78,835,772,0
14633749,285.14,835,769,0
14633759,288.91,835,773,0
14633769,292.37,835,769,0
14633779,296.16,835,773,0
14633789,299.50,835,769,0
14633799,302.86,835,773,0
14633809,305.30,835,769,0
14633819,307.53,835,772,0
14633829,308.83,835,770,0
14633839,310.29,835,773,0
14633849,311.62,835,769,0
14633859,314.13,835,772,0
14633869,318.64,835,770,0
14633879,327.92,835,773,0
14633889,343.50,835,769,0
14633900,368.51,835,773,0
14633910,404.05,835,768,0
14633920,447.45,835,773,0
14633930,495.19,835,768,0
14633950,544.55,776,767,0
14633953,592.17,776,768,0
14633962,635.45,776,773,0
14633972,670.93,776,768,0
14633982,696.45,776,773,0
14633992,714.31,776,768,0
14634002,726.82,776,773,0
14634012,735.57,776,768,0
14634022,741.74,776,773,0
14634032,746.06,776,768,0
14634042,749.09,776,773,0
14634052,751.20,776,768,0
14634062,752.73,776,773,0
14634072,753.80,776,768,0
14634082,754.54,776,773,0
14634092,755.02,776,768,0
14634102,755.40,776,772,0
14634113,755.67,776,768,0
14634123,755.85,776,773,0
14634133,753.24,776,768,0
14634143,744.68,776,773,0
14634153,727.29,776,769,0
14634163,700.80,776,773,0
14634173,664.69,776,768,0
14634183,620.26,776,772,0
14634193,568.24,776,768,0
14634203,513.48,776,773,0
14634213,460.15,776,768,0
14634223,413.09,776,773,0
14634233,373.38,776,769,0
14634243,342.92,776,772,0
14634253,320.83,776,768,0
14634263,307.51,776,773,0
14634273,300.59,776,768,0
14634284,299.64,776,773,0
14634294,302.15,776,769,0
14634304,307.63,776,773,0
14634314,313.83,776,770,0
14634324,320.48,776,773,0
14634334,325.65,776,769,0
14634344,329.74,776,773,0
14634354,331.40,776,770,0
14634364,331.41,776,772,0
14634374,329.06,776,769,0
14634384,325.61,776,773,0
14634394,320.54,776,770,0
14634404,315.15,776,773,0
14634414,308.93,776,769,0
14634424,303.30,776,773,0
14634434,297.81,776,770,0
14634444,293.32,776,772,0
14634455,289.28,776,770,0
14634465,286.63,776,773,0
14634475,284.77,776,771,0
14634485,284.28,776,772,0
14634496,284.37,776,770,0
14634505,286.14,776,772,0
14634515,287.81,776,772,0
14634525,290.70,776,772,0
14634535,293.19,776,772,0
14634545,296.48,776,773,0
14634555,298.99,776,772,0
14634565,301.99,776,772,0
14634575,303.54,776,772,0
14634585,306.33,776,773,0
14634595,308.16,776,772,0
14634605,311.67,776,772,0
14634615,315.41,776,772,0
14634625,323.00,776,773,0
14634635,333.93,776,772,0
14634645,352.38,776,772,0
14634655,378.07,776,772,0
14634665,414.95,776,773,0
14634675,458.16,776,772,0
14634694,505.69,745,770,0
14634697,553.57,745,772,0
14634706,600.15,745,772,0
14634716,641.46,745,772,0
14634726,675.82,745,772,0
14634736,699.92,745,772,0
14634746,716.83,745,772,0
14634756,728.67,745,772,0
14634766,737.00,745,772,0
14634776,742.78,745,772,0
14634786,746.88,745,772,0
14634796,749.74,745,772,0
14634806,751.79,745,772,0
14634816,753.18,745,772,0
14634826,754.20,745,772,0
14634836,754.87,745,772,0
14634846,755.38,745,772,0
14634856,755.69,745,773,0
14634866,755.96,745,772,0
14634876,756.10,745,772,0
14634886,756.24,745,772,0
14634896,756.30,745,772,0
14634906,753.42,745,772,0
14634916,744.30,745,772,0
14634926,727.24,745,772,0
14634936,701.06,745,772,0
14634946,666.16,745,772,0
14634956,623.21,745,772,0
14634967,573.52,745,772,0
14634977,521.38,745,773,0
14634987,471.51,745,772,0
14634997,426.87,745,773,0
14635008,389.62,745,771,0
14635017,360.64,745,773,0
14635027,339.92,745,772,0
14635037,326.66,745,773,0
14635047,319.47,745,771,0
14635057,316.93,745,773,0
14635067,317.68,745,772,0
14635077,320.60,745,773,0
14635087,324.11,745,771,0
14635097,327.42,745,772,0
14635107,329.69,745,772,0
14635117,330.99,745,773,0
14635127,330.99,745,771,0
14635137,330.09,745,772,0
14635147,328.27,745,772,0
14635157,326.00,745,773,0
14635167,323.26,745,771,0
14635177,320.57,745,773,0
14635187,317.91,745,772,0
14635197,315.71,745,773,0
14635207,313.65,745,771,0
14635217,312.00,745,772,0
14635227,310.71,745,772,0
14635237,309.86,745,773,0
14635247,309.13,745,771,0
14635257,308.58,745,772,0
14635267,308.06,745,772,0
14635277,307.70,745,773,0
14635287,307.10,745,771,0
14635297,306.69,745,772,0
14635308,306.87,745,771,0
14635318,308.71,745,773,0
14635328,312.74,745,770,0
14635338,320.83,745,772,0
14635348,334.04,745,769,0
14635358,354.47,745,773,0
14635368,382.96,745,770,0
14635387,420.56,693,768,0
14635390,464.49,693,770,0
14635399,511.83,693,773,0
14635409,559.07,693,769,0
14635419,603.87,693,773,0
14635429,643.64,693,769,0
14635439,676.49,693,773,0
14635449,700.56,693,769,0
14635459,717.45,693,773,0
14635469,729.27,693,769,0
14635479,737.55,693,773,0
14635489,743.38,693,769,0
14635499,747.47,693,773,0
14635509,750.33,693,769,0
14635520,752.33,693,773,0
14635529,753.73,693,769,0
14635539,754.71,693,773,0
14635549,755.40,693,769,0
14635559,753.52,693,773,0
14635569,746.04,693,769,0
14635579,730.98,693,773,0
14635589,706.52,693,769,0
14635599,672.68,693,773,0
14635609,629.49,693,769,0
14635619,577.83,693,773,0
14635629,520.62,693,769,0
14635639,462.75,693,773,0
14635649,407.37,693,769,0
14635659,358.27,693,773,0
14635669,316.49,693,769,0
14635679,283.64,693,773,0
14635689,259.49,693,769,0
14635699,244.77,693,773,0
14635709,237.81,693,769,0
14635719,238.38,693,773,0
14635729,244.10,693,769,0
14635739,254.27,693,773,0
14635749,266.49,693,769,0
14635759,280.23,693,773,0
14635769,293.27,693,768,0
14635779,305.58,693,773,0
14635789,315.39,693,769,0
14635799,323.16,693,773,0
14635809,327.74,693,768,0
14635820,330.13,693,773,0
14635830,329.62,693,768,0
14635840,327.51,693,773,0
14635850,323.20,693,768,0
14635860,318.08,693,773,0
14635870,311.97,693,768,0
14635880,306.24,693,773,0
14635890,300.34,693,768,0
14635900,295.65,693,773,0
14635910,291.43,693,768,0
14635920,288.81,693,773,0
14635930,286.85,693,768,0
14635940,286.56,693,773,0
14635950,286.86,693,768,0
14635960,288.62,693,773,0
14635970,290.49,693,768,0
14635980,293.43,693,773,0
14635991,296.13,693,768,0
14636001,299.48,693,773,0
14636011,302.03,693,768,0
14636021,304.81,693,773,0
14636032,306.84,693,768,0
14636041,309.67,693,773,0
14636051,312.90,693,768,0
14636061,318.80,693,773,0
14636071,327.60,693,767,0
14636081,341.78,693,773,0
14636091,362.07,693,768,0
14636101,390.72,693,773,0
14636111,427.28,693,768,0
14636130,470.48,743,767,0
14636133,516.45,743,769,0
14636142,562.77,743,773,0
14636152,606.43,743,768,0
14636162,645.38,743,773,0
14636172,677.28,743,768,0
14636182,701.20,743,773,0
14636192,717.90,743,768,0
14636203,729.54,743,773,0
14636212,737.69,743,768,0
14636222,743.44,743,773,0
14636232,747.42,743,768,0
14636242,750.21,743,773,0
14636252,752.16,743,768,0
14636262,753.57,743,773,0
14636272,754.56,743,768,0
14636282,752.72,743,773,0
14636292,745.47,743,768,0
14636302,731.40,743,773,0
14636312,708.65,743,768,0
14636322,677.21,743,773,0
14636332,636.91,743,768,0
14636342,588.51,743,773,0
14636352,534.74,743,768,0
14636362,479.70,743,773,0
14636372,425.79,743,769,0
14636382,376.65,743,773,0
14636392,333.09,743,768,0
14636402,297.15,743,773,0
14636412,268.69,743,769,0
14636422,249.07,743,773,0
14636432,237.09,743,768,0
14636442,232.91,743,773,0
14636452,234.56,743,769,0
14636462,241.81,743,773,0
14636472,252.24,743,768,0
14636482,265.45,743,773,0
14636492,279.16,743,769,0
14636503,293.13,743,773,0
14636513,305.43,743,769,0
14636523,316.19,743,773,0
14636533,324.15,743,770,0
14636544,329.89,743,773,0
14636553,332.62,743,769,0
14636563,333.29,743,773,0
14636573,331.49,743,770,0
14636583,328.30,743,773,0
14636593,323.50,743,769,0
14636603,318.42,743,773,0
14636613,312.68,743,770,0
14636623,307.55,743,773,0
14636633,302.50,743,769,0
14636643,298.58,743,773,0
14636653,295.27,743,770,0
14636663,293.44,743,773,0
14636673,292.02,743,769,0
14636683,291.97,743,773,0
14636693,292.28,743,770,0
14636703,293.65,743,773,0
14636713,295.09,743,770,0
14636723,297.16,743,772,0
14636733,298.91,743,770,0
14636743,301.17,743,773,0
14636753,302.92,743,771,0
14636763,304.74,743,772,0
14636773,305.80,743,770,0
14636783,306.93,743,773,0
14636793,307.55,743,770,0
14636803,308.67,743,773,0
14636813,309.80,743,770,0
14636823,312.56,743,773,0
14636833,317.23,743,770,0
14636844,325.86,743,772,0
14636854,339.02,743,771,0
14636864,358.86,743,773,0
14636874,385.69,743,771,0
14636884,420.67,743,772,0
14636903,462.25,773,771,0
14636906,507.65,773,772,0
14636916,553.48,773,773,0
14636926,597.44,773,771,0
14636936,636.86,773,773,0
14636946,670.20,773,772,0
14636956,695.99,773,773,0
14636966,714.20,773,771,0
14636976,726.96,773,773,0
14636986,735.88,773,772,0
14636996,742.18,773,773,0
14637006,746.54,773,771,0
14637016,749.59,773,773,0
14637026,751.73,773,772,0
14637036,750.74,773,773,0
14637046,744.69,773,771,0
14637057,732.52,773,773,0
14637067,713.04,773,771,0
14637077,686.11,773,773,0
14637087,651.36,773,770,0
14637097,609.38,773,773,0
14637107,563.11,773,771,0
14637117,515.55,773,773,0
14637127,468.46,773,770,0
14637137,424.48,773,773,0
14637147,384.69,773,771,0
14637157,350.63,773,773,0
14637167,322.58,773,770,0
14637177,301.28,773,773,0
14637187,286.37,773,771,0
14637197,278.03,773,773,0
14637207,274.98,773,770,0
14637217,276.87,773,773,0
14637228,282.22,773,770,0
14637238,290.43,773,773,0
14637248,299.73,773,769,0
14637258,309.62,773,773,0
14637268,318.61,773,769,0
14637278,326.74,773,773,0
14637288,332.60,773,769,0
14637298,336.75,773,773,0
14637308,338.37,773,769,0
14637318,338.56,773,773,0
14637328,336.72,773,769,0
14637338,333.97,773,773,0
14637348,329.83,773,769,0
14637358,325.72,773,773,0
14637368,321.09,773,769,0
14637378,316.86,773,773,0
14637388,312.62,773,769,0
14637399,309.18,773,773,0
14637409,305.82,773,768,0
14637419,303.56,773,773,0
14637429,301.46,773,768,0
14637440,300.51,773,773,0
14637449,300.01,773,768,0
14637459,300.48,773,773,0
14637469,301.19,773,768,0
14637479,302.98,773,773,0
14637489,304.74,773,769,0
14637499,307.31,773,773,0
14637509,309.49,773,768,0
14637519,312.04,773,773,0
14637529,313.83,773,768,0
14637539,315.77,773,773,0
14637549,316.78,773,768,0
14637559,317.87,773,773,0
14637569,318.17,773,768,0
14637579,319.02,773,773,0
14637589,319.78,773,768,0
14637599,322.16,773,773,0
14637609,325.93,773,768,0
14637619,332.98,773,773,0
14637629,343.61,773,768,0
14637639,360.06,773,773,0
14637649,382.24,773,768,0
14637659,411.31,773,773,0
14637678,446.10,775,772,0
14637681,486.79,775,774,0
14637691,529.88,775,768,0
14637701,572.94,775,773,0
14637711,613.08,775,768,0
14637721,648.75,775,773,0
14637731,678.48,775,768,0
14637741,701.91,775,773,0
14637751,718.39,775,768,0
14637761,729.93,775,773,0
14637771,738.01,775,768,0
14637782,742.89,775,772,0
14637791,744.00,775,768,0
14637801,741.34,775,773,0
14637811,733.65,775,768,0
14637821,720.90,775,773,0
14637831,702.24,775,768,0
14637841,677.91,775,773,0
14637851,647.90,775,768,0
14637861,613.94,775,773,0
14637871,576.33,775,768,0
14637881,537.57,775,773,0
14637891,497.93,775,768,0
14637901,459.51,775,773,0
14637911,422.54,775,768,0
14637921,389.29,775,773,0
14637931,359.85,775,768,0
14637941,335.89,775,773,0
14637952,317.15,775,769,0
14637961,304.77,775,773,0
14637971,297.89,775,768,0
14637981,297.28,775,773,0
14637991,301.23,775,769,0
14638001,309.82,775,773,0
14638011,320.89,775,768,0
14638021,334.21,775,773,0
14638031,347.86,775,769,0
14638041,361.61,775,773,0
14638051,373.30,775,768,0
14638061,383.07,775,773,0
14638071,389.35,775,769,0
14638081,392.97,775,773,0
14638091,392.85,775,768,0
14638101,390.02,775,773,0
14638111,383.76,775,769,0
14638121,375.65,775,773,0
14638131,365.55,775,768,0
14638141,355.19,775,773,0
14638151,344.16,775,769,0
14638161,334.17,775,773,0
14638171,324.86,775,768,0
14638181,317.66,775,773,0
14638191,311.93,775,768,0
14638201,308.91,775,773,0
14638211,307.44,775,768,0
14638221,308.42,775,773,0
14638231,310.48,775,768,0
14638241,314.11,775,773,0
14638252,318.10,775,769,0
14638262,322.66,775,773,0
14638272,326.28,775,769,0
14638282,329.66,775,773,0
14638292,331.69,775,770,0
14638302,333.03,775,773,0
14638312,332.72,775,769,0
14638322,331.65,775,773,0
14638332,329.48,775,770,0
14638342,327.11,775,773,0
14638352,323.82,775,769,0
14638362,320.57,775,773,0
14638372,316.84,775,770,0
14638382,313.81,775,773,0
14638392,311.04,775,769,0
14638402,309.95,775,773,0
14638412,310.52,775,770,0
14638423,314.44,775,773,0
14638433,321.68,775,770,0
14638443,333.77,775,773,0
14638453,350.43,775,771,0
14638464,372.50,775,773,0
14638473,398.49,775,770,0
14638483,428.30,775,773,0
14638502,459.93,824,771,0
14638505,491.88,824,771,0
14638515,522.64,824,773,0
14638525,550.82,824,772,0
14638535,574.66,824,773,0
14638545,593.58,824,771,0
14638555,606.73,824,772,0
14638565,614.31,824,772,0
14638575,616.96,824,773,0
14638585,614.49,824,771,0
14638595,607.96,824,772,0
14638605,597.90,824,772,0
14638615,585.20,824,773,0
14638625,570.10,824,771,0
14638636,553.05,824,772,0
14638646,534.18,824,771,0
14638656,514.11,824,773,0
14638666,492.56,824,770,0
14638676,470.28,824,772,0
14638686,447.35,824,771,0
14638696,424.58,824,773,0
14638706,402.16,824,771,0
14638716,381.07,824,773,0
14638726,361.51,824,771,0
14638736,344.38,824,773,0
14638746,329.70,824,771,0
14638756,318.00,824,773,0
14638766,309.22,824,771,0
14638776,303.84,824,773,0
14638786,301.10,824,771,0
14638796,301.16,824,773,0
14638807,303.17,824,770,0
14638817,307.02,824,773,0
14638827,311.64,824,769,0
14638837,316.93,824,773,0
14638848,321.71,824,769,0
14638857,326.34,824,773,0
14638867,329.71,824,769,0
14638877,332.24,824,773,0
14638887,332.98,824,769,0
14638897,332.82,824,773,0
14638907,331.16,824,770,0
14638917,328.97,824,773,0
14638927,325.59,824,769,0
14638937,322.16,824,773,0
14638947,318.04,824,769,0
14638957,314.43,824,773,0
14638967,310.66,824,769,0
14638977,307.59,824,773,0
14638987,304.67,824,769,0
14638997,302.84,824,773,0
14639007,301.22,824,769,0
14639017,300.77,824,773,0
14639027,300.62,824,770,0
14639037,301.51,824,773,0
14639047,302.47,824,769,0
14639057,304.26,824,773,0
14639067,305.89,824,770,0
14639077,308.15,824,773,0
14639087,310.04,824,769,0
14639097,312.38,824,773,0
14639107,314.28,824,770,0
14639117,316.60,824,773,0
14639127,318.26,824,769,0
14639137,320.07,824,773,0
14639148,321.08,824,769,0
14639158,322.13,824,773,0
14639168,322.26,824,768,0
14639178,322.52,824,773,0
14639188,322.24,824,768,0
14639198,322.60,824,773,0
14639208,323.15,824,768,0
14639218,325.54,824,773,0
14639228,329.67,824,768,0
14639238,337.14,824,773,0
14639248,347.68,824,768,0
14639258,362.91,824,773,0
14639268,382.18,824,768,0
14639287,406.30,785,767,0
14639290,433.68,785,769,0
14639300,464.72,785,773,0
14639310,496.86,785,768,0
14639320,529.22,785,773,0
14639330,559.07,785,767,0
14639340,585.92,785,773,0
14639350,607.63,785,768,0
14639361,624.41,785,773,0
14639371,634.44,785,768,0
14639381,639.11,785,773,0
14639391,638.05,785,769,0
14639401,632.85,785,773,0
14639411,623.34,785,768,0
14639421,611.32,785,773,0
14639431,596.40,785,769,0
14639441,580.03,785,773,0
14639451,561.72,785,768,0
14639461,542.95,785,773,0
14639471,523.12,785,769,0
14639481,503.33,785,773,0
14639491,482.96,785,768,0
14639501,463.26,785,773,0
14639511,443.77,785,769,0
14639521,425.71,785,773,0
14639532,408.52,785,769,0
14639542,393.41,785,773,0
14639552,380.00,785,770,0
14639562,369.07,785,773,0
14639572,360.18,785,770,0
14639582,353.95,785,773,0
14639592,349.55,785,770,0
14639602,347.42,785,773,0
14639612,346.52,785,771,0
14639622,347.05,785,773,0
14639632,348.02,785,770,0
14639642,349.60,785,773,0
14639652,350.83,785,771,0
14639662,352.26,785,773,0
14639672,352.82,785,770,0
14639682,353.09,785,773,0
14639692,352.42,785,770,0
14639703,351.48,785,773,0
14639713,349.75,785,772,0
14639723,347.64,785,772,0
14639733,344.70,785,771,0
14639744,341.79,785,772,0
14639753,338.51,785,771,0
14639763,335.32,785,772,0
14639773,332.01,785,771,0
14639783,329.00,785,773,0
14639793,326.35,785,771,0
14639803,324.40,785,772,0
14639813,322.78,785,772,0
14639823,321.73,785,772,0
14639833,321.13,785,771,0
14639843,321.00,785,773,0
14639853,321.13,785,772,0
14639863,321.48,785,773,0
14639873,321.68,785,771,0
14639883,322.29,785,773,0
14639893,322.89,785,772,0
14639903,323.61,785,773,0
14639913,324.15,785,772,0
14639923,324.62,785,773,0
14639933,324.91,785,772,0
14639943,325.11,785,773,0
14639953,324.95,785,772,0
14639963,324.83,785,773,0
14639973,324.41,785,772,0
14639983,323.99,785,773,0
14639993,323.43,785,772,0
14640003,323.00,785,773,0
14640013,322.57,785,772,0
14640023,322.44,785,773,0
14640033,322.57,785,772,0
14640044,323.73,785,772,0
14640054,326.25,785,773,0
14640064,330.89,785,772,0
14640074,338.38,785,773,0
14640084,349.45,785,772,0
14640094,364.14,785,772,0
14640113,382.87,826,771,0
14640116,405.50,826,774,0
14640125,431.70,826,770,0
14640135,460.46,826,773,0
14640145,490.15,826,772,0
14640155,519.51,826,773,0
14640165,547.08,826,770,0
14640175,571.74,826,773,0
14640185,592.09,826,771,0
14640195,607.54,826,773,0
14640205,617.58,826,770,0
14640215,622.97,826,773,0
14640225,623.58,826,771,0
14640235,620.36,826,773,0
14640245,613.31,826,770,0
14640256,603.62,826,773,0
14640265,591.56,826,771,0
14640275,577.94,826,773,0
14640285,562.36,826,771,0
14640295,545.79,826,773,0
14640305,528.28,826,771,0
14640315,510.71,826,773,0
14640325,492.58,826,771,0
14640335,474.54,826,773,0
14640345,456.93,826,771,0
14640355,440.58,826,773,0
14640365,425.28,826,771,0
14640375,411.48,826,773,0
14640385,399.21,826,771,0
14640395,389.29,826,773,0
14640405,381.14,826,771,0
14640415,374.97,826,773,0
14640425,370.10,826,770,0
14640435,366.98,826,773,0
14640445,364.89,826,771,0
14640455,363.93,826,773,0
14640465,363.27,826,770,0
14640475,363.32,826,773,0
14640485,363.14,826,771,0
14640495,363.14,826,773,0
14640505,362.67,826,770,0
14640515,362.34,826,773,0
14640525,361.42,826,771,0
14640535,360.44,826,773,0
14640545,358.76,826,770,0
14640556,357.08,826,773,0
14640566,354.87,826,770,0
14640576,352.77,826,773,0
14640586,350.05,826,769,0
14640596,347.51,826,773,0
14640606,344.53,826,770,0
14640616,341.97,826,773,0
14640626,339.11,826,769,0
14640636,336.80,826,773,0
14640646,334.46,826,770,0
14640656,332.95,826,773,0
14640666,331.51,826,769,0
14640676,330.89,826,773,0
14640686,330.28,826,770,0
14640696,330.41,826,773,0
14640706,330.46,826,769,0
14640716,330.96,826,773,0
14640727,331.06,826,769,0
14640737,331.56,826,773,0
14640747,331.60,826,769,0
14640757,331.98,826,773,0
14640768,332.07,826,768,0
14640777,332.61,826,773,0
14640787,332.68,826,768,0
14640797,333.21,826,773,0
14640807,333.14,826,769,0
14640817,333.53,826,773,0
14640827,333.33,826,769,0
14640837,333.40,826,773,0
14640847,332.81,826,769,0
14640857,332.74,826,773,0
14640867,332.05,826,769,0
14640877,332.03,826,773,0
14640887,331.94,826,769,0
14640897,333.28,826,773,0
14640907,335.60,826,769,0
14640917,340.56,826,773,0
14640927,347.68,826,768,0
14640937,358.62,826,773,0
14640947,372.58,826,769,0
14640966,390.70,853,767,0
14640969,411.83,853,769,0
14640979,436.83,853,773,0
14640989,463.28,853,768,0
14640999,490.97,853,773,0
14641009,517.55,853,768,0
14641019,542.88,853,773,0
14641029,564.82,853,768,0
14641039,583.39,853,773,0
14641049,596.73,853,768,0
14641059,606.02,853,773,0
14641069,610.56,853,768,0
14641079,611.81,853,773,0
14641089,609.16,853,768,0
14641099,604.27,853,773,0
14641110,596.52,853,768,0
14641119,587.32,853,773,0
14641129,576.08,853,768,0
14641139,564.01,853,773,0
14641149,550.38,853,768,0
14641159,536.60,853,772,0
14641169,521.93,853,768,0
14641179,507.81,853,773,0
14641189,493.42,853,768,0
14641199,480.22,853,773,0
14641209,467.47,853,768,0
14641219,456.32,853,773,0
14641229,445.98,853,768,0
14641239,437.41,853,773,0
14641249,429.62,853,768,0
14641259,423.69,853,773,0
14641269,418.47,853,768,0
14641280,414.69,853,773,0
14641289,411.22,853,768,0
14641299,408.76,853,773,0
14641309,406.09,853,768,0
14641319,404.00,853,772,0
14641329,401.17,853,768,0
14641339,398.55,853,773,0
14641349,395.26,853,768,0
14641359,392.27,853,773,0
14641369,388.59,853,768,0
14641379,385.24,853,773,0
14641389,381.14,853,768,0
14641399,377.50,853,772,0
14641409,373.53,853,768,0
14641419,370.29,853,773,0
14641429,366.86,853,768,0
14641439,364.20,853,773,0
14641449,361.53,853,768,0
14641459,359.87,853,773,0
14641469,358.07,853,768,0
14641479,356.85,853,773,0
14641489,355.13,853,769,0
14641499,353.85,853,773,0
14641509,351.97,853,768,0
14641519,350.43,853,773,0
14641529,348.38,853,768,0
14641539,346.93,853,773,0
14641549,345.15,853,768,0
14641559,343.95,853,773,0
14641569,342.34,853,768,0
14641580,341.42,853,773,0
14641590,340.14,853,769,0
14641600,339.28,853,773,0
14641610,337.95,853,770,0
14641620,337.07,853,773,0
14641630,335.89,853,769,0
14641640,335.32,853,773,0
14641650,334.41,853,770,0
14641660,333.95,853,773,0
14641670,333.40,853,769,0
14641680,333.37,853,773,0
14641690,332.96,853,769,0
14641700,333.06,853,773,0
14641710,332.83,853,769,0
14641720,333.35,853,773,0
14641730,334.06,853,769,0
14641740,336.14,853,773,0
14641751,339.40,853,770,0
14641761,345.19,853,773,0
14641771,353.19,853,771,0
14641781,364.88,853,773,0
14641792,379.79,853,771,0
14641801,398.75,853,773,0
14641820,420.60,854,771,0
14641823,445.49,854,772,0
14641833,472.51,854,773,0
14641843,500.52,854,772,0
14641853,527.58,854,772,0
14641863,552.56,854,772,0
14641873,574.16,854,773,0
14641883,591.86,854,772,0
14641893,604.89,854,772,0
14641903,612.59,854,772,0
14641913,615.71,854,773,0
14641923,614.77,854,772,0
14641933,610.47,854,772,0
14641943,603.21,854,772,0
14641953,593.76,854,773,0
14641964,582.48,854,771,0
14641974,570.08,854,773,0
14641984,556.34,854,771,0
14641994,541.92,854,772,0
14642004,526.86,854,770,0
14642014,512.25,854,772,0
14642024,497.81,854,771,0
14642034,484.20,854,773,0
14642044,471.24,854,770,0
14642054,460.02,854,773,0
14642064,450.25,854,771,0
14642074,442.37,854,773,0
14642084,435.62,854,770,0
14642094,430.50,854,772,0
14642104,426.71,854,771,0
14642114,424.57,854,773,0
14642124,423.24,854,770,0
14642135,423.00,854,772,0
14642145,423.13,854,770,0
14642155,423.90,854,773,0
14642165,424.57,854,770,0
14642176,425.17,854,772,0
14642185,424.99,854,770,0
14642195,424.57,854,773,0
14642205,423.07,854,769,0
14642215,421.33,854,772,0
14642225,418.58,854,770,0
14642235,415.66,854,773,0
14642245,412.03,854,769,0
14642255,408.42,854,772,0
14642265,404.14,854,770,0
14642275,400.11,854,773,0
14642285,395.71,854,769,0
14642295,391.89,854,773,0
14642305,387.94,854,770,0
14642315,384.57,854,773,0
14642325,381.14,854,769,0
14642335,378.40,854,773,0
14642345,375.62,854,769,0
14642355,373.42,854,773,0
14642365,370.94,854,769,0
14642375,368.94,854,773,0
14642385,366.77,854,769,0
14642395,365.43,854,773,0
14642405,363.93,854,769,0
14642415,363.05,854,773,0
14642425,362.09,854,769,0
14642435,361.94,854,773,0
14642445,361.70,854,770,0
14642455,361.87,854,773,0
14642465,361.53,854,769,0
14642476,361.63,854,773,0
14642486,361.18,854,768,0
14642496,360.91,854,773,0
14642506,359.95,854,768,0
14642516,359.28,854,773,0
14642526,358.38,854,769,0
14642536,358.27,854,773,0
14642546,358.40,854,769,0
14642556,360.42,854,773,0
14642566,364.03,854,769,0
14642576,370.79,854,773,0
14642586,380.41,854,768,0
14642596,394.52,854,773,0
14642606,412.32,854,769,0
14642616,434.77,854,773,0
14642626,460.16,854,768,0
14642646,488.79,825,767,0
14642649,518.34,825,769,0
14642658,548.54,825,773,0
14642668,576.45,825,768,0
14642678,601.73,825,773,0
14642689,622.17,825,768,0
14642699,637.97,825,773,0
14642709,647.67,825,768,0
14642719,652.18,825,773,0
14642729,650.63,825,769,0
14642739,644.91,825,773,0
14642749,634.61,825,768,0
14642759,621.48,825,773,0
14642769,605.31,825,769,0
14642779,587.73,825,773,0
14642789,568.48,825,768,0
14642799,549.18,825,773,0
14642809,529.41,825,769,0
14642819,510.90,825,773,0
14642829,493.19,825,768,0
14642839,477.58,825,773,0
14642849,463.56,825,769,0
14642860,452.16,825,772,0
14642870,442.60,825,769,0
14642880,435.69,825,772,0
14642890,430.60,825,770,0
14642900,427.80,825,772,0
14642910,426.36,825,769,0
14642920,426.43,825,772,0
14642930,427.07,825,770,0
14642940,428.46,825,773,0
14642950,429.61,825,769,0
14642960,430.71,825,773,0
14642970,430.67,825,770,0
14642980,430.04,825,772,0
14642990,428.27,825,769,0
14643000,426.13,825,773,0
14643010,423.01,825,770,0
14643020,419.53,825,772,0
14643031,415.13,825,770,0
14643041,410.68,825,773,0
14643051,405.76,825,771,0
14643061,400.90,825,773,0
14643072,395.58,825,771,0
14643081,390.65,825,773,0
14643091,385.61,825,771,0
14643101,380.93,825,772,0
14643111,376.62,825,771,0
14643121,372.96,825,773,0
14643131,369.72,825,771,0
14643141,367.23,825,772,0
14643151,365.19,825,771,0
14643161,363.93,825,773,0
14643171,363.10,825,771,0
14643181,362.72,825,772,0
14643191,362.46,825,771,0
14643201,362.67,825,773,0
14643211,362.94,825,771,0
14643221,363.30,825,772,0
14643231,363.51,825,771,0
14643241,363.79,825,772,0
14643251,363.72,825,771,0
14643261,363.72,825,772,0
14643271,363.33,825,771,0
14643281,362.85,825,773,0
14643291,362.16,825,771,0
14643301,361.77,825,772,0
14643311,361.93,825,771,0
14643321,363.36,825,772,0
14643331,366.43,825,771,0
14643341,372.30,825,772,0
14643351,381.59,825,771,0
14643361,395.52,825,772,0
14643372,414.52,825,772,0
14643382,439.05,825,772,0
14643392,468.69,825,772,0
14643402,502.81,825,772,0
14643422,539.94,776,770,0
14643425,577.67,776,771,0
14643435,613.68,776,773,0
14643445,646.31,776,768,0
14643456,674.33,776,773,0
14643465,697.12,776,769,0
14643475,714.48,776,773,0
14643485,726.04,776,769,0
14643495,733.05,776,773,0
14643505,735.61,776,769,0
14643515,734.27,776,773,0
14643525,728.66,776,768,0
14643535,719.25,776,773,0
14643545,705.76,776,769,0
14643555,688.95,776,773,0
14643565,668.65,776,768,0
14643575,646.38,776,773,0
14643585,622.18,776,769,0
14643595,597.48,776,773,0
14643605,572.05,776,768,0
14643615,547.57,776,773,0
14643625,523.95,776,768,0
14643635,502.80,776,773,0
14643645,483.61,776,769,0
14643655,467.62,776,773,0
14643665,454.10,776,768,0
14643675,444.21,776,773,0
14643685,436.61,776,768,0
14643695,432.01,776,773,0
14643705,428.96,776,768,0
14643715,428.12,776,773,0
14643725,428.08,776,768,0
14643735,429.26,776,773,0
14643745,430.17,776,768,0
14643756,431.23,776,773,0
14643766,431.12,776,768,0
14643776,430.57,776,773,0
14643786,428.38,776,768,0
14643796,425.35,776,773,0
14643806,420.66,776,768,0
14643816,415.36,776,773,0
14643826,408.78,776,768,0
14643836,402.21,776,773,0
14643846,394.94,776,768,0
14643856,388.23,776,773,0
14643866,381.26,776,768,0
14643876,375.31,776,773,0
14643886,369.39,776,768,0
14643896,364.69,776,773,0
14643906,360.32,776,768,0
14643916,357.40,776,772,0
14643927,354.71,776,768,0
14643937,353.30,776,773,0
14643947,351.92,776,768,0
14643957,351.69,776,773,0
14643968,351.18,776,768,0
14643977,351.38,776,773,0
14643987,351.01,776,768,0
14643997,351.18,776,773,0
14644007,350.70,776,768,0
14644017,350.62,776,773,0
14644027,349.83,776,768,0
14644037,349.75,776,773,0
14644047,349.53,776,768,0
14644057,350.61,776,773,0
14644067,352.70,776,768,0
14644077,358.06,776,773,0
14644087,366.83,776,767,0
14644097,381.11,776,773,0
14644107,400.96,776,768,0
14644117,428.14,776,773,0
14644127,461.74,776,768,0
14644137,501.12,776,773,0
14644147,542.48,776,768,0
14644157,583.74,776,773,0
14644176,622.22,755,771,0
14644179,656.48,755,772,0
14644188,684.49,755,768,0
14644198,705.90,755,773,0
14644208,720.85,755,768,0
14644218,731.31,755,773,0
14644228,738.63,755,768,0
14644238,743.80,755,773,0
14644248,747.37,755,768,0
14644258,749.88,755,773,0
14644268,751.63,755,767,0
14644278,752.90,755,773,0
14644288,753.78,755,768,0
14644298,753.93,755,773,0
14644308,750.83,755,769,0
14644318,743.64,755,773,0
14644328,730.42,755,768,0
14644338,711.05,755,772,0
14644348,684.76,755,768,0
14644358,652.52,755,772,0
14644368,614.82,755,768,0
14644378,575.32,755,773,0
14644388,535.32,755,769,0
14644398,498.15,755,772,0
14644408,464.16,755,768,0
14644418,435.44,755,772,0
14644428,411.57,755,769,0
14644439,393.65,755,772,0
14644449,380.73,755,769,0
14644459,373.10,755,773,0
14644469,369.12,755,770,0
14644480,368.96,755,772,0
14644489,370.86,755,769,0
14644499,374.46,755,772,0
14644509,377.96,755,770,0
14644519,381.49,755,772,0
14644529,383.70,755,769,0
14644539,385.07,755,772,0
14644549,384.58,755,770,0
14644559,383.08,755,772,0
14644569,379.88,755,769,0
14644579,376.02,755,772,0
14644589,370.91,755,770,0
14644599,365.62,755,772,0
14644609,359.57,755,769,0
14644619,353.95,755,772,0
14644629,348.10,755,770,0
14644639,342.92,755,772,0
14644649,337.93,755,770,0
14644659,333.92,755,772,0
14644669,330.26,755,770,0
14644679,327.83,755,772,0
14644689,325.91,755,770,0
14644699,325.16,755,772,0
14644709,324.73,755,770,0
14644719,325.24,755,772,0
14644729,325.90,755,770,0
14644739,327.30,755,772,0
14644749,328.45,755,770,0
14644759,329.82,755,772,0
14644769,330.56,755,770,0
14644780,331.42,755,772,0
14644790,331.76,755,771,0
14644800,332.65,755,772,0
14644810,333.91,755,771,0
14644820,337.11,755,772,0
14644830,342.95,755,771,0
14644840,353.42,755,772,0
14644850,369.58,755,771,0
14644860,393.06,755,772,0
14644870,423.73,755,771,0
14644880,462.25,755,772,0
14644890,505.12,755,771,0
14644910,549.44,733,769,0
14644913,592.42,733,772,0
14644922,631.81,733,771,0
14644932,665.47,733,772,0
14644942,692.37,733,770,0
14644952,711.37,733,772,0
14644962,724.68,733,771,0
14644972,734.03,733,772,0
14644982,740.54,733,770,0
14644993,745.09,733,773,0
14645003,748.28,733,770,0
14645013,750.55,733,773,0
14645023,752.10,733,769,0
14645033,753.18,733,773,0
14645043,753.94,733,770,0
14645053,754.09,733,772,0
14645063,750.68,733,769,0
14645073,741.99,733,772,0
14645083,726.56,733,770,0
14645093,703.64,733,772,0
14645103,672.63,733,769,0
14645113,634.13,733,772,0
14645123,589.00,733,770,0
14645133,541.22,733,772,0
14645143,493.28,733,769,0
14645153,448.20,733,772,0
14645164,407.47,733,769,0
14645174,373.08,733,772,0
14645184,345.03,733,768,0
14645194,324.24,733,772,0
14645204,309.85,733,768,0
14645214,302.01,733,772,0
14645224,298.84,733,768,0
14645234,300.26,733,772,0
14645244,304.21,733,768,0
14645254,310.53,733,772,0
14645264,317.31,733,768,0
14645274,324.51,733,773,0
14645284,330.48,733,768,0
14645294,335.82,733,772,0
14645304,339.22,733,768,0
14645314,341.43,733,772,0
14645324,341.47,733,768,0
14645335,340.17,733,772,0
14645345,336.95,733,767,0
14645355,332.94,733,772,0
14645365,327.51,733,767,0
14645376,322.13,733,772,0
14645385,316.31,733,767,0
14645395,311.29,733,772,0
14645405,306.31,733,767,0
14645415,302.45,733,771,0
14645425,298.80,733,767,0
14645435,296.46,733,771,0
14645445,294.52,733,767,0
14645455,293.85,733,771,0
14645465,293.21,733,766,0
14645475,293.79,733,771,0
14645485,293.94,733,765,0
14645495,296.14,733,771,0
14645505,299.06,733,766,0
14645515,301.27,733,771,0
14645525,303.93,733,767,0
14645535,309.27,733,772,0
14645545,315.27,733,767,0
14645555,322.90,733,772,0
14645565,329.36,733,768,0
14645575,335.60,733,772,0
14645585,342.66,733,767,0
14645595,349.75,733,772,0
14645605,355.35,733,768,0
14645615,362.45,733,772,0
14645625,372.00,733,767,0
14645635,386.66,733,772,0
14645645,407.20,733,768,0
14645655,435.73,733,773,0
14645665,471.42,733,767,0
14645685,512.14,776,766,0
14645688,554.35,776,770,0
14645697,595.95,776,773,0
14645707,634.19,776,768,0
14645718,667.39,776,772,0
14645727,693.55,776,767,0
14645737,712.28,776,773,0
14645747,725.40,776,768,0
14645757,734.58,776,772,0
14645767,741.00,776,767,0
14645777,745.50,776,773,0
14645787,748.65,776,768,0
14645797,750.86,776,772,0
14645807,752.40,776,767,0
14645817,753.48,776,773,0
14645827,752.48,776,768,0
14645837,747.54,776,772,0
14645847,736.70,776,767,0
14645857,719.05,776,772,0
14645867,693.15,776,767,0
14645877,659.46,776,772,0
14645888,617.92,776,768,0
14645897,571.53,776,773,0
14645907,522.43,776,768,0
14645917,474.04,776,772,0
14645927,427.92,776,769,0
14645937,387.18,776,772,0
14645947,351.99,776,768,0
14645957,323.96,776,772,0
14645967,302.37,776,769,0
14645977,288.12,776,772,0
14645987,279.77,776,768,0
14645997,277.44,776,772,0
14646007,279.19,776,768,0
14646017,284.75,776,772,0
14646027,292.02,776,767,0
14646037,300.80,776,772,0
14646047,309.22,776,768,0
14646057,317.47,776,772,0
14646067,324.01,776,767,0
14646077,329.41,776,772,0
14646087,332.59,776,768,0
14646097,334.21,776,772,0
14646107,333.38,776,767,0
14646117,331.21,776,772,0
14646127,326.99,776,768,0
14646137,321.81,776,772,0
14646147,314.36,776,766,0
14646157,304.31,776,769,0
14646167,293.33,776,766,0
14646177,283.76,776,768,0
14646188,276.25,776,768,0
14646198,272.32,776,771,0
14646208,270.72,776,768,0
14646218,271.58,776,769,0
14646228,275.22,776,768,0
14646238,280.64,776,771,0
14646248,287.35,776,768,0
14646258,292.94,776,771,0
14646268,297.76,776,769,0
14646278,302.85,776,771,0
14646288,308.08,776,768,0
14646298,314.27,776,771,0
14646308,318.05,776,768,0
14646318,320.26,776,771,0
14646328,322.63,776,768,0
14646338,324.37,776,771,0
14646348,325.16,776,769,0
14646359,325.88,776,772,0
14646369,326.00,776,770,0
14646379,328.19,776,772,0
14646389,330.19,776,771,0
14646400,332.15,776,771,0
14646409,334.03,776,770,0
14646419,337.32,776,772,0
14646429,343.40,776,770,0
14646439,354.12,776,771,0
14646449,370.67,776,769,0
14646459,395.15,776,772,0
14646469,427.81,776,771,0
14646489,467.94,803,770,0
14646492,511.88,803,772,0
14646501,556.66,803,771,0
14646511,599.71,803,772,0
14646521,638.88,803,770,0
14646531,671.66,803,772,0
14646541,696.96,803,771,0
14646551,714.67,803,773,0
14646561,727.07,803,770,0
14646572,735.75,803,772,0
14646582,741.82,803,770,0
14646592,746.08,803,773,0
14646602,749.05,803,769,0
14646612,751.14,803,772,0
14646622,751.35,803,770,0
14646632,747.95,803,772,0
14646642,738.96,803,769,0
14646652,723.33,803,772,0
14646662,700.35,803,770,0
14646672,669.99,803,772,0
14646682,632.10,803,769,0
14646692,588.53,803,772,0
14646702,541.70,803,770,0
14646712,494.69,803,772,0
14646722,449.05,803,770,0
14646732,407.00,803,772,0
14646743,369.24,803,769,0
14646753,337.41,803,773,0
14646763,311.40,803,768,0
14646773,292.04,803,772,0
14646784,278.44,803,768,0
14646793,271.24,803,773,0
14646803,268.72,803,769,0
14646813,270.95,803,772,0
14646823,275.89,803,768,0
14646833,283.51,803,773,0
14646843,291.76,803,768,0
14646853,300.66,803,772,0
14646863,308.39,803,768,0
14646873,315.47,803,773,0
14646883,320.47,803,769,0
14646893,324.10,803,772,0
14646903,325.32,803,768,0
14646913,325.13,803,773,0
14646923,322.91,803,768,0
14646933,319.98,803,773,0
14646943,315.57,803,768,0
14646953,311.03,803,773,0
14646963,305.75,803,769,0
14646973,301.07,803,772,0
14646983,296.20,803,768,0
14646993,292.54,803,773,0
14647003,289.08,803,769,0
14647013,286.91,803,772,0
14647023,285.10,803,768,0
14647033,284.60,803,773,0
14647043,284.37,803,769,0
14647053,285.29,803,773,0
14647063,286.19,803,768,0
14647073,288.02,803,773,0
14647084,289.73,803,768,0
14647094,292.08,803,772,0
14647104,293.98,803,768,0
14647114,296.22,803,773,0
14647124,297.95,803,768,0
14647134,299.77,803,773,0
14647144,300.65,803,768,0
14647154,301.57,803,773,0
14647164,301.48,803,768,0
14647174,301.34,803,772,0
14647184,300.08,803,768,0
14647194,298.77,803,773,0
14647204,296.70,803,768,0
14647214,294.90,803,773,0
14647224,292.57,803,768,0
14647234,291.37,803,773,0
14647244,290.96,803,768,0
14647255,293.24,803,773,0
14647265,298.06,803,768,0
14647275,307.55,803,773,0
14647285,321.83,803,768,0
14647296,342.84,803,773,0
14647314,369.59,826,771,0
14647317,403.31,826,773,0
14647327,442.77,826,769,0
14647337,486.99,826,773,0
14647347,532.20,826,769,0
14647357,576.29,826,773,0
14647367,616.53,826,769,0
14647377,652.11,826,772,0
14647387,681.26,826,768,0
14647397,703.56,826,773,0
14647407,717.96,826,769,0
14647417,725.77,826,772,0
14647427,727.47,826,768,0
14647437,723.81,826,773,0
14647447,714.61,826,769,0
14647457,700.24,826,772,0
14647468,680.41,826,769,0
14647478,656.67,826,772,0
14647488,629.39,826,770,0
14647498,599.87,826,772,0
14647508,568.32,826,771,0
14647518,536.17,826,773,0
14647528,503.46,826,771,0
14647538,471.35,826,772,0
14647548,440.22,826,771,0
14647558,411.40,826,772,0
14647568,385.01,826,771,0
14647578,361.99,826,772,0
14647588,342.24,826,771,0
14647598,326.65,826,772,0
14647608,314.93,826,771,0
14647618,307.36,826,772,0
14647628,303.14,826,771,0
14647639,302.24,826,772,0
