Time,PPG,IBI,GSR,GSR_Event
14182002,320.88,843,745,0
14182012,316.88,843,748,0
14182022,310.92,843,745,0
14182032,304.86,843,748,0
14182042,298.17,843,746,0
14182052,292.76,843,748,0
14182062,288.21,843,745,0
14182072,290.29,843,748,0
14182082,297.92,843,746,0
14182092,313.28,843,748,0
14182103,336.60,843,746,0
14182113,370.45,843,748,0
14182132,412.31,844,749,0
14182135,459.49,844,749,0
14182145,508.46,844,749,0
14182155,556.75,844,749,0
14182165,600.92,844,749,0
14182175,638.79,844,749,0
14182185,667.27,844,749,0
14182195,687.29,844,749,0
14182205,701.30,844,749,0
14182215,711.11,844,749,0
14182225,717.98,844,749,0
14182235,722.78,844,749,0
14182245,726.15,844,749,0
14182255,728.50,844,749,0
14182265,730.15,844,749,0
14182275,731.26,844,749,0
14182285,732.04,844,749,0
14182295,732.59,844,749,0
14182305,732.97,844,749,0
14182316,733.19,844,749,0
14182326,730.31,844,750,0
14182336,720.96,844,749,0
14182346,702.84,844,749,0
14182356,674.95,844,748,0
14182366,637.59,844,750,0
14182376,591.43,844,749,0
14182386,537.43,844,749,0
14182396,480.17,844,748,0
14182406,424.58,844,750,0
14182416,374.90,844,749,0
14182426,333.45,844,749,0
14182436,301.30,844,748,0
14182446,278.71,844,750,0
14182456,265.60,844,749,0
14182466,260.79,844,750,0
14182476,262.91,844,748,0
14182487,270.01,844,750,0
14182497,280.33,844,748,0
14182507,292.36,844,750,0
14182517,304.47,844,748,0
14182528,315.60,844,750,0
14182537,324.76,844,748,0
14182547,331.43,844,750,0
14182557,335.16,844,748,0
14182567,336.36,844,750,0
14182577,335.01,844,748,0
14182587,331.62,844,749,0
14182597,326.25,844,748,0
14182607,319.74,844,750,0
14182617,312.71,844,748,0
14182627,305.85,844,750,0
14182637,299.34,844,748,0
14182647,293.62,844,750,0
14182657,289.11,844,748,0
14182667,286.08,844,750,0
14182677,284.21,844,748,0
14182687,283.55,844,750,0
14182697,283.90,844,748,0
14182707,285.34,844,750,0
14182717,287.34,844,748,0
14182727,289.77,844,750,0
14182737,292.36,844,748,0
14182747,295.30,844,750,0
14182757,298.17,844,748,0
14182767,301.03,844,750,0
14182777,303.46,844,748,0
14182787,305.60,844,749,0
14182797,307.43,844,748,0
14182807,309.10,844,750,0
14182817,310.44,844,748,0
14182828,311.85,844,750,0
14182838,313.01,844,749,0
14182848,314.21,844,750,0
14182858,315.47,844,749,0
14182868,316.87,844,749,0
14182878,318.24,844,749,0
14182888,319.50,844,750,0
14182898,320.03,844,749,0
14182908,320.54,844,749,0
14182918,320.72,844,749,0
14182928,321.49,844,750,0
14182938,323.40,844,749,0
14182948,328.38,844,750,0
14182958,337.91,844,748,0
14182968,354.61,844,750,0
14182987,380.35,855,749,0
14182990,416.20,855,749,0
14183000,458.27,855,747,0
14183010,503.79,855,750,0
14183020,549.54,855,747,0
14183030,593.13,855,750,0
14183041,631.58,855,747,0
14183051,662.09,855,750,0
14183061,683.45,855,747,0
14183071,698.44,855,750,0
14183081,708.94,855,747,0
14183091,716.33,855,750,0
14183101,721.54,855,747,0
14183111,725.24,855,750,0
14183121,727.78,855,747,0
14183131,729.56,855,750,0
14183141,730.81,855,747,0
14183151,731.72,855,750,0
14183161,732.32,855,748,0
14183171,732.74,855,750,0
14183181,733.03,855,747,0
14183191,733.28,855,750,0
14183201,733.45,855,748,0
14183212,733.57,855,750,0
14183222,729.29,855,748,0
14183232,717.84,855,749,0
14183242,696.85,855,748,0
14183252,665.99,855,749,0
14183262,625.50,855,748,0
14183272,576.70,855,749,0
14183282,520.39,855,748,0
14183292,462.93,855,750,0
14183302,408.18,855,748,0
14183312,360.64,855,749,0
14183322,321.66,855,748,0
14183332,292.58,855,749,0
14183342,272.39,855,748,0
14183352,261.39,855,749,0
14183362,257.50,855,748,0
14183372,260.14,855,749,0
14183383,266.69,855,749,0
14183393,276.13,855,749,0
14183403,286.38,855,749,0
14183413,296.85,855,749,0
14183424,306.02,855,749,0
14183433,313.73,855,749,0
14183443,319.00,855,749,0
14183453,322.17,855,749,0
14183463,322.89,855,749,0
14183473,321.85,855,749,0
14183483,318.94,855,749,0
14183493,315.06,855,749,0
14183503,310.15,855,749,0
14183513,305.31,855,749,0
14183523,300.42,855,749,0
14183533,296.31,855,749,0
14183543,292.70,855,749,0
14183553,290.39,855,749,0
14183563,288.77,855,749,0
14183573,288.33,855,749,0
14183583,288.36,855,749,0
14183593,289.28,855,749,0
14183603,290.48,855,749,0
14183613,292.27,855,749,0
14183623,294.11,855,749,0
14183633,296.14,855,749,0
14183643,298.07,855,749,0
14183653,300.19,855,749,0
14183663,302.02,855,749,0
14183673,304.03,855,749,0
14183683,305.69,855,749,0
14183693,307.33,855,749,0
14183703,308.73,855,749,0
14183713,310.22,855,749,0
14183724,311.40,855,749,0
14183734,312.65,855,748,0
14183744,313.57,855,749,0
14183754,314.60,855,748,0
14183764,315.32,855,749,0
14183774,316.08,855,749,0
14183784,316.49,855,750,0
14183794,316.81,855,748,0
14183804,316.95,855,750,0
14183814,317.14,855,749,0
14183824,317.53,855,750,0
14183834,319.08,855,749,0
14183844,323.09,855,750,0
14183854,331.29,855,748,0
14183864,345.82,855,750,0
14183883,369.27,896,749,0
14183886,403.48,896,750,0
14183896,444.86,896,747,0
14183906,490.42,896,750,0
14183916,537.14,896,747,0
14183926,582.35,896,750,0
14183937,623.09,896,747,0
14183947,656.23,896,750,0
14183957,679.44,896,747,0
14183967,695.72,896,750,0
14183977,707.07,896,746,0
14183987,715.07,896,750,0
14183997,720.62,896,747,0
14184007,724.55,896,750,0
14184017,727.25,896,746,0
14184027,729.15,896,750,0
14184037,730.48,896,747,0
14184047,731.45,896,750,0
14184057,732.08,896,747,0
14184067,732.57,896,750,0
14184077,732.92,896,747,0
14184087,733.20,896,750,0
14184097,733.35,896,747,0
14184108,733.46,896,750,0
14184118,730.41,896,747,0
14184128,720.99,896,749,0
14184138,702.30,896,747,0
14184148,673.84,896,750,0
14184158,635.45,896,747,0
14184168,588.47,896,750,0
14184178,533.56,896,747,0
14184188,475.88,896,750,0
14184198,419.77,896,746,0
14184208,370.30,896,750,0
14184218,328.94,896,747,0
14184228,297.58,896,750,0
14184238,275.25,896,747,0
14184248,262.36,896,750,0
14184258,256.85,896,747,0
14184268,258.35,896,750,0
14184279,264.12,896,747,0
14184289,273.38,896,750,0
14184299,283.68,896,747,0
14184309,294.71,896,750,0
14184320,304.52,896,747,0
14184329,313.19,896,749,0
14184339,319.18,896,747,0
14184349,323.24,896,750,0
14184359,324.58,896,747,0
14184369,324.19,896,750,0
14184379,321.56,896,747,0
14184389,318.18,896,750,0
14184399,313.54,896,747,0
14184409,309.14,896,750,0
14184419,304.21,896,747,0
14184429,300.16,896,750,0
14184439,296.30,896,748,0
14184449,293.85,896,750,0
14184459,291.75,896,747,0
14184469,291.06,896,750,0
14184479,290.65,896,748,0
14184489,291.57,896,750,0
14184499,292.60,896,747,0
14184509,294.56,896,750,0
14184519,296.41,896,748,0
14184529,298.90,896,750,0
14184539,301.03,896,747,0
14184549,303.68,896,750,0
14184559,305.79,896,748,0
14184569,308.21,896,749,0
14184579,309.99,896,747,0
14184589,312.01,896,749,0
14184599,313.12,896,748,0
14184609,314.37,896,749,0
14184620,314.99,896,748,0
14184630,316.02,896,749,0
14184640,316.61,896,748,0
14184650,317.67,896,749,0
14184660,318.28,896,748,0
14184670,319.44,896,749,0
14184680,320.12,896,748,0
14184690,321.03,896,750,0
14184700,321.28,896,748,0
14184710,321.58,896,749,0
14184720,321.19,896,748,0
14184730,320.92,896,749,0
14184740,320.86,896,748,0
14184750,322.49,896,749,0
14184760,326.54,896,748,0
14184770,335.72,896,749,0
14184780,351.75,896,748,0
14184800,377.71,917,748,0
14184803,413.54,917,750,0
14184813,455.93,917,748,0
14184823,501.77,917,750,0
14184833,548.42,917,748,0
14184843,592.57,917,750,0
14184853,631.48,917,748,0
14184863,661.98,917,749,0
14184873,683.33,917,747,0
14184883,698.32,917,750,0
14184893,708.81,917,748,0
14184903,716.19,917,750,0
14184913,721.36,917,748,0
14184923,725.03,917,750,0
14184933,727.63,917,748,0
14184943,729.50,917,749,0
14184953,730.76,917,748,0
14184963,731.65,917,750,0
14184973,732.23,917,748,0
14184983,732.67,917,750,0
14184993,732.94,917,747,0
14185004,731.07,917,750,0
14185014,723.17,917,747,0
14185024,707.22,917,749,0
14185034,681.74,917,746,0
14185044,647.02,917,750,0
14185054,603.60,917,747,0
14185064,552.67,917,750,0
14185074,497.10,917,747,0
14185084,442.77,917,750,0
14185094,393.00,917,747,0
14185104,351.04,917,749,0
14185114,317.43,917,747,0
14185124,293.13,917,750,0
14185134,277.40,917,747,0
14185144,270.25,917,750,0
14185154,269.71,917,747,0
14185164,274.81,917,750,0
14185175,283.18,917,747,0
14185185,294.05,917,749,0
14185195,305.14,917,747,0
14185205,316.03,917,750,0
14185216,325.02,917,747,0
14185225,332.17,917,750,0
14185235,336.40,917,746,0
14185245,338.34,917,750,0
14185255,337.21,917,746,0
14185265,334.10,917,749,0
14185275,328.72,917,747,0
14185285,322.54,917,750,0
14185295,315.22,917,747,0
14185305,308.34,917,750,0
14185315,301.55,917,747,0
14185325,296.16,917,750,0
14185335,291.48,917,747,0
14185345,288.60,917,749,0
14185355,286.62,917,747,0
14185365,286.22,917,750,0
14185375,286.28,917,747,0
14185385,287.57,917,750,0
14185395,289.20,917,746,0
14185405,291.92,917,750,0
14185415,294.52,917,747,0
14185425,297.58,917,750,0
14185435,300.40,917,747,0
14185445,303.54,917,750,0
14185455,306.08,917,747,0
14185465,308.67,917,750,0
14185475,310.40,917,747,0
14185485,312.21,917,750,0
14185495,313.04,917,746,0
14185505,313.80,917,749,0
14185516,313.73,917,746,0
14185526,313.94,917,750,0
14185536,313.57,917,747,0
14185546,313.70,917,750,0
14185556,313.32,917,747,0
14185566,313.70,917,750,0
14185576,313.74,917,747,0
14185586,314.51,917,749,0
14185596,314.74,917,747,0
14185606,315.55,917,750,0
14185616,315.81,917,747,0
14185626,316.42,917,750,0
14185636,316.38,917,747,0
14185646,316.70,917,750,0
14185656,316.66,917,746,0
14185666,317.92,917,749,0
14185676,320.51,917,747,0
14185687,327.09,917,750,0
14185697,338.89,917,747,0
14185707,359.32,917,750,0
14185717,389.95,917,747,0
14185737,429.23,936,747,0
14185740,473.47,936,750,0
14185750,520.34,936,749,0
14185760,566.40,936,749,0
14185771,609.14,936,749,0
14185780,645.01,936,749,0
14185790,671.54,936,749,0
14185800,690.15,936,750,0
14185810,703.22,936,750,0
14185820,712.37,936,749,0
14185830,718.81,936,749,0
14185840,723.37,936,750,0
14185850,726.56,936,749,0
14185860,728.79,936,749,0
14185870,730.35,936,749,0
14185880,731.45,936,749,0
14185890,732.21,936,749,0
14185900,732.75,936,749,0
14185910,733.12,936,749,0
14185920,733.39,936,750,0
14185930,733.57,936,749,0
14185940,733.70,936,750,0
14185950,733.79,936,749,0
14185960,733.85,936,750,0
14185970,729.78,936,749,0
14185980,718.41,936,750,0
14185990,698.35,936,749,0
14186000,668.89,936,749,0
14186010,630.31,936,749,0
14186020,583.50,936,750,0
14186030,529.95,936,749,0
14186040,474.98,936,749,0
14186050,423.51,936,749,0
14186060,378.19,936,750,0
14186071,341.06,936,749,0
14186081,312.76,936,750,0
14186091,293.24,936,748,0
14186101,281.51,936,750,0
14186112,276.56,936,748,0
14186121,276.69,936,750,0
14186131,280.56,936,748,0
14186141,286.77,936,750,0
14186151,294.34,936,748,0
14186161,302.43,936,750,0
14186171,310.57,936,747,0
14186181,318.80,936,750,0
14186191,326.74,936,744,0
14186201,334.66,936,746,0
14186211,341.88,936,737,0
14186221,348.17,936,735,0
14186231,352.88,936,738,0
14186241,355.40,936,740,0
14186251,355.24,936,742,0
14186261,351.99,936,748,0
14186271,346.38,936,736,0
14186281,339.37,936,739,0
14186291,331.89,936,739,0
14186301,324.38,936,746,0
14186311,317.71,936,746,0
14186321,312.01,936,749,0
14186331,308.45,936,748,0
14186341,306.04,936,750,0
14186351,304.74,936,748,0
14186361,303.84,936,750,0
14186371,303.76,936,749,0
14186381,303.96,936,750,0
14186391,304.74,936,748,0
14186401,305.51,936,750,0
14186412,306.47,936,748,0
14186422,307.61,936,750,0
14186432,309.01,936,748,0
14186442,310.51,936,749,0
14186452,312.11,936,748,0
14186462,313.71,936,750,0
14186472,315.38,936,748,0
14186482,316.90,936,749,0
14186492,317.96,936,748,0
14186502,318.61,936,750,0
14186512,318.90,936,747,0
14186522,318.97,936,749,0
14186532,318.60,936,748,0
14186542,317.60,936,750,0
14186552,316.18,936,748,0
14186562,314.28,936,750,0
14186572,311.80,936,748,0
14186583,308.69,936,750,0
14186593,304.92,936,748,0
14186603,301.00,936,749,0
14186613,297.15,936,747,0
14186624,294.49,936,750,0
14186633,293.83,936,748,0
14186643,297.09,936,750,0
14186653,305.81,936,748,0
14186663,322.92,936,750,0
14186673,349.77,936,748,0
14186692,388.07,956,746,0
14186695,433.26,956,749,0
14186705,482.47,956,750,0
14186715,532.17,956,747,0
14186725,579.69,956,750,0
14186735,621.36,956,748,0
14186745,655.02,956,750,0
14186755,678.59,956,736,0
14186765,695.17,956,740,0
14186775,706.77,956,743,0
14186785,714.94,956,747,0
14186796,720.66,956,735,0
14186806,724.75,956,737,0
14186816,727.61,956,735,0
14186826,729.65,956,736,0
14186836,731.04,956,734,0
14186846,732.06,956,735,0
14186856,732.77,956,734,0
14186866,733.31,956,735,0
14186876,733.65,956,734,0
14186886,733.92,956,736,0
14186896,734.08,956,734,0
14186906,734.22,956,736,0
14186916,734.29,956,734,0
14186926,734.37,956,736,0
14186936,730.66,956,734,0
14186946,720.09,956,736,0
14186956,699.49,956,734,0
14186967,669.00,956,736,0
14186977,627.94,956,734,0
14186987,578.08,956,735,0
14186997,519.98,956,734,0
14187008,459.64,956,736,0
14187017,400.95,956,734,0
14187027,349.19,956,735,0
14187037,304.95,956,734,0
14187047,270.81,956,736,0
14187057,245.24,956,734,0
14187067,229.22,956,735,0
14187077,220.50,956,734,0
14187087,219.36,956,735,0
14187097,223.03,956,734,0
14187107,231.50,956,735,0
14187117,241.98,956,734,0
14187127,254.59,956,736,0
14187137,266.80,956,734,0
14187147,278.94,956,735,0
14187157,289.03,956,734,0
14187167,298.11,956,735,0
14187177,304.85,956,734,0
14187187,310.72,956,735,0
14187197,314.58,956,734,0
14187207,318.22,956,735,0
14187217,320.51,956,734,0
14187227,323.01,956,735,0
14187237,324.47,956,734,0
14187247,326.17,956,736,0
14187257,326.80,956,734,0
14187267,327.93,956,735,0
14187277,327.95,956,734,0
14187287,328.10,956,735,0
14187297,327.12,956,734,0
14187308,326.53,956,735,0
14187318,325.21,956,734,0
14187328,324.46,956,735,0
14187338,323.25,956,734,0
14187348,322.71,956,735,0
14187358,322.02,956,734,0
14187368,322.32,956,736,0
14187378,322.35,956,734,0
14187388,323.10,956,735,0
14187398,323.46,956,734,0
14187408,324.18,956,736,0
14187418,324.21,956,734,0
14187428,324.45,956,735,0
14187438,323.88,956,734,0
14187448,323.66,956,736,0
14187458,322.65,956,734,0
14187468,322.24,956,735,0
14187479,322.08,956,734,0
14187489,324.29,956,735,0
14187499,329.51,956,734,0
14187509,340.55,956,735,0
14187520,358.73,956,735,0
14187538,386.71,846,734,0
14187541,423.70,846,736,0
14187551,466.77,846,734,0
14187561,512.48,846,735,0
14187571,558.32,846,735,0
14187581,601.08,846,735,0
14187591,638.13,846,735,0
14187601,666.98,846,735,0
14187611,687.17,846,735,0
14187621,701.35,846,735,0
14187631,711.27,846,735,0
14187641,718.26,846,735,0
14187651,723.11,846,735,0
14187661,726.55,846,735,0
14187671,728.91,846,735,0
14187681,730.61,846,735,0
14187692,731.76,846,735,0
14187702,732.60,846,735,0
14187712,733.15,846,735,0
14187722,730.49,846,735,0
14187732,720.79,846,735,0
14187742,703.02,846,735,0
14187752,675.80,846,735,0
14187762,639.65,846,735,0
14187772,594.75,846,735,0
14187782,542.76,846,735,0
14187792,487.59,846,735,0
14187802,434.95,846,735,0
14187812,387.14,846,735,0
14187822,347.28,846,735,0
14187832,316.08,846,735,0
14187842,294.67,846,735,0
14187852,281.79,846,736,0
14187863,277.52,846,735,0
14187873,279.59,846,735,0
14187883,287.43,846,735,0
14187893,298.27,846,734,0
14187904,311.43,846,736,0
14187913,324.37,846,735,0
14187923,336.95,846,735,0
14187933,346.86,846,735,0
14187943,354.79,846,736,0
14187953,359.05,846,735,0
14187963,360.97,846,735,0
14187973,359.09,846,734,0
14187983,355.16,846,736,0
14187993,348.34,846,734,0
14188003,340.53,846,735,0
14188013,330.94,846,734,0
14188023,321.44,846,736,0
14188033,311.41,846,734,0
14188043,302.67,846,735,0
14188053,294.33,846,734,0
14188063,287.93,846,736,0
14188073,282.47,846,734,0
14188083,279.37,846,735,0
14188093,277.33,846,734,0
14188103,277.49,846,736,0
14188113,278.33,846,734,0
14188123,281.01,846,735,0
14188133,284.01,846,734,0
14188143,288.38,846,736,0
14188153,292.42,846,734,0
14188163,297.35,846,735,0
14188173,301.66,846,734,0
14188183,306.56,846,736,0
14188193,310.51,846,734,0
14188204,314.68,846,735,0
14188214,317.74,846,734,0
14188224,320.94,846,736,0
14188234,322.72,846,734,0
14188244,324.35,846,735,0
14188254,324.67,846,734,0
14188264,325.24,846,736,0
14188274,325.13,846,734,0
14188284,326.42,846,735,0
14188294,328.95,846,734,0
14188304,336.25,846,736,0
14188314,348.90,846,734,0
14188324,370.88,846,735,0
14188334,402.54,846,734,0
14188344,442.32,846,736,0
14188363,486.37,825,734,0
14188366,532.67,825,735,0
14188376,577.43,825,734,0
14188386,618.66,825,736,0
14188396,652.36,825,735,0
14188406,676.98,825,735,0
14188417,694.21,825,734,0
14188427,706.32,825,736,0
14188437,714.84,825,734,0
14188447,720.84,825,735,0
14188457,725.05,825,734,0
14188467,728.03,825,736,0
14188477,730.12,825,734,0
14188487,731.59,825,735,0
14188497,732.61,825,735,0
14188507,733.33,825,736,0
14188517,733.83,825,734,0
14188527,734.18,825,735,0
14188537,734.43,825,734,0
14188547,734.60,825,736,0
14188557,734.68,825,734,0
14188567,734.73,825,735,0
14188577,732.58,825,735,0
14188588,724.69,825,735,0
14188598,708.41,825,734,0
14188608,682.70,825,735,0
14188618,647.48,825,735,0
14188628,603.75,825,735,0
14188638,552.65,825,735,0
14188648,497.90,825,735,0
14188658,444.40,825,735,0
14188668,396.32,825,735,0
14188678,355.98,825,735,0
14188688,324.75,825,735,0
14188698,302.28,825,735,0
14188708,288.18,825,735,0
14188718,281.01,825,734,0
14188728,279.81,825,735,0
14188738,282.87,825,735,0
14188748,288.69,825,735,0
14188759,295.73,825,735,0
14188769,302.97,825,735,0
14188779,309.49,825,735,0
14188789,314.70,825,735,0
14188800,318.22,825,735,0
14188809,319.87,825,735,0
14188819,319.82,825,735,0
14188829,318.08,825,735,0
14188839,315.48,825,735,0
14188849,311.95,825,735,0
14188859,308.28,825,735,0
14188869,304.38,825,735,0
14188879,301.01,825,735,0
14188889,298.14,825,735,0
14188899,296.17,825,735,0
14188909,294.62,825,735,0
14188919,293.96,825,735,0
14188929,293.93,825,735,0
14188939,294.76,825,735,0
14188949,295.95,825,735,0
14188959,297.76,825,735,0
14188969,299.81,825,735,0
14188979,302.39,825,735,0
14188989,304.85,825,735,0
14188999,307.46,825,735,0
14189009,309.94,825,734,0
14189019,312.70,825,735,0
14189029,315.23,825,735,0
14189039,317.95,825,735,0
14189049,320.06,825,735,0
14189059,322.14,825,735,0
14189069,323.60,825,735,0
14189079,324.71,825,735,0
14189089,325.05,825,735,0
14189100,325.68,825,735,0
14189110,327.02,825,735,0
14189120,331.38,825,735,0
14189130,340.23,825,735,0
14189140,356.57,825,735,0
14189150,381.90,825,735,0
14189169,417.37,806,734,0
14189172,459.22,806,734,0
14189182,504.84,806,736,0
14189192,550.87,806,734,0
14189202,594.75,806,736,0
14189212,632.97,806,734,0
14189222,663.45,806,736,0
14189232,684.79,806,734,0
14189242,699.77,806,736,0
14189252,710.21,806,734,0
14189262,717.56,806,736,0
14189272,722.71,806,734,0
14189282,726.35,806,736,0
14189292,728.86,806,734,0
14189302,730.62,806,735,0
14189313,731.80,806,734,0
14189323,732.68,806,735,0
14189333,733.24,806,734,0
14189343,733.64,806,736,0
14189353,733.92,806,734,0
14189363,734.16,806,736,0
14189373,734.28,806,734,0
14189383,734.41,806,735,0
14189393,730.82,806,734,0
14189403,721.31,806,736,0
14189413,702.79,806,734,0
14189423,675.08,806,735,0
14189433,637.64,806,734,0
14189443,592.11,806,736,0
14189453,538.80,806,734,0
14189463,483.28,806,735,0
14189473,428.72,806,734,0
14189484,380.46,806,736,0
14189494,339.57,806,734,0
14189504,308.37,806,735,0
14189514,285.67,806,734,0
14189524,272.27,806,736,0
14189534,266.02,806,734,0
14189544,266.61,806,735,0
14189554,271.19,806,734,0
14189564,279.36,806,736,0
14189574,288.42,806,734,0
14189584,298.15,806,735,0
14189594,306.25,806,734,0
14189604,313.46,806,736,0
14189614,318.21,806,734,0
14189624,321.49,806,735,0
14189634,322.03,806,734,0
14189644,321.21,806,736,0
14189655,318.19,806,734,0
14189665,314.62,806,735,0
14189675,309.63,806,734,0
14189685,304.68,806,735,0
14189696,299.17,806,734,0
14189705,294.40,806,735,0
14189715,289.78,806,734,0
14189725,286.42,806,735,0
14189735,283.68,806,734,0
14189745,282.45,806,735,0
14189755,281.93,806,734,0
14189765,282.81,806,735,0
14189775,284.11,806,734,0
14189785,286.35,806,735,0
14189795,288.64,806,734,0
14189805,291.71,806,735,0
14189815,294.49,806,734,0
14189825,297.69,806,735,0
14189835,300.44,806,734,0
14189845,303.56,806,735,0
14189855,306.22,806,734,0
14189865,309.24,806,735,0
14189875,311.57,806,734,0
14189885,314.10,806,736,0
14189895,316.00,806,734,0
14189905,317.88,806,735,0
14189915,319.08,806,734,0
14189925,320.30,806,736,0
14189935,320.85,806,734,0
14189945,321.24,806,735,0
14189955,320.91,806,734,0
14189965,320.72,806,735,0
14189975,320.33,806,734,0
14189985,321.13,806,735,0
14189996,323.84,806,734,0
14190006,330.91,806,735,0
14190016,344.40,806,734,0
14190026,367.29,806,735,0
14190046,401.02,876,734,0
14190049,442.41,876,735,0
14190058,488.10,876,735,0
14190068,535.47,876,734,0
14190078,581.27,876,735,0
14190088,622.63,876,735,0
14190098,656.22,876,735,0
14190108,679.72,876,735,0
14190118,696.22,876,735,0
14190128,707.77,876,735,0
14190138,715.89,876,735,0
14190148,721.54,876,735,0
14190158,725.49,876,735,0
14190168,728.26,876,735,0
14190178,730.24,876,735,0
14190188,731.58,876,735,0
14190198,732.52,876,735,0
14190209,733.18,876,735,0
14190219,733.68,876,735,0
14190229,733.99,876,735,0
14190239,734.21,876,735,0
14190249,734.36,876,735,0
14190259,734.51,876,735,0
14190269,734.57,876,735,0
14190279,730.93,876,735,0
14190289,719.64,876,734,0
14190299,699.77,876,735,0
14190309,670.10,876,734,0
14190319,631.33,876,735,0
14190329,583.70,876,734,0
14190339,529.19,876,735,0
14190349,472.30,876,734,0
14190359,419.03,876,735,0
14190369,371.28,876,734,0
14190380,332.32,876,735,0
14190390,301.97,876,734,0
14190400,281.41,876,735,0
14190410,268.64,876,734,0
14190420,263.73,876,735,0
14190430,264.03,876,734,0
14190440,269.12,876,735,0
14190450,276.11,876,734,0
14190460,284.82,876,735,0
14190470,292.93,876,734,0
14190480,300.84,876,735,0
14190490,306.46,876,734,0
14190500,311.04,876,735,0
14190510,313.12,876,734,0
14190520,314.16,876,735,0
14190530,313.17,876,734,0
14190540,311.83,876,735,0
14190551,309.23,876,734,0
14190561,307.40,876,736,0
14190571,305.14,876,734,0
14190581,304.07,876,736,0
14190592,302.98,876,734,0
14190601,303.37,876,736,0
14190611,303.64,876,734,0
14190621,304.99,876,735,0
14190631,305.94,876,734,0
14190641,307.80,876,735,0
14190651,309.19,876,734,0
14190661,311.32,876,736,0
14190671,312.47,876,734,0
14190681,314.00,876,735,0
14190691,314.60,876,734,0
14190701,315.66,876,736,0
14190711,315.59,876,734,0
14190721,315.76,876,735,0
14190731,314.80,876,734,0
14190741,314.30,876,736,0
14190751,312.97,876,734,0
14190761,312.29,876,735,0
14190771,310.71,876,734,0
14190781,309.94,876,736,0
14190791,308.63,876,734,0
14190801,308.27,876,735,0
14190811,307.42,876,734,0
14190821,307.46,876,736,0
14190831,307.07,876,734,0
14190841,307.69,876,735,0
14190851,307.83,876,734,0
14190861,308.82,876,736,0
14190871,309.09,876,734,0
14190881,310.09,876,735,0
14190892,310.58,876,734,0
14190902,312.80,876,736,0
14190912,316.63,876,734,0
14190922,325.32,876,735,0
14190932,339.88,876,734,0
14190951,364.09,906,733,0
14190954,398.77,906,735,0
14190964,441.27,906,735,0
14190974,487.65,906,734,0
14190984,535.71,906,735,0
14190994,581.74,906,735,0
14191004,623.22,906,735,0
14191014,656.67,906,734,0
14191024,680.12,906,736,0
14191034,696.59,906,734,0
14191044,708.11,906,735,0
14191054,716.18,906,734,0
14191064,721.82,906,736,0
14191074,725.78,906,734,0
14191084,728.54,906,735,0
14191094,730.48,906,734,0
14191105,731.84,906,735,0
14191115,732.79,906,735,0
14191125,733.45,906,735,0
14191135,733.91,906,735,0
14191145,734.24,906,735,0
14191155,734.47,906,735,0
14191165,734.63,906,735,0
14191175,734.74,906,735,0
14191185,734.82,906,735,0
14191195,732.73,906,735,0
14191205,724.50,906,735,0
14191215,707.42,906,735,0
14191225,680.42,906,735,0
14191235,643.91,906,734,0
14191245,598.51,906,735,0
14191255,545.30,906,734,0
14191265,487.95,906,735,0
14191276,432.17,906,735,0
14191286,382.06,906,734,0
14191296,340.30,906,735,0
14191306,307.47,906,735,0
14191316,284.10,906,735,0
14191326,269.45,906,735,0
14191336,262.59,906,735,0
14191346,261.64,906,735,0
14191356,265.22,906,735,0
14191366,271.37,906,734,0
14191376,278.97,906,735,0
14191386,286.39,906,735,0
14191396,293.39,906,735,0
14191406,298.80,906,734,0
14191416,302.89,906,735,0
14191426,305.19,906,735,0
14191436,306.29,906,735,0
14191447,305.82,906,734,0
14191457,304.59,906,735,0
14191467,301.97,906,735,0
14191477,299.15,906,735,0
14191488,295.50,906,734,0
14191497,292.18,906,735,0
14191507,288.66,906,735,0
14191517,286.02,906,735,0
14191527,283.74,906,734,0
14191537,282.96,906,735,0
14191547,282.76,906,735,0
14191557,284.29,906,735,0
14191567,286.43,906,734,0
14191577,289.86,906,735,0
14191587,293.50,906,734,0
14191597,298.02,906,735,0
14191607,302.34,906,734,0
14191617,307.17,906,735,0
14191627,311.40,906,735,0
14191637,315.87,906,735,0
14191647,319.51,906,734,0
14191657,323.30,906,735,0
14191667,326.08,906,735,0
14191677,328.54,906,735,0
14191687,329.75,906,734,0
14191697,330.64,906,735,0
14191707,330.45,906,735,0
14191717,330.27,906,735,0
14191727,329.20,906,734,0
14191737,328.37,906,735,0
14191747,327.06,906,735,0
14191757,326.23,906,735,0
14191767,324.96,906,734,0
14191777,324.29,906,735,0
14191788,323.00,906,734,0
14191798,322.19,906,735,0
14191808,320.63,906,734,0
14191818,319.54,906,735,0
14191828,317.96,906,734,0
14191838,317.50,906,735,0
14191848,317.70,906,734,0
14191858,321.60,906,735,0
14191868,329.95,906,734,0
14191878,346.29,906,735,0
14191888,372.09,906,734,0
14191898,408.58,906,735,0
14191908,451.48,906,734,0
14191927,498.48,976,733,0
14191930,545.78,976,735,0
14191939,590.97,976,735,0
14191949,630.54,976,734,0
14191959,661.79,976,736,0
14191969,683.62,976,734,0
14191979,698.95,976,735,0
14191989,709.68,976,734,0
14192000,717.23,976,736,0
14192009,722.52,976,734,0
14192019,726.22,976,735,0
14192029,728.81,976,734,0
14192039,730.67,976,736,0
14192049,731.97,976,734,0
14192059,732.88,976,735,0
14192069,733.51,976,734,0
14192079,733.96,976,736,0
14192089,734.27,976,734,0
14192099,734.49,976,735,0
14192109,734.64,976,734,0
14192119,733.16,976,736,0
14192129,725.79,976,734,0
14192139,710.25,976,735,0
14192149,684.68,976,734,0
14192159,649.59,976,735,0
14192169,605.01,976,734,0
14192179,552.94,976,735,0
14192189,495.78,976,734,0
14192199,440.26,976,736,0
14192209,389.61,976,734,0
14192219,347.86,976,735,0
14192229,314.94,976,734,0
14192239,292.67,976,736,0
14192249,279.01,976,734,0
14192259,274.25,976,735,0
14192269,275.38,976,734,0
14192279,281.99,976,735,0
14192289,290.91,976,734,0
14192300,302.04,976,735,0
14192310,312.44,976,734,0
14192320,322.34,976,735,0
14192330,329.56,976,734,0
14192340,335.18,976,735,0
14192350,337.78,976,734,0
14192360,338.75,976,735,0
14192370,337.02,976,734,0
14192380,334.23,976,735,0
14192390,329.66,976,734,0
14192400,325.05,976,736,0
14192410,319.46,976,734,0
14192420,314.40,976,735,0
14192430,309.13,976,734,0
14192440,305.11,976,735,0
14192450,301.35,976,734,0
14192460,299.27,976,735,0
14192471,297.60,976,734,0
14192481,297.59,976,735,0
14192491,298.02,976,734,0
14192501,299.81,976,735,0
14192512,301.75,976,734,0
14192521,304.87,976,736,0
14192531,307.61,976,734,0
14192541,311.11,976,735,0
14192551,313.99,976,734,0
14192561,317.30,976,735,0
14192571,319.86,976,734,0
14192581,322.52,976,735,0
14192591,324.33,976,734,0
14192601,326.33,976,735,0
14192611,327.52,976,734,0
14192621,328.69,976,735,0
14192631,328.96,976,734,0
14192641,329.40,976,735,0
14192651,329.32,976,734,0
14192661,329.52,976,735,0
14192671,328.98,976,734,0
14192681,328.52,976,735,0
14192691,327.50,976,734,0
14192701,326.84,976,735,0
14192711,325.69,976,734,0
14192721,325.40,976,735,0
14192731,325.96,976,734,0
14192741,330.17,976,735,0
14192751,339.29,976,734,0
14192761,356.65,976,735,0
14192771,383.41,976,734,0
14192790,420.10,863,733,0
14192793,462.80,863,735,0
14192803,509.10,863,735,0
14192813,555.49,863,735,0
14192823,599.31,863,735,0
14192833,636.98,863,734,0
14192843,666.34,863,735,0
14192854,686.90,863,735,0
14192863,701.33,863,735,0
14192873,711.43,863,734,0
14192883,718.50,863,735,0
14192893,723.45,863,735,0
14192903,726.92,863,735,0
14192913,729.34,863,734,0
14192923,731.04,863,735,0
14192933,732.23,863,735,0
14192943,733.06,863,735,0
14192953,733.64,863,734,0
14192963,734.05,863,735,0
14192973,734.33,863,735,0
14192983,734.53,863,735,0
14192993,734.67,863,734,0
14193003,733.53,863,735,0
14193013,726.64,863,735,0
14193024,711.11,863,735,0
14193033,686.05,863,734,0
14193043,650.97,863,735,0
14193053,606.50,863,735,0
14193063,553.59,863,735,0
14193073,495.17,863,734,0
14193083,437.48,863,735,0
14193093,385.13,863,735,0
14193103,340.48,863,735,0
14193113,305.36,863,734,0
14193123,280.23,863,735,0
14193133,264.86,863,735,0
14193143,258.04,863,735,0
14193153,258.03,863,734,0
14193163,263.21,863,735,0
14193173,271.97,863,735,0
14193183,282.57,863,735,0
14193193,293.58,863,734,0
14193203,303.87,863,735,0
14193213,312.61,863,735,0
14193223,319.32,863,735,0
14193233,323.86,863,734,0
14193243,326.00,863,735,0
14193253,326.17,863,735,0
14193263,324.45,863,735,0
14193273,321.44,863,735,0
14193283,317.45,863,735,0
14193293,313.12,863,735,0
14193303,308.58,863,735,0
14193313,304.42,863,734,0
14193324,300.61,863,735,0
14193334,297.81,863,735,0
14193344,295.73,863,735,0
14193354,294.74,863,735,0
14193364,294.43,863,735,0
14193374,295.12,863,735,0
14193384,296.15,863,734,0
14193394,297.86,863,735,0
14193404,299.62,863,734,0
14193414,301.88,863,735,0
14193424,303.97,863,735,0
14193434,306.64,863,735,0
14193444,308.97,863,734,0
14193454,311.68,863,735,0
14193464,314.01,863,735,0
14193474,316.62,863,735,0
14193484,318.49,863,734,0
14193495,320.49,863,735,0
14193505,321.50,863,735,0
14193515,322.55,863,735,0
14193525,322.77,863,734,0
14193536,323.22,863,735,0
14193545,322.86,863,735,0
14193555,322.99,863,735,0
14193565,322.48,863,734,0
14193575,322.50,863,735,0
14193585,322.01,863,735,0
14193595,322.05,863,735,0
14193605,321.48,863,734,0
14193615,321.46,863,735,0
14193625,320.85,863,734,0
14193635,320.68,863,735,0
14193645,319.92,863,734,0
14193655,319.94,863,735,0
14193665,320.22,863,734,0
14193675,322.94,863,735,0
14193685,328.91,863,734,0
14193695,341.58,863,735,0
14193705,362.54,863,734,0
14193715,394.99,863,735,0
14193734,435.06,944,734,0
14193737,480.47,944,736,0
14193746,527.77,944,734,0
14193756,574.43,944,735,0
14193766,616.60,944,734,0
14193776,651.73,944,736,0
14193786,676.67,944,734,0
14193796,694.17,944,735,0
14193806,706.33,944,734,0
14193816,714.85,944,736,0
14193826,720.81,944,734,0
14193836,725.02,944,736,0
14193846,727.97,944,734,0
14193856,730.04,944,736,0
14193866,731.48,944,734,0
14193876,732.54,944,736,0
14193886,733.28,944,734,0
14193896,733.84,944,736,0
14193906,734.23,944,734,0
14193916,734.50,944,735,0
14193926,734.65,944,734,0
14193936,734.76,944,735,0
14193946,734.83,944,734,0
14193956,734.92,944,736,0
14193966,730.88,944,734,0
14193976,719.60,944,736,0
14193986,698.46,944,734,0
14193996,667.42,944,735,0
14194007,626.45,944,734,0
14194017,577.20,944,736,0
14194027,520.44,944,734,0
14194037,462.54,944,736,0
14194048,407.65,944,734,0
14194057,360.65,944,736,0
14194067,322.31,944,734,0
14194077,294.32,944,736,0
14194087,275.15,944,734,0
14194097,265.04,944,735,0
14194107,261.34,944,734,0
14194117,263.89,944,736,0
14194127,269.45,944,734,0
14194137,277.89,944,735,0
14194147,286.41,944,734,0
14194157,295.33,944,736,0
14194167,302.26,944,734,0
14194177,308.35,944,735,0
14194187,311.85,944,734,0
14194197,314.34,944,736,0
14194207,314.45,944,734,0
14194217,313.80,944,736,0
14194227,311.42,944,734,0
14194237,309.28,944,736,0
14194247,306.07,944,734,0
14194257,303.39,944,735,0
14194267,300.19,944,734,0
14194277,297.99,944,736,0
14194287,295.63,944,734,0
14194297,294.46,944,735,0
14194307,293.25,944,734,0
14194317,293.43,944,736,0
14194327,293.56,944,734,0
14194337,294.85,944,735,0
14194348,295.88,944,734,0
14194358,297.93,944,736,0
14194368,299.58,944,734,0
14194378,302.02,944,735,0
14194388,303.69,944,734,0
14194398,305.97,944,736,0
14194408,307.39,944,734,0
14194418,309.29,944,735,0
14194428,310.44,944,734,0
14194438,311.94,944,736,0
14194448,312.56,944,734,0
14194458,313.59,944,735,0
14194468,313.84,944,734,0
14194478,314.57,944,736,0
14194488,314.70,944,734,0
14194498,315.31,944,735,0
14194508,315.47,944,734,0
14194519,316.27,944,736,0
14194529,316.71,944,734,0
14194539,317.65,944,735,0
14194549,318.18,944,734,0
14194560,319.07,944,735,0
14194569,319.39,944,734,0
14194579,319.92,944,735,0
14194589,319.77,944,734,0
14194599,319.80,944,735,0
14194609,319.26,944,734,0
14194619,319.52,944,735,0
14194629,321.08,944,734,0
14194639,326.41,944,735,0
14194649,336.70,944,734,0
14194659,355.39,944,735,0
14194678,384.46,944,734,0
14194681,422.89,944,736,0
14194691,467.03,944,735,0
14194701,514.16,944,735,0
14194711,560.87,944,735,0
14194721,604.71,944,735,0
14194732,642.00,944,735,0
14194742,669.85,944,735,0
14194752,689.40,944,735,0
14194762,703.08,944,735,0
14194772,712.66,944,735,0
14194782,719.36,944,735,0
14194792,724.05,944,735,0
14194802,727.34,944,735,0
14194812,729.64,944,735,0
14194822,731.24,944,735,0
14194832,732.37,944,735,0
14194842,733.16,944,735,0
14194852,733.71,944,735,0
14194862,734.10,944,735,0
14194872,734.37,944,735,0
14194882,734.56,944,735,0
14194892,734.69,944,735,0
14194903,734.78,944,735,0
14194913,731.85,944,735,0
14194923,721.74,944,735,0
14194933,702.57,944,735,0
14194944,673.17,944,734,0
14194953,634.51,944,735,0
14194963,587.00,944,735,0
14194973,532.53,944,735,0
14194983,475.15,944,734,0
14194993,421.19,944,735,0
14195003,373.56,944,735,0
14195013,335.42,944,735,0
14195023,306.41,944,734,0
14195033,287.26,944,735,0
14195043,276.04,944,734,0
14195053,272.64,944,735,0
14195063,274.42,944,734,0
14195073,280.77,944,735,0
14195083,289.02,944,735,0
14195093,298.57,944,735,0
14195103,307.36,944,734,0
14195113,315.56,944,735,0
14195123,321.52,944,735,0
14195133,325.82,944,735,0
14195143,327.29,944,734,0
14195153,327.08,944,735,0
14195163,324.74,944,735,0
14195173,321.56,944,735,0
14195183,317.02,944,734,0
14195193,312.47,944,735,0
14195203,307.49,944,735,0
14195213,303.48,944,735,0
14195223,299.57,944,734,0
14195233,296.95,944,735,0
14195244,294.78,944,734,0
14195254,294.25,944,736,0
14195264,294.09,944,734,0
14195274,295.48,944,735,0
14195284,296.96,944,734,0
14195294,299.80,944,736,0
14195304,302.39,944,734,0
14195314,305.92,944,735,0
14195324,308.77,944,734,0
14195334,312.22,944,736,0
14195344,314.73,944,734,0
14195354,317.55,944,735,0
14195364,319.19,944,734,0
14195374,321.02,944,735,0
14195384,321.74,944,734,0
14195394,322.85,944,735,0
14195404,323.15,944,734,0
14195415,323.96,944,735,0
14195425,323.89,944,734,0
14195435,324.35,944,735,0
14195445,324.20,944,734,0
14195456,324.78,944,735,0
14195465,324.68,944,734,0
14195475,325.20,944,735,0
14195485,324.84,944,734,0
14195495,325.32,944,736,0
14195505,325.09,944,734,0
14195515,325.37,944,735,0
14195525,324.83,944,734,0
14195535,325.22,944,736,0
14195545,325.71,944,734,0
14195555,329.10,944,735,0
14195565,335.84,944,734,0
14195575,349.73,944,736,0
14195585,371.80,944,734,0
14195595,405.20,944,736,0
14195614,445.64,936,735,0
14195617,490.88,936,737,0
14195628,537.41,936,734,0
14195638,582.85,936,736,0
14195648,623.39,936,734,0
14195658,656.88,936,735,0
14195668,680.31,936,734,0
14195678,696.72,936,736,0
14195688,708.20,936,734,0
14195698,716.24,936,735,0
14195708,721.87,936,735,0
14195718,725.81,936,735,0
14195728,728.57,936,734,0
14195738,730.50,936,735,0
14195748,731.85,936,735,0
14195758,732.79,936,736,0
14195768,733.46,936,734,0
14195778,733.92,936,735,0
14195788,734.24,936,734,0
14195799,734.47,936,735,0
14195809,734.63,936,735,0
14195819,734.74,936,735,0
14195829,730.79,936,735,0
14195840,719.41,936,735,0
14195849,698.63,936,735,0
14195859,667.93,936,735,0
14195869,627.19,936,735,0
14195879,577.38,936,735,0
14195889,519.79,936,734,0
14195899,460.20,936,735,0
14195909,403.74,936,735,0
14195919,354.02,936,735,0
14195929,312.95,936,734,0
14195939,282.07,936,735,0
14195949,261.30,936,734,0
14195959,249.94,936,735,0
14195969,246.49,936,734,0
14195979,249.56,936,735,0
14195989,257.27,936,734,0
14195999,268.04,936,734,0
14196009,279.98,936,735,0
14196019,291.99,936,735,0
14196029,302.66,936,734,0
14196039,311.51,936,734,0
14196049,317.87,936,734,0
14196059,321.89,936,735,0
14196069,323.43,936,734,0
14196079,322.96,936,735,0
14196089,320.78,936,735,0
14196099,317.76,936,735,0
14196109,314.11,936,735,0
14196119,310.13,936,735,0
14196129,306.15,936,735,0
14196140,302.42,936,735,0
14196150,299.29,936,735,0
14196160,296.72,936,734,0
14196170,295.13,936,735,0
14196180,294.36,936,735,0
14196190,294.73,936,735,0
14196200,295.67,936,734,0
14196210,297.61,936,735,0
14196220,300.00,936,735,0
14196230,303.13,936,735,0
14196240,306.22,936,734,0
14196250,309.62,936,735,0
14196260,312.61,936,735,0
14196270,315.55,936,735,0
14196280,317.92,936,734,0
14196290,320.00,936,735,0
14196300,321.24,936,735,0
14196311,322.20,936,735,0
14196321,322.27,936,734,0
14196331,322.19,936,735,0
14196341,321.49,936,735,0
14196352,320.87,936,735,0
14196361,319.79,936,734,0
14196371,319.04,936,735,0
14196381,317.79,936,735,0
14196391,317.12,936,735,0
14196401,316.06,936,734,0
14196411,315.61,936,735,0
14196421,315.00,936,735,0
14196431,315.21,936,735,0
14196441,315.24,936,734,0
14196451,315.98,936,735,0
14196461,316.33,936,735,0
14196471,317.39,936,735,0
14196481,318.09,936,735,0
14196491,319.00,936,735,0
14196501,319.22,936,735,0
14196511,319.67,936,735,0
14196521,319.89,936,734,0
14196531,321.60,936,735,0
14196541,325.36,936,735,0
14196551,334.21,936,735,0
14196561,349.92,936,734,0
14196571,375.66,936,735,0
14196590,411.29,976,734,0
14196593,453.89,976,736,0
14196603,500.08,976,734,0
14196613,547.37,976,735,0
14196623,592.17,976,734,0
14196633,631.72,976,736,0
14196643,662.62,976,734,0
14196653,684.25,976,736,0
14196663,699.39,976,734,0
14196673,710.07,976,736,0
14196683,717.51,976,734,0
14196694,722.71,976,736,0
14196703,726.36,976,734,0
14196713,728.99,976,736,0
14196723,730.79,976,734,0
14196733,732.06,976,736,0
14196743,732.90,976,735,0
14196753,733.53,976,736,0
14196763,733.97,976,734,0
14196773,734.28,976,736,0
14196783,734.45,976,735,0
14196793,734.66,976,736,0
14196803,734.80,976,735,0
14196813,734.91,976,736,0
14196823,734.08,976,735,0
14196833,728.18,976,736,0
14196843,713.43,976,734,0
14196853,689.04,976,736,0
14196864,654.10,976,734,0
14196873,610.36,976,736,0
14196883,558.14,976,734,0
14196893,500.58,976,735,0
14196903,442.72,976,734,0
14196913,390.73,976,736,0
14196923,346.24,976,734,0
14196933,311.97,976,736,0
14196943,286.56,976,734,0
14196953,270.97,976,736,0
14196963,262.66,976,734,0
14196973,261.69,976,735,0
14196983,264.87,976,734,0
14196993,271.89,976,736,0
14197003,279.94,976,734,0
14197013,289.04,976,735,0
14197023,296.83,976,734,0
14197033,304.00,976,736,0
14197043,308.67,976,734,0
14197053,312.20,976,735,0
14197063,313.21,976,734,0
14197073,313.32,976,736,0
14197083,311.51,976,734,0
14197093,309.51,976,735,0
14197103,306.27,976,734,0
14197113,303.53,976,736,0
14197123,300.37,976,734,0
14197133,298.42,976,735,0
14197143,296.49,976,734,0
14197153,295.96,976,736,0
14197164,295.59,976,734,0
14197174,296.74,976,735,0
14197184,297.97,976,734,0
14197194,300.38,976,736,0
14197204,302.54,976,734,0
14197214,305.51,976,735,0
14197224,307.84,976,734,0
14197234,310.80,976,736,0
14197244,312.83,976,734,0
14197254,315.28,976,735,0
14197264,316.61,976,734,0
14197274,318.19,976,736,0
14197284,318.64,976,734,0
14197294,319.48,976,735,0
14197304,319.38,976,734,0
14197314,319.74,976,736,0
14197324,319.34,976,734,0
14197335,319.63,976,735,0
14197345,319.31,976,734,0
14197355,319.77,976,736,0
14197365,319.67,976,734,0
14197376,320.07,976,735,0
14197385,319.92,976,734,0
14197395,320.20,976,736,0
14197405,319.88,976,734,0
14197415,319.88,976,735,0
14197425,319.36,976,734,0
14197435,319.38,976,736,0
14197445,318.88,976,734,0
14197455,318.96,976,735,0
14197465,318.37,976,734,0
14197475,318.30,976,736,0
14197485,317.87,976,734,0
14197495,317.91,976,735,0
14197505,317.29,976,734,0
14197515,317.33,976,735,0
14197525,316.89,976,734,0
14197535,317.22,976,735,0
14197545,317.28,976,734,0
14197555,318.70,976,736,0
14197565,321.53,976,734,0
14197575,328.74,976,736,0
14197585,341.64,976,734,0
14197604,363.52,1014,733,0
14197607,396.49,1014,735,0
14197617,437.40,1014,735,0
14197627,482.79,1014,735,0
14197637,530.38,1014,736,0
14197647,576.68,1014,735,0
14197657,618.91,1014,735,0
14197667,653.69,1014,735,0
14197677,678.04,1014,736,0
14197687,695.13,1014,735,0
14197697,707.09,1014,735,0
14197707,715.46,1014,735,0
14197718,721.32,1014,735,0
14197727,725.43,1014,735,0
14197737,728.30,1014,735,0
14197747,730.31,1014,735,0
14197757,731.72,1014,735,0
14197767,732.70,1014,734,0
14197777,733.39,1014,735,0
14197787,733.87,1014,735,0
14197797,734.21,1014,735,0
14197807,734.45,1014,735,0
14197817,734.61,1014,735,0
14197827,734.73,1014,734,0
14197837,734.81,1014,735,0
14197847,734.87,1014,735,0
14197857,732.89,1014,735,0
14197867,724.35,1014,734,0
14197877,706.68,1014,735,0
14197888,678.92,1014,735,0
14197897,641.48,1014,735,0
14197907,594.84,1014,735,0
14197917,540.42,1014,735,0
14197927,481.66,1014,735,0
14197937,424.98,1014,735,0
14197947,374.41,1014,734,0
14197957,332.37,1014,735,0
14197967,299.73,1014,735,0
14197977,276.93,1014,735,0
14197987,263.02,1014,734,0
14197997,256.93,1014,735,0
14198007,256.99,1014,735,0
14198017,261.58,1014,735,0
14198027,269.04,1014,734,0
14198037,277.81,1014,735,0
14198047,286.78,1014,735,0
14198057,294.99,1014,735,0
14198067,301.85,1014,734,0
14198077,307.04,1014,735,0
14198087,310.28,1014,735,0
14198097,311.53,1014,735,0
14198107,310.90,1014,734,0
14198117,308.79,1014,735,0
14198127,305.55,1014,734,0
14198137,301.66,1014,735,0
14198147,297.30,1014,734,0
14198157,293.23,1014,735,0
14198167,289.90,1014,734,0
14198177,287.49,1014,735,0
14198188,286.06,1014,734,0
14198198,285.74,1014,735,0
14198208,286.67,1014,735,0
14198218,288.61,1014,735,0
14198228,291.39,1014,734,0
14198238,294.57,1014,735,0
14198248,298.26,1014,734,0
14198258,301.87,1014,735,0
14198268,305.68,1014,734,0
14198278,309.12,1014,735,0
14198288,312.38,1014,735,0
14198298,315.14,1014,735,0
14198308,317.88,1014,734,0
14198318,320.19,1014,735,0
14198328,322.32,1014,735,0
14198338,323.72,1014,735,0
14198348,324.71,1014,735,0
14198359,324.92,1014,735,0
14198369,324.77,1014,735,0
14198379,323.64,1014,734,0
14198389,322.29,1014,735,0
14198400,320.40,1014,734,0
14198409,318.57,1014,735,0
14198419,316.34,1014,735,0
14198429,314.27,1014,734,0
14198439,311.70,1014,734,0
14198449,309.52,1014,735,0
14198459,306.96,1014,734,0
14198469,305.09,1014,735,0
14198479,303.31,1014,735,0
14198489,303.17,1014,735,0
14198499,305.09,1014,735,0
14198509,311.66,1014,735,0
14198519,324.02,1014,734,0
14198529,345.06,1014,735,0
14198539,376.50,1014,735,0
14198549,417.15,1014,735,0
14198568,463.00,964,734,0
14198572,511.56,964,736,0
14198582,559.26,964,734,0
14198592,603.54,964,736,0
14198602,641.09,964,734,0
14198612,669.14,964,735,0
14198622,688.72,964,734,0
14198632,702.48,964,735,0
14198642,712.06,964,734,0
14198652,718.82,964,736,0
14198662,723.54,964,734,0
14198672,726.89,964,735,0
14198682,729.24,964,734,0
14198692,730.93,964,736,0
14198702,732.10,964,734,0
14198712,732.97,964,736,0
14198722,733.58,964,734,0
14198732,734.01,964,735,0
14198743,734.30,964,734,0
14198753,734.47,964,736,0
14198763,733.13,964,734,0
14198773,726.66,964,735,0
14198784,711.76,964,734,0
14198793,688.05,964,735,0
14198803,654.65,964,734,0
14198813,612.80,964,736,0
14198823,562.93,964,734,0
14198833,508.61,964,735,0
14198843,454.30,964,734,0
14198853,405.56,964,736,0
14198863,363.57,964,734,0
14198873,331.08,964,735,0
14198883,307.19,964,734,0
14198893,292.86,964,735,0
14198903,285.79,964,734,0
14198913,285.81,964,735,0
14198923,290.02,964,734,0
14198933,297.99,964,736,0
14198943,306.86,964,734,0
14198953,316.42,964,735,0
14198963,324.35,964,734,0
14198973,331.02,964,736,0
14198983,334.61,964,734,0
14198993,336.14,964,735,0
14199003,334.47,964,734,0
14199013,331.12,964,736,0
14199023,325.30,964,734,0
14199033,318.78,964,735,0
14199043,310.79,964,733,0
14199053,303.35,964,735,0
14199063,295.79,964,734,0
14199073,289.72,964,735,0
14199084,284.28,964,734,0
14199094,280.85,964,736,0
14199104,278.32,964,734,0
14199114,277.67,964,735,0
14199124,277.73,964,733,0
14199134,279.35,964,735,0
14199144,281.30,964,734,0
14199154,284.17,964,735,0
14199164,286.86,964,734,0
14199174,289.90,964,735,0
14199184,292.33,964,734,0
14199194,294.93,964,735,0
14199204,296.80,964,734,0
14199214,298.74,964,736,0
14199224,299.89,964,734,0
14199234,301.17,964,735,0
14199244,301.85,964,734,0
14199255,302.88,964,735,0
14199265,303.43,964,734,0
14199275,304.11,964,735,0
14199285,304.25,964,734,0
14199296,304.65,964,735,0
14199305,304.54,964,734,0
14199315,304.76,964,735,0
14199325,304.75,964,734,0
14199335,305.08,964,735,0
14199345,305.23,964,734,0
14199355,305.67,964,735,0
14199365,306.03,964,734,0
14199375,306.71,964,735,0
14199385,307.22,964,734,0
14199395,308.06,964,735,0
14199405,308.98,964,734,0
14199415,311.13,964,735,0
14199425,315.21,964,734,0
14199435,323.67,964,735,0
14199445,338.38,964,734,0
14199455,362.44,964,735,0
14199475,397.24,906,734,0
14199478,439.38,906,735,0
14199488,485.77,906,735,0
14199498,533.84,906,735,0
14199508,580.21,906,735,0
14199518,622.02,906,735,0
14199528,655.79,906,734,0
14199538,679.42,906,735,0
14199548,696.01,906,735,0
14199558,707.62,906,736,0
14199568,715.79,906,735,0
14199578,721.47,906,735,0
14199588,725.49,906,735,0
14199598,728.30,906,735,0
14199608,730.26,906,735,0
14199618,731.64,906,735,0
14199628,732.61,906,735,0
14199639,733.28,906,735,0
14199649,733.80,906,735,0
14199659,734.16,906,734,0
14199669,734.41,906,736,0
14199680,734.59,906,734,0
14199689,734.71,906,735,0
14199699,733.94,906,734,0
14199709,728.26,906,736,0
14199719,714.00,906,734,0
14199729,690.55,906,735,0
14199739,657.00,906,734,0
14199749,614.44,906,735,0
14199759,563.27,906,734,0
14199769,506.57,906,735,0
14199779,449.40,906,735,0
14199789,397.64,906,736,0
14199799,352.96,906,734,0
14199809,318.13,906,735,0
14199819,292.63,906,735,0
14199829,277.49,906,736,0
14199839,270.35,906,734,0
14199849,270.98,906,735,0
14199859,276.43,906,734,0
14199869,286.03,906,735,0
14199879,296.90,906,734,0
14199889,308.80,906,736,0
14199899,319.23,906,735,0
14199909,328.51,906,736,0
14199919,334.78,906,734,0
14199929,339.18,906,736,0
14199939,340.45,906,735,0
14199949,340.10,906,736,0
14199959,337.20,906,735,0
14199969,333.45,906,736,0
14199980,328.13,906,734,0
14199990,323.04,906,736,0
14200000,317.28,906,734,0
14200010,312.65,906,736,0
14200020,308.13,906,734,0
14200030,305.18,906,736,0
14200040,302.55,906,734,0
14200050,301.53,906,735,0
14200060,300.77,906,734,0
14200070,301.48,906,735,0
14200080,302.11,906,734,0
14200090,303.92,906,735,0
14200100,305.31,906,734,0
14200110,307.53,906,735,0
14200120,308.96,906,734,0
14200130,310.99,906,735,0
14200140,312.06,906,734,0
14200151,313.46,906,736,0
14200161,313.66,906,734,0
14200171,314.06,906,735,0
14200181,313.23,906,734,0
14200192,312.82,906,735,0
14200201,311.29,906,734,0
14200211,310.26,906,735,0
14200221,308.25,906,734,0
14200231,306.93,906,736,0
14200241,305.03,906,734,0
14200251,304.03,906,736,0
14200261,302.52,906,734,0
14200271,301.85,906,736,0
14200281,300.70,906,735,0
14200291,300.49,906,736,0
14200301,299.66,906,735,0
14200311,299.54,906,736,0
14200321,298.95,906,735,0
14200331,299.78,906,736,0
14200341,301.78,906,734,0
14200351,307.84,906,736,0
14200361,318.95,906,734,0
14200371,338.51,906,736,0
14200390,367.80,916,734,0
14200393,407.20,916,735,0
14200403,452.44,916,735,0
14200413,501.17,916,736,0
14200423,549.50,916,734,0
14200433,594.91,916,736,0
14200443,633.98,916,734,0
14200453,664.20,916,736,0
14200463,685.31,916,734,0
14200473,700.13,916,735,0
14200483,710.46,916,735,0
14200493,717.74,916,736,0
14200503,722.79,916,734,0
14200513,726.32,916,736,0
14200523,728.80,916,735,0
14200534,730.57,916,736,0
14200543,731.82,916,734,0
14200553,732.73,916,736,0
14200563,733.37,916,735,0
14200573,733.86,916,735,0
14200583,734.16,916,734,0
14200593,734.37,916,736,0
14200603,734.51,916,735,0
14200613,731.49,916,735,0
14200623,721.70,916,734,0
14200633,703.15,916,735,0
14200643,674.39,916,735,0
14200653,635.83,916,735,0
14200663,588.01,916,734,0
14200673,532.59,916,736,0
14200683,474.00,916,735,0
14200693,417.81,916,735,0
14200704,367.26,916,734,0
14200713,325.65,916,735,0
14200723,293.70,916,735,0
14200733,272.02,916,735,0
14200743,259.41,916,735,0
14200753,255.30,916,736,0
14200763,257.44,916,734,0
14200773,264.98,916,735,0
14200783,275.36,916,734,0
14200793,287.55,916,735,0
14200803,299.47,916,734,0
14200813,310.64,916,735,0
14200823,319.45,916,734,0
14200833,326.47,916,736,0
14200843,330.66,916,734,0
14200853,332.86,916,736,0
14200863,332.43,916,735,0
14200873,330.50,916,735,0
14200883,326.79,916,734,0
14200893,322.57,916,735,0
14200903,317.38,916,734,0
14200913,312.30,916,735,0
14200923,307.07,916,734,0
14200933,302.80,916,735,0
14200943,299.05,916,734,0
14200953,296.50,916,735,0
14200963,294.68,916,734,0
14200973,294.35,916,735,0
14200983,294.63,916,734,0
14200993,295.90,916,735,0
14201004,297.56,916,734,0
14201014,300.05,916,735,0
14201024,302.78,916,734,0
14201034,305.97,916,735,0
14201044,308.85,916,735,0
14201054,311.94,916,735,0
14201064,314.74,916,734,0
14201074,317.43,916,735,0
14201084,319.70,916,735,0
14201094,321.72,916,735,0
14201104,323.26,916,734,0
14201114,324.43,916,735,0
14201124,325.24,916,735,0
14201134,325.94,916,735,0
14201144,326.43,916,734,0
14201154,326.82,916,735,0
14201164,327.17,916,735,0
14201175,327.59,916,735,0
14201185,328.23,916,735,0
14201195,328.89,916,735,0
14201205,329.74,916,735,0
14201216,330.42,916,735,0
14201225,331.10,916,735,0
14201235,331.50,916,735,0
14201245,331.91,916,735,0
14201255,332.58,916,735,0
14201265,334.72,916,735,0
14201275,339.69,916,734,0
14201285,350.07,916,735,0
14201295,368.00,916,735,0
14201305,395.82,916,735,0
14201324,432.43,934,733,0
14201327,474.86,934,736,0
14201337,520.11,934,734,0
14201347,565.38,934,735,0
14201357,607.48,934,734,0
14201367,643.46,934,735,0
14201377,670.80,934,734,0
14201388,689.97,934,735,0
14201398,703.35,934,734,0
14201408,712.76,934,736,0
14201418,719.30,934,734,0
14201428,723.93,934,735,0
14201438,727.12,934,734,0
14201448,729.36,934,735,0
14201458,730.88,934,734,0
14201468,731.99,934,735,0
14201478,732.72,934,734,0
14201488,733.27,934,735,0
14201498,733.62,934,734,0
14201508,733.91,934,735,0
14201518,729.22,934,734,0
14201528,717.03,934,735,0
14201538,694.95,934,734,0
14201548,663.25,934,735,0
14201559,621.60,934,733,0
14201569,571.62,934,735,0
14201579,514.14,934,734,0
14201589,456.37,934,735,0
14201600,401.91,934,734,0
14201609,355.40,934,735,0
14201619,317.48,934,734,0
14201629,290.25,934,735,0
14201639,272.47,934,734,0
14201649,264.45,934,735,0
14201659,263.54,934,734,0
14201669,269.51,934,735,0
14201679,279.21,934,734,0
14201689,292.09,934,735,0
14201699,305.09,934,734,0
14201709,318.18,934,735,0
14201719,328.88,934,734,0
14201729,337.96,934,735,0
14201739,343.54,934,734,0
14201749,346.77,934,735,0
14201759,346.32,934,734,0
14201769,344.08,934,735,0
14201779,339.04,934,734,0
14201789,333.24,934,735,0
14201799,325.71,934,734,0
14201809,318.43,934,735,0
14201819,310.71,934,734,0
14201829,304.46,934,735,0
14201839,298.41,934,734,0
14201849,294.17,934,735,0
14201859,290.60,934,734,0
14201869,289.22,934,735,0
14201879,288.51,934,734,0
14201889,289.77,934,735,0
14201900,291.38,934,734,0
14201910,294.65,934,735,0
14201920,297.97,934,734,0
14201930,302.44,934,735,0
14201940,306.29,934,734,0
14201950,310.75,934,735,0
14201960,314.12,934,734,0
14201970,317.69,934,736,0
14201980,319.97,934,734,0
14201990,322.38,934,736,0
14202000,323.51,934,734,0
14202010,324.55,934,735,0
14202020,324.43,934,734,0
14202030,324.43,934,735,0
14202040,323.40,934,734,0
14202050,322.85,934,735,0
14202060,321.53,934,734,0
14202071,320.68,934,735,0
14202081,319.36,934,734,0
14202091,318.61,934,735,0
14202101,317.49,934,734,0
14202112,317.08,934,735,0
14202121,316.46,934,734,0
14202131,316.58,934,736,0
14202141,316.32,934,734,0
14202151,316.61,934,736,0
14202161,316.38,934,734,0
14202171,316.78,934,735,0
14202181,317.15,934,734,0
14202191,318.99,934,736,0
14202201,322.64,934,734,0
14202211,331.02,934,735,0
14202221,345.67,934,734,0
14202231,370.45,934,736,0
14202241,405.42,934,734,0
14202260,447.64,936,733,0
14202263,493.60,936,735,0
14202273,541.04,936,735,0
14202284,586.45,936,734,0
14202294,627.20,936,735,0
14202304,659.46,936,735,0
14202314,682.08,936,735,0
14202324,697.91,936,735,0
14202334,708.99,936,735,0
14202344,716.75,936,735,0
14202354,722.23,936,735,0
14202364,726.06,936,735,0
14202374,728.74,936,735,0
14202384,730.62,936,735,0
14202394,731.93,936,735,0
14202404,732.85,936,735,0
14202414,733.50,936,735,0
14202424,733.95,936,735,0
14202434,734.26,936,735,0
14202444,734.48,936,735,0
14202455,734.64,936,735,0
14202465,734.75,936,735,0
14202475,734.82,936,735,0
14202485,733.59,936,735,0
14202496,726.47,936,735,0
14202505,711.59,936,735,0
14202515,687.28,936,735,0
14202525,653.64,936,735,0
14202535,610.93,936,735,0
14202545,560.68,936,735,0
14202555,505.36,936,735,0
14202565,451.43,936,735,0
14202575,401.88,936,734,0
14202585,360.05,936,735,0
14202595,326.69,936,735,0
14202605,302.91,936,735,0
14202615,287.38,936,734,0
14202625,279.60,936,735,0
14202635,277.57,936,734,0
14202645,280.49,936,735,0
14202655,286.04,936,734,0
14202665,293.61,936,735,0
14202675,301.23,936,735,0
14202685,308.70,936,735,0
14202695,314.75,936,734,0
14202705,319.37,936,735,0
14202715,321.83,936,734,0
14202725,323.04,936,735,0
14202735,322.30,936,734,0
14202745,320.67,936,735,0
14202755,317.98,936,735,0
14202765,315.16,936,735,0
14202775,311.90,936,734,0
14202785,309.27,936,735,0
14202796,306.57,936,735,0
14202806,304.69,936,735,0
14202816,302.85,936,734,0
14202826,302.08,936,735,0
14202836,301.50,936,734,0
14202846,302.21,936,735,0
14202856,302.96,936,734,0
14202866,304.81,936,735,0
14202876,306.58,936,734,0
14202886,309.11,936,735,0
14202896,311.01,936,734,0
14202906,313.32,936,735,0
14202916,314.85,936,734,0
14202926,316.61,936,735,0
14202936,317.50,936,734,0
14202946,318.68,936,735,0
14202956,319.07,936,734,0
14202967,319.69,936,735,0
14202977,319.44,936,734,0
14202987,319.44,936,735,0
14202997,318.66,936,734,0
14203008,318.21,936,735,0
14203017,317.12,936,734,0
14203027,316.65,936,735,0
14203037,315.60,936,734,0
14203047,315.33,936,735,0
14203057,314.55,936,734,0
14203067,314.68,936,736,0
14203077,314.39,936,734,0
14203087,314.96,936,735,0
14203097,314.89,936,734,0
14203107,315.56,936,735,0
14203117,315.61,936,734,0
14203127,316.33,936,735,0
14203137,316.44,936,734,0
14203147,317.72,936,735,0
14203157,319.82,936,734,0
14203167,325.53,936,735,0
14203177,335.70,936,734,0
14203187,353.70,936,735,0
14203206,381.09,946,734,0
14203209,418.27,946,736,0
14203219,461.26,946,734,0
14203229,507.72,946,736,0
14203239,554.18,946,734,0
14203249,598.18,946,736,0
14203259,636.23,946,734,0
14203269,665.73,946,735,0
14203279,686.38,946,734,0
14203289,700.88,946,736,0
14203299,710.99,946,734,0
14203309,718.11,946,735,0
14203319,723.05,946,734,0
14203329,726.55,946,736,0
14203339,728.95,946,734,0
14203350,730.64,946,735,0
14203359,731.82,946,734,0
14203369,732.69,946,736,0
14203379,733.25,946,734,0
14203389,733.69,946,735,0
14203399,734.00,946,734,0
14203409,734.26,946,736,0
14203419,734.39,946,734,0
14203429,734.49,946,735,0
14203439,734.56,946,734,0
14203449,730.66,946,736,0
14203459,718.89,946,734,0
14203469,698.05,946,735,0
14203479,667.44,946,734,0
14203489,628.05,946,736,0
14203499,579.99,946,734,0
14203509,525.27,946,735,0
14203520,468.74,946,734,0
14203529,416.58,946,735,0
14203539,370.80,946,734,0
14203549,334.05,946,735,0
14203559,305.75,946,734,0
14203569,287.01,946,735,0
14203579,275.74,946,734,0
14203589,272.00,946,735,0
14203599,273.03,946,734,0
14203609,278.33,946,735,0
14203619,285.48,946,734,0
14203629,294.21,946,735,0
14203639,302.33,946,734,0
14203649,310.24,946,736,0
14203659,316.00,946,734,0
14203669,320.50,946,735,0
14203679,322.58,946,734,0
14203689,323.26,946,735,0
14203699,321.73,946,734,0
14203709,319.58,946,735,0
14203719,315.89,946,734,0
14203729,312.41,946,735,0
14203739,308.17,946,734,0
14203749,304.78,946,735,0
14203759,301.33,946,734,0
14203769,299.22,946,735,0
14203779,297.35,946,734,0
14203789,296.95,946,735,0
14203799,296.83,946,734,0
14203809,298.13,946,735,0
14203820,299.55,946,734,0
14203830,301.87,946,735,0
14203840,304.01,946,734,0
14203850,306.75,946,735,0
14203860,309.05,946,734,0
14203870,311.61,946,735,0
14203880,313.27,946,734,0
14203890,314.86,946,735,0
14203900,315.59,946,734,0
14203910,316.44,946,735,0
14203920,316.35,946,734,0
14203930,316.29,946,736,0
14203940,315.43,946,734,0
14203950,314.92,946,735,0
14203960,313.87,946,734,0
14203970,313.01,946,735,0
14203980,311.51,946,734,0
14203991,310.50,946,735,0
14204001,309.41,946,734,0
14204011,309.07,946,735,0
14204021,308.79,946,734,0
14204032,309.20,946,735,0
14204041,309.95,946,734,0
14204051,311.51,946,735,0
14204061,313.11,946,734,0
14204071,314.88,946,735,0
14204081,316.37,946,734,0
14204091,318.06,946,735,0
14204101,320.14,946,734,0
14204111,323.87,946,735,0
14204121,330.08,946,734,0
14204131,341.46,946,735,0
14204141,360.13,946,734,0
14204161,389.28,954,733,0
14204164,427.04,954,736,0
14204174,470.44,954,735,0
14204184,516.42,954,735,0
14204194,562.54,954,735,0
14204204,605.53,954,735,0
14204214,642.57,954,735,0
14204224,670.17,954,735,0
14204234,689.49,954,735,0
14204244,703.06,954,735,0
14204254,712.56,954,735,0
14204264,719.25,954,735,0
14204274,723.89,954,734,0
14204284,727.13,954,735,0
14204294,729.41,954,735,0
14204304,731.04,954,735,0
14204314,732.14,954,735,0
14204324,732.92,954,735,0
14204334,733.46,954,735,0
14204344,733.88,954,735,0
14204354,734.13,954,735,0
14204364,734.30,954,735,0
14204375,734.43,954,735,0
14204385,734.51,954,735,0
14204395,729.13,954,734,0
14204405,715.93,954,735,0
14204416,692.73,954,734,0
14204425,660.19,954,735,0
14204435,618.39,954,734,0
14204445,568.90,954,735,0
14204455,512.58,954,734,0
14204465,457.03,954,735,0
14204475,405.64,954,734,0
14204485,362.59,954,735,0
14204495,328.04,954,734,0
14204505,303.34,954,735,0
14204515,287.30,954,734,0
14204525,280.05,954,735,0
14204535,279.05,954,734,0
14204545,283.62,954,735,0
14204555,291.15,954,734,0
14204565,301.00,954,735,0
14204575,310.77,954,734,0
14204585,320.61,954,735,0
14204595,328.66,954,734,0
14204605,335.62,954,735,0
14204615,340.28,954,734,0
14204625,343.79,954,735,0
14204635,345.31,954,735,0
14204645,346.08,954,737,0
14204655,345.02,954,734,0
14204665,343.73,954,735,0
14204675,341.24,954,734,0
14204685,338.98,954,735,0
14204695,335.95,954,734,0
14204705,333.35,954,735,0
14204716,330.50,954,734,0
14204726,328.51,954,735,0
14204736,326.21,954,734,0
14204746,324.91,954,735,0
14204756,323.48,954,734,0
14204766,323.08,954,735,0
14204776,322.63,954,734,0
14204786,323.38,954,735,0
14204796,324.04,954,734,0
14204806,325.83,954,735,0
14204816,327.25,954,734,0
14204826,329.57,954,735,0
14204836,331.42,954,734,0
14204846,333.95,954,735,0
14204856,335.51,954,734,0
14204866,337.50,954,735,0
14204876,338.51,954,734,0
14204887,340.11,954,735,0
14204897,340.89,954,734,0
14204907,342.17,954,735,0
14204917,342.59,954,734,0
14204928,343.61,954,735,0
14204937,343.86,954,734,0
14204947,344.50,954,735,0
14204957,344.01,954,734,0
14204967,343.75,954,735,0
14204977,342.45,954,734,0
14204987,341.42,954,735,0
14204997,339.41,954,734,0
14205007,337.78,954,735,0
14205017,335.58,954,734,0
14205027,334.76,954,735,0
14205037,334.79,954,734,0
14205047,338.80,954,735,0
14205057,347.43,954,734,0
14205067,364.49,954,736,0
14205086,391.30,926,734,0
14205089,427.77,926,735,0
14205100,469.88,926,734,0
14205110,515.60,926,735,0
14205120,561.11,926,734,0
14205130,604.23,926,735,0
14205140,641.10,926,734,0
14205150,669.27,926,736,0
14205160,688.99,926,734,0
14205170,702.79,926,735,0
14205180,712.46,926,734,0
14205190,719.22,926,736,0
14205200,723.95,926,734,0
14205210,727.27,926,735,0
14205220,729.59,926,734,0
14205230,731.21,926,736,0
14205240,732.35,926,734,0
14205250,733.14,926,735,0
14205260,733.70,926,734,0
14205271,734.09,926,735,0
14205281,733.59,926,734,0
14205291,728.27,926,735,0
14205301,715.29,926,734,0
14205312,693.00,926,735,0
14205321,661.50,926,734,0
14205331,621.11,926,735,0
14205341,572.52,926,734,0
14205351,517.89,926,735,0
14205361,462.85,926,734,0
14205371,411.90,926,735,0
14205381,368.13,926,734,0
14205391,332.90,926,735,0
14205401,306.83,926,734,0
14205411,290.34,926,735,0
14205421,282.61,926,734,0
14205431,282.34,926,735,0
14205441,287.68,926,734,0
14205451,297.25,926,735,0
14205461,309.17,926,734,0
14205471,322.02,926,735,0
14205481,334.19,926,735,0
14205491,344.67,926,735,0
14205501,352.57,926,734,0
14205511,357.67,926,735,0
14205521,359.61,926,734,0
14205531,358.70,926,735,0
14205541,355.15,926,734,0
14205551,349.62,926,735,0
14205561,342.45,926,735,0
14205571,334.51,926,735,0
14205581,326.17,926,734,0
14205591,318.11,926,735,0
14205601,310.53,926,735,0
14205612,303.90,926,735,0
14205622,298.32,926,734,0
14205632,294.19,926,735,0
14205642,291.56,926,735,0
14205652,290.67,926,735,0
14205662,291.32,926,735,0
14205672,293.33,926,735,0
14205682,296.79,926,735,0
14205692,301.09,926,735,0
14205702,306.12,926,734,0
14205712,311.19,926,735,0
14205722,316.27,926,735,0
14205732,320.78,926,735,0
14205742,324.92,926,734,0
14205752,328.15,926,735,0
14205762,330.89,926,735,0
14205772,332.60,926,735,0
14205783,333.83,926,735,0
14205793,333.97,926,735,0
14205803,333.76,926,735,0
14205813,332.59,926,734,0
14205824,331.09,926,735,0
14205833,328.83,926,735,0
14205843,326.70,926,735,0
14205853,324.04,926,735,0
14205863,321.85,926,735,0
14205873,319.45,926,735,0
14205883,317.77,926,735,0
14205893,316.04,926,735,0
14205903,315.00,926,735,0
14205913,313.76,926,735,0
14205923,312.97,926,735,0
14205933,311.57,926,735,0
14205943,310.45,926,734,0
14205953,309.12,926,735,0
14205963,309.04,926,735,0
14205973,310.53,926,735,0
14205983,316.11,926,735,0
14205993,327.22,926,735,0
14206003,347.13,926,735,0
14206013,377.73,926,735,0
14206023,417.67,926,735,0
14206043,463.07,956,734,0
14206046,511.35,956,737,0
14206055,558.94,956,734,0
14206065,603.27,956,735,0
14206075,640.99,956,735,0
14206085,669.11,956,736,0
14206095,688.79,956,734,0
14206105,702.61,956,735,0
14206115,712.28,956,734,0
14206125,719.10,956,736,0
14206135,723.87,956,734,0
14206145,727.21,956,737,0
14206155,729.50,956,735,0
14206166,731.11,956,736,0
14206175,732.23,956,734,0
14206185,733.02,956,735,0
14206195,733.57,956,734,0
14206205,733.96,956,736,0
14206215,734.23,956,734,0
14206225,734.46,956,735,0
14206235,734.62,956,734,0
14206245,731.99,956,735,0
14206255,723.55,956,734,0
14206265,708.30,956,735,0
14206275,684.81,956,734,0
14206285,653.80,956,736,0
14206295,615.41,956,734,0
14206305,570.98,956,735,0
14206315,523.71,956,734,0
14206325,478.41,956,735,0
14206336,436.63,956,734,0
14206345,401.43,956,736,0
14206355,372.37,956,734,0
14206365,350.70,956,735,0
14206375,334.89,956,734,0
14206385,325.50,956,735,0
14206395,320.16,956,734,0
14206405,319.13,956,735,0
14206415,319.95,956,734,0
14206425,322.96,956,735,0
14206435,325.72,956,734,0
14206445,328.89,956,736,0
14206455,330.59,956,734,0
14206465,331.91,956,735,0
14206475,331.30,956,734,0
14206485,330.09,956,736,0
14206495,327.02,956,734,0
14206505,323.76,956,735,0
14206515,319.33,956,734,0
14206525,315.25,956,735,0
14206535,310.46,956,734,0
14206545,306.55,956,735,0
14206555,302.40,956,734,0
14206565,299.62,956,735,0
14206575,297.16,956,734,0
14206585,296.51,956,735,0
14206595,296.53,956,734,0
14206605,298.73,956,736,0
14206615,301.72,956,734,0
14206625,306.86,956,735,0
14206636,312.35,956,734,0
14206646,319.27,956,736,0
14206656,325.70,956,734,0
14206666,332.52,956,736,0
14206676,337.77,956,734,0
14206686,342.68,956,736,0
14206696,345.65,956,734,0
14206706,347.85,956,736,0
14206716,347.85,956,734,0
14206726,347.13,956,736,0
14206736,344.52,956,734,0
14206746,341.66,956,736,0
14206756,337.26,956,734,0
14206766,332.86,956,735,0
14206776,327.46,956,734,0
14206786,322.69,956,736,0
14206796,317.51,956,734,0
14206807,313.54,956,736,0
14206817,309.61,956,734,0
14206827,307.11,956,736,0
14206837,304.64,956,735,0
14206848,303.42,956,736,0
14206857,301.96,956,735,0
14206867,301.46,956,736,0
14206877,300.34,956,734,0
14206887,299.85,956,736,0
14206897,299.04,956,734,0
14206907,300.01,956,736,0
14206917,303.09,956,734,0
14206927,311.38,956,735,0
14206937,325.58,956,734,0
14206947,349.53,956,736,0
14206957,384.09,956,734,0
14206967,427.00,956,736,0
14206986,474.40,944,735,0
14206989,523.61,944,736,0
14206998,570.96,944,734,0
14207008,614.21,944,736,0
14207019,649.63,944,734,0
14207028,675.24,944,736,0
14207038,693.17,944,734,0
14207048,705.72,944,736,0
14207058,714.50,944,734,0
14207068,720.65,944,736,0
14207078,724.91,944,734,0
14207088,727.90,944,736,0
14207098,729.98,944,734,0
14207108,731.45,944,736,0
14207118,732.43,944,734,0
14207128,733.11,944,736,0
14207138,733.59,944,735,0
14207148,733.97,944,736,0
14207158,734.20,944,734,0
14207168,730.92,944,736,0
14207178,719.93,944,734,0
14207188,699.29,944,735,0
14207198,668.18,944,734,0
14207208,627.07,944,735,0
14207218,576.39,944,734,0
14207228,518.16,944,735,0
14207238,456.91,944,734,0
14207248,399.47,944,735,0
14207258,349.40,944,734,0
14207268,309.81,944,735,0
14207278,280.94,944,734,0
14207288,263.86,944,735,0
14207298,256.87,944,734,0
14207308,259.48,944,735,0
14207319,268.59,944,734,0
14207329,282.60,944,735,0
14207339,298.32,944,734,0
14207349,314.77,944,735,0
14207360,329.41,944,734,0
14207369,341.84,944,735,0
14207379,350.76,944,734,0
14207389,356.53,944,735,0
14207399,358.69,944,736,0
14207409,358.18,944,735,0
14207419,354.96,944,735,0
14207429,350.30,944,735,0
14207439,344.12,944,734,0
14207449,337.40,944,735,0
14207459,330.04,944,734,0
14207469,322.83,944,735,0
14207479,315.68,944,736,0
14207489,309.52,944,735,0
14207499,303.83,944,734,0
14207509,299.26,944,735,0
14207519,295.11,944,734,0
14207529,291.65,944,735,0
14207539,288.24,944,734,0
14207549,285.12,944,735,0
14207559,281.53,944,734,0
14207569,277.98,944,735,0
14207579,274.18,944,734,0
14207589,270.99,944,735,0
14207599,268.64,944,734,0
14207609,267.98,944,735,0
14207619,268.88,944,734,0
14207629,272.30,944,737,0
14207639,277.87,944,737,0
14207649,286.22,944,735,0
14207660,297.04,944,735,0
14207670,310.36,944,735,0
14207680,325.55,944,735,0
14207690,342.40,944,735,0
14207700,359.72,944,735,0
14207710,377.21,944,735,0
14207720,393.26,944,735,0
14207730,407.37,944,734,0
14207740,418.96,944,735,0
14207750,428.27,944,735,0
14207760,435.77,944,736,0
14207770,443.08,944,736,0
14207780,452.53,944,736,0
14207790,466.86,944,737,0
14207809,488.50,823,735,0
14207812,515.95,823,736,0
14207821,547.25,823,735,0
14207831,580.73,823,736,0
14207841,614.28,823,737,0
14207851,645.36,823,736,0
14207861,671.61,823,737,0
14207872,690.58,823,736,0
14207881,703.91,823,737,0
14207891,713.24,823,736,0
14207901,719.76,823,736,0
14207911,724.34,823,735,0
14207921,727.53,823,735,0
14207931,729.77,823,735,0
14207941,731.34,823,735,0
14207951,732.44,823,735,0
14207961,733.21,823,735,0
14207971,733.75,823,735,0
14207981,734.12,823,735,0
14207991,734.39,823,735,0
14208001,734.57,823,735,0
14208011,734.70,823,734,0
14208021,734.79,823,735,0
14208031,732.24,823,735,0
14208041,723.64,823,735,0
14208051,706.78,823,735,0
14208061,680.44,823,735,0
14208071,644.31,823,735,0
14208081,599.17,823,735,0
14208091,545.98,823,735,0
14208101,488.73,823,735,0
14208111,432.15,823,735,0
14208121,380.21,823,735,0
14208131,335.53,823,735,0
14208141,299.89,823,735,0
14208151,273.39,823,735,0
14208161,256.17,823,735,0
14208172,246.99,823,735,0
14208182,245.24,823,735,0
14208192,248.90,823,735,0
14208202,256.73,823,735,0
14208212,266.54,823,736,0
14208222,277.56,823,737,0
14208232,287.89,823,734,0
14208242,297.70,823,735,0
14208252,305.42,823,735,0
14208262,311.55,823,735,0
14208272,315.41,823,735,0
14208282,317.99,823,736,0
14208292,318.51,823,735,0
14208302,318.23,823,735,0
14208312,316.49,823,735,0
14208322,314.50,823,735,0
14208332,311.65,823,734,0
14208343,309.01,823,735,0
14208353,305.96,823,735,0
14208363,303.58,823,735,0
14208373,300.92,823,734,0
14208384,298.93,823,735,0
14208393,296.81,823,734,0
14208403,295.54,823,735,0
14208413,294.00,823,734,0
14208423,293.27,823,735,0
14208433,292.29,823,734,0
14208443,292.12,823,735,0
14208453,291.44,823,734,0
14208463,291.39,823,735,0
14208473,290.72,823,735,0
14208483,290.42,823,735,0
14208493,289.09,823,734,0
14208503,287.82,823,735,0
14208513,285.48,823,735,0
14208523,283.28,823,735,0
14208533,280.24,823,734,0
14208543,277.76,823,735,0
14208553,275.09,823,734,0
14208563,273.74,823,735,0
14208573,273.09,823,735,0
14208583,274.43,823,735,0
14208593,276.83,823,734,0
14208603,281.17,823,735,0
14208613,286.09,823,734,0
14208623,292.49,823,735,0
14208633,298.73,823,734,0
14208643,305.45,823,735,0
14208653,311.10,823,734,0
14208663,316.73,823,735,0
14208673,321.48,823,734,0
14208684,327.72,823,736,0
14208694,335.82,823,734,0
14208713,349.59,904,733,0
14208716,370.97,904,736,0
14208726,403.42,904,736,0
14208735,442.98,904,734,0
14208745,487.56,904,735,0
14208755,533.76,904,734,0
14208765,579.48,904,736,0
14208775,620.95,904,734,0
14208785,655.16,904,735,0
14208795,679.11,904,734,0
14208805,695.88,904,736,0
14208815,707.62,904,734,0
14208825,715.83,904,735,0
14208835,721.58,904,734,0
14208845,725.65,904,736,0
14208855,728.50,904,734,0
14208865,730.49,904,735,0
14208875,731.89,904,734,0
14208885,732.86,904,736,0
14208896,733.55,904,734,0
14208905,734.03,904,735,0
14208915,734.32,904,734,0
14208925,734.57,904,736,0
14208935,734.74,904,734,0
14208945,734.86,904,735,0
14208955,734.94,904,734,0
14208965,735.05,904,736,0
14208975,735.12,904,734,0
14208985,731.35,904,735,0
14208995,719.81,904,734,0
14209005,699.38,904,735,0
14209015,668.96,904,734,0
14209025,629.93,904,735,0
14209035,582.64,904,734,0
14209045,529.18,904,736,0
14209055,474.14,904,734,0
14209065,423.65,904,736,0
14209075,379.57,904,734,0
14209085,344.81,904,736,0
14209095,318.21,904,734,0
14209105,300.79,904,736,0
14209115,290.18,904,734,0
14209125,286.53,904,736,0
14209135,286.88,904,734,0
14209145,291.16,904,736,0
14209155,296.60,904,734,0
14209165,303.36,904,736,0
14209175,309.17,904,734,0
14209185,314.73,904,736,0
14209196,318.28,904,734,0
14209206,320.94,904,736,0
14209216,321.43,904,734,0
14209226,321.13,904,736,0
14209236,318.95,904,734,0
14209246,316.35,904,736,0
14209256,312.43,904,734,0
14209266,308.70,904,735,0
14209276,304.38,904,734,0
14209286,300.88,904,736,0
14209296,297.19,904,734,0
14209306,294.69,904,735,0
14209316,292.21,904,734,0
14209326,291.12,904,736,0
14209336,290.10,904,734,0
14209346,290.28,904,735,0
14209356,290.20,904,734,0
14209367,291.04,904,736,0
14209377,291.80,904,734,0
14209387,293.57,904,735,0
14209397,295.07,904,734,0
14209408,297.49,904,735,0
14209417,299.40,904,734,0
14209427,302.02,904,735,0
14209437,304.42,904,734,0
14209447,307.25,904,735,0
14209457,309.45,904,734,0
14209467,311.88,904,735,0
14209477,313.55,904,734,0
14209487,315.35,904,735,0
14209497,316.53,904,734,0
14209507,318.43,904,736,0
14209517,321.04,904,734,0
14209527,326.77,904,735,0
14209537,336.36,904,734,0
14209547,353.13,904,735,0
14209557,378.85,904,734,0
14209576,414.77,863,733,0
14209580,456.84,863,737,0
14209590,502.61,863,735,0
14209600,548.76,863,735,0
14209610,593.06,863,735,0
14209620,631.91,863,735,0
14209630,662.84,863,735,0
14209640,684.49,863,735,0
14209650,699.64,863,735,0
14209660,710.25,863,735,0
14209670,717.67,863,735,0
14209680,722.87,863,735,0
14209690,726.51,863,735,0
14209700,729.06,863,735,0
14209710,730.84,863,735,0
14209720,732.09,863,734,0
14209730,732.96,863,735,0
14209740,733.62,863,735,0
14209751,734.07,863,735,0
14209761,734.39,863,735,0
14209771,734.62,863,735,0
14209781,730.58,863,735,0
14209792,718.87,863,735,0
14209801,698.17,863,735,0
14209811,667.22,863,735,0
14209821,626.61,863,735,0
14209831,576.50,863,735,0
14209841,518.71,863,735,0
14209851,458.49,863,735,0
14209861,401.30,863,735,0
14209871,349.74,863,735,0
14209881,306.92,863,734,0
14209891,273.47,863,735,0
14209901,250.74,863,735,0
14209911,237.41,863,735,0
14209921,233.08,863,734,0
14209931,235.80,863,735,0
14209941,244.73,863,735,0
14209951,257.24,863,735,0
14209961,272.21,863,735,0
14209971,287.23,863,735,0
14209981,301.65,863,735,0
14209991,313.75,863,735,0
14210001,323.56,863,735,0
14210011,329.78,863,735,0
14210021,333.14,863,735,0
14210031,332.97,863,735,0
14210041,330.58,863,735,0
14210051,325.78,863,735,0
14210061,319.89,863,735,0
14210071,312.59,863,735,0
14210081,305.26,863,735,0
14210092,297.81,863,735,0
14210102,291.52,863,735,0
14210112,285.75,863,735,0
14210122,281.50,863,735,0
14210132,278.18,863,734,0
14210142,276.67,863,735,0
14210152,276.08,863,735,0
14210162,277.21,863,735,0
14210172,278.95,863,735,0
14210182,282.01,863,735,0
14210192,285.13,863,735,0
14210202,289.17,863,735,0
14210212,292.80,863,734,0
14210222,296.98,863,735,0
14210232,300.24,863,734,0
14210242,303.51,863,735,0
14210252,305.71,863,734,0
14210263,308.03,863,736,0
14210273,309.09,863,734,0
14210283,310.22,863,735,0
14210293,310.15,863,734,0
14210304,310.45,863,736,0
14210313,309.84,863,734,0
14210323,309.59,863,736,0
14210333,308.51,863,734,0
14210343,308.06,863,736,0
14210353,306.93,863,734,0
14210363,306.61,863,736,0
14210373,305.78,863,734,0
14210383,305.80,863,736,0
14210393,305.48,863,734,0
14210403,305.85,863,735,0
14210413,305.51,863,734,0
14210423,305.96,863,736,0
14210433,305.88,863,734,0
14210443,307.16,863,736,0
14210453,309.73,863,734,0
14210463,316.71,863,736,0
14210473,329.40,863,734,0
14210483,351.56,863,736,0
14210493,384.52,863,734,0
14210512,426.15,936,733,0
14210515,472.48,936,736,0
14210525,521.32,936,736,0
14210535,568.84,936,734,0
14210545,612.43,936,736,0
14210555,648.47,936,734,0
14210565,674.39,936,736,0
14210575,692.53,936,734,0
14210585,705.27,936,736,0
14210595,714.19,936,734,0
14210605,720.43,936,736,0
14210615,724.80,936,734,0
14210625,727.86,936,736,0
14210635,730.00,936,734,0
14210646,731.50,936,736,0
14210655,732.55,936,734,0
14210665,733.33,936,736,0
14210675,733.87,936,735,0
14210685,734.25,936,736,0
14210695,734.52,936,734,0
14210705,734.75,936,736,0
14210715,734.91,936,734,0
14210725,735.02,936,736,0
14210735,735.06,936,734,0
14210745,732.43,936,736,0
14210755,722.57,936,734,0
14210765,703.71,936,735,0
14210775,674.57,936,734,0
14210785,635.79,936,736,0
14210795,587.51,936,734,0
14210805,531.60,936,736,0
14210816,471.80,936,734,0
14210825,414.95,936,736,0
14210835,363.84,936,734,0
14210845,321.84,936,736,0
14210855,289.02,936,734,0
14210865,266.77,936,736,0
14210875,253.21,936,734,0
14210885,248.30,936,736,0
14210895,249.28,936,734,0
14210905,255.67,936,736,0
14210915,264.43,936,734,0
14210925,275.27,936,736,0
14210935,285.52,936,734,0
14210945,295.56,936,736,0
14210955,303.37,936,734,0
14210965,309.64,936,736,0
14210975,312.96,936,734,0
14210985,314.60,936,736,0
14210995,313.56,936,734,0
14211005,311.64,936,736,0
14211015,307.85,936,734,0
14211025,303.82,936,736,0
14211035,298.95,936,734,0
14211045,294.81,936,736,0
14211055,290.41,936,734,0
14211065,287.33,936,736,0
14211075,284.36,936,735,0
14211085,283.01,936,736,0
14211095,281.98,936,734,0
14211105,282.54,936,736,0
14211116,283.28,936,734,0
14211126,285.42,936,736,0
14211136,287.40,936,734,0
14211146,290.28,936,736,0
14211156,292.64,936,734,0
14211166,295.57,936,736,0
14211176,297.67,936,734,0
14211186,300.00,936,736,0
14211196,301.46,936,734,0
14211206,303.08,936,736,0
14211216,303.83,936,734,0
14211226,304.56,936,736,0
14211236,304.44,936,734,0
14211246,304.31,936,736,0
14211256,303.27,936,734,0
14211266,302.42,936,736,0
14211276,300.84,936,734,0
14211287,299.60,936,736,0
14211297,297.96,936,734,0
14211307,296.86,936,736,0
14211317,295.70,936,735,0
14211328,295.32,936,735,0
14211337,294.84,936,734,0
14211347,295.14,936,735,0
14211357,295.23,936,735,0
14211367,295.76,936,735,0
14211377,296.26,936,734,0
14211387,298.37,936,735,0
14211397,302.84,936,735,0
14211407,312.28,936,735,0
14211417,327.96,936,734,0
14211427,353.60,936,735,0
14211446,390.24,934,734,0
14211449,434.44,934,737,0
14211459,482.56,934,735,0
14211469,531.94,934,735,0
14211479,579.10,934,735,0
14211489,621.58,934,735,0
14211500,655.57,934,735,0
14211510,679.35,934,735,0
14211520,696.05,934,735,0
14211530,707.73,934,735,0
14211540,715.91,934,735,0
14211550,721.64,934,735,0
14211560,725.65,934,735,0
14211570,728.45,934,735,0
14211580,730.42,934,735,0
14211590,731.79,934,735,0
14211600,732.80,934,735,0
14211610,733.50,934,735,0
14211620,733.99,934,735,0
14211630,734.34,934,735,0
14211640,734.58,934,735,0
14211650,734.75,934,735,0
14211660,734.87,934,735,0
14211671,734.91,934,735,0
14211681,731.33,934,735,0
14211691,720.22,934,734,0
14211701,699.84,934,735,0
14211712,669.03,934,734,0
14211721,628.91,934,735,0
14211731,580.04,934,735,0
14211741,524.40,934,735,0
14211751,466.63,934,734,0
14211761,413.00,934,735,0
14211771,366.20,934,735,0
14211781,329.37,934,735,0
14211791,301.83,934,734,0
14211801,284.18,934,735,0
14211811,274.48,934,735,0
14211821,272.20,934,735,0
14211831,274.49,934,734,0
14211841,280.77,934,735,0
14211851,288.47,934,735,0
14211861,297.20,934,735,0
14211871,305.03,934,734,0
14211881,311.96,934,735,0
14211891,316.86,934,735,0
14211901,320.37,934,735,0
14211911,321.50,934,734,0
14211921,321.18,934,735,0
14211931,318.86,934,735,0
14211941,315.81,934,735,0
14211951,311.37,934,734,0
14211961,306.93,934,735,0
14211971,301.81,934,735,0
14211981,297.32,934,735,0
14211991,292.73,934,734,0
14212001,289.25,934,735,0
14212012,285.83,934,734,0
14212022,283.87,934,736,0
14212032,282.02,934,734,0
14212042,281.67,934,736,0
14212052,281.47,934,734,0
14212062,282.66,934,736,0
14212072,283.79,934,734,0
14212082,286.00,934,736,0
14212092,288.01,934,734,0
14212102,291.01,934,736,0
14212112,293.62,934,734,0
14212122,296.95,934,736,0
14212132,299.66,934,734,0
14212142,302.94,934,736,0
14212152,305.53,934,734,0
14212162,308.58,934,736,0
14212172,310.89,934,734,0
14212183,313.41,934,736,0
14212193,315.00,934,734,0
14212203,316.80,934,736,0
14212213,317.55,934,734,0
14212224,318.54,934,736,0
14212233,318.42,934,734,0
14212243,318.51,934,736,0
14212253,317.63,934,734,0
14212263,317.70,934,736,0
14212273,318.09,934,734,0
14212283,321.88,934,736,0
14212293,329.84,934,734,0
14212303,345.87,934,736,0
14212322,370.77,876,734,0
14212325,406.62,876,736,0
14212335,449.08,876,735,0
14212345,495.94,876,736,0
14212355,543.36,876,734,0
14212365,588.89,876,736,0
14212375,628.61,876,734,0
14212385,660.49,876,736,0
14212396,682.80,876,734,0
14212406,698.41,876,736,0
14212416,709.35,876,734,0
14212426,717.04,876,736,0
14212436,722.43,876,734,0
14212446,726.20,876,736,0
14212456,728.84,876,734,0
14212466,730.69,876,736,0
14212476,731.98,876,734,0
14212486,732.89,876,736,0
14212496,733.52,876,734,0
14212506,733.96,876,736,0
14212516,734.28,876,734,0
14212526,732.99,876,736,0
14212536,725.58,876,734,0
14212546,710.06,876,736,0
14212556,684.76,876,734,0
14212567,650.03,876,735,0
14212577,606.18,876,734,0
14212587,554.74,876,735,0
14212597,498.50,876,734,0
14212608,444.01,876,735,0
14212617,394.64,876,737,0
14212627,353.99,876,737,0
14212637,322.75,876,740,0
14212647,301.57,876,739,0
14212657,289.44,876,747,0
14212667,285.02,876,744,0
14212677,286.77,876,749,0
14212687,292.71,876,746,0
14212697,300.98,876,749,0
14212707,310.07,876,747,0
14212717,318.92,876,749,0
14212727,326.19,876,746,0
14212737,331.92,876,749,0
14212747,334.90,876,745,0
14212757,336.17,876,737,0
14212767,335.61,876,736,0
14212777,333.02,876,735,0
14212787,328.47,876,736,0
14212797,322.29,876,735,0
14212807,314.75,876,735,0
14212817,306.46,876,735,0
14212827,297.41,876,735,0
14212837,287.64,876,735,0
14212847,278.11,876,735,0
14212857,269.16,876,735,0
14212867,261.66,876,735,0
14212877,255.33,876,734,0
14212887,250.86,876,735,0
14212897,247.99,876,734,0
14212908,247.01,876,735,0
14212918,248.03,876,735,0
14212928,250.85,876,735,0
14212938,255.44,876,735,0
14212948,261.91,876,735,0
14212958,270.04,876,735,0
14212968,279.58,876,735,0
14212978,290.29,876,735,0
14212988,301.52,876,735,0
14212998,313.11,876,735,0
14213008,324.56,876,735,0
14213018,335.45,876,735,0
14213028,345.21,876,735,0
14213038,353.68,876,735,0
14213048,360.63,876,735,0
14213058,366.06,876,735,0
14213068,369.81,876,735,0
14213079,372.05,876,735,0
14213089,373.11,876,734,0
14213099,374.10,876,737,0
14213109,376.26,876,737,0
14213120,381.84,876,741,0
14213129,392.77,876,738,0
14213139,412.04,876,749,0
14213149,441.13,876,742,0
14213169,477.18,846,741,0
14213172,517.24,846,744,0
14213182,558.99,846,749,0
14213192,599.37,846,746,0
14213202,635.94,846,749,0
14213212,665.53,846,744,0
14213222,686.33,846,737,0
14213232,700.89,846,735,0
14213242,711.16,846,736,0
14213252,718.36,846,734,0
14213262,723.44,846,736,0
14213272,727.03,846,735,0
14213282,729.60,846,736,0
14213292,731.35,846,734,0
14213302,732.61,846,736,0
14213312,733.46,846,735,0
14213322,734.09,846,736,0
14213332,734.49,846,734,0
14213342,734.82,846,736,0
14213352,735.00,846,735,0
14213362,735.17,846,736,0
14213372,735.25,846,734,0
14213382,735.30,846,736,0
14213392,730.20,846,735,0
14213402,717.45,846,735,0
14213412,694.60,846,734,0
14213422,662.32,846,736,0
14213432,620.14,846,734,0
14213442,569.83,846,736,0
14213452,511.89,846,734,0
14213463,453.77,846,735,0
14213473,398.94,846,734,0
14213483,352.33,846,736,0
14213493,313.87,846,734,0
14213504,286.01,846,736,0
14213513,266.94,846,734,0
14213523,257.53,846,736,0
14213533,254.84,846,734,0
14213543,258.66,846,736,0
14213553,265.62,846,734,0
14213563,275.63,846,736,0
14213573,285.86,846,734,0
14213583,296.66,846,736,0
14213593,305.76,846,734,0
14213603,314.02,846,736,0
14213613,319.76,846,734,0
14213623,324.16,846,736,0
14213633,325.91,846,734,0
14213643,326.45,846,736,0
14213653,324.73,846,734,0
14213663,322.33,846,736,0
14213673,318.28,846,734,0
14213683,314.21,846,736,0
14213693,308.96,846,734,0
14213703,304.13,846,735,0
14213713,298.56,846,734,0
14213723,293.98,846,735,0
14213733,289.06,846,734,0
14213743,285.18,846,736,0
14213753,281.19,846,734,0
14213763,278.77,846,736,0
14213773,276.96,846,734,0
14213783,277.01,846,736,0
14213793,277.48,846,734,0
14213804,279.91,846,736,0
14213814,283.11,846,734,0
14213824,288.05,846,735,0
14213834,293.22,846,734,0
14213844,299.28,846,735,0
14213854,304.81,846,734,0
14213864,310.61,846,736,0
14213874,314.93,846,734,0
14213884,318.59,846,736,0
14213894,320.34,846,734,0
14213904,321.18,846,736,0
14213914,319.89,846,734,0
14213924,318.21,846,736,0
14213934,316.04,846,734,0
14213944,316.59,846,736,0
14213954,321.08,846,734,0
14213964,333.57,846,736,0
14213975,355.94,846,734,0
14213985,390.63,846,736,0
14213995,433.21,846,735,0
14214014,481.15,846,734,0
14214018,530.43,846,735,0
14214027,578.35,846,735,0
14214037,620.84,846,735,0
14214047,655.09,846,735,0
14214057,679.06,846,735,0
14214067,695.84,846,735,0
14214077,707.59,846,735,0
14214087,715.81,846,735,0
14214097,721.57,846,735,0
14214107,725.64,846,735,0
14214117,728.53,846,735,0
14214127,730.56,846,735,0
14214137,731.98,846,735,0
14214147,732.97,846,735,0
14214157,733.71,846,735,0
14214167,734.22,846,735,0
14214177,734.54,846,735,0
14214188,734.72,846,735,0
14214198,734.16,846,735,0
14214208,728.41,846,735,0
14214218,714.62,846,735,0
14214228,691.03,846,735,0
14214238,657.77,846,735,0
14214248,614.94,846,735,0
14214258,563.40,846,735,0
14214268,505.12,846,735,0
14214278,446.37,846,735,0
14214288,391.70,846,735,0
14214298,344.56,846,735,0
14214308,306.34,846,735,0
14214318,278.12,846,735,0
14214328,259.79,846,735,0
14214338,250.94,846,735,0
14214348,249.88,846,735,0
14214359,255.19,846,735,0
14214369,264.48,846,735,0
14214379,276.38,846,735,0
14214389,288.82,846,735,0
14214400,301.22,846,735,0
14214409,311.82,846,735,0
14214419,320.70,846,735,0
14214429,326.96,846,735,0
14214439,331.65,846,735,0
14214449,334.07,846,735,0
14214459,335.29,846,735,0
14214469,334.86,846,734,0
14214479,333.87,846,735,0
14214489,331.85,846,735,0
14214499,329.71,846,735,0
14214509,326.67,846,734,0
14214519,323.73,846,735,0
14214529,320.42,846,735,0
14214539,317.47,846,735,0
14214549,314.11,846,734,0
14214559,311.08,846,735,0
14214569,307.54,846,735,0
14214579,304.25,846,735,0
14214589,300.32,846,734,0
14214599,296.28,846,736,0
14214609,291.14,846,735,0
14214619,285.83,846,737,0
14214629,279.49,846,734,0
14214639,273.30,846,735,0
14214649,266.57,846,735,0
14214659,260.40,846,735,0
14214669,254.45,846,734,0
14214679,249.81,846,735,0
14214689,245.97,846,735,0
14214700,244.27,846,735,0
14214710,244.01,846,734,0
14214720,246.24,846,735,0
14214730,250.15,846,735,0
14214740,256.92,846,736,0
14214750,266.20,846,734,0
14214760,279.86,846,735,0
14214770,297.94,846,735,0
14214780,323.16,846,736,0
14214790,356.03,846,734,0
14214800,398.02,846,736,0
14214810,444.90,846,735,0
14214830,494.34,815,734,0
14214833,543.01,815,736,0
14214843,588.95,815,736,0
14214853,628.74,815,734,0
14214863,660.62,815,736,0
14214873,682.93,815,734,0
14214883,698.55,815,736,0
14214893,709.49,815,735,0
14214903,717.23,815,736,0
14214913,722.60,815,734,0
14214923,726.36,815,736,0
14214933,729.00,815,735,0
14214943,730.84,815,736,0
14214953,732.13,815,734,0
14214963,733.04,815,736,0
14214973,733.62,815,735,0
14214983,734.04,815,736,0
14214993,729.53,815,734,0
14215003,718.35,815,736,0
14215013,697.85,815,734,0
14215023,667.89,815,736,0
14215033,628.11,815,734,0
14215043,579.99,815,736,0
14215053,524.11,815,734,0
14215063,467.38,815,736,0
14215073,412.49,815,734,0
14215084,364.34,815,736,0
14215094,324.04,815,735,0
14215104,293.90,815,736,0
14215114,273.14,815,734,0
14215124,262.43,815,736,0
14215134,259.60,815,734,0
14215144,264.52,815,736,0
14215154,274.35,815,734,0
14215164,288.43,815,736,0
14215174,303.77,815,735,0
14215184,319.87,815,736,0
14215194,334.31,815,734,0
14215204,347.16,815,736,0
14215214,356.50,815,735,0
14215224,362.99,815,736,0
14215234,365.39,815,734,0
14215244,364.93,815,736,0
14215255,361.05,815,734,0
14215265,355.25,815,736,0
14215275,347.16,815,735,0
14215285,338.24,815,735,0
14215296,328.44,815,735,0
14215305,319.18,815,736,0
14215315,310.21,815,734,0
14215325,302.35,815,736,0
14215335,295.39,815,735,0
14215345,290.08,815,736,0
14215355,286.03,815,734,0
14215365,283.88,815,735,0
14215375,283.02,815,735,0
14215385,284.04,815,736,0
14215395,285.96,815,735,0
14215405,289.23,815,735,0
14215415,293.02,815,735,0
14215425,297.68,815,736,0
14215435,302.06,815,734,0
14215445,306.37,815,736,0
14215455,309.56,815,734,0
14215465,312.31,815,735,0
14215475,313.80,815,734,0
14215485,315.27,815,735,0
14215495,317.08,815,735,0
14215505,321.21,815,735,0
14215515,328.86,815,734,0
14215525,342.88,815,735,0
14215535,364.98,815,735,0
14215545,397.65,815,736,0
14215555,438.04,815,735,0
14215565,483.07,815,735,0
14215575,529.55,815,735,0
14215585,574.98,815,736,0
14215605,616.22,776,735,0
14215608,650.78,776,736,0
14215617,676.05,776,735,0
14215627,693.73,776,735,0
14215638,706.16,776,735,0
14215647,714.85,776,735,0
14215657,720.94,776,735,0
14215667,725.20,776,735,0
14215677,728.18,776,735,0
14215687,730.27,776,735,0
14215697,731.73,776,735,0
14215707,732.71,776,735,0
14215717,729.33,776,735,0
14215727,719.20,776,735,0
14215737,700.50,776,735,0
14215747,672.28,776,735,0
14215757,634.74,776,735,0
14215767,588.36,776,735,0
14215777,534.25,776,735,0
14215787,477.69,776,735,0
14215797,423.01,776,735,0
14215808,373.72,776,734,0
14215817,332.75,776,735,0
14215827,301.41,776,735,0
14215837,280.80,776,735,0
14215847,270.66,776,734,0
14215857,270.25,776,735,0
14215867,278.02,776,735,0
14215877,292.45,776,735,0
14215887,311.00,776,734,0
14215897,331.66,776,735,0
14215907,351.99,776,735,0
14215917,370.59,776,735,0
14215927,385.89,776,734,0
14215937,397.19,776,735,0
14215947,403.82,776,735,0
14215957,405.93,776,735,0
14215967,403.51,776,735,0
14215977,397.61,776,735,0
14215987,388.77,776,735,0
14215997,378.17,776,735,0
14216007,366.16,776,735,0
14216017,353.81,776,735,0
14216027,341.70,776,735,0
14216037,330.56,776,735,0
14216047,320.41,776,735,0
14216057,311.76,776,735,0
14216067,304.67,776,735,0
14216077,299.58,776,735,0
14216087,296.19,776,735,0
14216097,294.85,776,735,0
14216108,295.32,776,735,0
14216118,297.97,776,735,0
14216128,301.84,776,735,0
14216138,307.11,776,735,0
14216148,312.57,776,735,0
14216158,318.44,776,735,0
14216168,323.71,776,735,0
14216178,328.64,776,735,0
14216188,332.26,776,735,0
14216198,335.87,776,735,0
14216208,339.55,776,735,0
14216218,345.86,776,735,0
14216228,355.80,776,735,0
14216238,372.15,776,735,0
14216248,396.74,776,735,0
14216258,430.94,776,735,0
14216268,471.03,776,735,0
14216279,514.60,776,735,0
14216289,558.52,776,735,0
14216299,600.37,776,735,0
14216309,637.24,776,735,0
14216320,666.61,776,736,0
14216338,687.17,733,735,0
14216341,701.61,733,737,0
14216350,711.71,733,735,0
14216360,718.83,733,736,0
14216370,723.81,733,735,0
14216380,727.34,733,736,0
14216390,729.76,733,735,0
14216400,731.51,733,736,0
14216410,732.68,733,734,0
14216420,733.55,733,736,0
14216430,734.11,733,735,0
14216440,734.55,733,736,0
14216450,734.81,733,735,0
14216460,731.31,733,736,0
14216470,720.46,733,735,0
14216480,701.17,733,736,0
14216491,671.84,733,735,0
14216500,633.53,733,736,0
14216510,585.97,733,734,0
14216520,530.74,733,736,0
14216530,472.23,733,735,0
14216540,416.02,733,736,0
14216550,364.24,733,734,0
14216560,320.67,733,736,0
14216570,285.15,733,734,0
14216580,259.69,733,735,0
14216590,243.20,733,735,0
14216600,236.45,733,736,0
14216610,236.96,733,734,0
14216620,244.47,733,735,0
14216630,255.95,733,735,0
14216640,270.83,733,736,0
14216650,286.18,733,734,0
14216660,301.64,733,735,0
14216670,314.56,733,734,0
14216680,325.37,733,736,0
14216690,332.16,733,734,0
14216700,336.05,733,735,0
14216710,336.08,733,735,0
14216720,333.87,733,736,0
14216730,328.72,733,734,0
14216740,322.38,733,735,0
14216750,314.59,733,735,0
14216760,307.30,733,736,0
14216770,299.75,733,735,0
14216780,293.61,733,735,0
14216791,287.90,733,735,0
14216801,284.24,733,736,0
14216811,281.34,733,734,0
14216821,280.47,733,735,0
14216832,280.29,733,734,0
14216841,282.13,733,736,0
14216851,284.45,733,734,0
14216861,288.56,733,735,0
14216871,292.59,733,734,0
14216881,297.86,733,736,0
14216891,302.53,733,734,0
14216901,307.51,733,735,0
14216911,311.17,733,734,0
14216921,314.51,733,736,0
14216931,316.11,733,734,0
14216941,317.49,733,736,0
14216951,317.82,733,735,0
14216961,319.24,733,736,0
14216971,322.30,733,735,0
14216981,330.31,733,736,0
14216991,344.32,733,734,0
14217001,368.31,733,736,0
14217011,402.46,733,735,0
14217021,444.28,733,736,0
14217031,490.18,733,735,0
14217051,537.74,712,734,0
14217054,583.20,712,736,0
14217064,624.33,712,735,0
14217074,657.19,712,735,0
14217084,680.62,712,736,0
14217094,697.06,712,735,0
14217104,708.57,712,736,0
14217114,716.63,712,735,0
14217124,722.31,712,736,0
14217134,726.33,712,735,0
14217144,729.15,712,736,0
14217154,731.12,712,735,0
14217164,732.50,712,736,0
14217175,733.50,712,735,0
14217185,734.17,712,735,0
14217195,734.63,712,735,0
14217205,734.96,712,736,0
14217216,735.23,712,735,0
14217225,735.37,712,735,0
14217235,732.56,712,735,0
14217245,723.35,712,735,0
14217255,705.20,712,735,0
14217265,677.50,712,736,0
14217275,639.76,712,735,0
14217285,592.56,712,735,0
14217295,536.94,712,735,0
14217305,477.34,712,735,0
14217315,418.74,712,735,0
14217325,365.42,712,735,0
14217335,319.56,712,735,0
14217345,283.22,712,736,0
14217355,256.88,712,735,0
14217365,240.59,712,735,0
14217375,233.17,712,735,0
14217385,233.42,712,735,0
14217395,239.34,712,734,0
14217405,249.44,712,735,0
14217415,261.65,712,735,0
14217425,274.61,712,735,0
14217435,286.68,712,734,0
14217445,297.19,712,735,0
14217455,305.36,712,735,0
14217465,311.13,712,735,0
14217475,314.05,712,735,0
14217485,314.63,712,735,0
14217495,313.11,712,735,0
14217505,310.12,712,735,0
14217516,305.93,712,735,0
14217526,300.98,712,735,0
14217536,295.97,712,735,0
14217546,291.09,712,735,0
14217556,286.78,712,735,0
14217566,283.03,712,735,0
14217576,280.02,712,735,0
14217586,277.79,712,735,0
14217596,276.61,712,735,0
14217606,276.21,712,735,0
14217616,276.79,712,735,0
14217626,277.92,712,735,0
14217636,279.79,712,735,0
14217646,282.08,712,735,0
14217656,284.67,712,735,0
14217666,287.13,712,735,0
14217676,289.53,712,735,0
14217687,291.60,712,735,0
14217697,293.65,712,735,0
14217707,295.21,712,735,0
14217717,296.82,712,735,0
14217728,297.95,712,735,0
14217737,299.16,712,735,0
14217747,299.84,712,735,0
14217757,300.53,712,735,0
14217767,300.33,712,735,0
14217777,300.06,712,735,0
14217787,298.97,712,735,0
14217797,298.08,712,735,0
14217807,297.11,712,735,0
14217817,297.76,712,735,0
14217827,300.71,712,735,0
14217837,308.64,712,735,0
14217847,323.15,712,735,0
14217857,346.80,712,735,0
14217876,381.36,826,734,0
14217879,424.28,826,737,0
14217889,471.81,826,735,0
14217900,521.20,826,736,0
14217910,569.01,826,735,0
14217920,612.38,826,736,0
14217930,648.39,826,735,0
14217940,674.50,826,736,0
14217950,692.78,826,735,0
14217960,705.62,826,735,0
14217970,714.56,826,735,0
14217980,720.86,826,736,0
14217990,725.23,826,735,0
14218000,728.33,826,735,0
14218010,730.46,826,735,0
14218020,732.00,826,736,0
14218030,733.03,826,735,0
14218040,733.79,826,735,0
14218050,734.28,826,735,0
14218060,734.67,826,736,0
14218071,734.90,826,734,0
14218081,733.60,826,735,0
14218091,725.96,826,735,0
14218101,710.12,826,736,0
14218112,683.98,826,734,0
14218121,648.24,826,735,0
14218131,602.40,826,734,0
14218141,548.15,826,736,0
14218151,487.63,826,734,0
14218161,427.96,826,735,0
14218171,372.04,826,734,0
14218181,324.03,826,736,0
14218191,284.16,826,734,0
14218201,254.76,826,735,0
14218211,234.69,826,734,0
14218221,224.58,826,736,0
14218231,221.92,826,734,0
14218241,226.40,826,735,0
14218251,235.37,826,734,0
14218261,248.37,826,736,0
14218271,262.45,826,734,0
14218281,277.14,826,735,0
14218291,290.04,826,734,0
14218301,301.73,826,736,0
14218311,310.42,826,734,0
14218321,316.94,826,736,0
14218331,320.00,826,735,0
14218341,321.24,826,736,0
14218351,319.76,826,734,0
14218361,317.17,826,736,0
14218371,312.36,826,734,0
14218381,307.15,826,736,0
14218391,300.85,826,734,0
14218401,295.15,826,735,0
14218412,289.19,826,734,0
14218422,284.51,826,736,0
14218432,280.28,826,734,0
14218442,277.84,826,736,0
14218452,276.13,826,734,0
14218462,275.92,826,736,0
14218472,275.82,826,734,0
14218482,276.90,826,736,0
14218492,278.13,826,734,0
14218502,280.32,826,736,0
14218512,282.20,826,734,0
14218522,284.71,826,736,0
14218532,286.98,826,734,0
14218542,290.03,826,736,0
14218552,292.46,826,734,0
14218562,295.02,826,736,0
14218572,296.69,826,734,0
14218583,298.50,826,736,0
14218593,299.50,826,735,0
14218603,300.60,826,736,0
14218613,301.06,826,735,0
14218624,301.73,826,736,0
14218633,301.98,826,734,0
14218643,302.54,826,735,0
14218653,302.77,826,735,0
14218663,303.14,826,736,0
14218673,302.97,826,734,0
14218683,302.98,826,736,0
14218693,302.47,826,734,0
14218703,301.99,826,735,0
14218713,300.96,826,734,0
14218723,300.37,826,736,0
14218733,300.18,826,734,0
14218743,301.97,826,736,0
14218753,305.92,826,734,0
14218763,314.73,826,736,0
14218773,329.47,826,734,0
14218783,352.86,826,736,0
14218803,385.68,926,734,0
14218806,426.92,926,735,0
14218816,472.67,926,735,0
14218826,520.43,926,735,0
14218836,566.71,926,735,0
14218846,609.23,926,735,0
14218856,644.95,926,735,0
14218866,671.96,926,735,0
14218876,690.87,926,735,0
14218886,704.11,926,735,0
14218896,713.38,926,735,0
14218906,719.86,926,735,0
14218916,724.45,926,735,0
14218926,727.66,926,735,0
14218936,729.95,926,735,0
14218946,731.55,926,735,0
14218956,732.71,926,735,0
14218967,733.53,926,735,0
14218977,734.14,926,735,0
14218987,734.53,926,735,0
14218997,733.47,926,735,0
14219008,726.99,926,735,0
14219017,713.66,926,735,0
14219027,691.48,926,735,0
14219037,660.48,926,735,0
14219047,620.26,926,734,0
14219057,572.18,926,735,0
14219067,518.13,926,735,0
14219077,463.70,926,735,0
14219087,411.38,926,735,0
14219097,365.07,926,735,0
14219107,325.79,926,735,0
14219117,295.51,926,735,0
14219127,273.41,926,735,0
14219137,259.96,926,735,0
14219147,253.46,926,735,0
14219157,253.75,926,735,0
14219167,258.32,926,735,0
14219177,266.67,926,735,0
14219187,276.24,926,735,0
14219197,286.75,926,735,0
14219207,296.26,926,735,0
14219217,305.01,926,735,0
14219227,311.31,926,735,0
14219237,315.93,926,735,0
14219247,317.66,926,735,0
14219257,317.81,926,735,0
14219267,315.68,926,735,0
14219277,312.60,926,735,0
14219287,307.97,926,735,0
14219297,303.13,926,735,0
14219308,297.52,926,735,0
14219318,292.52,926,735,0
14219328,287.35,926,734,0
14219338,283.26,926,735,0
14219348,279.45,926,734,0
14219358,277.09,926,736,0
14219368,275.13,926,734,0
14219378,274.79,926,735,0
14219388,274.77,926,734,0
14219398,276.34,926,736,0
14219408,278.12,926,734,0
14219418,281.21,926,735,0
14219428,284.19,926,734,0
14219438,288.16,926,736,0
14219448,291.59,926,734,0
14219458,295.57,926,735,0
14219468,298.65,926,734,0
14219479,301.76,926,735,0
14219489,303.46,926,734,0
14219499,305.16,926,735,0
14219509,305.63,926,734,0
14219520,306.38,926,736,0
14219529,306.31,926,734,0
14219539,306.47,926,735,0
14219549,305.95,926,734,0
14219559,306.09,926,735,0
14219569,305.68,926,734,0
14219579,306.16,926,735,0
14219589,305.94,926,734,0
14219599,306.43,926,736,0
14219609,306.34,926,734,0
14219619,306.93,926,735,0
14219629,306.99,926,734,0
14219639,307.81,926,736,0
14219649,307.82,926,734,0
14219659,308.56,926,735,0
14219669,308.52,926,734,0
14219679,309.31,926,736,0
14219689,309.82,926,735,0
14219699,311.80,926,735,0
14219709,314.56,926,734,0
14219719,320.65,926,736,0
14219729,330.01,926,734,0
14219739,345.27,926,735,0
14219749,366.70,926,734,0
14219768,396.75,966,733,0
14219771,434.49,966,734,0
14219781,477.42,966,736,0
14219791,521.82,966,734,0
14219801,565.67,966,736,0
14219811,606.14,966,734,0
14219821,641.50,966,736,0
14219831,669.34,966,734,0
14219841,689.04,966,736,0
14219851,702.82,966,734,0
14219862,712.43,966,736,0
14219871,719.16,966,734,0
14219881,723.87,966,735,0
14219891,727.17,966,734,0
14219901,729.47,966,736,0
14219911,731.09,966,734,0
14219921,731.10,966,736,0
14219931,727.04,966,734,0
14219941,717.95,966,736,0
14219951,702.49,966,734,0
14219961,680.53,966,736,0
14219971,651.44,966,734,0
14219981,615.91,966,735,0
14219991,575.14,966,734,0
14220001,532.88,966,735,0
14220011,490.49,966,734,0
14220021,450.66,966,736,0
14220032,414.16,966,734,0
14220041,383.08,966,735,0
14220051,357.04,966,734,0
14220061,337.40,966,736,0
14220071,323.05,966,734,0
14220081,314.68,966,736,0
14220091,310.62,966,734,0
14220101,311.25,966,736,0
14220111,314.56,966,734,0
14220121,320.73,966,736,0
14220131,327.63,966,734,0
14220141,335.45,966,736,0
14220151,342.43,966,734,0
14220161,349.12,966,735,0
14220171,353.80,966,734,0
14220181,357.24,966,736,0
14220191,358.33,966,734,0
14220201,357.97,966,736,0
14220211,355.58,966,734,0
14220221,352.41,966,736,0
14220231,347.57,966,734,0
14220241,342.51,966,736,0
14220251,336.62,966,734,0
14220261,331.20,966,735,0
14220271,325.57,966,734,0
14220281,320.77,966,736,0
14220291,315.95,966,734,0
14220301,312.50,966,736,0
14220311,309.26,966,734,0
14220321,307.25,966,736,0
14220332,305.51,966,734,0
14220342,305.01,966,736,0
14220352,304.71,966,734,0
14220362,305.44,966,735,0
14220372,306.16,966,735,0
14220382,307.70,966,736,0
14220392,309.08,966,734,0
14220402,310.85,966,735,0
14220412,312.18,966,734,0
14220422,313.76,966,735,0
14220432,314.82,966,734,0
14220442,315.99,966,735,0
14220452,316.63,966,734,0
14220462,317.43,966,735,0
14220472,317.69,966,734,0
14220482,318.25,966,735,0
14220492,318.43,966,734,0
14220503,318.65,966,735,0
14220513,318.45,966,734,0
14220523,318.40,966,735,0
14220533,318.11,966,735,0
14220544,318.25,966,735,0
14220553,318.17,966,734,0
14220563,318.51,966,735,0
14220573,318.96,966,735,0
14220583,319.65,966,735,0
14220593,320.14,966,734,0
14220603,320.57,966,735,0
14220613,320.83,966,735,0
14220623,321.05,966,735,0
14220633,321.04,966,734,0
14220643,320.98,966,735,0
14220653,320.90,966,735,0
14220663,321.27,966,735,0
14220673,322.26,966,734,0
14220683,324.76,966,735,0
14220693,329.54,966,735,0
14220703,337.95,966,735,0
14220713,351.08,966,734,0
14220732,370.13,964,733,0
14220735,395.98,964,736,0
14220745,429.28,964,735,0
14220755,468.50,964,735,0
14220765,510.61,964,735,0
14220775,552.77,964,735,0
14220785,592.69,964,735,0
14220795,628.44,964,735,0
14220805,658.31,964,735,0
14220815,681.10,964,735,0
14220825,697.10,964,735,0
14220835,708.34,964,735,0
14220845,716.21,964,735,0
14220855,721.55,964,735,0
14220865,723.01,964,735,0
14220875,720.14,964,735,0
14220886,711.91,964,735,0
14220895,698.52,964,735,0
14220905,679.29,964,735,0
14220915,654.69,964,735,0
14220925,624.70,964,735,0
14220935,592.26,964,735,0
14220945,558.41,964,735,0
14220955,525.12,964,735,0
14220965,492.51,964,735,0
14220975,462.40,964,735,0
14220985,434.81,964,735,0
14220995,410.82,964,735,0
14221005,389.88,964,735,0
14221015,372.77,964,735,0
14221025,359.13,964,735,0
14221035,349.74,964,735,0
14221045,343.65,964,734,0
14221056,341.18,964,735,0
14221065,341.30,964,735,0
14221075,344.17,964,735,0
14221085,348.40,964,734,0
14221095,354.20,964,735,0
14221105,359.97,964,735,0
14221115,365.93,964,735,0
14221125,370.80,964,734,0
14221135,375.01,964,735,0
14221145,377.54,964,735,0
14221155,378.96,964,735,0
14221165,378.37,964,734,0
14221175,376.72,964,735,0
14221185,373.55,964,735,0
14221195,369.78,964,735,0
14221205,364.92,964,734,0
14221215,360.01,964,735,0
14221225,354.65,964,735,0
14221235,349.66,964,735,0
14221245,344.53,964,734,0
14221255,340.26,964,735,0
14221265,336.19,964,735,0
14221275,333.26,964,735,0
14221285,330.66,964,734,0
14221295,329.26,964,735,0
14221305,328.37,964,735,0
14221315,328.69,964,735,0
14221325,329.12,964,734,0
14221335,330.29,964,735,0
14221345,331.27,964,735,0
14221356,332.82,964,735,0
14221366,333.94,964,734,0
14221376,335.20,964,735,0
14221386,335.66,964,734,0
14221396,336.49,964,736,0
14221406,336.73,964,734,0
14221416,337.37,964,735,0
14221426,337.43,964,735,0
14221436,337.86,964,736,0
14221446,337.99,964,734,0
14221456,338.80,964,735,0
14221466,338.86,964,734,0
14221476,339.50,964,735,0
14221486,339.35,964,734,0
14221496,339.63,964,735,0
14221506,339.36,964,735,0
14221516,339.59,964,735,0
14221527,339.20,964,734,0
14221537,339.44,964,736,0
14221547,339.01,964,734,0
14221557,339.35,964,736,0
14221568,339.03,964,734,0
14221577,339.32,964,736,0
14221587,339.01,964,734,0
14221597,339.26,964,736,0
14221607,338.89,964,734,0
14221617,339.09,964,736,0
14221627,338.72,964,734,0
14221637,339.53,964,736,0
14221647,340.66,964,734,0
14221657,343.93,964,735,0
14221667,349.18,964,734,0
14221677,358.64,964,736,0
14221697,372.03,964,734,0
14221700,391.82,964,736,0
14221710,417.46,964,734,0
14221720,449.47,964,736,0
14221730,485.80,964,734,0
14221740,525.03,964,736,0
14221750,563.94,964,734,0
14221760,601.20,964,736,0
14221770,633.97,964,734,0
14221780,661.32,964,735,0
14221790,682.14,964,734,0
14221800,696.24,964,735,0
14221810,702.90,964,734,0
14221820,703.36,964,736,0
14221830,697.42,964,734,0
14221840,686.02,964,736,0
14221850,668.70,964,734,0
14221860,646.59,964,735,0
14221870,620.31,964,734,0
14221880,592.49,964,735,0
14221890,563.20,964,734,0
14221900,534.21,964,735,0
14221911,505.43,964,734,0
14221921,478.82,964,735,0
14221931,453.97,964,734,0
14221941,432.17,964,735,0
14221952,412.92,964,734,0
14221961,397.34,964,736,0
14221971,384.90,964,734,0
14221981,376.23,964,735,0
14221991,370.46,964,734,0
14222001,368.01,964,735,0
14222011,367.83,964,734,0
14222021,370.07,964,735,0
14222031,373.48,964,734,0
14222041,378.31,964,736,0
14222051,383.10,964,734,0
14222061,387.91,964,735,0
14222071,391.58,964,734,0
14222081,394.49,964,735,0
14222091,395.54,964,734,0
14222101,395.17,964,735,0
14222111,392.50,964,734,0
14222121,388.67,964,735,0
14222131,383.15,964,734,0
14222141,376.98,964,735,0
14222151,369.78,964,735,0
14222161,362.56,964,735,0
14222171,355.19,964,734,0
14222181,348.79,964,735,0
14222191,342.90,964,735,0
14222201,338.17,964,735,0
14222211,334.18,964,734,0
14222221,331.47,964,735,0
14222231,329.48,964,734,0
14222241,328.74,964,735,0
14222252,328.43,964,734,0
14222262,329.03,964,735,0
14222272,329.84,964,734,0
14222282,331.30,964,735,0
14222292,333.10,964,735,0
14222302,335.55,964,735,0
14222312,337.96,964,734,0
14222322,340.67,964,735,0
14222332,343.21,964,734,0
14222342,346.06,964,735,0
14222352,348.66,964,735,0
14222362,350.90,964,735,0
14222372,352.65,964,735,0
14222382,354.17,964,735,0
14222392,355.27,964,734,0
14222402,356.09,964,735,0
14222412,356.54,964,735,0
14222423,356.72,964,735,0
14222433,356.76,964,735,0
14222443,356.40,964,735,0
14222453,355.98,964,735,0
14222464,355.39,964,734,0
14222473,354.80,964,735,0
14222483,354.13,964,735,0
14222493,353.53,964,735,0
14222503,352.77,964,734,0
14222513,352.24,964,735,0
14222523,351.61,964,735,0
14222533,351.17,964,735,0
14222543,350.65,964,734,0
14222553,350.20,964,735,0
14222563,349.67,964,735,0
14222573,349.42,964,735,0
14222583,349.17,964,734,0
14222593,349.12,964,735,0
14222603,349.47,964,735,0
14222613,351.08,964,735,0
14222623,354.45,964,734,0
14222633,360.95,964,735,0
14222643,371.13,964,735,0
14222653,386.69,964,735,0
14222672,408.42,976,733,0
14222675,437.57,976,735,0
14222685,473.14,976,735,0
14222695,512.31,976,735,0
14222705,552.16,976,734,0
14222715,590.86,976,735,0
14222725,626.09,976,735,0
14222735,656.27,976,735,0
14222745,679.55,976,734,0
14222755,695.88,976,735,0
14222765,707.32,976,735,0
14222775,715.41,976,735,0
14222785,721.07,976,734,0
14222795,725.08,976,735,0
14222806,727.88,976,735,0
14222815,729.89,976,735,0
14222825,731.25,976,734,0
14222835,732.25,976,735,0
14222845,732.90,976,735,0
14222855,731.95,976,735,0
14222865,727.12,976,734,0
14222875,717.74,976,735,0
14222885,702.30,976,734,0
14222895,681.21,976,735,0
14222905,653.76,976,734,0
14222915,621.05,976,735,0
14222925,584.52,976,734,0
14222935,547.68,976,735,0
14222945,511.60,976,735,0
14222955,478.98,976,735,0
14222965,449.80,976,734,0
14222976,425.99,976,735,0
14222985,406.58,976,735,0
14222995,392.60,976,735,0
14223005,382.82,976,735,0
14223015,377.73,976,735,0
14223025,375.76,976,735,0
14223035,376.94,976,735,0
14223045,379.40,976,735,0
14223055,383.61,976,735,0
14223065,387.67,976,735,0
14223075,391.88,976,735,0
14223085,394.66,976,734,0
14223095,396.69,976,735,0
14223105,396.87,976,734,0
14223115,396.09,976,735,0
14223125,393.28,976,734,0
14223135,389.72,976,735,0
14223145,384.62,976,734,0
14223155,379.29,976,735,0
14223165,373.03,976,734,0
14223175,367.15,976,735,0
14223185,360.89,976,734,0
14223195,355.48,976,735,0
14223205,350.02,976,734,0
14223215,345.73,976,735,0
14223225,341.53,976,734,0
14223235,338.54,976,735,0
14223245,335.72,976,734,0
14223255,334.30,976,735,0
14223265,332.97,976,734,0
14223276,332.85,976,735,0
14223286,332.60,976,734,0
14223296,333.49,976,736,0
14223306,334.07,976,734,0
14223316,335.46,976,735,0
14223326,336.31,976,734,0
14223336,337.85,976,736,0
14223346,338.75,976,734,0
14223356,340.15,976,735,0
14223366,340.75,976,734,0
14223376,341.94,976,736,0
14223386,342.43,976,734,0
14223396,343.41,976,735,0
14223406,343.72,976,734,0
14223416,344.57,976,736,0
14223426,344.70,976,734,0
14223436,345.43,976,735,0
14223447,345.39,976,734,0
14223457,346.00,976,736,0
14223467,345.87,976,734,0
14223477,346.34,976,735,0
14223488,346.07,976,734,0
14223497,346.56,976,736,0
14223507,346.39,976,734,0
14223517,346.92,976,735,0
14223527,346.64,976,734,0
14223537,347.14,976,736,0
14223547,346.97,976,734,0
14223557,347.53,976,735,0
14223567,347.67,976,734,0
14223577,349.23,976,736,0
14223587,351.60,976,734,0
14223597,357.08,976,735,0
14223607,365.58,976,734,0
14223626,379.51,954,733,0
14223629,399.46,954,734,0
14223639,428.25,954,735,0
14223649,463.79,954,734,0
14223660,503.71,954,736,0
14223670,544.72,954,734,0
14223680,585.01,954,735,0
14223690,622.08,954,735,0
14223700,654.07,954,735,0
14223710,678.22,954,734,0
14223720,695.12,954,735,0
14223730,706.96,954,734,0
14223740,715.29,954,735,0
14223750,721.16,954,734,0
14223760,725.27,954,735,0
14223770,728.14,954,734,0
14223780,730.16,954,735,0
14223790,731.61,954,734,0
14223800,732.63,954,736,0
14223810,733.34,954,734,0
14223820,733.84,954,735,0
14223831,734.19,954,735,0
14223841,734.39,954,735,0
14223851,730.80,954,734,0
14223861,721.60,954,735,0
14223872,705.26,954,735,0
14223881,681.70,954,735,0
14223891,650.72,954,734,0
14223901,612.87,954,735,0
14223911,568.81,954,735,0
14223921,523.44,954,735,0
14223931,479.42,954,734,0
14223941,439.44,954,735,0
14223951,404.46,954,734,0
14223961,375.78,954,735,0
14223971,353.52,954,734,0
14223981,337.85,954,735,0
14223991,327.95,954,735,0
14224001,323.42,954,735,0
14224011,322.91,954,734,0
14224021,325.64,954,735,0
14224031,330.20,954,734,0
14224041,335.84,954,735,0
14224051,341.33,954,734,0
14224061,346.25,954,735,0
14224071,349.64,954,734,0
14224081,351.64,954,735,0
14224091,351.87,954,734,0
14224101,350.75,954,735,0
14224111,348.21,954,734,0
14224121,344.68,954,735,0
14224131,340.19,954,734,0
14224141,335.46,954,735,0
14224151,330.61,954,735,0
14224161,326.01,954,735,0
14224172,321.85,954,734,0
14224182,318.17,954,735,0
14224192,315.29,954,735,0
14224202,313.14,954,735,0
14224212,311.82,954,734,0
14224222,311.19,954,735,0
14224232,311.26,954,734,0
14224242,311.82,954,734,0
14224252,313.12,954,735,0
14224262,314.80,954,735,0
14224272,316.87,954,735,0
14224282,319.01,954,735,0
14224292,321.45,954,735,0
14224302,323.93,954,735,0
14224312,326.27,954,735,0
14224322,328.16,954,735,0
14224332,329.91,954,734,0
14224343,331.27,954,735,0
14224353,332.47,954,735,0
14224363,333.10,954,735,0
14224373,333.54,954,735,0
14224384,333.47,954,734,0
14224393,333.54,954,735,0
14224403,333.08,954,735,0
14224413,332.80,954,734,0
14224423,332.04,954,734,0
14224433,331.60,954,735,0
14224443,330.91,954,735,0
14224453,330.76,954,734,0
14224463,330.36,954,735,0
14224473,330.51,954,735,0
14224483,330.44,954,735,0
14224493,330.91,954,734,0
14224503,331.07,954,734,0
14224513,331.52,954,734,0
14224523,331.71,954,735,0
14224533,332.35,954,734,0
14224543,333.10,954,735,0
14224553,335.26,954,735,0
14224563,338.95,954,735,0
14224573,346.04,954,734,0
14224583,357.30,954,734,0
14224593,375.04,954,735,0
14224612,399.71,986,734,0
14224615,433.31,986,735,0
14224625,472.52,986,734,0
14224635,514.88,986,735,0
14224645,557.43,986,734,0
14224655,598.01,986,735,0
14224665,633.84,986,734,0
14224675,663.59,986,735,0
14224685,684.84,986,734,0
14224695,699.76,986,735,0
14224705,710.16,986,734,0
14224715,717.44,986,735,0
14224726,722.54,986,734,0
14224735,726.15,986,735,0
14224745,728.67,986,734,0
14224755,730.49,986,735,0
14224765,731.75,986,734,0
14224775,732.69,986,735,0
14224785,733.29,986,734,0
14224795,732.22,986,735,0
14224805,726.28,986,734,0
14224815,714.46,986,735,0
14224825,694.95,986,734,0
14224835,667.88,986,735,0
14224845,632.64,986,734,0
14224855,590.62,986,735,0
14224865,543.25,986,733,0
14224875,495.52,986,735,0
14224885,448.90,986,734,0
14224896,407.19,986,735,0
14224905,370.70,986,734,0
14224915,341.78,986,735,0
14224925,319.39,986,734,0
14224935,304.87,986,735,0
14224945,296.17,986,734,0
14224955,293.72,986,735,0
14224965,295.34,986,734,0
14224975,301.16,986,735,0
14224985,308.48,986,734,0
14224995,317.55,986,735,0
14225005,326.13,986,734,0
14225015,334.83,986,735,0
14225025,341.74,986,734,0
14225035,347.30,986,735,0
14225045,350.08,986,734,0
14225055,351.60,986,735,0
14225065,350.52,986,734,0
14225075,348.48,986,735,0
14225085,344.39,986,734,0
14225095,339.95,986,735,0
14225105,334.22,986,734,0
14225115,328.93,986,735,0
14225125,323.03,986,734,0
14225135,318.22,986,735,0
14225145,313.44,986,733,0
14225155,310.10,986,735,0
14225165,307.11,986,734,0
14225175,305.83,986,735,0
14225185,304.98,986,733,0
14225196,305.72,986,735,0
14225206,306.53,986,734,0
14225216,308.51,986,735,0
14225226,310.37,986,733,0
14225236,313.22,986,735,0
14225246,315.72,986,734,0
14225256,318.98,986,735,0
14225266,321.47,986,733,0
14225276,324.54,986,735,0
14225286,326.65,986,734,0
14225296,329.16,986,735,0
14225306,330.61,986,733,0
14225316,332.18,986,735,0
14225326,332.60,986,734,0
14225336,333.36,986,735,0
14225346,333.13,986,733,0
14225356,333.39,986,735,0
14225367,332.84,986,734,0
14225377,332.89,986,735,0
14225387,332.54,986,733,0
14225397,332.93,986,735,0
14225408,332.95,986,734,0
14225417,333.78,986,735,0
14225427,334.19,986,733,0
14225437,335.29,986,735,0
14225447,335.93,986,734,0
14225457,337.07,986,735,0
14225467,337.52,986,733,0
14225477,338.39,986,735,0
14225487,338.53,986,734,0
14225497,339.31,986,735,0
14225507,339.73,986,733,0
14225517,341.57,986,735,0
14225527,344.70,986,734,0
14225537,351.52,986,735,0
14225547,362.29,986,733,0
14225557,379.95,986,735,0
14225576,404.86,964,734,0
14225580,439.02,964,735,0
14225590,478.44,964,734,0
14225600,520.82,964,735,0
14225610,563.13,964,735,0
14225620,603.42,964,735,0
14225630,638.70,964,734,0
14225640,667.33,964,735,0
14225650,687.46,964,734,0
14225660,701.59,964,735,0
14225670,711.49,964,734,0
14225680,718.41,964,735,0
14225690,723.30,964,734,0
14225700,726.77,964,735,0
14225710,729.15,964,734,0
14225720,730.82,964,735,0
14225730,731.99,964,734,0
14225740,732.85,964,735,0
14225751,733.41,964,734,0
14225761,733.29,964,735,0
14225771,729.39,964,735,0
14225781,719.37,964,735,0
14225792,702.07,964,734,0
14225801,676.85,964,735,0
14225811,643.77,964,735,0
14225821,603.21,964,735,0
14225831,556.52,964,734,0
14225841,507.76,964,735,0
14225851,460.52,964,734,0
14225861,417.16,964,735,0
14225871,379.66,964,734,0
14225881,348.99,964,735,0
14225891,325.89,964,735,0
14225901,310.07,964,734,0
14225911,301.35,964,734,0
14225921,298.63,964,734,0
14225931,300.93,964,735,0
14225941,306.78,964,735,0
14225951,315.24,964,735,0
14225961,324.60,964,734,0
14225971,334.19,964,734,0
14225981,342.45,964,734,0
14225991,349.17,964,734,0
14226001,353.62,964,734,0
14226011,356.09,964,735,0
14226021,356.15,964,734,0
14226031,354.48,964,734,0
14226041,350.95,964,734,0
14226051,346.55,964,735,0
14226061,341.46,964,735,0
14226071,336.30,964,735,0
14226081,330.90,964,734,0
14226092,326.00,964,735,0
14226102,321.41,964,734,0
14226112,317.82,964,735,0
14226122,314.87,964,734,0
14226132,313.07,964,735,0
14226142,311.89,964,735,0
14226152,311.75,964,735,0
14226162,311.91,964,734,0
14226172,313.18,964,735,0
14226182,314.71,964,734,0
14226192,317.16,964,735,0
14226202,319.59,964,734,0
14226212,322.72,964,735,0
14226222,325.84,964,735,0
14226232,329.49,964,735,0
14226242,332.69,964,734,0
14226252,336.08,964,735,0
14226263,338.76,964,734,0
14226273,341.44,964,735,0
14226283,343.28,964,734,0
14226293,345.04,964,735,0
14226304,345.97,964,734,0
14226313,346.84,964,735,0
14226323,346.93,964,734,0
14226333,347.25,964,735,0
14226343,346.75,964,734,0
14226353,346.52,964,735,0
14226363,345.59,964,734,0
14226373,345.20,964,735,0
14226383,344.41,964,734,0
14226393,344.25,964,735,0
14226403,343.53,964,734,0
14226413,343.41,964,735,0
14226423,342.69,964,734,0
14226433,342.57,964,735,0
14226443,341.93,964,734,0
14226453,341.95,964,735,0
14226463,341.96,964,734,0
14226473,344.03,964,735,0
14226483,348.31,964,734,0
14226493,357.47,964,735,0
14226503,372.33,964,734,0
14226513,395.76,964,735,0
14226523,427.85,964,734,0
14226542,466.81,966,733,0
14226545,508.99,966,735,0
14226554,552.37,966,735,0
14226564,593.79,966,734,0
14226574,631.09,966,735,0
14226584,661.28,966,734,0
14226594,683.27,966,735,0
14226604,698.62,966,734,0
14226614,709.40,966,735,0
14226624,716.95,966,734,0
14226634,722.28,966,735,0
14226644,725.97,966,734,0
14226654,728.59,966,735,0
14226664,730.39,966,734,0
14226674,731.68,966,735,0
14226684,732.55,966,734,0
14226694,733.16,966,735,0
14226704,733.54,966,734,0
14226714,733.85,966,735,0
14226724,731.49,966,734,0
14226734,724.57,966,735,0
14226744,710.30,966,734,0
14226754,688.23,966,735,0
14226764,657.34,966,734,0
14226775,618.80,966,735,0
14226785,572.62,966,734,0
14226795,523.10,966,735,0
14226805,472.93,966,734,0
14226816,426.84,966,735,0
14226825,386.04,966,734,0
14226835,353.42,966,735,0
14226845,328.09,966,734,0
14226855,311.56,966,735,0
14226865,301.84,966,734,0
14226875,299.31,966,735,0
14226885,301.28,966,734,0
14226895,307.75,966,735,0
14226905,315.97,966,734,0
14226915,325.92,966,735,0
14226925,335.03,966,734,0
14226935,343.81,966,735,0
14226945,350.21,966,734,0
14226955,355.37,966,735,0
14226965,357.58,966,734,0
14226975,358.09,966,735,0
14226985,355.96,966,734,0
14226995,352.85,966,735,0
14227005,347.75,966,734,0
14227015,342.47,966,735,0
14227025,336.03,966,734,0
14227035,330.28,966,735,0
14227045,324.15,966,734,0
14227055,319.31,966,735,0
14227065,314.59,966,734,0
14227075,311.54,966,735,0
14227085,308.72,966,734,0
14227095,307.48,966,735,0
14227105,306.65,966,734,0
14227116,307.61,966,735,0
14227126,308.93,966,734,0
14227136,311.73,966,735,0
14227146,314.69,966,734,0
14227156,318.72,966,735,0
14227166,322.49,966,734,0
14227176,326.93,966,735,0
14227186,330.68,966,734,0
14227196,334.80,966,735,0
14227206,338.08,966,734,0
14227216,341.48,966,735,0
14227226,343.99,966,734,0
14227236,346.65,966,735,0
14227246,348.00,966,734,0
14227256,349.29,966,735,0
14227266,349.33,966,734,0
14227276,349.49,966,735,0
14227287,348.66,966,734,0
14227297,348.16,966,735,0
14227307,346.87,966,734,0
14227317,346.26,966,735,0
14227328,345.11,966,734,0
14227337,344.65,966,735,0
14227347,343.73,966,734,0
14227357,343.55,966,735,0
14227367,343.04,966,734,0
14227377,343.29,966,735,0
14227387,343.12,966,734,0
14227397,343.55,966,735,0
14227407,343.69,966,734,0
14227417,344.38,966,735,0
14227427,344.87,966,734,0
14227437,346.66,966,735,0
14227447,349.81,966,734,0
14227457,356.59,966,735,0
14227467,367.86,966,734,0
14227477,386.59,966,735,0
14227487,413.71,966,734,0
14227507,449.20,964,733,0
14227510,489.42,964,736,0
14227520,532.20,964,735,0
14227530,574.48,964,735,0
14227540,614.11,964,734,0
14227550,647.85,964,735,0
14227560,673.86,964,735,0
14227570,692.12,964,735,0
14227580,704.94,964,734,0
14227590,713.92,964,735,0
14227600,720.20,964,735,0
14227610,724.64,964,735,0
14227620,727.75,964,734,0
14227630,729.92,964,735,0
14227640,731.45,964,735,0
14227650,732.51,964,735,0
14227660,733.22,964,734,0
14227671,733.71,964,735,0
14227681,734.05,964,735,0
14227691,734.29,964,735,0
14227701,730.86,964,734,0
14227712,721.22,964,735,0
14227721,703.80,964,734,0
14227731,678.23,964,735,0
14227741,644.09,964,734,0
14227751,602.36,964,735,0
14227761,553.74,964,734,0
14227771,503.33,964,735,0
14227781,454.72,964,734,0
14227791,411.30,964,735,0
14227801,374.40,964,735,0
14227811,345.86,964,735,0
14227821,325.33,964,734,0
14227831,313.19,964,735,0
14227841,307.90,964,735,0
14227851,309.00,964,735,0
14227861,314.23,964,734,0
14227871,322.86,964,735,0
14227881,332.68,964,734,0
14227891,343.02,964,735,0
14227901,351.80,964,734,0
14227911,359.19,964,735,0
14227921,363.93,964,734,0
14227931,366.74,964,735,0
14227941,366.82,964,735,0
14227951,365.16,964,735,0
14227961,361.30,964,735,0
14227971,356.66,964,735,0
14227981,350.85,964,734,0
14227991,344.94,964,735,0
14228001,338.49,964,735,0
14228012,332.64,964,735,0
14228022,326.96,964,734,0
14228032,322.77,964,735,0
14228042,319.41,964,734,0
14228052,317.70,964,735,0
14228062,316.98,964,734,0
14228072,317.93,964,735,0
14228082,319.49,964,734,0
14228092,322.43,964,735,0
14228102,325.47,964,734,0
14228112,329.32,964,735,0
14228122,332.78,964,734,0
14228132,336.70,964,735,0
14228142,339.83,964,734,0
14228152,343.18,964,735,0
14228162,345.66,964,734,0
14228172,348.25,964,735,0
14228183,349.80,964,734,0
14228193,351.57,964,735,0
14228203,352.22,964,734,0
14228213,353.14,964,735,0
14228224,353.14,964,734,0
14228233,353.44,964,735,0
14228243,352.75,964,734,0
14228253,352.48,964,735,0
14228263,351.27,964,734,0
14228273,350.50,964,735,0
14228283,348.89,964,734,0
14228293,347.73,964,735,0
14228303,345.66,964,734,0
14228313,344.09,964,735,0
14228323,341.92,964,734,0
14228333,341.09,964,736,0
14228343,341.19,964,734,0
14228353,344.69,964,735,0
