Time,PPG,IBI,GSR,GSR_Event
1934199,423.34,673,766,0
1934209,438.97,673,755,0
1934219,446.56,673,765,0
1934229,448.62,673,756,0
1934239,443.89,673,765,0
1934249,435.05,673,758,0
1934259,421.28,673,765,0
1934269,406.32,673,756,0
1934279,391.61,673,765,0
1934289,377.97,673,757,0
1934299,363.75,673,765,0
1934309,351.27,673,756,0
1934319,338.97,673,765,0
1934329,329.21,673,757,0
1934339,320.15,673,765,0
1934349,313.80,673,756,0
1934359,308.16,673,765,0
1934369,305.24,673,757,0
1934380,303.07,673,764,0
1934390,303.48,673,759,0
1934400,303.98,673,763,0
1934410,306.68,673,760,0
1934420,309.26,673,762,0
1934430,313.60,673,760,0
1934440,317.32,673,763,0
1934450,322.41,673,760,0
1934460,326.87,673,762,0
1934470,333.68,673,760,0
1934480,342.09,673,763,0
1934490,357.02,673,760,0
1934500,379.51,673,762,0
1934510,413.99,673,759,0
1934520,455.61,673,763,0
1934530,502.70,673,760,0
1934540,551.56,673,762,0
1934551,600.46,673,761,0
1934561,644.72,673,762,0
1934571,681.58,673,761,0
1934581,707.33,673,761,0
1934592,725.40,673,763,0
1934610,738.01,673,761,0
1934613,746.92,673,764,0
1934622,753.16,673,760,0
1934632,757.61,673,763,0
1934642,760.73,673,761,0
1934652,763.00,673,763,0
1934662,764.58,673,761,0
1934672,765.78,673,763,0
1934682,766.57,673,761,0
1934692,763.10,673,763,0
1934702,750.17,673,760,0
1934712,726.59,673,763,0
1934722,690.89,673,760,0
1934732,644.21,673,763,0
1934742,585.86,673,760,0
1934752,518.53,673,763,0
1934763,446.80,673,760,0
1934772,378.97,673,763,0
1934782,317.14,673,760,0
1934792,266.05,673,763,0
1934802,225.41,673,760,0
1934812,198.72,673,763,0
1934822,183.59,673,760,0
1934832,181.91,673,763,0
1934842,190.17,673,760,0
1934852,209.06,673,763,0
1934862,234.16,673,760,0
1934872,265.48,673,763,0
1934882,298.42,673,760,0
1934892,333.14,673,763,0
1934902,365.07,673,760,0
1934912,394.66,673,763,0
1934922,418.25,673,760,0
1934932,437.03,673,763,0
1934942,448.46,673,760,0
1934952,454.75,673,763,0
1934962,453.80,673,760,0
1934972,448.46,673,763,0
1934982,437.61,673,760,0
1934992,424.61,673,763,0
1935002,408.36,673,760,0
1935012,391.96,673,763,0
1935022,374.10,673,760,0
1935032,358.04,673,763,0
1935042,342.26,673,760,0
1935052,329.41,673,763,0
1935063,317.54,673,760,0
1935073,309.02,673,764,0
1935083,301.82,673,760,0
1935093,297.93,673,764,0
1935104,295.25,673,759,0
1935113,295.56,673,764,0
1935123,296.55,673,760,0
1935133,299.77,673,764,0
1935143,303.05,673,759,0
1935153,307.92,673,764,0
1935163,312.19,673,760,0
1935173,317.23,673,764,0
1935183,321.53,673,759,0
1935193,327.72,673,764,0
1935203,335.60,673,760,0
1935213,349.61,673,764,0
1935223,371.41,673,759,0
1935233,405.62,673,764,0
1935243,447.65,673,760,0
1935253,495.41,673,764,0
1935263,545.21,673,759,0
1935273,595.16,673,765,0
1935283,640.80,673,760,0
1935293,678.96,673,764,0
1935303,705.67,673,759,0
1935313,724.37,673,764,0
1935323,737.46,673,760,0
1935333,746.62,673,764,0
1935352,753.04,742,763,0
1935355,757.57,742,773,0
1935364,760.74,742,759,0
1935374,762.96,742,765,0
1935384,764.52,742,759,0
1935394,765.60,742,770,0
1935404,764.39,742,759,0
1935414,756.52,742,765,0
1935424,737.89,742,759,0
1935434,707.58,742,770,0
1935444,664.68,742,750,0
1935454,610.56,742,765,0
1935464,545.38,742,759,0
1935474,473.05,742,769,0
1935484,399.66,742,752,0
1935494,331.79,742,765,0
1935504,271.98,742,759,0
1935514,223.77,742,768,0
1935524,187.46,742,753,0
1935534,164.95,742,765,0
1935544,155.24,742,759,0
1935554,158.46,742,768,0
1935564,172.34,742,754,0
1935575,195.98,742,774,0
1935585,226.37,742,745,0
1935595,261.66,742,774,0
1935605,298.88,742,745,0
1935616,336.24,742,770,0
1935625,370.76,742,746,0
1935635,401.30,742,774,0
1935645,425.85,742,744,0
1935655,443.90,742,770,0
1935665,454.77,742,746,0
1935675,458.95,742,774,0
1935685,456.65,742,744,0
1935695,448.83,742,770,0
1935705,436.28,742,747,0
1935715,420.60,742,774,0
1935725,402.76,742,744,0
1935735,383.93,742,771,0
1935745,364.84,742,747,0
1935755,346.76,742,774,0
1935765,330.42,742,744,0
1935775,316.19,742,771,0
1935785,304.39,742,747,0
1935795,295.27,742,774,0
1935805,288.81,742,744,0
1935815,285.01,742,772,0
1935825,283.46,742,747,0
1935835,283.88,742,774,0
1935845,285.93,742,744,0
1935855,289.21,742,772,0
1935865,293.52,742,747,0
1935875,298.68,742,774,0
1935885,304.82,742,744,0
1935895,313.01,742,772,0
1935905,325.22,742,747,0
1935916,344.53,742,769,0
1935926,374.24,742,747,0
1935936,414.07,742,769,0
1935946,460.63,742,750,0
1935956,511.19,742,767,0
1935966,562.82,742,747,0
1935976,612.29,742,769,0
1935986,655.83,742,750,0
1935996,689.48,742,767,0
1936006,713.04,742,747,0
1936016,729.53,742,769,0
1936026,741.07,742,750,0
1936036,749.15,742,767,0
1936046,754.80,742,747,0
1936056,758.76,742,769,0
1936075,761.53,723,767,0
1936078,763.47,723,765,0
1936087,764.87,723,752,0
1936097,759.85,723,767,0
1936107,745.33,723,754,0
1936117,718.53,723,766,0
1936128,679.63,723,757,0
1936137,628.35,723,767,0
1936147,566.23,723,754,0
1936157,493.78,723,766,0
1936167,419.74,723,757,0
1936177,348.46,723,767,0
1936187,285.62,723,753,0
1936197,232.47,723,766,0
1936207,192.25,723,757,0
1936217,164.28,723,767,0
1936227,150.35,723,753,0
1936237,148.36,723,766,0
1936247,159.05,723,756,0
1936257,179.14,723,767,0
1936267,208.15,723,753,0
1936277,242.22,723,766,0
1936287,280.77,723,756,0
1936297,319.80,723,766,0
1936307,358.43,723,752,0
1936317,392.93,723,766,0
1936327,423.29,723,756,0
1936337,446.60,723,766,0
1936347,463.61,723,752,0
1936357,472.47,723,766,0
1936367,475.11,723,756,0
1936377,470.41,723,765,0
1936387,460.99,723,752,0
1936397,446.46,723,767,0
1936407,429.69,723,755,0
1936417,410.33,723,766,0
1936428,391.24,723,758,0
1936438,371.50,723,765,0
1936448,354.12,723,758,0
1936458,337.67,723,765,0
1936468,324.74,723,760,0
1936478,313.63,723,765,0
1936488,306.24,723,758,0
1936498,300.34,723,764,0
1936508,298.01,723,760,0
1936518,296.59,723,765,0
1936528,297.96,723,758,0
1936538,299.30,723,765,0
1936548,303.15,723,760,0
1936558,307.95,723,765,0
1936568,317.74,723,758,0
1936578,332.73,723,765,0
1936588,358.52,723,760,0
1936599,395.52,723,764,0
1936609,441.18,723,761,0
1936619,491.18,723,763,0
1936629,543.97,723,763,0
1936640,595.15,723,762,0
1936649,642.25,723,761,0
1936659,680.06,723,763,0
1936669,706.61,723,762,0
1936679,725.16,723,762,0
1936689,738.18,723,761,0
1936699,747.26,723,763,0
1936709,753.65,723,762,0
1936719,758.08,723,762,0
1936729,761.23,723,761,0
1936739,763.39,723,763,0
1936749,764.94,723,762,0
1936769,759.60,693,761,0
1936772,743.74,693,764,0
1936781,715.62,693,760,0
1936791,675.79,693,763,0
1936801,623.39,693,760,0
1936812,560.45,693,764,0
1936822,487.37,693,760,0
1936832,413.29,693,764,0
1936842,343.26,693,760,0
1936852,281.94,693,764,0
1936862,230.10,693,760,0
1936872,191.41,693,764,0
1936882,164.93,693,760,0
1936892,152.48,693,764,0
1936902,151.74,693,760,0
1936912,163.17,693,764,0
1936922,183.39,693,760,0
1936932,212.25,693,764,0
1936942,245.60,693,760,0
1936952,282.96,693,764,0
1936962,320.13,693,760,0
1936972,356.65,693,764,0
1936983,388.94,693,759,0
1936993,417.03,693,765,0
1937003,438.06,693,759,0
1937013,453.04,693,769,0
1937024,460.15,693,751,0
1937033,461.39,693,765,0
1937043,455.79,693,759,0
1937053,445.52,693,768,0
1937063,430.75,693,752,0
1937073,413.94,693,765,0
1937083,395.06,693,759,0
1937093,376.27,693,768,0
1937103,357.55,693,753,0
1937113,340.84,693,765,0
1937123,325.72,693,759,0
1937133,313.42,693,767,0
1937143,303.22,693,754,0
1937153,296.25,693,765,0
1937163,291.38,693,759,0
1937173,289.21,693,766,0
1937183,288.54,693,755,0
1937193,289.97,693,773,0
1937203,292.25,693,759,0
1937213,296.33,693,765,0
1937223,301.85,693,756,0
1937233,311.19,693,773,0
1937243,325.32,693,759,0
1937253,348.37,693,765,0
1937263,382.71,693,757,0
1937273,426.34,693,773,0
1937283,475.44,693,759,0
1937293,527.55,693,765,0
1937303,579.16,693,758,0
1937313,627.62,693,773,0
1937324,668.45,693,748,0
1937334,698.32,693,774,0
1937344,719.22,693,744,0
1937354,733.85,693,772,0
1937364,744.10,693,748,0
1937374,751.27,693,774,0
1937384,756.29,693,744,0
1937394,759.80,693,772,0
1937404,762.26,693,747,0
1937423,763.98,655,744,0
1937426,763.77,655,751,0
1937435,757.33,655,769,0
1937445,741.50,655,750,0
1937455,714.65,655,769,0
1937465,676.23,655,747,0
1937475,626.19,655,769,0
1937485,565.66,655,750,0
1937495,497.19,655,770,0
1937505,426.93,655,747,0
1937515,359.75,655,769,0
1937525,299.78,655,750,0
1937536,249.06,655,767,0
1937545,209.92,655,747,0
1937555,182.68,655,769,0
1937565,168.12,655,750,0
1937575,165.09,655,768,0
1937585,173.16,655,747,0
1937595,190.04,655,769,0
1937605,214.80,655,749,0
1937615,244.65,655,768,0
1937625,277.79,655,747,0
1937635,311.54,655,769,0
1937645,344.72,655,749,0
1937655,374.81,655,768,0
1937665,400.92,655,747,0
1937675,421.39,655,769,0
1937685,436.19,655,749,0
1937695,444.49,655,768,0
1937705,447.13,655,751,0
1937715,443.92,655,769,0
1937725,436.23,655,749,0
1937735,424.42,655,768,0
1937745,410.19,655,751,0
1937755,393.85,655,769,0
1937765,377.18,655,748,0
1937775,360.11,655,768,0
1937785,344.26,655,751,0
1937795,329.57,655,769,0
1937805,317.06,655,748,0
1937815,306.28,655,768,0
1937825,298.31,655,751,0
1937836,292.35,655,767,0
1937846,289.46,655,752,0
1937856,288.29,655,767,0
1937866,289.79,655,756,0
1937876,292.55,655,766,0
1937886,297.10,655,752,0
1937896,302.00,655,767,0
1937906,308.47,655,756,0
1937916,315.44,655,766,0
1937926,325.60,655,752,0
1937936,339.77,655,767,0
1937946,362.81,655,755,0
1937956,396.60,655,766,0
1937966,439.19,655,752,0
1937976,486.70,655,767,0
1937986,537.32,655,755,0
1937996,587.50,655,766,0
1938007,634.58,655,758,0
1938017,673.79,655,766,0
1938027,702.22,655,758,0
1938037,722.09,655,765,0
1938048,736.03,655,760,0
1938057,745.75,655,766,0
1938067,752.60,655,758,0
1938077,757.35,655,765,0
1938097,760.71,673,764,0
1938100,763.03,673,761,0
1938109,764.69,673,762,0
1938119,765.81,673,761,0
1938129,762.31,673,763,0
1938139,749.62,673,762,0
1938149,726.72,673,762,0
1938159,691.36,673,761,0
1938169,644.92,673,763,0
1938179,587.09,673,762,0
1938189,520.38,673,762,0
1938199,449.29,673,761,0
1938209,381.53,673,763,0
1938220,318.89,673,760,0
1938230,266.85,673,763,0
1938240,224.85,673,760,0
1938250,196.10,673,763,0
1938260,178.50,673,760,0
1938270,174.10,673,763,0
1938280,179.56,673,760,0
1938290,195.76,673,763,0
1938300,218.59,673,760,0
1938310,248.24,673,763,0
1938320,280.10,673,760,0
1938330,314.23,673,763,0
1938340,346.30,673,760,0
1938350,376.90,673,763,0
1938360,402.17,673,760,0
1938370,423.12,673,763,0
1938380,436.93,673,760,0
1938391,445.61,673,763,0
1938401,447.18,673,760,0
1938411,444.21,673,764,0
1938421,435.36,673,760,0
1938432,423.60,673,764,0
1938441,408.20,673,760,0
1938451,392.11,673,764,0
1938461,374.34,673,760,0
1938471,357.52,673,764,0
1938481,340.87,673,760,0
1938491,326.68,673,764,0
1938501,313.79,673,760,0
1938511,303.99,673,764,0
1938521,295.72,673,760,0
1938531,290.92,673,764,0
1938541,287.82,673,760,0
1938551,287.70,673,764,0
1938561,288.56,673,760,0
1938571,291.86,673,764,0
1938581,295.55,673,760,0
1938591,300.87,673,764,0
1938601,305.79,673,759,0
1938611,311.90,673,764,0
1938621,317.80,673,760,0
1938631,326.30,673,764,0
1938641,337.83,673,759,0
1938651,356.61,673,764,0
1938661,384.37,673,760,0
1938671,422.66,673,764,0
1938681,467.29,673,759,0
1938691,516.36,673,764,0
1938701,566.22,673,760,0
1938711,614.37,673,764,0
1938721,656.65,673,759,0
1938732,690.05,673,765,0
1938742,713.44,673,759,0
1938752,729.81,673,765,0
1938762,741.26,673,758,0
1938772,749.28,673,773,0
1938791,754.90,695,764,0
1938794,758.87,695,769,0
1938803,761.65,695,744,0
1938813,763.60,695,771,0
1938823,764.96,695,748,0
1938833,762.79,695,774,0
1938843,752.57,695,744,0
1938853,731.87,695,772,0
1938863,699.72,695,748,0
1938873,656.18,695,774,0
1938883,601.52,695,744,0
1938893,536.87,695,772,0
1938903,466.79,695,749,0
1938913,397.81,695,774,0
1938923,334.14,695,744,0
1938933,278.85,695,772,0
1938944,233.98,695,747,0
1938953,200.77,695,774,0
1938963,179.50,695,745,0
1938973,170.22,695,773,0
1938983,172.08,695,746,0
1938993,183.97,695,774,0
1939003,203.95,695,745,0
1939013,230.32,695,773,0
1939023,261.04,695,746,0
1939033,294.24,695,774,0
1939043,327.30,695,745,0
1939053,358.37,695,774,0
1939063,385.94,695,745,0
1939073,408.97,695,774,0
1939083,426.08,695,745,0
1939093,437.16,695,773,0
1939103,441.95,695,745,0
1939113,441.20,695,770,0
1939123,435.39,695,745,0
1939133,425.55,695,774,0
1939143,412.40,695,745,0
1939153,397.19,695,770,0
1939163,380.72,695,745,0
1939173,364.18,695,774,0
1939183,348.14,695,744,0
1939193,333.48,695,771,0
1939203,320.27,695,746,0
1939213,309.26,695,774,0
1939223,300.61,695,744,0
1939233,294.38,695,771,0
1939244,290.67,695,747,0
1939254,289.14,695,769,0
1939264,289.70,695,748,0
1939274,291.89,695,768,0
1939284,295.61,695,751,0
1939294,300.14,695,769,0
1939304,305.63,695,748,0
1939314,311.05,695,768,0
1939324,317.04,695,751,0
1939334,322.73,695,769,0
1939344,329.41,695,748,0
1939354,337.81,695,768,0
1939364,351.07,695,750,0
1939374,371.19,695,770,0
1939384,402.03,695,748,0
1939394,441.45,695,768,0
1939404,486.96,695,750,0
1939415,535.57,695,768,0
1939425,584.69,695,752,0
1939435,630.55,695,767,0
1939445,670.16,695,756,0
1939456,699.60,695,766,0
1939465,720.25,695,752,0
1939475,734.70,695,767,0
1939494,744.86,703,765,0
1939497,751.97,703,764,0
1939506,757.00,703,758,0
1939516,760.47,703,766,0
1939526,762.94,703,758,0
1939536,764.63,703,765,0
1939546,765.47,703,757,0
1939556,759.46,703,766,0
1939566,744.32,703,758,0
1939576,717.27,703,765,0
1939586,679.22,703,757,0
1939596,629.31,703,766,0
1939606,569.47,703,758,0
1939616,500.25,703,765,0
1939627,430.57,703,760,0
1939636,363.59,703,766,0
1939646,305.21,703,758,0
1939656,255.52,703,765,0
1939666,218.46,703,760,0
1939676,192.65,703,766,0
1939686,180.33,703,758,0
1939696,178.82,703,765,0
1939706,189.33,703,759,0
1939716,207.92,703,766,0
1939726,234.90,703,758,0
1939736,265.70,703,765,0
1939746,300.38,703,759,0
1939756,334.51,703,766,0
1939766,368.00,703,758,0
1939776,396.93,703,765,0
1939786,422.23,703,759,0
1939796,440.46,703,765,0
1939806,453.40,703,757,0
1939816,458.81,703,765,0
1939826,459.08,703,759,0
1939836,452.71,703,765,0
1939846,442.73,703,758,0
1939856,428.19,703,765,0
1939866,412.49,703,759,0
1939876,394.65,703,765,0
1939886,377.61,703,758,0
1939896,360.24,703,765,0
1939906,345.60,703,759,0
1939916,331.83,703,765,0
1939927,321.55,703,761,0
1939937,312.60,703,764,0
1939947,307.24,703,762,0
1939957,303.18,703,763,0
1939968,302.65,703,762,0
1939977,302.80,703,764,0
1939987,305.82,703,762,0
1939997,308.66,703,763,0
1940007,313.69,703,762,0
1940017,318.11,703,764,0
1940027,324.68,703,761,0
1940037,332.15,703,763,0
1940047,345.17,703,762,0
1940057,363.64,703,764,0
1940067,393.15,703,762,0
1940077,431.50,703,763,0
1940087,476.87,703,762,0
1940097,525.29,703,764,0
1940107,575.09,703,761,0
1940117,621.73,703,764,0
1940127,663.26,703,762,0
1940137,694.81,703,762,0
1940147,716.94,703,761,0
1940157,732.38,703,764,0
1940167,743.24,703,762,0
1940177,750.80,703,762,0
1940187,756.13,703,761,0
1940206,759.82,712,761,0
1940209,762.44,712,764,0
1940218,763.38,712,761,0
1940228,759.63,712,762,0
1940238,746.28,712,761,0
1940248,722.67,712,763,0
1940258,686.81,712,760,0
1940268,640.54,712,762,0
1940278,583.12,712,762,0
1940288,517.81,712,763,0
1940298,448.14,712,761,0
1940308,382.10,712,763,0
1940318,321.17,712,762,0
1940328,270.55,712,763,0
1940338,229.03,712,761,0
1940348,200.39,712,763,0
1940358,182.40,712,762,0
1940368,177.48,712,763,0
1940378,182.27,712,761,0
1940388,198.04,712,763,0
1940398,220.44,712,762,0
1940408,250.18,712,763,0
1940418,282.44,712,761,0
1940428,317.75,712,763,0
1940439,351.34,712,761,0
1940449,383.64,712,763,0
1940459,410.49,712,760,0
1940469,433.10,712,763,0
1940480,448.20,712,760,0
1940489,458.08,712,763,0
1940499,460.33,712,760,0
1940509,457.62,712,763,0
1940519,448.65,712,760,0
1940529,436.75,712,763,0
1940539,420.84,712,760,0
1940549,404.22,712,763,0
1940559,385.64,712,760,0
1940569,368.43,712,763,0
1940579,351.29,712,760,0
1940589,337.02,712,763,0
1940599,323.85,712,760,0
1940609,314.43,712,763,0
1940619,306.63,712,760,0
1940629,302.45,712,763,0
1940639,299.45,712,760,0
1940649,299.48,712,764,0
1940659,300.07,712,760,0
1940669,302.96,712,763,0
1940679,305.76,712,760,0
1940689,310.85,712,764,0
1940699,317.19,712,761,0
1940709,328.79,712,763,0
1940719,346.25,712,760,0
1940729,374.68,712,764,0
1940739,413.17,712,761,0
1940749,459.24,712,763,0
1940759,508.97,712,760,0
1940769,560.49,712,764,0
1940780,609.54,712,760,0
1940790,653.61,712,764,0
1940800,687.97,712,760,0
1940810,712.02,712,765,0
1940820,728.86,712,759,0
1940830,740.64,712,764,0
1940840,748.85,712,760,0
1940850,754.60,712,765,0
1940860,758.62,712,759,0
1940870,761.43,712,764,0
1940889,763.40,683,763,0
1940892,760.15,683,773,0
1940901,748.71,683,751,0
1940911,727.75,683,765,0
1940921,695.56,683,759,0
1940931,652.40,683,770,0
1940941,598.50,683,751,0
1940951,535.35,683,764,0
1940961,468.26,683,759,0
1940971,402.48,683,770,0
1940981,340.84,683,752,0
1940992,287.27,683,774,0
1941001,242.88,683,759,0
1941011,209.66,683,768,0
1941021,187.17,683,753,0
1941031,176.49,683,774,0
1941041,176.00,683,759,0
1941051,185.69,683,767,0
1941061,203.40,683,754,0
1941071,228.31,683,774,0
1941081,257.40,683,759,0
1941091,289.72,683,767,0
1941101,322.29,683,755,0
1941111,354.18,683,773,0
1941121,382.62,683,759,0
1941131,407.21,683,766,0
1941141,425.96,683,756,0
1941151,439.21,683,773,0
1941161,445.96,683,746,0
1941171,447.30,683,765,0
1941181,442.80,683,757,0
1941191,434.07,683,773,0
1941201,421.19,683,747,0
1941211,406.18,683,765,0
1941221,389.24,683,758,0
1941231,372.11,683,772,0
1941241,354.93,683,748,0
1941251,339.61,683,765,0
1941261,325.67,683,759,0
1941271,314.20,683,772,0
1941281,304.84,683,748,0
1941292,298.33,683,774,0
1941302,294.03,683,744,0
1941312,292.22,683,772,0
1941322,292.20,683,747,0
1941332,294.02,683,769,0
1941342,297.10,683,745,0
1941352,301.19,683,772,0
1941362,305.97,683,747,0
1941372,311.38,683,770,0
1941382,317.91,683,745,0
1941392,326.89,683,773,0
1941402,340.68,683,747,0
1941412,362.38,683,770,0
1941422,394.36,683,745,0
1941432,435.27,683,773,0
1941442,482.07,683,746,0
1941452,531.98,683,770,0
1941463,581.96,683,748,0
1941473,628.77,683,769,0
1941483,668.57,683,749,0
1941493,698.48,683,768,0
1941504,719.47,683,752,0
1941513,734.16,683,769,0
1941523,744.48,683,749,0
1941533,751.66,683,768,0
1941543,756.74,683,752,0
1941562,760.24,673,747,0
1941565,762.74,673,757,0
1941574,764.45,673,766,0
1941584,763.29,673,757,0
1941594,754.97,673,767,0
1941604,737.32,673,754,0
1941614,708.25,673,766,0
1941624,668.45,673,757,0
1941634,617.66,673,767,0
1941644,557.55,673,754,0
1941654,490.95,673,766,0
1941664,424.67,673,757,0
1941675,361.90,673,766,0
1941684,307.37,673,754,0
1941694,261.49,673,766,0
1941704,226.88,673,757,0
1941714,202.62,673,766,0
1941724,190.00,673,753,0
1941734,187.05,673,766,0
1941744,194.53,673,757,0
1941754,209.46,673,766,0
1941764,231.56,673,753,0
1941774,257.67,673,766,0
1941784,287.42,673,757,0
1941794,317.51,673,766,0
1941804,347.49,673,753,0
1941814,374.21,673,766,0
1941824,397.89,673,756,0
1941834,416.05,673,766,0
1941844,429.58,673,757,0
1941854,436.69,673,767,0
1941864,439.14,673,756,0
1941874,435.71,673,766,0
1941884,428.56,673,757,0
1941894,416.99,673,767,0
1941904,403.62,673,756,0
1941914,387.71,673,766,0
1941924,371.85,673,757,0
1941934,355.35,673,767,0
1941944,340.59,673,756,0
1941954,326.44,673,766,0
1941964,315.12,673,757,0
1941975,305.14,673,766,0
1941985,298.50,673,758,0
1941995,293.25,673,765,0
1942005,291.29,673,760,0
1942016,290.43,673,764,0
1942025,292.44,673,758,0
1942035,294.88,673,765,0
1942045,299.59,673,760,0
1942055,304.00,673,764,0
1942065,309.96,673,758,0
1942075,314.94,673,765,0
1942085,321.34,673,760,0
1942095,327.41,673,764,0
1942105,336.55,673,758,0
1942115,348.68,673,765,0
1942125,369.09,673,760,0
1942135,398.89,673,764,0
1942145,438.44,673,758,0
1942155,483.39,673,766,0
1942165,532.18,673,760,0
1942175,580.98,673,764,0
1942185,627.70,673,761,0
1942195,667.52,673,766,0
1942205,697.83,673,759,0
1942215,719.01,673,765,0
1942225,733.88,673,761,0
1942235,744.24,673,766,0
1942254,751.54,692,764,0
1942257,756.61,692,761,0
1942266,760.20,692,762,0
1942276,762.67,692,764,0
1942286,764.44,692,762,0
1942296,765.04,692,763,0
1942306,760.74,692,763,0
1942316,747.36,692,764,0
1942326,724.07,692,762,0
1942336,688.95,692,762,0
1942346,643.36,692,762,0
1942356,586.77,692,762,0
1942366,522.34,692,762,0
1942376,454.14,692,762,0
1942386,389.38,692,762,0
1942396,329.61,692,762,0
1942406,279.67,692,762,0
1942416,238.63,692,762,0
1942426,209.98,692,762,0
1942436,191.30,692,762,0
1942446,184.91,692,761,0
1942456,187.38,692,763,0
1942466,200.04,692,762,0
1942476,218.93,692,762,0
1942487,244.96,692,763,0
1942497,273.47,692,761,0
1942507,305.05,692,763,0
1942517,335.12,692,761,0
1942528,364.53,692,763,0
1942537,389.31,692,761,0
1942547,410.86,692,763,0
1942557,425.73,692,761,0
1942567,436.05,692,763,0
1942577,439.55,692,761,0
1942587,439.13,692,763,0
1942597,432.88,692,761,0
1942607,423.87,692,763,0
1942617,410.67,692,761,0
1942627,396.80,692,763,0
1942637,380.70,692,761,0
1942647,365.58,692,763,0
1942657,349.63,692,761,0
1942667,336.16,692,763,0
1942677,323.12,692,761,0
1942687,313.10,692,763,0
1942697,303.90,692,760,0
1942707,298.19,692,763,0
1942717,293.33,692,761,0
1942727,291.77,692,763,0
1942737,290.77,692,760,0
1942747,292.68,692,763,0
1942757,294.88,692,761,0
1942767,299.41,692,763,0
1942777,303.58,692,760,0
1942787,309.57,692,763,0
1942797,314.59,692,761,0
1942807,320.80,692,763,0
1942817,325.62,692,760,0
1942828,331.77,692,763,0
1942838,338.10,692,760,0
1942848,348.70,692,764,0
1942858,364.17,692,760,0
1942868,390.05,692,764,0
1942878,425.69,692,760,0
1942888,469.03,692,764,0
1942898,516.16,692,760,0
1942908,565.44,692,764,0
1942918,612.80,692,760,0
1942928,655.67,692,764,0
1942938,689.37,692,760,0
1942948,712.96,692,764,0
1942967,729.47,713,763,0
1942970,741.03,713,770,0
1942979,749.12,713,759,0
1942989,754.78,713,765,0
1942999,758.75,713,760,0
1943009,761.52,713,764,0
1943019,763.47,713,760,0
1943029,764.83,713,765,0
1943040,761.58,713,759,0
1943049,751.03,713,764,0
1943059,729.77,713,759,0
1943069,697.39,713,765,0
1943079,653.22,713,759,0
1943089,598.85,713,764,0
1943099,534.40,713,760,0
1943109,466.22,713,765,0
1943119,398.23,713,759,0
1943129,336.49,713,764,0
1943139,282.55,713,760,0
1943149,239.75,713,764,0
1943159,207.64,713,759,0
1943169,188.20,713,764,0
1943179,179.78,713,760,0
1943189,182.98,713,764,0
1943199,195.16,713,759,0
1943209,216.15,713,765,0
1943219,242.55,713,760,0
1943229,273.63,713,764,0
1943239,306.10,713,759,0
1943249,339.15,713,765,0
1943259,369.62,713,760,0
1943269,397.25,713,764,0
1943279,419.42,713,759,0
1943289,436.61,713,765,0
1943299,447.18,713,760,0
1943309,452.27,713,764,0
1943319,451.03,713,759,0
1943329,445.28,713,765,0
1943340,434.61,713,759,0
1943350,421.10,713,770,0
1943360,404.91,713,750,0
1943370,387.88,713,774,0
1943380,370.22,713,745,0
1943390,353.74,713,770,0
1943400,338.04,713,751,0
1943410,324.57,713,774,0
1943420,313.09,713,745,0
1943430,304.36,713,770,0
1943440,297.91,713,751,0
1943450,294.04,713,774,0
1943460,292.01,713,745,0
1943470,292.35,713,769,0
1943480,293.96,713,753,0
1943490,297.06,713,774,0
1943500,300.73,713,745,0
1943511,305.05,713,773,0
1943521,309.79,713,745,0
1943531,315.81,713,770,0
1943541,324.48,713,748,0
1943552,338.44,713,769,0
1943561,359.86,713,745,0
1943571,392.48,713,771,0
1943581,434.03,713,748,0
1943591,481.47,713,769,0
1943601,531.94,713,745,0
1943611,582.23,713,771,0
1943621,629.09,713,749,0
1943631,669.26,713,770,0
1943641,698.88,713,745,0
1943651,719.62,713,771,0
1943661,734.13,713,748,0
1943671,744.29,713,770,0
1943681,751.41,713,745,0
1943691,756.38,713,771,0
1943710,759.87,743,769,0
1943713,762.31,743,766,0
1943723,764.06,743,754,0
1943732,760.74,743,769,0
1943742,748.95,743,751,0
1943752,726.12,743,767,0
1943762,691.97,743,753,0
1943772,646.29,743,768,0
1943782,590.11,743,751,0
1943792,523.99,743,767,0
1943802,454.73,743,753,0
1943812,387.10,743,769,0
1943822,326.08,743,750,0
1943832,273.43,743,768,0
1943842,231.99,743,753,0
1943852,201.69,743,769,0
1943862,184.08,743,750,0
1943872,177.59,743,768,0
1943882,182.73,743,752,0
1943892,197.08,743,767,0
1943902,219.90,743,750,0
1943912,248.13,743,768,0
1943922,281.00,743,752,0
1943932,315.16,743,767,0
1943942,349.57,743,750,0
1943952,381.24,743,768,0
1943962,409.54,743,752,0
1943972,432.22,743,767,0
1943982,449.25,743,749,0
1943992,459.38,743,768,0
1944002,463.68,743,752,0
1944012,461.38,743,767,0
1944023,454.23,743,755,0
1944033,441.99,743,766,0
1944043,427.17,743,757,0
1944053,409.42,743,766,0
1944064,391.29,743,758,0
1944073,372.22,743,766,0
1944083,354.71,743,757,0
1944093,337.74,743,766,0
1944103,323.85,743,758,0
1944113,311.51,743,766,0
1944123,302.91,743,757,0
1944133,296.00,743,766,0
1944143,292.78,743,758,0
1944153,291.05,743,766,0
1944163,292.23,743,757,0
1944173,293.88,743,766,0
1944183,297.69,743,758,0
1944193,301.34,743,766,0
1944203,306.68,743,757,0
1944213,312.35,743,766,0
1944223,321.93,743,758,0
1944233,335.96,743,766,0
1944243,358.82,743,757,0
1944253,391.87,743,766,0
1944263,434.34,743,758,0
1944273,482.07,743,766,0
1944283,533.09,743,757,0
1944293,583.33,743,766,0
1944303,630.42,743,758,0
1944313,670.15,743,766,0
1944323,699.63,743,757,0
1944333,720.23,743,766,0
1944343,734.69,743,758,0
1944353,744.81,743,766,0
1944364,751.94,743,759,0
1944374,756.89,743,765,0
1944384,760.39,743,761,0
1944403,762.80,693,760,0
1944407,764.53,693,764,0
1944415,763.64,693,763,0
1944425,756.68,693,762,0
1944435,739.29,693,762,0
1944445,711.22,693,763,0
1944455,671.21,693,763,0
1944465,620.88,693,762,0
1944475,559.76,693,762,0
1944485,492.59,693,763,0
1944495,423.50,693,763,0
1944505,359.92,693,762,0
1944515,302.81,693,762,0
1944525,256.76,693,763,0
1944535,220.44,693,763,0
1944545,197.21,693,762,0
1944555,184.50,693,762,0
1944565,184.27,693,763,0
1944576,192.97,693,761,0
1944585,211.67,693,762,0
1944595,235.90,693,762,0
1944605,266.40,693,763,0
1944615,298.42,693,761,0
1944625,332.45,693,762,0
1944635,363.99,693,763,0
1944645,393.82,693,762,0
1944655,418.13,693,762,0
1944665,438.19,693,762,0
1944675,450.95,693,763,0
1944685,458.85,693,762,0
1944695,459.45,693,761,0
1944705,455.80,693,762,0
1944715,446.00,693,762,0
1944725,433.53,693,762,0
1944735,416.96,693,762,0
1944745,399.91,693,763,0
1944755,380.87,693,763,0
1944765,363.42,693,762,0
1944775,345.68,693,761,0
1944785,330.99,693,763,0
1944795,317.24,693,763,0
1944805,307.31,693,763,0
1944815,298.77,693,761,0
1944825,294.04,693,763,0
1944835,290.51,693,763,0
1944845,290.45,693,762,0
1944855,290.91,693,762,0
1944865,294.15,693,763,0
1944876,297.32,693,761,0
1944886,302.45,693,763,0
1944896,306.90,693,760,0
1944906,313.19,693,763,0
1944916,320.25,693,760,0
1944926,332.04,693,764,0
1944936,348.57,693,760,0
1944946,375.66,693,763,0
1944956,412.88,693,761,0
1944966,458.00,693,764,0
1944976,506.94,693,760,0
1944986,557.83,693,763,0
1944996,606.65,693,761,0
1945006,651.29,693,764,0
1945016,686.47,693,761,0
1945026,711.14,693,763,0
1945036,728.37,693,761,0
1945047,740.47,693,764,0
1945057,748.90,693,760,0
1945067,754.80,693,764,0
1945086,758.85,683,763,0
1945090,761.68,683,775,0
1945099,763.62,683,755,0
1945109,764.98,683,774,0
1945119,763.91,683,746,0
1945129,756.27,683,774,0
1945139,739.26,683,755,0
1945149,711.71,683,774,0
1945159,672.80,683,747,0
1945169,623.01,683,774,0
1945179,563.18,683,756,0
1945189,496.74,683,773,0
1945199,429.28,683,747,0
1945209,365.72,683,774,0
1945219,308.85,683,757,0
1945229,261.84,683,773,0
1945239,225.59,683,748,0
1945249,201.15,683,774,0
1945260,188.21,683,744,0
1945270,186.69,683,772,0
1945280,195.22,683,748,0
1945290,212.60,683,770,0
1945300,236.72,683,748,0
1945310,265.69,683,772,0
1945320,297.11,683,748,0
1945330,329.09,683,770,0
1945340,359.62,683,748,0
1945350,387.12,683,772,0
1945360,410.14,683,747,0
1945370,427.50,683,770,0
1945380,439.14,683,748,0
1945390,444.84,683,773,0
1945400,444.84,683,747,0
1945410,439.53,683,770,0
1945420,429.73,683,747,0
1945431,416.35,683,769,0
1945441,400.86,683,750,0
1945451,383.67,683,768,0
1945461,366.46,683,752,0
1945472,349.48,683,767,0
1945481,334.08,683,750,0
1945491,320.34,683,768,0
1945501,309.35,683,752,0
1945511,300.33,683,767,0
1945521,294.23,683,749,0
1945531,290.01,683,768,0
1945541,288.63,683,752,0
1945551,288.83,683,767,0
1945561,290.98,683,749,0
1945571,293.77,683,768,0
1945581,298.08,683,752,0
1945591,302.43,683,767,0
1945601,307.70,683,749,0
1945611,313.02,683,768,0
1945621,320.43,683,752,0
1945631,330.80,683,767,0
1945641,348.05,683,755,0
1945651,373.49,683,768,0
1945661,410.41,683,751,0
1945671,454.52,683,767,0
1945681,503.52,683,755,0
1945691,553.98,683,768,0
1945701,603.44,683,752,0
1945711,647.54,683,767,0
1945721,683.81,683,754,0
1945731,709.19,683,769,0
1945741,727.01,683,751,0
1945751,739.43,683,767,0
1945761,748.17,683,753,0
1945781,754.25,695,755,0
1945784,758.55,695,763,0
1945793,761.51,695,765,0
1945803,763.63,695,761,0
1945814,765.07,695,764,0
1945823,763.89,695,759,0
1945833,754.71,695,765,0
1945843,736.07,695,761,0
1945853,705.53,695,764,0
1945863,664.49,695,759,0
1945873,612.14,695,765,0
1945883,550.81,695,761,0
1945893,482.68,695,764,0
1945903,416.26,695,759,0
1945913,353.66,695,764,0
1945923,300.40,695,761,0
1945933,255.84,695,764,0
1945943,223.44,695,759,0
1945953,201.37,695,765,0
1945963,191.96,695,761,0
1945973,191.93,695,764,0
1945984,202.79,695,762,0
1945993,220.43,695,765,0
1946003,245.41,695,761,0
1946013,273.66,695,764,0
1946023,305.39,695,762,0
1946033,336.22,695,765,0
1946043,366.71,695,760,0
1946053,392.81,695,764,0
1946063,415.80,695,762,0
1946073,432.40,695,765,0
1946083,444.45,695,760,0
1946093,449.42,695,764,0
1946103,450.06,695,761,0
1946113,444.56,695,765,0
1946123,435.95,695,760,0
1946133,422.76,695,764,0
1946143,408.39,695,761,0
1946153,391.30,695,763,0
1946163,375.01,695,760,0
1946173,357.99,695,764,0
1946183,343.34,695,761,0
1946193,329.14,695,763,0
1946203,318.21,695,760,0
1946213,308.42,695,764,0
1946223,302.34,695,761,0
1946233,297.31,695,764,0
1946243,295.50,695,759,0
1946253,294.36,695,764,0
1946263,296.14,695,761,0
1946273,297.98,695,764,0
1946284,302.02,695,762,0
1946294,305.36,695,763,0
1946304,310.56,695,762,0
1946314,315.58,695,762,0
1946324,324.11,695,763,0
1946334,335.35,695,763,0
1946344,354.74,695,762,0
1946354,382.93,695,762,0
1946364,422.04,695,763,0
1946374,467.24,695,763,0
1946384,517.01,695,763,0
1946394,566.98,695,762,0
1946404,615.54,695,763,0
1946414,657.68,695,763,0
1946424,690.95,695,763,0
1946434,714.19,695,762,0
1946444,730.51,695,763,0
1946455,741.88,695,761,0
1946465,749.89,695,763,0
1946475,755.45,695,761,0
1946494,759.39,713,760,0
1946498,762.14,713,760,0
1946507,764.07,713,765,0
1946517,762.55,713,760,0
1946527,753.94,713,765,0
1946537,734.80,713,759,0
1946547,705.08,713,764,0
1946557,663.61,713,759,0
1946567,611.48,713,765,0
1946577,549.20,713,759,0
1946587,481.72,713,764,0
1946597,413.79,713,759,0
1946607,351.41,713,765,0
1946617,296.13,713,759,0
1946627,251.56,713,764,0
1946637,217.71,713,759,0
1946647,196.41,713,765,0
1946657,186.26,713,759,0
1946668,188.07,713,766,0
1946678,199.53,713,755,0
1946688,220.07,713,773,0
1946698,246.88,713,746,0
1946708,278.84,713,774,0
1946718,312.58,713,756,0
1946728,346.86,713,773,0
1946738,378.75,713,746,0
1946748,407.28,713,774,0
1946758,430.38,713,757,0
1946768,447.84,713,773,0
1946778,458.60,713,747,0
1946788,463.35,713,774,0
1946798,461.79,713,758,0
1946808,455.34,713,772,0
1946818,444.09,713,748,0
1946828,429.62,713,774,0
1946839,412.59,713,744,0
1946849,394.46,713,772,0
1946859,376.06,713,747,0
1946869,358.52,713,770,0
1946880,342.29,713,748,0
1946889,328.45,713,772,0
1946899,317.04,713,747,0
1946909,308.20,713,770,0
1946919,302.10,713,748,0
1946929,298.34,713,772,0
1946939,296.74,713,747,0
1946949,296.69,713,770,0
1946959,298.07,713,748,0
1946969,300.70,713,772,0
1946979,305.04,713,747,0
1946989,311.93,713,770,0
1946999,323.69,713,748,0
1947009,342.43,713,773,0
1947019,371.18,713,746,0
1947029,410.60,713,770,0
1947039,457.13,713,748,0
1947049,507.75,713,769,0
1947059,559.43,713,746,0
1947069,608.67,713,770,0
1947079,652.44,713,748,0
1947089,687.11,713,769,0
1947099,711.38,713,745,0
1947109,728.36,713,770,0
1947119,740.25,713,748,0
1947129,748.58,713,769,0
1947139,754.40,713,745,0
1947149,758.48,713,770,0
1947159,761.34,713,748,0
1947169,763.34,713,769,0
1947189,760.66,695,768,0
1947192,748.17,695,766,0
1947201,725.62,695,757,0
1947211,691.27,695,765,0
1947222,646.36,695,758,0
1947231,590.67,695,766,0
1947241,526.18,695,757,0
1947251,457.38,695,765,0
1947261,392.47,695,758,0
1947271,332.50,695,766,0
1947281,282.12,695,757,0
1947291,240.98,695,765,0
1947301,212.15,695,758,0
1947311,193.80,695,766,0
1947321,187.69,695,757,0
1947331,191.04,695,766,0
1947341,204.70,695,757,0
1947351,225.15,695,766,0
1947361,252.36,695,757,0
1947371,282.47,695,766,0
1947381,315.54,695,757,0
1947392,347.65,695,766,0
1947401,378.65,695,757,0
1947411,405.12,695,766,0
1947421,427.71,695,757,0
1947431,443.65,695,766,0
1947441,454.30,695,756,0
1947451,457.90,695,766,0
1947461,456.73,695,757,0
1947471,449.48,695,766,0
1947481,438.96,695,756,0
1947491,424.32,695,766,0
1947501,408.54,695,757,0
1947511,390.63,695,765,0
1947521,373.47,695,756,0
1947531,356.10,695,766,0
1947541,341.29,695,757,0
1947551,327.53,695,766,0
1947561,317.08,695,758,0
1947571,308.23,695,766,0
1947581,302.85,695,757,0
1947591,298.86,695,765,0
1947601,298.05,695,758,0
1947611,298.03,695,766,0
1947621,300.38,695,757,0
1947631,302.75,695,766,0
1947641,306.90,695,758,0
1947651,310.79,695,766,0
1947661,316.72,695,757,0
1947671,323.92,695,766,0
1947681,336.63,695,758,0
1947692,355.81,695,765,0
1947702,386.73,695,760,0
1947712,426.66,695,764,0
1947722,473.48,695,761,0
1947732,523.39,695,764,0
1947742,574.45,695,759,0
1947752,622.27,695,765,0
1947762,664.23,695,761,0
1947772,695.49,695,764,0
1947782,717.41,695,759,0
1947792,732.72,695,765,0
1947802,743.47,695,761,0
1947812,750.96,695,764,0
1947822,756.24,695,759,0
1947841,759.90,652,760,0
1947844,762.50,652,763,0
1947853,764.28,652,762,0
1947863,764.67,652,762,0
1947873,757.74,652,763,0
1947883,742.00,652,762,0
1947893,714.57,652,762,0
1947904,676.60,652,763,0
1947913,627.26,652,762,0
1947923,568.77,652,762,0
1947933,501.90,652,762,0
1947943,435.50,652,763,0
1947953,371.79,652,763,0
1947963,316.65,652,762,0
1947973,269.44,652,762,0
1947983,234.00,652,763,0
1947993,208.28,652,763,0
1948003,195.08,652,762,0
1948013,191.29,652,762,0
1948023,198.44,652,763,0
1948033,212.63,652,763,0
1948043,234.98,652,762,0
1948053,260.96,652,762,0
1948063,291.40,652,763,0
1948073,321.54,652,761,0
1948083,352.23,652,762,0
1948093,379.12,652,762,0
1948103,403.51,652,763,0
1948113,421.62,652,761,0
1948123,435.66,652,762,0
1948133,442.58,652,762,0
1948143,445.19,652,763,0
1948153,441.32,652,761,0
1948163,434.37,652,762,0
1948173,422.77,652,762,0
1948183,409.94,652,763,0
1948193,393.97,652,761,0
1948204,378.51,652,763,0
1948214,361.77,652,761,0
1948224,346.92,652,763,0
1948234,332.08,652,760,0
1948244,319.84,652,763,0
1948254,308.49,652,761,0
1948264,300.71,652,763,0
1948274,294.11,652,760,0
1948284,291.21,652,763,0
1948294,289.52,652,761,0
1948304,291.08,652,763,0
1948314,293.32,652,760,0
1948324,297.90,652,763,0
1948334,302.13,652,761,0
1948344,308.00,652,763,0
1948354,313.15,652,760,0
1948364,320.35,652,763,0
1948375,329.03,652,760,0
1948385,343.93,652,764,0
1948395,366.20,652,760,0
1948405,400.98,652,764,0
1948416,443.37,652,760,0
1948425,491.60,652,764,0
1948435,541.95,652,760,0
1948445,592.41,652,764,0
1948455,638.49,652,760,0
1948465,677.38,652,764,0
1948475,704.61,652,760,0
1948485,723.67,652,764,0
1948495,737.01,652,760,0
1948505,746.39,652,764,0
1948515,752.96,652,760,0
1948534,757.56,693,759,0
1948537,760.78,693,744,0
1948546,763.03,693,765,0
1948556,764.61,693,759,0
1948566,763.65,693,765,0
1948576,755.10,693,759,0
1948587,736.98,693,770,0
1948596,707.85,693,759,0
1948606,667.86,693,765,0
1948616,616.82,693,759,0
1948626,556.06,693,769,0
1948636,488.50,693,759,0
1948646,421.45,693,765,0
1948656,358.14,693,759,0
1948666,302.47,693,769,0
1948676,255.44,693,759,0
1948686,219.78,693,765,0
1948696,194.99,693,759,0
1948706,182.05,693,767,0
1948716,179.16,693,759,0
1948726,186.74,693,765,0
1948736,202.25,693,759,0
1948746,225.23,693,767,0
1948756,252.59,693,754,0
1948766,283.40,693,765,0
1948776,314.61,693,759,0
1948786,345.50,693,766,0
1948796,373.12,693,755,0
1948806,397.38,693,765,0
1948816,416.00,693,759,0
1948826,429.46,693,765,0
1948836,436.65,693,757,0
1948846,438.85,693,765,0
1948856,435.47,693,759,0
1948866,428.21,693,765,0
1948876,416.75,693,758,0
1948887,403.07,693,773,0
1948897,387.23,693,748,0
1948907,371.01,693,774,0
1948917,354.46,693,744,0
1948928,338.98,693,772,0
1948937,324.54,693,748,0
1948947,312.47,693,774,0
1948957,302.43,693,744,0
1948967,295.14,693,772,0
1948977,289.91,693,749,0
1948987,287.15,693,774,0
1948997,286.38,693,744,0
1949007,287.55,693,772,0
1949017,289.83,693,750,0
1949027,293.35,693,774,0
1949037,297.32,693,744,0
1949047,301.89,693,773,0
1949057,306.43,693,750,0
1949067,311.74,693,774,0
1949077,318.63,693,744,0
1949087,329.11,693,773,0
1949097,345.67,693,746,0
1949107,371.22,693,774,0
1949117,408.01,693,745,0
1949127,452.58,693,773,0
1949137,501.69,693,746,0
1949147,552.57,693,775,0
1949157,602.11,693,745,0
1949167,646.74,693,774,0
1949177,683.12,693,745,0
1949187,708.58,693,774,0
1949197,726.41,693,746,0
1949207,738.88,693,774,0
1949217,747.62,693,745,0
1949237,753.73,703,747,0
1949240,758.06,703,757,0
1949249,761.08,703,767,0
1949259,763.24,703,755,0
1949270,764.76,703,766,0
1949279,761.06,703,752,0
1949289,748.14,703,767,0
1949299,724.66,703,755,0
1949309,689.14,703,766,0
1949319,642.86,703,751,0
1949329,585.64,703,767,0
1949339,519.54,703,754,0
1949349,449.82,703,766,0
1949359,383.14,703,751,0
1949369,322.20,703,767,0
1949379,271.10,703,754,0
1949389,229.84,703,766,0
1949399,200.62,703,751,0
1949409,182.56,703,767,0
1949419,176.95,703,753,0
1949429,181.55,703,766,0
1949440,196.51,703,757,0
1949449,218.52,703,767,0
1949459,246.99,703,753,0
1949469,278.84,703,766,0
1949479,313.09,703,757,0
1949489,346.27,703,767,0
1949499,377.82,703,753,0
1949509,404.66,703,767,0
1949519,427.35,703,757,0
1949529,443.53,703,767,0
1949539,454.08,703,753,0
1949549,457.62,703,767,0
1949559,456.10,703,756,0
1949569,448.87,703,768,0
1949579,438.11,703,752,0
1949589,423.42,703,767,0
1949599,407.35,703,756,0
1949609,389.50,703,765,0
1949619,372.25,703,752,0
1949629,354.99,703,767,0
1949639,339.99,703,756,0
1949649,326.24,703,766,0
1949659,315.41,703,752,0
1949669,306.42,703,767,0
1949679,300.85,703,756,0
1949689,296.99,703,766,0
1949699,296.01,703,752,0
1949709,296.09,703,767,0
1949719,298.42,703,756,0
1949729,301.08,703,766,0
1949740,305.34,703,757,0
1949750,309.70,703,766,0
1949760,316.94,703,758,0
1949770,327.16,703,765,0
1949780,344.73,703,760,0
1949790,370.48,703,766,0
1949800,407.92,703,758,0
1949810,452.47,703,765,0
1949820,502.17,703,760,0
1949830,553.04,703,766,0
1949840,602.95,703,758,0
1949850,647.15,703,765,0
1949860,683.58,703,760,0
1949870,709.03,703,766,0
1949880,726.90,703,758,0
1949890,739.36,703,766,0
1949900,748.12,703,759,0
1949911,754.21,703,765,0
1949921,758.52,703,762,0
1949940,761.49,703,761,0
1949943,763.62,703,763,0
1949953,762.66,703,761,0
1949963,755.30,703,764,0
1949973,737.38,703,760,0
1949983,708.68,703,763,0
1949993,667.72,703,760,0
1950003,616.46,703,764,0
1950013,554.39,703,760,0
1950023,486.39,703,763,0
1950033,416.59,703,760,0
1950043,352.38,703,763,0
1950053,294.84,703,761,0
1950063,248.60,703,763,0
1950073,212.55,703,760,0
1950083,189.88,703,764,0
1950093,178.43,703,761,0
1950103,179.80,703,763,0
1950113,190.58,703,760,0
1950124,211.40,703,764,0
1950134,238.20,703,760,0
1950144,270.62,703,764,0
1950154,304.51,703,760,0
1950164,339.50,703,765,0
1950174,371.58,703,760,0
1950184,400.85,703,764,0
1950194,424.04,703,760,0
1950204,441.77,703,765,0
1950214,452.21,703,760,0
1950224,456.95,703,764,0
1950234,454.69,703,760,0
1950244,447.80,703,764,0
1950254,435.64,703,760,0
1950264,421.09,703,764,0
1950274,403.75,703,760,0
1950284,386.13,703,764,0
1950295,367.66,703,760,0
1950305,350.92,703,765,0
1950315,335.17,703,759,0
1950325,322.18,703,766,0
1950336,310.98,703,756,0
1950345,303.10,703,765,0
1950355,297.07,703,759,0
1950365,294.09,703,766,0
1950375,292.52,703,757,0
1950385,293.18,703,765,0
1950395,294.54,703,759,0
1950405,297.46,703,765,0
1950415,301.52,703,758,0
1950425,309.00,703,765,0
1950435,320.70,703,760,0
1950445,340.80,703,765,0
1950455,371.38,703,759,0
1950465,412.62,703,765,0
1950475,460.43,703,760,0
1950485,512.20,703,766,0
1950495,564.39,703,759,0
1950505,614.28,703,772,0
1950515,657.44,703,759,0
1950525,690.65,703,765,0
1950535,713.90,703,760,0
1950545,730.17,703,771,0
1950555,741.52,703,760,0
1950565,749.46,703,765,0
1950575,755.03,703,760,0
1950585,758.92,703,770,0
1950595,761.64,703,760,0
1950614,763.55,674,759,0
1950617,762.87,674,748,0
1950626,755.75,674,773,0
1950636,739.33,674,751,0
1950646,712.10,674,774,0
1950656,673.28,674,745,0
1950666,623.31,674,773,0
1950676,562.96,674,746,0
1950686,495.86,674,774,0
1950696,427.29,674,745,0
1950706,362.14,674,773,0
1950716,303.82,674,745,0
1950726,255.18,674,774,0
1950736,217.37,674,746,0
1950746,191.37,674,774,0
1950756,177.03,674,745,0
1950766,174.28,674,774,0
1950776,181.87,674,746,0
1950786,198.54,674,774,0
1950796,222.42,674,745,0
1950807,251.91,674,771,0
1950817,284.85,674,748,0
1950827,318.88,674,770,0
1950837,352.04,674,749,0
1950848,382.37,674,768,0
1950857,408.58,674,748,0
1950867,429.27,674,770,0
1950877,443.89,674,749,0
1950887,451.55,674,768,0
1950897,453.14,674,748,0
1950907,448.69,674,770,0
1950917,439.57,674,748,0
1950927,426.15,674,768,0
1950937,410.04,674,748,0
1950947,392.11,674,770,0
1950957,374.03,674,748,0
1950967,355.94,674,769,0
1950977,339.20,674,748,0
1950987,324.10,674,770,0
1950997,311.55,674,748,0
1951007,301.27,674,769,0
1951017,293.78,674,751,0
1951027,288.53,674,770,0
1951037,285.84,674,748,0
1951047,285.08,674,769,0
1951057,286.42,674,751,0
1951067,289.00,674,770,0
1951077,292.98,674,748,0
1951087,297.36,674,769,0
1951097,302.87,674,751,0
1951107,309.42,674,770,0
1951117,318.64,674,748,0
1951127,332.16,674,769,0
1951137,353.76,674,751,0
1951148,386.23,674,768,0
1951158,428.03,674,752,0
1951168,475.55,674,767,0
1951178,526.43,674,756,0
1951188,577.56,674,766,0
1951198,625.78,674,752,0
1951208,666.90,674,767,0
1951218,697.40,674,756,0
1951228,718.71,674,766,0
1951238,733.67,674,752,0
1951248,744.10,674,767,0
1951258,751.44,674,756,0
1951268,756.54,674,766,0
1951287,760.15,673,766,0
1951290,762.63,673,765,0
1951299,764.41,673,758,0
1951309,765.62,673,765,0
1951319,765.18,673,757,0
1951329,757.54,673,766,0
1951339,740.75,673,758,0
1951349,712.28,673,765,0
1951360,672.85,673,760,0
1951369,622.03,673,766,0
1951379,561.55,673,758,0
1951389,492.85,673,765,0
1951399,424.37,673,759,0
1951409,358.99,673,766,0
1951419,302.03,673,758,0
1951429,253.77,673,765,0
1951439,217.62,673,759,0
1951449,192.24,673,766,0
1951459,180.04,673,758,0
1951469,178.18,673,766,0
1951479,187.81,673,759,0
1951489,205.18,673,766,0
1951499,230.50,673,758,0
1951509,259.45,673,766,0
1951519,292.19,673,759,0
1951529,324.14,673,765,0
1951539,355.52,673,758,0
1951549,382.45,673,766,0
1951559,405.84,673,759,0
1951569,422.65,673,765,0
1951579,434.50,673,758,0
1951589,439.28,673,766,0
1951599,439.49,673,759,0
1951609,433.56,673,765,0
1951619,424.43,673,758,0
1951629,410.98,673,766,0
1951639,396.37,673,759,0
1951649,379.37,673,765,0
1951660,363.15,673,761,0
1951670,346.26,673,764,0
1951680,331.87,673,762,0
1951690,317.98,673,763,0
1951700,307.49,673,762,0
1951710,298.17,673,764,0
1951720,292.46,673,762,0
1951730,287.82,673,763,0
1951740,286.80,673,762,0
1951750,286.43,673,764,0
1951760,288.83,673,762,0
1951770,291.07,673,763,0
1951780,295.42,673,762,0
1951790,299.24,673,764,0
1951800,305.38,673,762,0
1951810,312.34,673,763,0
1951820,324.75,673,763,0
1951831,343.30,673,763,0
1951841,373.76,673,763,0
1951851,413.78,673,761,0
1951861,461.24,673,764,0
1951872,512.00,673,761,0
1951881,564.37,673,763,0
1951891,613.80,673,761,0
1951901,657.70,673,764,0
1951911,690.92,673,761,0
1951921,714.22,673,763,0
1951931,730.48,673,762,0
1951941,741.91,673,764,0
1951951,749.86,673,761,0
1951961,755.48,673,763,0
1951980,759.36,693,762,0
1951983,762.12,693,765,0
1951992,764.02,693,760,0
1952002,765.38,693,764,0
1952012,764.28,693,760,0
1952022,756.91,693,764,0
1952032,738.94,693,760,0
1952043,709.81,693,764,0
1952052,668.43,693,760,0
1952062,616.14,693,764,0
1952072,552.67,693,760,0
1952082,482.53,693,764,0
1952092,410.50,693,760,0
1952102,343.96,693,763,0
1952112,284.45,693,760,0
1952122,236.05,693,764,0
1952132,198.24,693,760,0
1952142,174.12,693,764,0
1952152,161.57,693,760,0
1952162,161.96,693,764,0
1952172,171.87,693,761,0
1952182,192.01,693,763,0
1952192,218.32,693,760,0
1952202,250.80,693,764,0
1952212,285.01,693,760,0
1952222,320.84,693,764,0
1952232,353.97,693,760,0
1952242,384.84,693,764,0
1952252,409.74,693,760,0
1952262,429.92,693,763,0
1952272,442.59,693,761,0
1952282,449.61,693,764,0
1952292,449.26,693,760,0
1952302,444.51,693,763,0
1952312,433.94,693,761,0
1952322,420.76,693,764,0
1952332,403.86,693,760,0
1952343,386.50,693,764,0
1952353,367.84,693,760,0
1952363,350.66,693,765,0
1952373,333.75,693,759,0
1952384,319.76,693,765,0
1952393,307.28,693,760,0
1952403,298.41,693,765,0
1952413,291.39,693,760,0
1952423,287.76,693,765,0
1952433,285.73,693,760,0
1952443,286.37,693,764,0
1952453,287.71,693,760,0
1952463,290.93,693,765,0
1952473,294.16,693,760,0
1952483,299.22,693,764,0
1952493,305.54,693,760,0
1952503,316.43,693,765,0
1952513,332.85,693,760,0
1952523,359.93,693,764,0
1952533,398.10,693,760,0
1952543,444.35,693,765,0
1952553,494.95,693,760,0
1952563,547.68,693,764,0
1952573,598.52,693,760,0
1952583,644.99,693,765,0
1952593,681.98,693,760,0
1952603,707.91,693,764,0
1952613,726.07,693,760,0
1952623,738.78,693,765,0
1952633,747.63,693,760,0
1952643,753.83,693,764,0
1952653,758.12,693,760,0
1952663,761.13,693,765,0
1952683,763.19,702,764,0
1952686,764.68,702,770,0
1952695,761.69,702,745,0
1952705,750.12,702,773,0
1952715,727.42,702,746,0
1952726,692.45,702,770,0
1952735,645.43,702,745,0
1952745,586.97,702,773,0
1952755,518.15,702,746,0
1952765,444.61,702,770,0
1952775,372.51,702,746,0
1952785,306.74,702,773,0
1952795,250.51,702,745,0
1952805,205.83,702,770,0
1952815,173.73,702,746,0
1952825,155.13,702,774,0
1952835,149.73,702,745,0
1952845,156.88,702,771,0
1952855,174.53,702,746,0
1952865,201.07,702,774,0
1952875,234.05,702,745,0
1952885,271.36,702,771,0
1952896,310.26,702,749,0
1952905,348.45,702,774,0
1952915,383.37,702,745,0
1952925,413.73,702,771,0
1952935,437.98,702,749,0
1952945,455.39,702,774,0
1952955,465.43,702,745,0
1952965,468.30,702,772,0
1952975,464.57,702,748,0
1952985,455.53,702,774,0
1952995,441.95,702,745,0
1953005,425.21,702,772,0
1953015,406.55,702,748,0
1953025,387.44,702,774,0
1953035,368.67,702,745,0
1953045,351.15,702,773,0
1953055,335.46,702,748,0
1953065,322.25,702,770,0
1953075,311.72,702,745,0
1953085,303.79,702,773,0
1953095,298.20,702,747,0
1953105,294.75,702,769,0
1953115,293.11,702,745,0
1953125,292.95,702,773,0
1953135,294.46,702,747,0
1953145,298.27,702,770,0
1953155,305.82,702,745,0
1953165,319.80,702,773,0
1953175,343.47,702,747,0
1953185,380.15,702,770,0
1953196,425.66,702,748,0
1953206,476.72,702,769,0
1953216,530.37,702,750,0
1953226,583.58,702,768,0
1953236,632.52,702,752,0
1953246,673.21,702,770,0
1953256,701.77,702,750,0
1953266,721.77,702,768,0
1953276,735.81,702,752,0
1953286,745.60,702,770,0
1953296,752.49,702,750,0
1953306,757.27,702,768,0
1953316,760.66,702,752,0
1953326,762.99,702,770,0
1953336,764.67,702,749,0
1953346,760.39,702,768,0
1953366,746.95,683,767,0
1953369,720.52,683,765,0
1953378,682.44,683,758,0
1953388,631.65,683,765,0
1953398,570.21,683,760,0
1953409,498.23,683,765,0
1953419,424.23,683,761,0
1953429,352.29,683,764,0
1953439,289.72,683,762,0
1953449,236.15,683,763,0
1953459,195.90,683,761,0
1953469,167.60,683,764,0
1953479,154.01,683,762,0
1953489,152.08,683,763,0
1953499,163.15,683,761,0
1953509,182.95,683,764,0
1953519,212.07,683,762,0
1953529,245.69,683,763,0
1953539,283.71,683,761,0
1953549,321.25,683,764,0
1953559,358.42,683,762,0
1953569,390.87,683,763,0
1953580,419.49,683,763,0
1953590,440.56,683,762,0
1953600,455.78,683,763,0
1953610,462.79,683,761,0
1953620,464.05,683,764,0
1953630,458.16,683,762,0
1953640,448.39,683,763,0
1953650,433.27,683,761,0
1953660,416.60,683,764,0
1953670,397.22,683,762,0
1953680,378.77,683,763,0
1953690,359.68,683,761,0
1953700,342.93,683,764,0
1953710,326.88,683,762,0
1953720,314.58,683,763,0
1953730,303.69,683,762,0
1953740,296.67,683,764,0
1953751,290.77,683,761,0
1953761,288.35,683,763,0
1953771,286.79,683,761,0
1953781,287.97,683,764,0
1953792,289.69,683,760,0
1953801,294.54,683,763,0
1953811,301.66,683,761,0
1953821,315.65,683,764,0
1953831,337.57,683,760,0
1953841,372.20,683,763,0
1953851,415.90,683,761,0
1953861,466.20,683,764,0
1953871,519.20,683,760,0
1953881,572.84,683,763,0
1953891,622.43,683,761,0
1953901,664.94,683,764,0
1953911,695.99,683,760,0
1953921,717.76,683,763,0
1953931,732.96,683,761,0
1953941,743.65,683,764,0
1953951,751.08,683,760,0
1953961,756.33,683,764,0
1953971,759.96,683,761,0
1953981,762.54,683,764,0
1953991,764.31,683,760,0
1954011,765.54,645,759,0
1954014,760.11,645,749,0
1954023,745.81,645,765,0
1954033,719.76,645,759,0
1954043,681.78,645,772,0
1954053,631.57,645,759,0
1954063,570.54,645,765,0
1954073,499.41,645,759,0
1954083,426.39,645,771,0
1954093,355.34,645,759,0
1954103,291.85,645,765,0
1954113,237.73,645,760,0
1954123,195.72,645,770,0
1954134,165.89,645,751,0
1954143,149.47,645,765,0
1954153,145.08,645,760,0
1954163,152.86,645,770,0
1954173,170.26,645,751,0
1954183,196.32,645,765,0
1954193,227.94,645,760,0
1954203,263.83,645,769,0
1954213,300.70,645,752,0
1954223,337.47,645,765,0
1954233,370.80,645,760,0
1954243,400.00,645,768,0
1954253,422.97,645,754,0
1954263,440.00,645,765,0
1954273,449.64,645,760,0
1954283,452.92,645,768,0
1954293,449.43,645,755,0
1954304,440.94,645,774,0
1954313,427.76,645,760,0
1954323,411.80,645,766,0
1954333,393.13,645,755,0
1954343,373.77,645,774,0
1954353,354.04,645,760,0
1954363,335.77,645,766,0
1954373,318.95,645,756,0
1954383,304.65,645,774,0
1954393,292.46,645,760,0
1954403,283.53,645,765,0
1954413,276.99,645,757,0
1954423,273.52,645,773,0
1954433,271.95,645,760,0
1954443,272.95,645,765,0
1954453,275.28,645,758,0
1954463,279.44,645,773,0
1954473,284.24,645,748,0
1954483,290.68,645,765,0
1954493,298.66,645,759,0
1954503,310.93,645,772,0
1954513,329.30,645,748,0
1954523,357.62,645,765,0
1954533,396.86,645,759,0
1954543,443.70,645,772,0
1954553,494.84,645,749,0
1954563,547.90,645,765,0
1954573,599.14,645,759,0
1954583,645.22,645,771,0
1954593,682.05,645,750,0
1954604,707.84,645,775,0
1954614,725.88,645,745,0
1954624,738.52,645,773,0
1954634,747.36,645,747,0
1954644,753.55,645,770,0
1954654,757.89,645,745,0
1954664,760.92,645,774,0
1954683,763.05,673,770,0
1954686,764.57,673,767,0
1954695,765.69,673,748,0
1954705,762.40,673,770,0
1954715,750.96,673,750,0
1954725,728.00,673,768,0
1954735,693.16,673,748,0
1954745,646.10,673,769,0
1954755,587.61,673,750,0
1954765,518.60,673,768,0
1954775,445.22,673,748,0
1954785,372.98,673,769,0
1954795,307.76,673,749,0
1954805,251.73,673,768,0
1954816,207.67,673,751,0
1954825,176.18,673,770,0
1954835,158.21,673,749,0
1954845,152.79,673,768,0
1954855,159.58,673,751,0
1954865,176.21,673,770,0
1954875,201.26,673,749,0
1954885,231.74,673,768,0
1954895,266.27,673,751,0
1954905,301.76,673,770,0
1954915,336.55,673,749,0
1954925,368.01,673,769,0
1954935,395.39,673,751,0
1954945,417.05,673,770,0
1954955,432.93,673,748,0
1954965,442.04,673,769,0
1954975,445.28,673,751,0
1954985,442.33,673,768,0
1954995,434.64,673,748,0
1955005,422.66,673,769,0
1955015,408.02,673,751,0
1955025,391.00,673,768,0
1955035,373.17,673,748,0
1955045,354.86,673,769,0
1955055,337.93,673,751,0
1955065,322.01,673,768,0
1955075,308.38,673,748,0
1955085,296.61,673,769,0
1955095,287.90,673,750,0
1955105,281.37,673,768,0
1955116,278.00,673,753,0
1955126,276.29,673,767,0
1955136,277.32,673,756,0
1955146,279.36,673,766,0
1955156,283.54,673,758,0
1955166,287.96,673,767,0
1955176,293.85,673,756,0
1955186,300.15,673,766,0
1955196,309.88,673,758,0
1955206,323.46,673,767,0
1955216,345.43,673,756,0
1955226,377.83,673,766,0
1955236,420.14,673,758,0
1955246,468.27,673,767,0
1955256,520.22,673,756,0
1955266,572.01,673,766,0
1955276,621.29,673,758,0
1955287,663.46,673,766,0
1955297,694.99,673,758,0
1955307,717.02,673,765,0
1955317,732.49,673,760,0
1955328,743.27,673,764,0
1955337,750.86,673,758,0
1955347,756.13,673,765,0
1955366,759.86,683,764,0
1955369,762.43,683,762,0
1955378,764.27,683,761,0
1955388,765.52,683,764,0
1955398,765.71,683,762,0
1955408,758.30,683,763,0
1955418,741.84,683,761,0
1955428,713.13,683,763,0
1955438,672.89,683,762,0
1955448,620.04,683,763,0
1955458,557.15,683,761,0
1955468,485.02,683,763,0
1955478,413.36,683,762,0
1955488,344.55,683,763,0
1955499,285.11,683,762,0
1955508,235.15,683,763,0
1955518,198.93,683,762,0
1955528,174.44,683,763,0
1955538,164.45,683,762,0
1955548,165.39,683,764,0
1955558,178.64,683,762,0
1955568,199.84,683,763,0
1955578,229.58,683,763,0
1955588,262.84,683,764,0
1955598,299.66,683,762,0
1955608,335.03,683,763,0
1955618,369.65,683,762,0
1955628,398.94,683,764,0
1955638,423.94,683,762,0
1955648,441.10,683,763,0
1955658,452.77,683,762,0
1955668,456.40,683,762,0
1955678,455.04,683,762,0
1955688,446.93,683,763,0
1955698,435.55,683,762,0
1955708,419.74,683,762,0
1955718,403.23,683,762,0
1955728,384.52,683,763,0
1955738,367.22,683,762,0
1955748,349.50,683,762,0
1955758,334.73,683,762,0
1955768,320.84,683,763,0
1955778,310.82,683,762,0
1955788,302.00,683,762,0
1955799,296.90,683,763,0
1955809,292.82,683,761,0
1955819,291.93,683,763,0
1955829,291.26,683,760,0
1955840,293.29,683,763,0
1955849,295.39,683,761,0
1955859,301.06,683,763,0
1955869,309.57,683,761,0
1955879,326.07,683,763,0
1955889,351.12,683,761,0
1955899,389.14,683,764,0
1955909,434.78,683,761,0
1955919,486.23,683,763,0
1955929,539.26,683,762,0
1955939,591.77,683,764,0
1955949,638.73,683,761,0
1955959,677.72,683,763,0
1955969,704.98,683,762,0
1955979,724.10,683,764,0
1955989,737.44,683,761,0
1955999,746.78,683,763,0
1956009,753.27,683,761,0
1956019,757.86,683,764,0
1956029,761.03,683,761,0
1956039,763.29,683,763,0
1956059,764.83,692,762,0
1956062,760.98,692,766,0
1956071,748.05,692,760,0
1956081,724.38,692,765,0
1956091,688.09,692,759,0
1956101,640.41,692,764,0
1956111,580.93,692,760,0
1956121,511.44,692,765,0
1956131,437.89,692,759,0
1956141,366.78,692,764,0
1956151,301.10,692,760,0
1956161,245.62,692,765,0
1956171,200.73,692,759,0
1956182,169.40,692,765,0
1956191,150.89,692,760,0
1956201,146.30,692,764,0
1956211,153.19,692,759,0
1956221,171.74,692,765,0
1956231,198.34,692,760,0
1956241,232.35,692,764,0
1956251,269.62,692,759,0
1956261,309.12,692,765,0
1956271,346.84,692,760,0
1956281,382.25,692,764,0
1956291,412.04,692,760,0
1956301,436.33,692,765,0
1956311,452.69,692,760,0
1956321,462.51,692,764,0
1956331,464.54,692,760,0
1956341,460.74,692,765,0
1956352,450.49,692,759,0
1956361,436.58,692,764,0
1956371,419.05,692,759,0
1956381,400.48,692,765,0
1956391,380.75,692,759,0
1956401,362.31,692,764,0
1956411,344.77,692,760,0
1956421,330.23,692,765,0
1956431,317.47,692,759,0
1956441,308.20,692,764,0
1956451,300.81,692,760,0
1956461,296.58,692,765,0
1956471,293.71,692,759,0
1956481,293.32,692,764,0
1956491,293.66,692,760,0
1956501,296.03,692,765,0
1956511,299.88,692,760,0
1956521,308.31,692,765,0
1956531,322.15,692,760,0
1956541,346.23,692,765,0
1956551,382.42,692,760,0
1956561,427.72,692,765,0
1956571,478.42,692,760,0
1956581,532.04,692,765,0
1956591,584.61,692,760,0
1956601,633.41,692,765,0
1956611,673.58,692,760,0
1956621,701.99,692,765,0
1956631,721.88,692,760,0
1956641,735.76,692,765,0
1956652,745.43,692,759,0
1956662,752.20,692,771,0
1956672,756.94,692,751,0
1956682,760.26,692,774,0
1956692,762.58,692,745,0
1956702,764.21,692,770,0
1956721,761.32,663,773,0
1956724,748.75,663,768,0
1956733,725.30,663,748,0
1956743,690.32,663,774,0
1956753,643.55,663,746,0
1956763,585.44,663,770,0
1956773,517.25,663,748,0
1956783,444.58,663,774,0
1956793,374.46,663,746,0
1956803,310.12,663,770,0
1956813,254.46,663,748,0
1956823,209.62,663,774,0
1956833,176.99,663,745,0
1956843,156.98,663,770,0
1956853,149.57,663,748,0
1956864,153.86,663,770,0
1956873,168.51,663,745,0
1956883,191.76,663,770,0
1956893,221.79,663,748,0
1956903,256.35,663,770,0
1956913,292.93,663,745,0
1956923,329.21,663,771,0
1956933,363.35,663,748,0
1956943,393.54,663,770,0
1956953,418.32,663,744,0
1956963,436.65,663,771,0
1956973,448.20,663,748,0
1956983,452.90,663,770,0
1956993,451.34,663,744,0
1957003,444.17,663,772,0
1957013,432.38,663,748,0
1957023,417.09,663,770,0
1957033,399.62,663,748,0
1957043,381.05,663,772,0
1957053,362.65,663,748,0
1957063,345.10,663,770,0
1957073,329.34,663,748,0
1957083,315.95,663,772,0
1957093,305.25,663,747,0
1957103,296.99,663,770,0
1957113,291.46,663,748,0
1957123,288.28,663,773,0
1957133,287.17,663,747,0
1957143,287.50,663,770,0
1957153,289.32,663,748,0
1957164,292.48,663,769,0
1957174,298.81,663,750,0
1957184,309.24,663,768,0
1957194,327.42,663,753,0
1957204,356.14,663,767,0
1957214,396.30,663,750,0
1957224,443.91,663,768,0
1957234,496.31,663,753,0
1957244,549.83,663,767,0
1957254,601.78,663,750,0
1957264,647.66,663,768,0
1957274,683.93,663,753,0
1957284,709.28,663,767,0
1957294,727.07,663,749,0
1957304,739.48,663,768,0
1957314,748.21,663,752,0
1957324,754.27,663,767,0
1957335,758.56,663,756,0
1957345,761.52,663,766,0
1957355,763.64,663,758,0
1957374,765.07,653,757,0
1957378,761.79,653,763,0
1957387,749.60,653,763,0
1957397,727.09,653,762,0
1957407,692.09,653,762,0
1957417,645.69,653,763,0
1957427,587.54,653,763,0
1957437,520.09,653,762,0
1957447,447.77,653,762,0
1957457,378.02,653,762,0
1957467,312.96,653,763,0
1957477,258.07,653,762,0
1957487,213.01,653,762,0
1957497,181.29,653,762,0
1957507,160.72,653,763,0
1957517,153.95,653,762,0
1957527,157.52,653,763,0
1957537,172.79,653,762,0
1957548,195.35,653,762,0
1957558,225.85,653,764,0
1957568,259.32,653,761,0
1957578,296.04,653,763,0
1957588,331.17,653,760,0
1957598,365.15,653,763,0
1957608,393.73,653,761,0
1957618,418.03,653,763,0
1957628,434.73,653,760,0
1957638,446.13,653,763,0
1957648,449.82,653,761,0
1957658,448.54,653,763,0
1957668,440.84,653,760,0
1957678,430.17,653,763,0
1957688,415.16,653,761,0
1957698,399.17,653,763,0
1957708,380.78,653,760,0
1957719,363.40,653,763,0
1957729,345.67,653,760,0
1957739,330.34,653,764,0
1957749,315.71,653,760,0
1957760,304.44,653,764,0
1957769,294.66,653,760,0
1957779,288.55,653,764,0
1957789,283.89,653,760,0
1957799,282.55,653,764,0
1957809,282.08,653,760,0
1957819,284.12,653,764,0
1957829,286.52,653,760,0
1957839,291.00,653,764,0
1957849,296.18,653,760,0
1957859,305.38,653,764,0
1957869,319.24,653,760,0
1957879,343.00,653,764,0
1957889,377.63,653,761,0
1957899,421.84,653,764,0
1957909,471.52,653,760,0
1957919,524.68,653,764,0
1957929,577.32,653,760,0
1957939,626.64,653,764,0
1957949,667.63,653,760,0
1957959,697.83,653,764,0
1957969,718.96,653,760,0
1957979,733.76,653,764,0
1957989,744.12,653,760,0
1957999,751.41,653,764,0
1958009,756.47,653,760,0
1958019,760.02,653,764,0
1958029,762.45,653,760,0
1958048,764.20,674,759,0
1958051,765.47,674,747,0
1958060,764.43,674,765,0
1958070,755.22,674,760,0
1958080,735.69,674,765,0
1958090,703.86,674,760,0
1958100,659.93,674,765,0
1958110,604.11,674,760,0
1958120,538.07,674,765,0
1958130,464.64,674,760,0
1958140,392.23,674,765,0
1958150,324.49,674,760,0
1958160,266.23,674,765,0
1958170,218.50,674,759,0
1958180,183.51,674,765,0
1958190,160.39,674,760,0
1958200,150.58,674,765,0
1958210,151.99,674,759,0
1958220,164.60,674,765,0
1958231,185.46,674,759,0
1958241,213.69,674,771,0
1958251,246.10,674,750,0
1958261,281.60,674,774,0
1958272,316.78,674,745,0
1958281,350.61,674,771,0
1958291,380.30,674,750,0
1958301,405.15,674,775,0
1958311,423.66,674,744,0
1958321,436.19,674,770,0
1958331,441.92,674,751,0
1958341,441.86,674,775,0
1958351,436.07,674,745,0
1958361,426.19,674,769,0
1958371,412.55,674,752,0
1958381,396.79,674,774,0
1958391,379.32,674,745,0
1958401,362.04,674,769,0
1958411,344.93,674,753,0
1958421,329.39,674,774,0
1958431,315.17,674,745,0
1958441,303.42,674,774,0
1958451,293.70,674,753,0
1958461,286.63,674,774,0
1958471,281.51,674,746,0
1958481,278.83,674,774,0
1958491,277.68,674,754,0
1958501,278.59,674,774,0
1958511,280.81,674,746,0
1958521,284.34,674,774,0
1958531,288.31,674,755,0
1958541,293.02,674,774,0
1958551,298.20,674,746,0
1958561,305.42,674,774,0
1958572,316.27,674,745,0
1958582,333.97,674,771,0
1958592,362.18,674,748,0
1958602,401.51,674,770,0
1958612,448.12,674,749,0
1958622,499.47,674,772,0
1958632,552.34,674,748,0
1958642,603.54,674,770,0
1958652,649.15,674,749,0
1958662,684.85,674,772,0
1958672,709.84,674,748,0
1958682,727.33,674,770,0
1958692,739.62,674,748,0
1958702,748.22,674,773,0
1958712,754.24,674,748,0
1958731,758.41,683,747,0
1958734,761.37,683,757,0
1958743,763.45,683,770,0
1958753,764.90,683,751,0
1958763,765.87,683,768,0
1958773,764.67,683,753,0
1958784,755.72,683,767,0
1958793,737.08,683,751,0
1958803,706.33,683,768,0
1958813,663.63,683,753,0
1958823,608.71,683,767,0
1958833,543.40,683,750,0
1958843,470.59,683,768,0
1958853,398.33,683,752,0
1958863,330.00,683,767,0
1958873,270.64,683,750,0
1958883,221.77,683,768,0
1958893,186.26,683,752,0
1958903,163.30,683,767,0
1958913,153.61,683,750,0
1958923,155.48,683,768,0
1958933,168.84,683,752,0
1958943,190.66,683,767,0
1958953,220.08,683,756,0
1958963,253.22,683,767,0
1958973,289.03,683,752,0
1958983,324.25,683,767,0
1958993,357.90,683,756,0
1959003,386.99,683,767,0
1959013,411.25,683,752,0
1959023,428.53,683,767,0
1959033,440.03,683,755,0
1959043,444.65,683,768,0
1959053,443.98,683,752,0
1959063,437.43,683,767,0
1959073,427.19,683,755,0
1959084,413.16,683,766,0
1959094,397.77,683,758,0
1959104,380.40,683,766,0
1959114,363.56,683,758,0
1959124,346.42,683,765,0
1959134,331.30,683,757,0
1959144,317.11,683,766,0
1959154,305.97,683,758,0
1959164,296.21,683,765,0
1959174,289.76,683,758,0
1959184,284.65,683,766,0
1959194,282.91,683,758,0
1959204,282.21,683,765,0
1959214,284.16,683,758,0
1959224,286.47,683,766,0
1959234,290.87,683,758,0
1959244,295.02,683,765,0
1959255,300.80,683,759,0
1959265,306.30,683,765,0
1959275,314.78,683,761,0
1959285,326.21,683,764,0
1959296,345.64,683,762,0
1959305,373.82,683,765,0
1959315,413.09,683,761,0
1959325,458.79,683,764,0
1959335,509.21,683,762,0
1959345,560.32,683,765,0
1959355,610.02,683,761,0
1959365,653.30,683,764,0
1959375,687.88,683,762,0
1959385,712.05,683,765,0
1959395,729.00,683,761,0
1959405,740.83,683,764,0
1959415,749.15,683,762,0
1959425,754.94,683,765,0
1959444,759.03,713,764,0
1959447,761.85,713,761,0
1959456,763.86,713,763,0
1959467,765.23,713,761,0
1959476,766.23,713,763,0
1959486,764.79,713,762,0
1959496,756.88,713,763,0
1959506,737.89,713,761,0
1959516,707.92,713,762,0
1959526,665.05,713,762,0
1959536,610.82,713,763,0
1959546,544.96,713,761,0
1959556,472.76,713,763,0
1959566,398.94,713,762,0
1959576,331.63,713,763,0
1959586,271.57,713,761,0
1959596,224.09,713,762,0
1959606,188.45,713,762,0
1959616,168.04,713,763,0
1959626,159.84,713,761,0
1959636,165.63,713,764,0
1959646,181.00,713,762,0
1959656,206.71,713,763,0
1959666,238.00,713,762,0
1959676,274.64,713,764,0
1959686,311.56,713,763,0
1959696,348.81,713,763,0
1959706,381.78,713,762,0
1959716,411.38,713,764,0
1959726,433.98,713,763,0
1959736,451.08,713,762,0
1959746,459.97,713,762,0
1959756,463.24,713,764,0
1959767,459.10,713,761,0
1959777,450.80,713,763,0
1959787,437.06,713,760,0
1959797,421.14,713,764,0
1959808,402.28,713,760,0
1959817,384.16,713,763,0
1959827,365.17,713,761,0
1959837,348.57,713,764,0
1959847,332.67,713,760,0
1959857,320.56,713,763,0
1959867,310.06,713,760,0
1959877,303.23,713,764,0
1959887,297.80,713,760,0
1959897,296.06,713,763,0
1959907,295.19,713,761,0
1959917,296.93,713,764,0
1959927,298.75,713,760,0
1959937,302.98,713,763,0
1959947,308.09,713,761,0
1959957,317.62,713,764,0
1959967,331.83,713,761,0
1959977,356.23,713,764,0
1959987,391.47,713,761,0
1959997,435.73,713,764,0
1960007,484.84,713,761,0
1960017,537.00,713,764,0
1960027,588.09,713,761,0
1960037,635.59,713,764,0
1960047,674.50,713,761,0
1960057,702.68,713,764,0
1960067,722.36,713,761,0
1960077,736.18,713,764,0
1960087,745.85,713,761,0
1960097,752.63,713,764,0
1960108,757.32,713,760,0
1960118,760.61,713,764,0
1960128,762.87,713,760,0
1960147,764.45,703,759,0
1960151,763.20,703,745,0
1960159,756.20,703,766,0
1960169,738.95,703,760,0
1960179,710.04,703,766,0
1960189,668.41,703,755,0
1960199,615.19,703,765,0
1960209,550.63,703,760,0
1960219,478.96,703,766,0
1960229,404.74,703,756,0
1960239,335.18,703,765,0
1960249,273.28,703,760,0
1960259,222.75,703,765,0
1960269,184.13,703,757,0
1960279,159.36,703,765,0
1960289,147.55,703,760,0
1960299,149.10,703,765,0
1960309,161.67,703,757,0
1960320,184.70,703,773,0
1960329,214.79,703,760,0
1960339,250.51,703,765,0
1960349,288.54,703,758,0
1960359,327.38,703,772,0
1960369,363.52,703,760,0
1960379,396.11,703,765,0
1960389,422.52,703,759,0
1960399,442.76,703,772,0
1960409,455.56,703,759,0
1960419,461.82,703,765,0
1960429,460.80,703,759,0
1960439,454.35,703,771,0
1960449,442.50,703,759,0
1960459,427.44,703,765,0
1960469,409.69,703,759,0
1960479,391.01,703,771,0
1960489,371.59,703,750,0
1960499,353.72,703,765,0
1960509,337.00,703,759,0
1960519,322.86,703,770,0
1960529,310.81,703,751,0
1960539,301.87,703,765,0
1960549,295.18,703,759,0
1960559,291.36,703,770,0
1960569,289.15,703,752,0
1960579,289.23,703,765,0
1960589,290.49,703,759,0
1960599,293.77,703,769,0
1960609,299.11,703,753,0
1960620,309.19,703,774,0
1960630,325.93,703,745,0
1960640,353.08,703,774,0
1960650,391.80,703,746,0
1960660,438.66,703,771,0
1960670,490.19,703,746,0
1960680,543.79,703,774,0
1960690,595.71,703,746,0
1960700,642.55,703,771,0
1960710,680.19,703,746,0
1960720,706.53,703,774,0
1960730,724.97,703,745,0
1960740,737.92,703,772,0
1960750,746.99,703,747,0
1960760,753.34,703,775,0
1960770,757.78,703,745,0
1960780,760.89,703,772,0
1960791,763.06,703,748,0
1960801,764.59,703,771,0
1960820,764.58,673,769,0
1960823,756.39,673,766,0
1960833,738.70,673,757,0
1960843,708.92,673,766,0
1960853,667.54,673,758,0
1960863,613.81,673,765,0
1960873,549.80,673,759,0
1960883,477.13,673,766,0
1960893,405.39,673,758,0
1960903,336.74,673,765,0
1960913,277.25,673,759,0
1960923,227.25,673,766,0
1960933,190.66,673,758,0
1960943,166.03,673,765,0
1960953,155.35,673,759,0
1960963,155.72,673,766,0
1960973,168.23,673,758,0
1960983,189.08,673,765,0
1960993,218.41,673,759,0
1961004,251.76,673,765,0
1961014,288.90,673,761,0
1961024,325.19,673,764,0
1961034,360.92,673,762,0
1961044,391.89,673,763,0
1961054,418.71,673,761,0
1961064,438.21,673,764,0
1961074,451.99,673,762,0
1961084,457.78,673,763,0
1961094,458.36,673,761,0
1961104,452.04,673,764,0
1961114,442.30,673,761,0
1961124,427.55,673,763,0
1961134,411.49,673,761,0
1961144,392.87,673,764,0
1961154,375.17,673,761,0
1961164,356.73,673,763,0
1961175,340.91,673,762,0
1961185,325.59,673,762,0
1961195,313.84,673,763,0
1961205,303.26,673,761,0
1961216,296.54,673,764,0
1961225,290.94,673,762,0
1961235,288.86,673,763,0
1961245,287.44,673,761,0
1961255,288.98,673,764,0
1961265,290.57,673,762,0
1961275,294.43,673,763,0
1961285,297.69,673,761,0
1961295,303.31,673,764,0
1961305,309.73,673,762,0
1961315,321.34,673,763,0
1961325,338.64,673,761,0
1961335,367.68,673,764,0
1961345,406.77,673,763,0
1961355,453.73,673,763,0
1961365,504.29,673,761,0
1961375,556.96,673,764,0
1961385,607.20,673,761,0
1961395,652.44,673,763,0
1961405,687.24,673,762,0
1961415,711.64,673,764,0
1961425,728.68,673,761,0
1961435,740.64,673,763,0
1961445,748.98,673,762,0
1961455,754.86,673,764,0
1961465,758.93,673,761,0
1961484,761.82,664,762,0
1961487,763.85,664,760,0
1961496,765.31,664,764,0
1961506,766.29,664,761,0
1961516,762.64,664,764,0
1961526,749.21,664,760,0
1961536,724.89,664,764,0
1961546,687.85,664,760,0
1961556,639.25,664,764,0
1961566,579.26,664,760,0
1961576,510.10,664,764,0
1961586,436.61,664,760,0
1961596,367.00,664,764,0
1961606,303.49,664,760,0
1961616,251.10,664,764,0
1961626,209.45,664,760,0
1961636,181.16,664,764,0
1961646,164.48,664,760,0
1961656,161.12,664,764,0
1961666,167.99,664,760,0
1961676,185.61,664,764,0
1961687,210.07,664,760,0
1961697,241.20,664,764,0
1961707,275.00,664,760,0
1961717,310.91,664,765,0
1961728,345.10,664,759,0
1961737,377.43,664,765,0
1961747,404.55,664,760,0
1961757,426.85,664,765,0
1961767,442.15,664,759,0
1961777,451.70,664,764,0
1961787,454.15,664,760,0
1961797,451.45,664,764,0
1961807,442.91,664,759,0
1961817,431.24,664,764,0
1961827,415.82,664,760,0
1961837,399.25,664,765,0
1961847,380.96,664,759,0
1961857,363.61,664,764,0
1961867,346.37,664,760,0
1961877,331.35,664,765,0
1961887,317.40,664,759,0
1961897,306.39,664,765,0
1961907,297.19,664,760,0
1961917,291.26,664,765,0
1961927,286.98,664,759,0
1961937,285.66,664,765,0
1961947,285.55,664,760,0
1961957,287.65,664,765,0
1961967,290.33,664,759,0
1961977,294.35,664,765,0
1961987,298.27,664,760,0
1961997,304.06,664,765,0
1962007,311.20,664,760,0
1962017,323.23,664,765,0
1962028,341.54,664,760,0
1962038,371.04,664,766,0
1962048,410.71,664,758,0
1962058,457.77,664,772,0
1962068,508.37,664,749,0
1962078,560.63,664,766,0
1962088,610.37,664,759,0
1962098,654.62,664,771,0
1962108,688.67,664,750,0
1962118,712.51,664,765,0
1962128,729.20,664,760,0
1962138,740.88,664,771,0
1962148,749.02,664,750,0
1962158,754.71,664,765,0
1962177,758.70,693,765,0
1962180,761.49,693,771,0
1962189,763.44,693,747,0
1962199,764.81,693,775,0
1962209,762.38,693,745,0
1962219,751.90,693,774,0
1962229,730.50,693,746,0
1962240,697.05,693,771,0
1962249,651.73,693,745,0
1962259,595.07,693,773,0
1962269,528.15,693,746,0
1962279,455.85,693,771,0
1962289,384.45,693,745,0
1962299,318.92,693,774,0
1962309,262.54,693,745,0
1962319,217.12,693,771,0
1962329,183.96,693,745,0
1962339,163.74,693,774,0
1962349,156.49,693,745,0
1962359,161.27,693,771,0
1962369,176.58,693,746,0
1962379,200.70,693,774,0
1962389,231.65,693,745,0
1962399,267.03,693,771,0
1962409,304.39,693,748,0
1962419,341.30,693,774,0
1962429,375.58,693,744,0
1962439,405.71,693,771,0
1962449,430.22,693,748,0
1962459,448.29,693,774,0
1962469,459.56,693,744,0
1962479,464.02,693,772,0
1962489,462.26,693,748,0
1962499,455.19,693,774,0
1962509,443.65,693,744,0
1962519,428.71,693,772,0
1962529,411.66,693,748,0
1962540,393.42,693,770,0
1962550,375.33,693,748,0
1962560,357.79,693,769,0
1962570,342.08,693,751,0
1962580,328.17,693,767,0
1962590,316.89,693,748,0
1962600,307.71,693,769,0
1962610,301.41,693,751,0
1962620,296.96,693,767,0
1962630,294.87,693,748,0
1962640,293.92,693,769,0
1962650,294.85,693,750,0
1962660,296.52,693,767,0
1962670,300.18,693,748,0
1962680,306.43,693,770,0
1962690,318.51,693,750,0
1962700,338.46,693,767,0
1962711,370.16,693,753,0
1962721,411.81,693,767,0
1962731,460.51,693,757,0
1962741,512.90,693,765,0
1962752,566.07,693,758,0
1962761,616.02,693,767,0
1962771,659.47,693,756,0
1962781,692.16,693,765,0
1962791,715.08,693,758,0
1962801,731.09,693,767,0
1962811,742.33,693,756,0
1962821,750.16,693,766,0
1962831,755.68,693,758,0
1962841,759.51,693,767,0
1962851,762.23,693,756,0
1962861,764.09,693,766,0
1962881,762.00,703,765,0
1962884,749.83,703,762,0
1962893,727.30,703,761,0
1962903,692.06,703,762,0
1962913,645.46,703,762,0
1962924,586.82,703,762,0
1962934,518.86,703,763,0
1962944,445.23,703,760,0
1962954,375.35,703,763,0
1962964,310.49,703,760,0
1962974,256.38,703,763,0
1962984,212.60,703,761,0
1962994,182.80,703,764,0
1963004,164.86,703,760,0
1963014,160.83,703,763,0
1963024,167.31,703,761,0
1963034,185.35,703,764,0
1963044,210.57,703,760,0
1963054,243.23,703,763,0
1963064,278.43,703,761,0
1963074,316.32,703,764,0
1963084,352.39,703,760,0
1963095,387.03,703,763,0
1963105,415.91,703,760,0
1963115,440.24,703,763,0
1963125,456.71,703,760,0
1963136,467.47,703,764,0
1963145,470.37,703,760,0
1963155,468.07,703,763,0
1963165,459.05,703,760,0
1963175,446.65,703,764,0
1963185,429.87,703,760,0
1963195,412.34,703,763,0
1963205,392.99,703,760,0
1963215,374.82,703,764,0
1963225,356.58,703,760,0
1963235,341.19,703,763,0
1963245,327.08,703,760,0
1963255,316.38,703,764,0
1963265,307.18,703,760,0
1963275,301.51,703,763,0
1963285,296.94,703,760,0
1963295,295.42,703,764,0
1963305,294.74,703,760,0
1963315,296.83,703,763,0
1963325,300.27,703,760,0
1963335,308.54,703,764,0
1963345,321.92,703,760,0
1963355,345.26,703,763,0
1963365,379.25,703,760,0
1963375,423.06,703,764,0
1963385,472.42,703,760,0
1963395,525.35,703,763,0
1963405,577.44,703,760,0
1963415,626.21,703,764,0
1963425,666.99,703,760,0
1963436,697.46,703,764,0
1963446,718.75,703,760,0
1963456,733.70,703,764,0
1963466,744.12,703,760,0
1963476,751.41,703,765,0
1963486,756.47,703,760,0
1963496,760.02,703,765,0
1963506,762.45,703,760,0
1963516,764.16,703,765,0
1963526,760.04,703,760,0
1963545,747.43,665,759,0
1963548,722.87,665,746,0
1963557,686.61,665,773,0
1963567,638.73,665,759,0
1963577,580.31,665,765,0
1963587,512.12,665,756,0
1963597,441.24,665,773,0
1963607,372.00,665,759,0
1963617,310.28,665,765,0
1963627,257.44,665,757,0
1963637,215.61,665,772,0
1963648,185.34,665,747,0
1963657,167.54,665,765,0
1963667,161.33,665,758,0
1963677,166.63,665,771,0
1963687,181.53,665,748,0
1963697,204.90,665,765,0
1963707,234.20,665,759,0
1963717,267.87,665,771,0
1963727,303.35,665,748,0
1963737,339.16,665,765,0
1963747,372.50,665,759,0
1963757,402.22,665,771,0
1963767,426.50,665,749,0
1963777,445.20,665,765,0
1963787,456.89,665,759,0
1963797,462.19,665,770,0
1963807,460.85,665,750,0
1963817,454.21,665,774,0
1963827,442.62,665,759,0
1963837,427.86,665,769,0
1963847,410.37,665,751,0
1963857,392.09,665,774,0
1963867,373.38,665,759,0
1963877,355.82,665,769,0
1963887,339.72,665,751,0
1963897,326.00,665,774,0
1963907,314.39,665,759,0
1963917,305.74,665,768,0
1963927,299.39,665,752,0
1963937,295.72,665,774,0
1963948,293.79,665,745,0
1963958,293.59,665,774,0
1963968,294.74,665,745,0
1963978,297.52,665,771,0
1963988,302.59,665,748,0
1963998,311.37,665,774,0
1964008,325.83,665,745,0
1964018,349.58,665,771,0
1964028,385.54,665,748,0
1964038,430.20,665,774,0
1964048,480.46,665,744,0
1964058,532.86,665,771,0
1964068,584.85,665,748,0
1964078,632.94,665,774,0
1964088,673.03,665,744,0
1964098,701.56,665,772,0
1964108,721.58,665,748,0
1964119,735.59,665,771,0
1964129,745.44,665,748,0
1964139,752.30,665,769,0
1964149,757.14,665,751,0
1964160,760.52,665,768,0
1964169,762.94,665,748,0
1964179,764.58,665,769,0
1964198,761.75,653,767,0
1964201,748.84,653,764,0
1964210,726.22,653,753,0
1964220,692.08,653,766,0
1964230,647.27,653,757,0
1964240,591.26,653,765,0
1964250,526.25,653,753,0
1964260,456.71,653,766,0
1964270,390.75,653,756,0
1964280,329.11,653,766,0
1964290,276.06,653,752,0
1964300,232.07,653,766,0
1964310,200.17,653,756,0
1964320,178.90,653,765,0
1964331,170.23,653,757,0
1964340,171.49,653,766,0
1964350,183.51,653,756,0
1964360,203.29,653,765,0
1964370,230.76,653,757,0
1964380,261.86,653,767,0
1964390,296.23,653,756,0
1964400,329.85,653,765,0
1964410,363.06,653,757,0
1964420,392.06,653,767,0
1964430,417.16,653,755,0
1964440,435.37,653,765,0
1964450,448.37,653,757,0
1964460,454.35,653,767,0
1964470,455.10,653,755,0
1964480,449.45,653,766,0
1964490,440.02,653,757,0
1964500,426.13,653,765,0
1964510,410.62,653,755,0
1964520,392.69,653,766,0
1964530,375.21,653,757,0
1964540,357.23,653,765,0
1964550,341.35,653,755,0
1964560,326.37,653,766,0
1964570,314.69,653,757,0
1964580,304.50,653,765,0
1964590,297.71,653,754,0
1964600,292.35,653,766,0
1964610,290.32,653,757,0
1964620,289.24,653,765,0
1964631,290.88,653,757,0
1964641,292.67,653,765,0
1964651,296.76,653,759,0
1964661,301.37,653,764,0
1964672,309.75,653,761,0
1964681,321.57,653,765,0
1964691,341.50,653,759,0
1964701,370.66,653,764,0
1964711,410.96,653,761,0
1964721,457.65,653,765,0
1964731,508.92,653,759,0
1964741,560.46,653,764,0
1964751,610.34,653,761,0
1964761,653.86,653,765,0
1964771,688.28,653,759,0
1964781,712.32,653,764,0
1964791,729.20,653,761,0
1964801,740.97,653,765,0
1964811,749.25,653,759,0
1964821,755.00,653,765,0
1964831,759.07,653,761,0
1964841,761.88,653,764,0
1964860,763.89,662,764,0
1964863,762.98,662,761,0
1964872,756.81,662,762,0
1964882,740.63,662,762,0
1964892,714.55,662,762,0
1964902,676.46,662,762,0
1964912,627.98,662,762,0
1964922,568.50,662,762,0
1964932,503.03,662,761,0
1964942,434.37,662,763,0
1964952,370.31,662,762,0
1964962,311.38,662,762,0
1964972,262.75,662,761,0
1964982,223.14,662,763,0
1964992,196.18,662,762,0
1965002,179.20,662,762,0
1965012,174.68,662,763,0
1965022,178.89,662,763,0
1965032,193.32,662,762,0
1965042,214.01,662,762,0
1965052,241.99,662,763,0
1965062,272.30,662,763,0
1965072,305.72,662,762,0
1965082,337.61,662,762,0
1965092,369.01,662,763,0
1965102,395.75,662,763,0
1965112,418.97,662,762,0
1965122,435.09,662,762,0
1965132,446.64,662,763,0
1965143,450.73,662,761,0
1965153,450.21,662,763,0
1965163,443.21,662,760,0
1965173,432.90,662,763,0
1965184,418.06,662,760,0
1965193,402.40,662,763,0
1965203,384.19,662,760,0
1965213,367.21,662,763,0
1965223,349.70,662,760,0
1965233,334.96,662,763,0
1965243,321.09,662,760,0
1965253,310.69,662,763,0
1965263,301.48,662,760,0
1965273,296.15,662,763,0
1965283,291.91,662,760,0
1965293,291.03,662,763,0
1965303,290.81,662,760,0
1965313,293.31,662,763,0
1965323,295.70,662,760,0
1965333,300.08,662,763,0
1965343,304.00,662,760,0
1965353,310.60,662,763,0
1965363,318.99,662,761,0
1965373,333.74,662,764,0
1965383,355.59,662,760,0
1965393,390.17,662,763,0
1965403,432.89,662,761,0
1965413,481.87,662,764,0
1965423,533.03,662,760,0
1965433,584.54,662,763,0
1965443,631.82,662,761,0
1965453,672.33,662,764,0
1965463,701.16,662,760,0
1965473,721.38,662,763,0
1965484,735.50,662,760,0
1965494,745.42,662,764,0
1965504,752.32,662,760,0
1965514,757.20,662,764,0
1965534,760.57,673,763,0
1965537,762.97,673,774,0
1965546,764.65,673,753,0
1965556,762.61,673,774,0
1965566,752.53,673,745,0
1965576,732.78,673,767,0
1965586,701.65,673,753,0
1965596,659.20,673,774,0
1965606,605.61,673,746,0
1965616,542.34,673,766,0
1965626,473.62,673,754,0
1965636,405.77,673,774,0
1965646,342.15,673,746,0
1965656,286.56,673,765,0
1965666,240.49,673,755,0
1965676,205.80,673,773,0
1965686,182.42,673,747,0
1965697,170.81,673,774,0
1965707,170.14,673,744,0
1965717,179.44,673,772,0
1965727,197.22,673,747,0
1965737,221.88,673,770,0
1965747,251.23,673,744,0
1965757,283.35,673,772,0
1965767,316.12,673,747,0
1965777,347.54,673,770,0
1965787,375.96,673,744,0
1965797,400.10,673,772,0
1965807,419.06,673,747,0
1965817,432.15,673,770,0
1965827,439.31,673,744,0
1965837,440.72,673,773,0
1965847,436.99,673,747,0
1965857,428.76,673,770,0
1965868,417.05,673,747,0
1965878,402.63,673,769,0
1965888,386.97,673,750,0
1965898,370.39,673,767,0
1965908,354.46,673,752,0
1965918,339.19,673,769,0
1965928,325.89,673,750,0
1965938,314.10,673,767,0
1965948,305.07,673,752,0
1965958,297.80,673,769,0
1965968,293.41,673,750,0
1965978,290.41,673,767,0
1965988,289.95,673,751,0
1965998,290.52,673,769,0
1966008,292.94,673,749,0
1966018,295.65,673,768,0
1966028,299.66,673,752,0
1966039,303.49,673,767,0
1966049,308.74,673,755,0
1966059,314.91,673,766,0
1966069,325.35,673,757,0
1966080,341.23,673,765,0
1966089,366.66,673,756,0
1966099,403.23,673,766,0
1966109,448.04,673,758,0
1966119,497.27,673,766,0
1966129,548.92,673,755,0
1966139,598.87,673,766,0
1966149,644.55,673,757,0
1966159,681.71,673,765,0
1966169,707.77,673,755,0
1966179,725.97,673,766,0
1966189,738.75,673,758,0
1966199,747.65,673,765,0
1966209,753.93,673,754,0
1966228,758.28,695,756,0
1966231,761.37,695,763,0
1966240,763.49,695,764,0
1966251,765.01,695,761,0
1966260,764.88,695,765,0
1966270,759.13,695,760,0
1966280,743.32,695,764,0
1966290,716.99,695,761,0
1966300,678.85,695,765,0
1966310,630.13,695,759,0
1966320,570.17,695,764,0
1966330,502.92,695,761,0
1966340,432.92,695,765,0
1966350,367.71,695,759,0
1966360,308.40,695,764,0
1966370,259.55,695,761,0
1966380,220.34,695,765,0
1966390,194.14,695,759,0
1966400,178.50,695,764,0
1966410,175.43,695,761,0
1966420,181.48,695,764,0
1966430,197.58,695,759,0
1966440,219.47,695,764,0
1966450,247.96,695,761,0
1966460,278.74,695,764,0
1966470,311.82,695,759,0
1966480,342.99,695,764,0
1966490,372.86,695,761,0
1966500,397.72,695,764,0
1966510,418.89,695,759,0
1966520,433.11,695,765,0
1966530,442.46,695,760,0
1966540,444.89,695,764,0
1966551,443.04,695,762,0
1966561,435.19,695,763,0
1966571,424.80,695,762,0
1966581,410.29,695,762,0
1966592,395.42,695,763,0
1966601,378.49,695,763,0
1966611,363.09,695,763,0
1966621,347.16,695,762,0
1966631,333.91,695,763,0
1966641,321.12,695,763,0
1966651,311.74,695,762,0
1966661,303.25,695,762,0
1966671,298.33,695,763,0
1966681,294.20,695,763,0
1966691,293.50,695,762,0
1966701,293.44,695,762,0
1966711,296.18,695,763,0
1966721,298.74,695,763,0
1966731,303.40,695,762,0
1966741,307.18,695,762,0
1966751,312.57,695,763,0
1966761,317.50,695,761,0
1966771,325.66,695,762,0
1966781,336.91,695,762,0
1966791,356.82,695,763,0
1966801,385.89,695,761,0
1966811,425.57,695,762,0
1966821,471.17,695,762,0
1966831,521.22,695,763,0
1966841,571.47,695,762,0
1966851,619.88,695,762,0
1966861,661.36,695,763,0
1966871,693.57,695,763,0
1966881,716.07,695,762,0
1966892,731.86,695,763,0
1966902,742.83,695,761,0
1966912,750.55,695,764,0
1966931,755.92,703,763,0
1966935,759.71,703,766,0
1966943,762.33,703,761,0
1966953,764.20,703,764,0
1966963,765.47,703,760,0
1966973,762.07,703,764,0
1966983,749.92,703,760,0
1966993,727.70,703,764,0
1967003,693.38,703,760,0
1967013,647.88,703,764,0
1967023,591.13,703,760,0
1967033,525.30,703,764,0
1967043,455.10,703,760,0
1967053,387.40,703,764,0
1967063,324.71,703,760,0
1967073,271.99,703,764,0
1967083,229.27,703,760,0
1967093,199.23,703,764,0
1967104,180.48,703,760,0
1967113,174.63,703,764,0
1967123,178.90,703,760,0
1967133,193.67,703,764,0
1967143,215.41,703,760,0
1967153,243.96,703,764,0
1967163,275.22,703,760,0
1967173,308.75,703,764,0
1967183,340.80,703,760,0
1967193,371.59,703,764,0
1967203,397.55,703,760,0
1967213,419.29,703,764,0
1967223,434.33,703,760,0
1967233,444.56,703,764,0
1967243,448.03,703,760,0
1967253,446.82,703,764,0
1967263,439.81,703,760,0
1967273,429.66,703,764,0
1967283,415.75,703,760,0
1967293,400.95,703,764,0
1967303,384.17,703,760,0
1967313,368.17,703,764,0
1967323,352.31,703,760,0
1967333,338.72,703,764,0
1967343,326.33,703,760,0
1967353,316.84,703,764,0
1967363,308.45,703,760,0
1967373,303.04,703,764,0
1967383,298.79,703,760,0
1967393,297.14,703,764,0
1967404,296.07,703,760,0
1967414,297.03,703,765,0
1967424,298.52,703,759,0
1967434,302.44,703,765,0
1967444,308.43,703,759,0
1967454,319.66,703,765,0
1967464,337.08,703,759,0
1967474,365.43,703,765,0
1967484,404.47,703,760,0
1967494,451.21,703,765,0
1967504,502.02,703,759,0
1967514,554.34,703,765,0
1967524,604.51,703,760,0
1967534,649.62,703,765,0
1967544,685.17,703,760,0
1967554,710.06,703,765,0
1967564,727.53,703,760,0
1967575,739.76,703,769,0
1967585,748.27,703,752,0
1967595,754.23,703,775,0
1967605,758.41,703,745,0
1967616,761.33,703,774,0
1967634,763.37,703,772,0
1967637,760.26,703,768,0
1967646,749.77,703,748,0
1967656,728.84,703,770,0
1967666,697.09,703,745,0
1967676,653.99,703,771,0
1967686,600.04,703,748,0
1967696,535.87,703,770,0
1967706,467.59,703,744,0
1967716,399.23,703,771,0
1967726,335.90,703,747,0
1967736,279.92,703,770,0
1967746,233.66,703,744,0
1967756,198.40,703,771,0
1967766,175.44,703,748,0
1967776,164.38,703,770,0
1967787,165.17,703,748,0
1967796,176.17,703,772,0
1967806,196.22,703,748,0
1967816,223.28,703,770,0
1967826,255.73,703,748,0
1967836,290.57,703,772,0
1967846,325.88,703,748,0
1967856,359.17,703,770,0
1967866,389.21,703,748,0
1967876,414.30,703,772,0
1967886,433.54,703,747,0
1967896,445.89,703,770,0
1967906,452.01,703,748,0
1967916,452.01,703,772,0
1967926,446.61,703,747,0
1967936,436.44,703,770,0
1967946,422.85,703,747,0
1967956,406.78,703,769,0
1967966,389.75,703,747,0
1967976,372.38,703,770,0
1967986,355.89,703,747,0
1967996,340.63,703,770,0
1968006,327.62,703,747,0
1968016,316.68,703,770,0
1968026,308.33,703,747,0
1968036,301.98,703,770,0
1968046,297.78,703,746,0
1968056,295.23,703,770,0
1968066,294.48,703,747,0
1968076,294.93,703,770,0
1968087,297.48,703,750,0
1968097,302.91,703,768,0
1968107,313.95,703,752,0
1968117,332.69,703,767,0
1968128,362.66,703,756,0
1968137,403.52,703,768,0
1968147,451.75,703,751,0
1968157,503.94,703,767,0
1968167,557.36,703,756,0
1968177,608.08,703,769,0
1968187,652.88,703,752,0
1968197,687.55,703,767,0
1968207,711.85,703,755,0
1968217,728.83,703,769,0
1968227,740.75,703,751,0
1968237,749.05,703,768,0
1968247,754.91,703,755,0
1968257,758.96,703,769,0
1968267,761.80,703,751,0
1968277,763.75,703,768,0
1968296,760.14,662,766,0
1968300,745.91,662,764,0
1968308,721.72,662,757,0
1968318,685.72,662,765,0
1968328,639.00,662,758,0
1968338,581.19,662,765,0
1968348,514.58,662,757,0
1968358,444.50,662,765,0
1968368,378.87,662,758,0
1968378,317.92,662,765,0
1968388,266.39,662,757,0
1968398,224.10,662,765,0
1968408,194.24,662,758,0
1968418,174.80,662,765,0
1968428,167.62,662,757,0
1968438,170.00,662,765,0
1968448,183.16,662,758,0
1968458,203.30,662,765,0
1968468,230.72,662,759,0
1968478,261.23,662,766,0
1968488,294.94,662,758,0
1968498,327.91,662,765,0
1968508,360.25,662,759,0
1968518,388.03,662,765,0
1968528,412.20,662,758,0
1968538,429.71,662,765,0
1968548,442.31,662,759,0
1968558,447.92,662,766,0
1968568,448.63,662,758,0
1968578,443.00,662,766,0
1968588,434.08,662,759,0
1968599,420.64,662,764,0
1968609,406.05,662,761,0
1968619,388.94,662,764,0
1968629,372.67,662,762,0
1968640,355.84,662,763,0
1968649,341.53,662,761,0
1968659,327.83,662,764,0
1968669,317.64,662,762,0
1968679,308.45,662,763,0
1968689,302.91,662,760,0
1968699,298.22,662,764,0
1968709,296.79,662,761,0
1968719,295.65,662,763,0
1968729,296.95,662,760,0
1968739,298.17,662,764,0
1968749,302.02,662,761,0
1968759,306.98,662,763,0
1968769,317.15,662,760,0
1968779,332.79,662,764,0
1968789,359.55,662,761,0
1968799,397.44,662,763,0
1968809,443.77,662,762,0
1968819,494.24,662,764,0
1968829,547.05,662,761,0
1968839,597.99,662,763,0
1968849,644.58,662,762,0
1968859,681.74,662,764,0
1968869,707.79,662,762,0
1968879,725.98,662,763,0
1968889,738.76,662,762,0
1968899,747.66,662,764,0
1968909,753.93,662,761,0
1968919,758.28,662,763,0
1968929,761.37,662,762,0
1968949,763.49,653,762,0
1968952,764.97,653,765,0
1968961,760.48,653,760,0
1968971,747.69,653,763,0
1968982,723.61,653,760,0
1968991,689.23,653,764,0
1969001,643.05,653,760,0
1969011,586.80,653,763,0
1969021,520.56,653,761,0
1969031,452.55,653,763,0
1969041,385.87,653,760,0
1969051,326.42,653,763,0
1969061,274.14,653,761,0
1969071,233.34,653,763,0
1969081,202.72,653,760,0
1969091,184.94,653,763,0
1969101,177.37,653,760,0
1969111,181.50,653,763,0
1969121,193.65,653,760,0
1969131,214.58,653,763,0
1969141,240.25,653,760,0
1969152,270.90,653,764,0
1969161,302.22,653,760,0
1969171,334.38,653,763,0
1969181,363.45,653,760,0
1969191,390.23,653,764,0
1969201,411.20,653,760,0
1969211,427.90,653,763,0
1969221,437.87,653,761,0
1969231,443.10,653,764,0
1969241,441.83,653,760,0
1969251,436.78,653,763,0
1969261,426.64,653,761,0
1969271,414.54,653,764,0
1969281,399.20,653,760,0
1969291,384.01,653,763,0
1969301,367.68,653,761,0
1969311,353.21,653,764,0
1969321,338.92,653,760,0
1969331,327.76,653,763,0
1969341,317.67,653,761,0
1969351,310.91,653,764,0
1969361,305.32,653,760,0
1969371,303.04,653,763,0
1969381,301.49,653,761,0
1969391,302.67,653,763,0
1969401,303.93,653,760,0
1969411,307.42,653,763,0
1969421,310.94,653,761,0
1969431,316.96,653,763,0
1969441,324.85,653,760,0
1969452,339.08,653,764,0
1969462,360.66,653,760,0
1969472,394.75,653,764,0
1969482,436.82,653,760,0
1969492,485.00,653,765,0
1969502,535.49,653,760,0
1969512,586.39,653,764,0
1969522,633.24,653,760,0
1969532,673.24,653,765,0
1969542,701.75,653,760,0
1969552,721.76,653,764,0
1969562,735.76,653,760,0
1969572,745.60,653,764,0
1969582,752.45,653,760,0
1969592,757.29,653,764,0
1969602,760.63,653,760,0
1969622,762.97,672,758,0
1969625,764.61,672,746,0
1969634,763.82,672,775,0
1969644,755.91,672,745,0
1969654,738.06,672,773,0
1969665,708.86,672,746,0
1969675,667.93,672,771,0
1969685,615.84,672,747,0
1969695,553.19,672,770,0
1969705,483.83,672,749,0
1969715,413.85,672,770,0
1969725,348.37,672,747,0
1969735,290.27,672,770,0
1969745,242.62,672,749,0
1969755,205.96,672,771,0
1969765,181.46,672,747,0
1969775,168.46,672,770,0
1969785,167.30,672,749,0
1969795,176.16,672,771,0
1969805,194.20,672,747,0
1969815,218.74,672,770,0
1969825,248.73,672,749,0
1969836,281.51,672,769,0
1969846,315.43,672,751,0
1969856,347.57,672,767,0
1969866,377.10,672,755,0
1969876,401.67,672,766,0
1969886,421.18,672,751,0
1969896,434.24,672,767,0
1969906,441.71,672,754,0
1969916,442.57,672,766,0
1969926,438.67,672,751,0
1969936,429.51,672,767,0
1969946,417.66,672,754,0
1969956,402.46,672,766,0
1969966,386.29,672,751,0
1969976,368.89,672,767,0
1969986,352.81,672,754,0
1969996,337.10,672,766,0
1970007,324.08,672,757,0
1970017,312.31,672,765,0
1970027,303.99,672,758,0
1970037,297.22,672,765,0
1970048,293.77,672,759,0
1970057,291.44,672,765,0
1970067,291.74,672,757,0
1970077,292.42,672,765,0
1970087,295.25,672,759,0
1970097,297.92,672,765,0
1970107,302.74,672,758,0
1970117,308.26,672,765,0
1970127,318.68,672,759,0
1970137,334.08,672,766,0
1970147,359.51,672,758,0
1970157,395.87,672,766,0
1970167,440.91,672,759,0
1970177,490.48,672,766,0
1970187,542.75,672,758,0
1970197,593.27,672,766,0
1970207,640.03,672,759,0
1970217,678.16,672,765,0
1970227,705.29,672,758,0
1970237,724.23,672,766,0
1970247,737.53,672,759,0
1970257,746.80,672,765,0
1970267,753.33,672,758,0
1970277,757.86,672,766,0
1970296,761.07,675,764,0
1970299,763.28,675,761,0
1970308,761.78,675,760,0
1970318,751.52,675,764,0
1970328,731.13,675,761,0
1970338,698.35,675,763,0
1970348,654.75,675,760,0
1970358,599.36,675,764,0
1970368,534.50,675,761,0
1970378,463.33,675,763,0
1970388,394.02,675,762,0
1970398,328.57,675,764,0
1970408,272.47,675,761,0
1970418,224.76,675,763,0
1970428,189.47,675,762,0
1970438,164.60,675,764,0
1970448,152.76,675,761,0
1970458,150.95,675,763,0
1970468,160.86,675,762,0
1970478,178.35,675,764,0
1970488,204.34,675,761,0
1970498,234.41,675,763,0
1970508,269.13,675,762,0
1970519,303.72,675,762,0
1970529,338.73,675,763,0
1970539,369.63,675,761,0
1970549,397.64,675,763,0
1970560,418.96,675,760,0
1970569,435.47,675,762,0
1970579,444.29,675,761,0
1970589,448.10,675,763,0
1970599,444.73,675,761,0
1970609,437.78,675,762,0
1970619,425.55,675,762,0
1970629,411.84,675,763,0
1970639,395.00,675,761,0
1970649,378.84,675,762,0
1970659,361.71,675,762,0
1970669,347.01,675,763,0
1970679,332.56,675,761,0
1970689,321.59,675,762,0
1970699,311.69,675,762,0
1970709,305.48,675,763,0
1970719,300.15,675,761,0
1970729,297.96,675,763,0
1970739,296.17,675,762,0
1970749,297.11,675,763,0
1970759,298.36,675,761,0
1970769,302.97,675,764,0
1970779,309.75,675,762,0
1970789,323.41,675,763,0
1970799,344.33,675,761,0
1970809,378.00,675,764,0
1970819,420.69,675,762,0
1970829,470.07,675,763,0
1970839,521.90,675,761,0
1970849,574.43,675,764,0
1970860,622.99,675,760,0
1970870,665.25,675,763,0
1970880,696.20,675,761,0
1970890,717.91,675,764,0
1970900,733.07,675,760,0
1970910,743.72,675,763,0
1970920,751.13,675,760,0
1970930,756.32,675,764,0
1970940,759.91,675,760,0
1970950,762.29,675,763,0
1970960,757.36,675,760,0
1970979,743.24,683,759,0
1970982,716.55,683,755,0
1970991,678.89,683,764,0
1971001,629.46,683,760,0
1971011,569.84,683,764,0
1971021,500.59,683,760,0
1971031,430.47,683,764,0
1971041,362.19,683,760,0
1971051,301.96,683,764,0
1971061,249.34,683,760,0
1971072,207.80,683,765,0
1971081,176.49,683,760,0
1971091,157.57,683,764,0
1971101,149.00,683,760,0
1971111,152.13,683,765,0
1971121,163.83,683,760,0
1971131,184.41,683,764,0
1971141,210.64,683,760,0
1971151,242.29,683,765,0
1971161,275.55,683,760,0
1971171,310.06,683,764,0
1971181,342.22,683,760,0
1971191,372.24,683,765,0
1971201,397.11,683,760,0
1971211,417.39,683,764,0
1971221,430.99,683,760,0
1971231,439.26,683,765,0
1971241,440.81,683,759,0
1971251,437.96,683,764,0
1971261,429.65,683,760,0
1971271,418.44,683,765,0
1971281,403.70,683,759,0
1971291,388.27,683,764,0
1971301,371.35,683,760,0
1971311,355.43,683,764,0
1971321,339.70,683,759,0
1971331,326.50,683,764,0
1971341,314.70,683,760,0
1971351,305.96,683,764,0
1971361,298.81,683,759,0
1971372,294.67,683,765,0
1971382,292.15,683,759,0
1971392,292.02,683,769,0
1971402,293.00,683,752,0
1971412,295.70,683,774,0
1971422,299.09,683,759,0
1971432,304.29,683,768,0
1971442,311.40,683,753,0
1971452,323.20,683,774,0
1971462,340.97,683,759,0
1971472,368.88,683,767,0
1971482,407.57,683,754,0
1971492,453.60,683,774,0
1971502,503.69,683,760,0
1971512,555.34,683,766,0
1971522,604.91,683,754,0
1971532,649.72,683,774,0
1971543,685.21,683,746,0
1971553,710.04,683,774,0
1971563,727.43,683,744,0
1971573,739.60,683,771,0
1971584,748.12,683,748,0
1971593,754.08,683,774,0
1971603,758.26,683,744,0
1971622,761.18,643,745,0
1971625,763.27,643,758,0
1971634,762.89,643,770,0
1971644,755.59,643,748,0
1971654,738.10,643,769,0
1971664,709.53,643,751,0
1971674,669.43,643,770,0
1971684,618.43,643,747,0
1971694,556.84,643,769,0
1971704,488.40,643,751,0
1971714,418.90,643,770,0
1971724,353.78,643,747,0
1971734,295.48,643,769,0
1971744,246.82,643,750,0
1971755,208.47,643,768,0
1971764,182.02,643,747,0
1971774,166.80,643,769,0
1971784,163.39,643,750,0
1971794,169.96,643,768,0
1971804,185.83,643,747,0
1971814,208.55,643,769,0
1971824,237.14,643,750,0
1971834,268.69,643,768,0
1971844,301.78,643,747,0
1971854,333.52,643,769,0
1971864,363.10,643,750,0
1971874,388.40,643,768,0
1971884,409.11,643,747,0
1971894,423.78,643,770,0
1971904,433.10,643,749,0
1971914,436.33,643,768,0
1971924,434.77,643,752,0
1971934,428.33,643,770,0
1971944,418.54,643,749,0
1971954,405.35,643,768,0
1971964,390.67,643,751,0
1971974,374.74,643,770,0
1971984,359.18,643,749,0
1971994,343.61,643,768,0
1972004,329.93,643,751,0
1972014,317.65,643,770,0
1972024,308.11,643,748,0
1972034,300.45,643,768,0
1972044,295.77,643,751,0
1972055,292.84,643,767,0
1972065,292.89,643,755,0
1972075,293.99,643,766,0
1972085,297.51,643,757,0
1972096,301.56,643,765,0
1972105,307.09,643,754,0
1972115,312.21,643,766,0
1972125,318.44,643,757,0
1972135,324.27,643,765,0
1972145,331.99,643,754,0
1972155,341.55,643,766,0
1972165,357.24,643,757,0
1972175,380.65,643,765,0
1972185,415.64,643,754,0
1972195,457.71,643,766,0
1972205,504.94,643,757,0
1972215,553.94,643,765,0
1972225,602.56,643,753,0
1972235,646.62,643,767,0
1972245,683.16,643,757,0
1972255,708.74,643,765,0
1972265,726.69,643,757,0
1972275,739.21,643,766,0
1972285,748.02,643,757,0
1972304,754.14,682,756,0
1972307,758.51,682,762,0
1972316,761.53,682,766,0
1972326,763.69,682,759,0
1972336,765.15,682,764,0
1972346,762.02,682,761,0
1972356,750.23,682,765,0
1972366,728.52,682,758,0
1972376,694.89,682,764,0
1972386,650.57,682,761,0
1972396,595.28,682,765,0
1972406,531.17,682,758,0
1972416,462.63,682,764,0
1972426,396.66,682,760,0
1972436,335.22,682,764,0
1972446,283.21,682,758,0
1972456,240.03,682,764,0
1972466,208.87,682,760,0
1972476,187.78,682,764,0
1972486,178.93,682,758,0
1972496,179.25,682,764,0
1972506,190.15,682,760,0
1972516,207.76,682,764,0
1972526,232.77,682,758,0
1972536,260.87,682,764,0
1972546,292.54,682,760,0
1972556,323.58,682,764,0
1972567,354.52,682,761,0
1972577,381.19,682,763,0
1972587,404.83,682,762,0
1972597,422.11,682,762,0
1972608,434.98,682,763,0
1972617,440.90,682,763,0
1972627,442.43,682,762,0
1972637,437.71,682,762,0
1972647,429.96,682,763,0
1972657,417.71,682,763,0
1972667,404.34,682,762,0
1972677,388.13,682,762,0
1972687,372.70,682,763,0
1972697,356.25,682,763,0
1972707,342.20,682,762,0
1972717,328.47,682,762,0
1972727,317.96,682,762,0
1972737,308.33,682,763,0
1972747,302.40,682,762,0
1972757,297.44,682,762,0
1972767,296.06,682,762,0
1972777,295.19,682,761,0
1972787,297.32,682,762,0
1972797,299.49,682,762,0
1972807,304.19,682,762,0
1972817,308.37,682,761,0
1972827,314.35,682,762,0
1972837,319.21,682,762,0
1972847,325.58,682,762,0
1972857,331.23,682,761,0
1972867,339.65,682,762,0
1972877,350.13,682,763,0
1972887,368.13,682,762,0
1972897,394.28,682,762,0
1972908,431.14,682,763,0
1972918,474.04,682,761,0
1972928,521.56,682,763,0
1972938,569.77,682,760,0
1972948,617.03,682,763,0
1972958,658.38,682,761,0
1972968,691.44,682,764,0
1972978,714.53,682,760,0
1972988,730.74,682,763,0
1973007,742.05,703,763,0
1973010,750.01,703,765,0
1973019,755.53,703,760,0
1973029,759.40,703,764,0
1973039,762.07,703,760,0
1973049,763.93,703,764,0
1973059,765.15,703,760,0
1973069,760.99,703,764,0
1973079,747.58,703,760,0
1973089,723.79,703,764,0
1973099,687.81,703,760,0
1973109,640.68,703,763,0
1973120,582.32,703,760,0
1973129,515.24,703,763,0
1973139,444.75,703,760,0
1973149,377.54,703,763,0
1973159,315.88,703,760,0
1973169,264.53,703,763,0
1973179,223.31,703,760,0
1973189,195.15,703,763,0
1973199,178.13,703,760,0
1973209,174.02,703,763,0
1973219,180.10,703,760,0
1973229,196.87,703,763,0
1973239,220.82,703,760,0
1973249,251.78,703,763,0
1973259,285.53,703,760,0
1973269,321.58,703,764,0
1973279,355.95,703,760,0
1973289,388.41,703,764,0
1973299,415.63,703,760,0
1973309,438.03,703,764,0
1973319,452.93,703,760,0
1973329,461.87,703,764,0
1973339,463.41,703,760,0
1973349,459.90,703,764,0
1973359,450.46,703,760,0
1973369,437.81,703,764,0
1973379,421.32,703,760,0
1973389,404.13,703,764,0
1973399,385.53,703,760,0
1973409,368.10,703,764,0
1973420,351.14,703,760,0
1973430,336.74,703,764,0
1973440,323.92,703,759,0
1973450,314.34,703,765,0
1973460,306.87,703,759,0
1973470,302.71,703,764,0
1973480,300.31,703,759,0
1973490,300.60,703,765,0
1973500,302.22,703,759,0
1973510,305.71,703,764,0
1973520,309.44,703,759,0
1973530,314.15,703,765,0
1973540,319.12,703,759,0
1973550,326.16,703,764,0
1973560,335.41,703,759,0
1973570,350.37,703,765,0
1973580,372.97,703,759,0
1973591,407.61,703,768,0
1973601,449.98,703,752,0
1973611,497.56,703,774,0
1973621,547.06,703,745,0
1973632,596.37,703,774,0
1973641,641.48,703,753,0
1973651,679.35,703,774,0
1973661,705.94,703,746,0
1973671,724.56,703,774,0
1973681,737.59,703,754,0
1973691,746.71,703,774,0
1973701,753.10,703,746,0
1973711,757.57,703,774,0
1973730,760.70,723,770,0
1973733,762.89,723,769,0
1973742,763.39,723,747,0
1973752,757.10,723,770,0
1973762,741.56,723,744,0
1973772,715.03,723,772,0
1973782,676.97,723,747,0
1973792,627.43,723,770,0
1973803,567.52,723,747,0
1973812,499.39,723,772,0
1973822,430.06,723,747,0
1973832,363.66,723,770,0
1973842,304.19,723,747,0
1973852,253.82,723,772,0
1973862,214.49,723,747,0
1973872,186.65,723,770,0
1973882,171.07,723,747,0
1973892,166.72,723,773,0
1973902,173.23,723,747,0
1973912,188.81,723,770,0
1973922,212.56,723,747,0
1973932,241.84,723,773,0
1973942,274.84,723,746,0
1973952,308.92,723,771,0
1973962,342.76,723,747,0
1973972,373.90,723,770,0
1973982,401.19,723,746,0
1973992,422.82,723,770,0
1974002,438.77,723,747,0
1974012,448.27,723,770,0
1974022,451.83,723,746,0
1974032,449.44,723,770,0
1974042,442.24,723,747,0
1974052,430.59,723,770,0
1974062,416.02,723,746,0
1974072,399.21,723,770,0
1974082,381.88,723,747,0
1974092,364.17,723,770,0
1974103,347.66,723,749,0
1974113,332.33,723,768,0
1974123,319.72,723,751,0
1974133,309.05,723,767,0
1974144,301.66,723,755,0
1974153,296.19,723,768,0
1974163,293.65,723,751,0
1974173,292.64,723,767,0
1974183,294.42,723,755,0
1974193,297.04,723,768,0
1974203,301.53,723,751,0
1974213,305.82,723,767,0
1974223,311.49,723,755,0
1974233,316.87,723,768,0
1974243,323.43,723,751,0
1974253,330.58,723,767,0
1974263,341.51,723,755,0
1974273,357.17,723,769,0
1974283,382.06,723,751,0
1974293,417.36,723,767,0
1974303,460.41,723,754,0
1974313,507.73,723,766,0
1974323,557.10,723,751,0
1974333,604.98,723,768,0
1974343,649.00,723,754,0
1974353,684.74,723,766,0
1974363,709.85,723,751,0
1974373,727.38,723,768,0
1974383,739.69,723,753,0
1974393,748.31,723,766,0
1974412,754.39,682,768,0
1974415,758.60,682,765,0
1974424,761.59,682,758,0
1974434,763.64,682,765,0
1974444,765.12,682,757,0
1974454,762.47,682,765,0
1974464,752.39,682,757,0
1974474,731.40,682,765,0
1974484,699.52,682,759,0
1974494,655.87,682,765,0
1974504,602.03,682,758,0
1974514,537.74,682,765,0
1974524,469.46,682,759,0
1974534,401.18,682,765,0
1974544,339.33,682,757,0
1974554,284.67,682,765,0
1974564,241.14,682,758,0
1974574,207.46,682,765,0
1974584,186.49,682,757,0
1974594,175.80,682,765,0
1974604,177.06,682,758,0
1974615,186.86,682,764,0
1974625,205.93,682,761,0
1974635,230.16,682,764,0
1974645,260.11,682,761,0
1974656,291.41,682,762,0
1974665,324.07,682,761,0
1974675,353.92,682,764,0
1974685,381.72,682,762,0
1974695,403.79,682,762,0
1974705,421.72,682,760,0
1974715,432.78,682,764,0
1974725,439.36,682,762,0
1974735,439.29,682,762,0
1974745,435.61,682,760,0
1974755,426.55,682,764,0
1974765,415.76,682,761,0
1974775,401.35,682,763,0
1974785,386.93,682,760,0
1974795,370.71,682,764,0
1974805,356.05,682,761,0
1974815,341.04,682,763,0
1974825,328.94,682,762,0
1974835,317.30,682,764,0
1974845,309.02,682,761,0
1974855,301.56,682,763,0
1974865,297.58,682,762,0
1974875,294.53,682,764,0
1974885,294.72,682,761,0
1974895,295.14,682,763,0
1974905,298.40,682,762,0
1974915,301.75,682,764,0
1974925,307.18,682,761,0
1974935,311.84,682,763,0
1974945,318.02,682,762,0
1974956,323.03,682,762,0
1974966,329.83,682,763,0
1974976,336.40,682,761,0
1974986,347.08,682,763,0
1974996,361.88,682,760,0
1975006,386.18,682,763,0
1975016,420.32,682,761,0
1975026,462.65,682,763,0
1975036,508.87,682,761,0
1975046,557.85,682,763,0
1975056,605.17,682,761,0
1975066,648.92,682,763,0
1975076,684.43,682,760,0
1975086,709.67,682,763,0
1975096,727.30,682,761,0
1975115,739.68,703,760,0
1975118,748.35,703,760,0
1975127,754.46,703,764,0
1975137,758.65,703,760,0
1975147,761.63,703,763,0
1975157,763.67,703,760,0
1975168,765.10,703,764,0
1975177,761.72,703,760,0
1975187,750.75,703,763,0
1975197,728.62,703,760,0
1975207,695.48,703,764,0
1975217,650.42,703,760,0
1975227,595.22,703,763,0
1975237,529.71,703,760,0
1975247,460.76,703,764,0
1975257,391.96,703,760,0
1975267,329.96,703,763,0
1975277,275.37,703,760,0
1975287,231.93,703,763,0
1975297,198.44,703,760,0
1975307,177.82,703,763,0
1975317,167.63,703,760,0
1975327,169.28,703,764,0
1975337,179.44,703,760,0
1975347,198.81,703,763,0
1975357,223.42,703,760,0
1975367,253.68,703,763,0
1975377,285.23,703,760,0
1975387,318.51,703,763,0
1975397,349.30,703,760,0
1975407,378.18,703,764,0
1975417,401.78,703,760,0
1975427,421.56,703,763,0
1975437,434.68,703,760,0
1975447,443.00,703,763,0
1975457,444.42,703,760,0
1975468,441.63,703,763,0
1975478,433.30,703,760,0
1975488,422.28,703,764,0
1975498,407.63,703,760,0
1975508,392.01,703,764,0
1975518,374.91,703,760,0
1975528,358.86,703,764,0
1975538,343.00,703,760,0
1975548,329.46,703,765,0
1975558,317.24,703,760,0
1975568,307.99,703,764,0
1975578,300.45,703,760,0
1975588,295.95,703,764,0
1975598,292.92,703,760,0
1975608,292.69,703,764,0
1975618,293.51,703,760,0
1975628,296.40,703,764,0
1975639,299.62,703,759,0
1975649,304.24,703,765,0
1975659,308.71,703,759,0
1975669,314.02,703,770,0
1975680,319.37,703,750,0
1975689,326.80,703,765,0
1975699,336.85,703,759,0
1975709,353.09,703,770,0
1975719,377.88,703,750,0
1975729,413.92,703,765,0
1975739,457.31,703,759,0
1975749,505.39,703,769,0
1975759,555.12,703,752,0
1975769,603.94,703,765,0
1975779,648.06,703,759,0
1975789,684.04,703,768,0
1975799,709.23,703,753,0
1975809,726.86,703,765,0
1975819,739.20,703,759,0
1975829,747.84,703,767,0
1975848,753.89,733,771,0
1975852,758.12,733,769,0
1975860,761.09,733,746,0
1975870,763.16,733,774,0
1975880,764.48,733,744,0
1975890,759.75,733,771,0
1975900,745.98,733,746,0
1975910,721.26,733,774,0
1975920,684.88,733,744,0
1975930,636.92,733,771,0
1975940,578.40,733,746,0
1975950,510.74,733,774,0
1975960,441.04,733,744,0
1975970,374.05,733,771,0
1975980,313.60,733,747,0
1975990,262.47,733,774,0
1976000,222.38,733,744,0
1976010,193.98,733,772,0
1976020,177.83,733,747,0
1976030,173.17,733,774,0
1976040,179.29,733,744,0
1976050,195.06,733,772,0
1976060,218.78,733,747,0
1976070,248.51,733,775,0
1976080,282.00,733,744,0
1976090,316.80,733,772,0
1976100,351.14,733,747,0
1976110,383.12,733,774,0
1976120,410.81,733,744,0
1976130,432.94,733,773,0
1976140,448.77,733,747,0
1976151,458.01,733,770,0
1976161,460.92,733,747,0
1976171,457.56,733,770,0
1976181,449.16,733,750,0
1976192,436.26,733,768,0
1976201,420.54,733,747,0
1976211,402.68,733,769,0
1976221,384.56,733,750,0
1976231,366.13,733,768,0
1976241,349.25,733,747,0
1976251,333.66,733,770,0
1976261,320.99,733,749,0
1976271,310.32,733,768,0
1976281,302.68,733,747,0
1976291,296.95,733,770,0
1976301,294.26,733,749,0
1976311,293.20,733,768,0
1976321,294.21,733,747,0
1976331,296.08,733,770,0
1976341,299.48,733,749,0
1976351,303.28,733,768,0
1976361,308.90,733,751,0
1976371,316.00,733,770,0
1976381,327.48,733,749,0
1976391,345.17,733,768,0
1976401,372.97,733,751,0
1976411,411.30,733,770,0
1976421,457.11,733,748,0
1976431,506.66,733,769,0
1976441,557.93,733,751,0
1976451,607.24,733,770,0
1976461,651.57,733,748,0
1976471,686.63,733,769,0
1976481,711.21,733,751,0
1976492,728.38,733,768,0
1976502,740.43,733,754,0
1976512,748.83,733,766,0
1976522,754.75,733,757,0
1976532,758.86,733,765,0
1976551,761.77,703,766,0
1976554,763.81,703,764,0
1976563,764.12,703,759,0
1976573,756.84,703,764,0
1976583,740.56,703,758,0
1976593,712.49,703,765,0
1976603,673.30,703,759,0
1976613,621.95,703,764,0
1976623,560.77,703,757,0
1976633,491.02,703,765,0
1976643,421.55,703,758,0
1976653,354.57,703,764,0
1976663,295.90,703,758,0
1976673,245.87,703,765,0
1976683,208.62,703,758,0
1976693,182.25,703,764,0
1976704,169.49,703,761,0
1976713,167.16,703,765,0
1976723,176.54,703,758,0
1976733,194.12,703,765,0
1976743,220.31,703,761,0
1976753,250.48,703,765,0
1976763,284.88,703,758,0
1976773,318.98,703,765,0
1976783,353.27,703,761,0
1976793,383.71,703,765,0
1976803,410.79,703,758,0
1976813,431.04,703,765,0
1976823,446.37,703,761,0
1976833,454.23,703,765,0
1976843,456.91,703,758,0
1976853,452.82,703,765,0
1976863,445.12,703,760,0
1976873,432.52,703,764,0
1976883,418.52,703,758,0
1976893,401.70,703,765,0
1976903,385.42,703,760,0
1976913,368.28,703,764,0
1976923,353.15,703,758,0
1976933,338.32,703,765,0
1976943,326.48,703,760,0
1976953,315.62,703,764,0
1976963,308.06,703,758,0
1976973,301.45,703,765,0
1976983,298.14,703,760,0
1976993,295.57,703,764,0
1977004,295.96,703,761,0
1977014,296.53,703,763,0
1977024,299.45,703,762,0
1977034,302.02,703,762,0
1977044,306.68,703,762,0
1977054,310.89,703,763,0
1977064,318.25,703,762,0
1977074,327.86,703,762,0
1977084,345.22,703,763,0
1977094,370.22,703,763,0
1977104,407.36,703,762,0
1977114,451.39,703,763,0
1977124,500.86,703,763,0
1977134,551.52,703,764,0
1977144,601.55,703,762,0
1977154,645.91,703,763,0
1977164,682.71,703,763,0
1977175,708.43,703,761,0
1977185,726.47,703,763,0
1977195,739.06,703,761,0
1977205,747.91,703,764,0
1977216,754.07,703,760,0
1977234,758.42,683,760,0
1977237,761.46,683,760,0
1977246,763.60,683,764,0
1977256,765.05,683,760,0
1977266,766.06,683,764,0
1977276,760.04,683,760,0
1977286,744.73,683,764,0
1977296,717.30,683,760,0
1977306,678.85,683,763,0
1977316,628.37,683,760,0
1977326,567.83,683,764,0
1977336,497.55,683,759,0
1977346,427.14,683,763,0
1977356,359.73,683,760,0
1977366,301.14,683,764,0
1977376,251.13,683,759,0
1977387,213.63,683,764,0
1977396,187.21,683,760,0
1977406,174.03,683,764,0
1977416,171.24,683,759,0
1977426,179.87,683,764,0
1977436,196.28,683,760,0
1977446,220.79,683,763,0
1977456,249.36,683,759,0
1977466,281.91,683,764,0
1977476,314.29,683,760,0
1977486,346.69,683,764,0
1977496,375.33,683,759,0
1977506,400.86,683,764,0
1977516,420.27,683,760,0
1977526,435.06,683,763,0
1977536,442.89,683,760,0
1977546,445.83,683,764,0
1977556,442.33,683,760,0
1977566,435.37,683,764,0
1977576,423.56,683,760,0
1977586,409.81,683,764,0
1977596,393.15,683,760,0
1977606,376.78,683,763,0
1977616,359.70,683,760,0
1977626,344.32,683,764,0
1977636,329.14,683,760,0
1977646,317.05,683,763,0
1977656,306.24,683,760,0
1977666,298.88,683,764,0
1977676,292.92,683,760,0
1977687,290.03,683,764,0
1977697,288.43,683,760,0
1977707,289.67,683,765,0
1977717,291.40,683,759,0
1977728,294.97,683,765,0
1977737,298.32,683,760,0
1977747,303.45,683,765,0
1977757,309.45,683,759,0
1977767,319.60,683,765,0
1977777,334.33,683,760,0
1977787,358.53,683,764,0
1977797,394.24,683,759,0
1977807,438.66,683,765,0
1977817,487.83,683,760,0
1977827,539.70,683,765,0
1977837,590.36,683,759,0
1977847,637.44,683,765,0
1977857,676.26,683,760,0
1977867,703.78,683,764,0
1977877,723.05,683,759,0
1977887,736.53,683,765,0
1977897,745.97,683,759,0
1977907,752.58,683,764,0
1977917,757.21,683,760,0
1977936,760.45,702,758,0
1977939,762.75,702,748,0
1977948,764.37,702,767,0
1977958,765.50,702,754,0
1977968,761.97,702,774,0
1977978,749.42,702,746,0
1977988,726.24,702,766,0
1977998,691.02,702,754,0
1978008,643.83,702,774,0
1978018,585.21,702,746,0
1978028,516.83,702,766,0
1978038,444.20,702,755,0
1978048,373.90,702,773,0
1978058,309.56,702,747,0
1978068,254.75,702,773,0
1978078,211.15,702,756,0
1978088,180.46,702,773,0
1978098,162.41,702,747,0
1978108,157.23,702,774,0
1978118,163.29,702,757,0
1978128,179.62,702,772,0
1978138,204.03,702,748,0
1978148,234.88,702,774,0
1978158,269.07,702,758,0
1978168,304.97,702,772,0
1978178,339.95,702,748,0
1978188,372.79,702,774,0
1978199,401.18,702,744,0
1978209,424.14,702,772,0
1978219,440.64,702,747,0
1978229,450.91,702,770,0
1978240,454.66,702,747,0
1978249,452.62,702,772,0
1978259,445.15,702,747,0
1978269,433.32,702,769,0
1978279,418.65,702,747,0
1978289,401.91,702,773,0
1978299,384.33,702,747,0
1978309,366.40,702,770,0
1978319,349.52,702,747,0
1978329,334.11,702,773,0
1978339,320.79,702,746,0
1978349,309.41,702,770,0
1978359,300.72,702,747,0
1978369,294.37,702,773,0
1978379,290.66,702,746,0
1978389,288.71,702,770,0
1978399,288.84,702,747,0
1978409,290.34,702,770,0
1978419,293.24,702,745,0
1978429,296.68,702,770,0
1978439,301.06,702,747,0
1978449,306.44,702,770,0
1978459,314.37,702,745,0
1978469,326.73,702,770,0
1978479,347.21,702,747,0
1978489,378.65,702,770,0
1978499,419.98,702,745,0
1978509,467.52,702,771,0
1978519,518.75,702,747,0
1978529,570.59,702,770,0
1978540,619.74,702,748,0
1978550,662.08,702,769,0
1978560,693.94,702,751,0
1978570,716.24,702,768,0
1978580,731.90,702,754,0
1978590,742.86,702,769,0
1978600,750.57,702,751,0
1978610,755.93,702,768,0
1978620,759.72,702,754,0
1978639,762.33,703,749,0
1978642,764.21,703,759,0
1978651,765.47,703,766,0
1978661,763.57,703,758,0
1978671,753.72,703,766,0
1978681,733.79,703,757,0
1978691,701.45,703,766,0
1978701,657.60,703,758,0
1978711,601.92,703,766,0
1978721,536.46,703,757,0
1978731,464.58,703,766,0
1978741,394.20,703,757,0
1978752,328.44,703,765,0
1978761,272.77,703,756,0
1978771,227.45,703,766,0
1978781,195.82,703,758,0
1978791,176.46,703,765,0
1978801,170.92,703,756,0
1978811,176.30,703,766,0
1978821,193.35,703,758,0
1978831,218.15,703,766,0
1978841,250.12,703,756,0
1978851,284.93,703,766,0
1978861,322.28,703,758,0
1978871,358.02,703,766,0
1978881,391.96,703,756,0
1978891,420.34,703,766,0
1978901,443.90,703,757,0
1978911,460.04,703,765,0
1978921,470.49,703,758,0
1978931,473.17,703,766,0
1978941,470.63,703,757,0
1978951,461.70,703,766,0
1978961,449.40,703,758,0
1978971,433.04,703,766,0
1978981,415.76,703,757,0
1978991,396.54,703,766,0
1979001,378.60,703,758,0
1979011,360.93,703,766,0
1979021,346.04,703,757,0
1979031,332.44,703,766,0
1979041,322.24,703,758,0
1979052,313.68,703,765,0
1979062,308.68,703,760,0
1979072,304.66,703,764,0
1979082,303.52,703,761,0
1979092,302.93,703,763,0
1979102,305.14,703,760,0
1979112,308.61,703,764,0
1979122,317.26,703,761,0
1979132,331.15,703,764,0
1979142,355.45,703,759,0
1979152,390.80,703,765,0
1979162,435.43,703,761,0
1979172,484.89,703,764,0
1979182,537.51,703,759,0
1979192,588.65,703,765,0
1979202,636.07,703,761,0
1979212,675.05,703,764,0
1979223,703.11,703,762,0
1979233,722.70,703,763,0
1979243,736.46,703,763,0
1979253,746.05,703,762,0
1979264,752.81,703,763,0
1979273,757.49,703,763,0
1979283,760.82,703,762,0
1979293,763.10,703,762,0
1979303,764.74,703,763,0
1979313,762.72,703,763,0
1979332,753.67,693,761,0
1979335,732.43,693,760,0
1979344,699.86,693,763,0
1979354,654.94,693,761,0
1979364,599.29,693,763,0
1979374,532.56,693,760,0
1979384,460.78,693,763,0
1979394,388.20,693,761,0
1979404,323.56,693,763,0
1979414,266.69,693,760,0
1979424,221.87,693,763,0
1979435,188.31,693,760,0
1979444,169.23,693,764,0
1979454,161.79,693,761,0
1979464,167.42,693,763,0
1979474,182.17,693,760,0
1979484,206.76,693,764,0
1979494,236.75,693,761,0
1979504,271.97,693,763,0
1979514,307.72,693,760,0
1979524,344.27,693,764,0
1979534,377.24,693,761,0
1979544,407.25,693,763,0
1979554,430.58,693,760,0
1979564,448.83,693,763,0
1979574,459.21,693,761,0
1979584,464.16,693,763,0
1979594,461.63,693,760,0
1979604,454.71,693,763,0
1979614,442.11,693,760,0
1979624,427.51,693,763,0
1979634,409.44,693,760,0
1979644,391.61,693,763,0
1979654,372.61,693,760,0
1979664,355.84,693,763,0
1979674,339.65,693,760,0
1979684,326.68,693,763,0
1979694,314.95,693,760,0
1979704,306.95,693,763,0
1979714,300.28,693,761,0
1979724,297.02,693,763,0
1979735,294.62,693,760,0
1979745,295.03,693,764,0
1979755,295.92,693,760,0
1979765,299.20,693,764,0
1979776,303.30,693,759,0
1979785,311.57,693,764,0
1979795,324.04,693,760,0
1979805,345.80,693,764,0
1979815,378.17,693,760,0
1979825,420.59,693,764,0
1979835,468.80,693,760,0
1979845,520.80,693,764,0
1979855,572.63,693,760,0
1979865,621.90,693,764,0
1979875,663.72,693,760,0
1979885,695.09,693,764,0
1979895,717.05,693,760,0
1979905,732.46,693,764,0
1979915,743.21,693,760,0
1979925,750.73,693,764,0
1979935,755.91,693,760,0
1979945,759.54,693,764,0
1979955,762.08,693,760,0
1979965,763.85,693,764,0
1979984,765.01,652,763,0
1979987,763.72,652,774,0
1979996,756.39,652,760,0
1980006,739.86,652,765,0
1980016,711.62,652,759,0
1980026,671.79,652,767,0
1980036,620.29,652,760,0
1980046,558.66,652,765,0
1980056,489.76,652,759,0
1980066,419.72,652,766,0
1980076,353.16,652,760,0
1980086,295.21,652,765,0
1980096,247.32,652,759,0
1980106,211.82,652,765,0
1980116,188.56,652,758,0
1980126,178.37,652,765,0
1980136,179.28,652,759,0
1980146,191.33,652,765,0
1980156,211.80,652,759,0
1980166,239.50,652,765,0
1980176,271.02,652,760,0
1980186,305.22,652,765,0
1980196,338.97,652,759,0
1980206,371.46,652,765,0
1980216,399.61,652,759,0
1980226,423.25,652,765,0
1980236,440.36,652,759,0
1980247,451.87,652,771,0
1980257,456.62,652,750,0
1980267,456.01,652,774,0
1980277,449.66,652,744,0
1980288,439.31,652,772,0
1980297,425.16,652,751,0
1980307,409.25,652,774,0
1980317,391.91,652,745,0
1980327,374.49,652,772,0
1980337,357.42,652,752,0
1980347,341.99,652,774,0
1980357,328.41,652,745,0
1980367,317.10,652,772,0
1980377,308.07,652,752,0
1980387,301.66,652,774,0
1980397,297.44,652,745,0
1980407,295.42,652,772,0
1980417,294.86,652,753,0
1980427,296.23,652,773,0
1980437,298.69,652,746,0
1980447,302.26,652,773,0
1980457,306.68,652,745,0
1980467,313.08,652,773,0
1980477,322.61,652,746,0
1980487,338.16,652,773,0
1980497,362.41,652,745,0
1980507,398.46,652,773,0
1980517,442.42,652,747,0
1980527,491.49,652,773,0
1980537,542.77,652,745,0
1980547,593.46,652,773,0
1980557,639.91,652,747,0
1980567,678.16,652,773,0
1980577,705.11,652,744,0
1980588,723.98,652,770,0
1980598,737.19,652,748,0
1980608,746.43,652,770,0
1980618,752.94,652,748,0
1980628,757.50,652,769,0
1980638,760.70,652,748,0
1980657,762.93,673,747,0
1980660,764.54,673,759,0
1980669,765.66,673,767,0
1980679,762.12,673,751,0
1980689,749.57,673,769,0
1980699,726.34,673,753,0
1980709,690.92,673,767,0
1980719,644.23,673,750,0
1980729,586.31,673,768,0
1980739,519.06,673,752,0
1980749,447.68,673,767,0
1980759,379.12,673,750,0
1980769,316.60,673,768,0
1980779,264.39,673,752,0
1980789,222.87,673,767,0
1980800,194.58,673,756,0
1980809,178.08,673,768,0
1980819,174.54,673,752,0
1980829,181.49,673,768,0
1980839,198.79,673,756,0
1980849,222.94,673,769,0
1980859,252.96,673,752,0
1980869,285.24,673,768,0
1980879,319.37,673,756,0
1980889,351.79,673,768,0
1980899,382.02,673,752,0
1980909,407.17,673,768,0
1980919,427.69,673,755,0
1980929,441.84,673,769,0
1980939,450.50,673,751,0
1980949,452.58,673,768,0
1980959,449.88,673,755,0
1980969,441.77,673,766,0
1980979,430.57,673,751,0
1980989,416.04,673,768,0
1980999,400.56,673,754,0
1981009,383.63,673,767,0
1981019,367.46,673,751,0
1981029,351.51,673,768,0
1981039,337.85,673,754,0
1981049,325.47,673,767,0
1981059,315.86,673,751,0
1981069,307.97,673,768,0
1981079,303.18,673,754,0
1981089,300.00,673,767,0
1981100,299.53,673,757,0
1981110,299.97,673,766,0
1981120,302.59,673,757,0
1981130,305.54,673,766,0
1981140,309.97,673,759,0
1981150,314.26,673,766,0
1981160,320.83,673,757,0
1981170,329.54,673,766,0
1981180,344.93,673,759,0
1981190,367.75,673,766,0
1981200,402.88,673,757,0
1981210,445.56,673,766,0
1981220,494.04,673,759,0
1981230,544.43,673,767,0
1981240,594.74,673,757,0
1981250,640.25,673,766,0
1981260,678.70,673,759,0
1981271,705.62,673,765,0
1981281,724.51,673,760,0
1981291,737.68,673,764,0
1981301,746.95,673,762,0
1981312,753.39,673,763,0
1981321,757.95,673,760,0
1981340,761.09,683,760,0
1981343,763.38,683,766,0
1981352,764.94,683,761,0
1981362,765.08,683,762,0
1981372,757.77,683,762,0
1981382,741.17,683,763,0
1981392,712.45,683,761,0
1981402,672.84,683,762,0
1981412,621.20,683,762,0
1981422,559.90,683,763,0
1981432,489.99,683,761,0
1981442,420.91,683,762,0
1981452,355.10,683,762,0
1981462,298.93,683,763,0
1981472,251.81,683,761,0
1981483,218.09,683,763,0
1981492,195.69,683,762,0
1981502,187.30,683,763,0
1981512,189.48,683,761,0
1981522,203.74,683,763,0
1981532,225.37,683,762,0
1981542,254.92,683,763,0
1981552,287.43,683,761,0
1981562,323.26,683,763,0
1981572,357.42,683,762,0
1981582,390.38,683,763,0
1981592,417.74,683,762,0
1981602,440.79,683,763,0
1981612,456.37,683,763,0
1981622,466.58,683,763,0
1981632,468.85,683,761,0
1981642,466.24,683,763,0
1981652,456.87,683,760,0
1981662,444.69,683,763,0
1981672,428.20,683,761,0
1981682,410.95,683,763,0
1981692,391.55,683,760,0
1981702,373.86,683,762,0
1981712,356.12,683,762,0
1981722,341.51,683,763,0
1981732,327.73,683,761,0
1981742,317.82,683,762,0
1981752,309.31,683,762,0
1981762,304.71,683,763,0
1981772,301.20,683,761,0
1981783,300.93,683,764,0
1981793,301.16,683,761,0
1981803,303.73,683,763,0
1981813,305.87,683,760,0
1981824,310.11,683,764,0
1981833,314.75,683,760,0
1981843,324.04,683,763,0
1981853,338.04,683,760,0
1981863,362.29,683,764,0
1981873,397.04,683,761,0
1981883,440.92,683,763,0
1981893,489.63,683,760,0
1981903,541.47,683,764,0
1981913,591.90,683,761,0
1981923,638.69,683,763,0
1981933,676.71,683,761,0
1981943,704.27,683,764,0
1981953,723.52,683,761,0
1981963,737.03,683,764,0
1981973,746.45,683,760,0
1981983,753.09,683,764,0
1981993,757.69,683,760,0
1982003,760.95,683,764,0
1982022,763.20,682,762,0
1982025,764.77,682,766,0
1982034,760.68,682,760,0
1982044,748.78,682,764,0
1982054,725.70,682,759,0
1982064,691.55,682,764,0
1982074,645.48,682,759,0
1982084,589.28,682,764,0
1982094,522.98,682,760,0
1982104,454.03,682,764,0
1982114,385.66,682,760,0
1982124,324.09,682,764,0
1982134,270.28,682,759,0
1982144,227.85,682,764,0
1982154,196.05,682,760,0
1982164,177.14,682,765,0
1982174,169.21,682,759,0
1982184,173.30,682,764,0
1982194,186.41,682,760,0
1982204,208.70,682,765,0
1982214,236.39,682,759,0
1982224,269.02,682,764,0
1982234,302.83,682,760,0
1982244,337.34,682,765,0
1982254,368.86,682,759,0
1982264,397.40,682,764,0
1982274,419.95,682,760,0
1982284,437.33,682,764,0
1982295,447.56,682,759,0
1982305,452.10,682,765,0
1982315,450.06,682,759,0
1982325,443.27,682,768,0
1982336,431.53,682,753,0
1982345,417.27,682,765,0
1982355,400.26,682,759,0
1982365,382.74,682,768,0
1982375,364.60,682,753,0
1982385,347.75,682,765,0
