Time,PPG,IBI,GSR,GSR_Event
510209,244.37,633,760,0
510219,267.49,633,754,0
510229,291.00,633,759,0
510239,314.40,633,754,0
510249,336.18,633,759,0
510259,355.71,633,754,0
510269,371.87,633,759,0
510279,386.65,633,754,0
510289,397.86,633,759,0
510299,405.18,633,754,0
510309,408.09,633,759,0
510319,407.12,633,754,0
510329,402.24,633,759,0
510339,394.62,633,754,0
510349,384.58,633,759,0
510359,373.22,633,754,0
510369,360.77,633,759,0
510380,348.41,633,754,0
510390,336.24,633,759,0
510400,325.41,633,754,0
510410,315.69,633,759,0
510420,308.03,633,755,0
510430,302.49,633,759,0
510440,300.37,633,754,0
510450,302.32,633,759,0
510460,310.84,633,755,0
510470,327.00,633,759,0
510480,354.00,633,755,0
510490,392.91,633,759,0
510500,440.17,633,755,0
510510,491.93,633,759,0
510520,545.18,633,754,0
510530,596.21,633,759,0
510540,642.43,633,755,0
510551,680.06,633,759,0
510561,706.74,633,755,0
510580,725.42,633,755,0
510582,738.54,633,759,0
510593,747.72,633,757,0
510603,754.19,633,758,0
510613,758.72,633,758,0
510623,761.93,633,758,0
510633,764.18,633,757,0
510643,765.80,633,758,0
510653,763.29,633,758,0
510663,753.52,633,758,0
510673,733.77,633,757,0
510683,703.84,633,758,0
510693,662.88,633,758,0
510703,611.78,633,758,0
510713,551.03,633,757,0
510723,486.14,633,758,0
510733,421.38,633,757,0
510743,361.78,633,758,0
510753,308.83,633,757,0
510764,265.55,633,759,0
510774,232.26,633,757,0
510784,210.28,633,759,0
510794,198.33,633,756,0
510804,196.69,633,760,0
510814,203.04,633,757,0
510824,217.00,633,759,0
510834,236.03,633,756,0
510844,259.08,633,760,0
510854,283.44,633,757,0
510864,308.46,633,759,0
510874,331.94,633,756,0
510884,353.47,633,760,0
510894,371.33,633,757,0
510904,385.67,633,759,0
510914,395.46,633,756,0
510924,401.49,633,760,0
510935,403.23,633,756,0
510945,401.66,633,760,0
510955,396.83,633,755,0
510965,389.90,633,760,0
510976,380.89,633,755,0
510985,371.15,633,760,0
510995,360.56,633,755,0
511005,350.24,633,760,0
511015,340.14,633,755,0
511025,331.22,633,760,0
511035,323.19,633,755,0
511045,316.83,633,760,0
511055,312.12,633,755,0
511065,310.29,633,760,0
511075,311.96,633,755,0
511085,319.38,633,760,0
511095,334.31,633,755,0
511105,359.38,633,760,0
511115,396.12,633,756,0
511125,441.47,633,760,0
511135,491.73,633,755,0
511145,543.97,633,761,0
511155,594.59,633,756,0
511165,640.44,633,760,0
511175,678.37,633,755,0
511185,705.73,633,761,0
511195,724.88,633,756,0
511214,738.33,634,755,0
511217,747.75,634,756,0
511226,754.34,634,760,0
511236,758.91,634,755,0
511246,762.11,634,760,0
511256,764.35,634,755,0
511266,765.91,634,760,0
511276,766.97,634,755,0
511286,766.81,634,760,0
511296,760.91,634,755,0
511306,746.41,634,760,0
511316,721.51,634,754,0
511326,686.00,634,760,0
511336,639.93,634,754,0
511346,583.98,634,760,0
511356,520.47,634,754,0
511366,455.66,634,760,0
511376,394.26,634,754,0
511386,339.93,634,760,0
511396,294.78,634,754,0
511406,260.21,634,760,0
511416,237.01,634,754,0
511426,224.88,634,760,0
511436,223.11,634,754,0
511447,230.41,634,760,0
511457,245.16,634,754,0
511467,265.34,634,760,0
511477,289.28,634,754,0
511488,314.82,634,760,0
511497,340.29,634,754,0
511507,364.03,634,760,0
511517,384.94,634,754,0
511527,401.84,634,760,0
511537,414.62,634,754,0
511547,422.70,634,760,0
511557,426.56,634,754,0
511567,426.18,634,760,0
511577,422.36,634,754,0
511587,415.48,634,760,0
511597,406.59,634,754,0
511607,395.87,634,760,0
511617,384.55,634,754,0
511627,372.94,634,760,0
511637,361.90,634,754,0
511647,351.43,634,760,0
511657,342.39,634,754,0
511667,334.99,634,760,0
511677,330.45,634,754,0
511687,329.76,634,759,0
511697,335.19,634,754,0
511707,348.37,634,760,0
511717,372.22,634,754,0
511727,408.28,634,760,0
511737,452.85,634,755,0
511747,502.31,634,760,0
511757,553.52,634,755,0
511767,602.91,634,760,0
511777,647.63,634,755,0
511788,684.17,634,760,0
511798,709.92,634,755,0
511808,727.90,634,759,0
511818,740.49,634,755,0
511838,749.30,623,754,0
511841,755.47,623,758,0
511850,759.78,623,758,0
511860,762.81,623,757,0
511870,764.92,623,758,0
511880,766.44,623,756,0
511890,765.28,623,758,0
511900,758.04,623,757,0
511910,741.40,623,758,0
511920,714.97,623,756,0
511930,677.60,623,758,0
511940,629.89,623,757,0
511950,572.28,623,758,0
511960,508.77,623,756,0
511970,444.00,623,758,0
511980,383.53,623,757,0
511990,329.20,623,758,0
512001,284.39,623,758,0
512011,249.69,623,757,0
512021,226.55,623,758,0
512031,213.92,623,757,0
512041,211.97,623,759,0
512051,218.45,623,757,0
512061,232.72,623,758,0
512071,252.04,623,757,0
512081,275.47,623,759,0
512091,300.06,623,757,0
512101,324.98,623,758,0
512111,347.79,623,757,0
512121,368.34,623,759,0
512131,384.78,623,757,0
512141,397.49,623,758,0
512151,405.27,623,757,0
512161,409.26,623,759,0
512172,408.75,623,757,0
512182,405.23,623,759,0
512192,398.43,623,757,0
512202,389.94,623,759,0
512212,379.59,623,756,0
512222,368.96,623,759,0
512232,357.70,623,757,0
512242,347.25,623,759,0
512252,337.10,623,756,0
512262,328.41,623,759,0
512272,320.66,623,757,0
512282,315.19,623,759,0
512292,312.09,623,756,0
512302,313.31,623,759,0
512312,319.90,623,757,0
512322,335.06,623,759,0
512332,360.58,623,756,0
512343,398.81,623,760,0
512353,445.11,623,756,0
512363,496.29,623,760,0
512373,548.83,623,755,0
512384,599.88,623,761,0
512393,645.56,623,756,0
512403,682.81,623,760,0
512413,708.92,623,756,0
512423,727.20,623,760,0
512442,740.00,605,759,0
512444,749.00,605,762,0
512454,755.26,605,755,0
512464,759.64,605,760,0
512474,762.70,605,755,0
512484,764.85,605,760,0
512494,766.35,605,755,0
512504,765.99,605,760,0
512514,759.91,605,755,0
512524,745.32,605,761,0
512534,720.32,605,755,0
512544,684.36,605,760,0
512555,637.58,605,754,0
512564,581.00,605,760,0
512574,517.15,605,755,0
512584,451.49,605,760,0
512594,388.64,605,754,0
512604,332.35,605,760,0
512614,284.80,605,755,0
512624,247.53,605,760,0
512634,220.84,605,754,0
512644,204.82,605,760,0
512654,198.62,605,755,0
512664,201.35,605,760,0
512674,211.53,605,754,0
512684,227.66,605,761,0
512694,247.86,605,755,0
512704,270.62,605,760,0
512714,294.22,605,754,0
512724,317.42,605,760,0
512734,338.72,605,755,0
512744,357.15,605,760,0
512754,371.93,605,754,0
512764,382.80,605,760,0
512774,389.50,605,755,0
512784,392.26,605,760,0
512794,391.33,605,754,0
512804,387.33,605,760,0
512814,380.76,605,755,0
512824,372.35,605,760,0
512834,362.68,605,754,0
512844,352.41,605,760,0
512855,342.04,605,754,0
512865,332.13,605,760,0
512875,323.05,605,754,0
512885,315.06,605,760,0
512896,308.74,605,755,0
512905,304.32,605,760,0
512915,302.81,605,754,0
512925,305.31,605,760,0
512935,313.96,605,755,0
512945,330.30,605,760,0
512955,357.12,605,754,0
512965,395.96,605,760,0
512975,443.07,605,755,0
512985,494.65,605,760,0
512995,547.64,605,755,0
513005,598.45,605,760,0
513015,644.34,605,755,0
513025,681.78,605,760,0
513035,708.20,605,754,0
513054,726.70,612,754,0
513057,739.73,612,755,0
513067,748.81,612,759,0
513076,755.17,612,755,0
513086,759.62,612,760,0
513096,762.73,612,755,0
513106,764.87,612,760,0
513116,764.31,612,755,0
513126,756.89,612,760,0
513136,740.59,612,755,0
513146,713.54,612,759,0
513156,676.05,612,755,0
513166,627.95,612,760,0
513176,570.32,612,755,0
513186,505.94,612,759,0
513196,441.07,612,755,0
513206,379.21,612,760,0
513216,324.25,612,755,0
513226,277.37,612,759,0
513236,240.75,612,755,0
513246,214.34,612,760,0
513256,199.02,612,755,0
513266,193.57,612,760,0
513276,197.69,612,755,0
513286,209.35,612,760,0
513296,227.63,612,755,0
513306,250.07,612,760,0
513316,275.72,612,755,0
513326,301.99,612,760,0
513336,327.84,612,755,0
513346,351.16,612,759,0
513356,371.60,612,755,0
513367,387.57,612,759,0
513377,399.40,612,755,0
513387,406.10,612,759,0
513397,408.72,612,756,0
513408,406.84,612,759,0
513417,402.00,612,755,0
513427,394.16,612,759,0
513437,384.90,612,756,0
513447,374.08,612,759,0
513457,363.26,612,755,0
513467,352.08,612,759,0
513477,341.94,612,755,0
513487,332.19,612,758,0
513497,324.12,612,755,0
513507,317.35,612,759,0
513517,313.60,612,756,0
513527,313.38,612,759,0
513537,319.22,612,756,0
513547,332.57,612,759,0
513557,357.00,612,756,0
513567,393.43,612,759,0
513577,438.99,612,757,0
513587,489.60,612,759,0
513597,542.31,612,756,0
513607,593.47,612,759,0
513617,640.13,612,757,0
513627,678.32,612,759,0
513637,705.82,612,756,0
513647,725.08,612,759,0
513657,738.55,612,757,0
513676,747.99,622,755,0
513678,754.59,622,759,0
513688,759.21,622,758,0
513698,762.45,622,758,0
513708,762.14,622,758,0
513718,755.24,622,758,0
513728,738.88,622,758,0
513738,712.26,622,758,0
513748,674.38,622,758,0
513758,626.23,622,758,0
513768,568.00,622,758,0
513778,503.84,622,758,0
513788,438.02,622,758,0
513798,375.83,622,758,0
513808,319.18,622,758,0
513818,271.38,622,758,0
513828,232.65,622,758,0
513838,204.69,622,758,0
513848,186.61,622,758,0
513858,179.10,622,758,0
513868,180.35,622,758,0
513879,190.36,622,759,0
513889,206.67,622,758,0
513899,228.54,622,759,0
513909,253.36,622,757,0
513920,280.43,622,760,0
513929,307.04,622,758,0
513939,332.53,622,759,0
513949,354.83,622,758,0
513959,373.82,622,760,0
513969,388.06,622,759,0
513979,398.24,622,760,0
513989,403.44,622,758,0
513999,404.98,622,761,0
514009,402.46,622,759,0
514019,397.39,622,761,0
514029,389.60,622,758,0
514039,380.64,622,761,0
514049,370.20,622,759,0
514059,359.94,622,761,0
514069,349.33,622,758,0
514079,339.63,622,760,0
514089,330.23,622,757,0
514099,322.40,622,760,0
514109,315.64,622,757,0
514119,311.50,622,760,0
514129,310.28,622,757,0
514139,314.35,622,759,0
514149,325.13,622,757,0
514159,346.14,622,760,0
514169,378.84,622,757,0
514179,422.04,622,759,0
514189,471.49,622,757,0
514199,524.10,622,760,0
514209,576.31,622,756,0
514220,625.08,622,760,0
514230,666.37,622,756,0
514240,697.46,622,761,0
514250,719.22,622,756,0
514260,734.45,622,761,0
514279,745.12,603,759,0
514282,752.58,603,761,0
514291,757.81,603,755,0
514301,761.47,603,761,0
514311,764.03,603,755,0
514321,765.82,603,761,0
514331,762.14,603,755,0
514341,750.10,603,761,0
514351,728.13,603,755,0
514361,695.48,603,761,0
514371,651.92,603,754,0
514381,598.07,603,761,0
514391,535.01,603,755,0
514401,469.05,603,761,0
514411,404.70,603,754,0
514421,345.39,603,760,0
514432,293.59,603,755,0
514441,251.28,603,761,0
514451,219.23,603,755,0
514461,197.90,603,760,0
514471,187.00,603,755,0
514481,185.89,603,761,0
514491,193.25,603,754,0
514501,207.92,603,760,0
514511,228.17,603,755,0
514521,252.46,603,761,0
514531,278.68,603,755,0
514541,305.22,603,760,0
514551,330.57,603,755,0
514561,353.63,603,761,0
514571,372.98,603,755,0
514581,388.12,603,760,0
514591,398.45,603,755,0
514601,404.15,603,761,0
514611,405.34,603,755,0
514621,402.50,603,760,0
514631,396.05,603,755,0
514641,386.95,603,761,0
514651,375.82,603,755,0
514661,363.75,603,760,0
514671,351.18,603,755,0
514681,338.74,603,761,0
514691,326.90,603,755,0
514701,316.26,603,761,0
514711,307.05,603,755,0
514721,299.67,603,761,0
514732,294.62,603,754,0
514742,293.07,603,760,0
514752,296.69,603,755,0
514762,307.54,603,761,0
514772,328.16,603,755,0
514782,360.30,603,761,0
514792,403.67,603,755,0
514802,454.12,603,761,0
514812,508.17,603,755,0
514822,562.25,603,761,0
514832,612.96,603,755,0
514842,656.60,603,761,0
514852,690.62,603,755,0
514862,714.43,603,761,0
514872,731.10,603,755,0
514891,742.77,612,754,0
514893,750.94,612,756,0
514903,756.66,612,760,0
514913,760.66,612,755,0
514923,763.46,612,760,0
514933,765.42,612,755,0
514944,761.87,612,760,0
514953,750.64,612,755,0
514963,729.53,612,760,0
514973,698.00,612,755,0
514983,655.66,612,759,0
514993,603.52,612,755,0
515003,542.12,612,759,0
515013,477.93,612,755,0
515023,414.35,612,759,0
515033,355.66,612,755,0
515043,303.69,612,760,0
515053,260.67,612,755,0
515063,226.82,612,759,0
515073,203.13,612,754,0
515083,188.95,612,759,0
515093,184.38,612,755,0
515103,187.74,612,759,0
515113,198.57,612,755,0
515123,214.73,612,759,0
515133,235.17,612,755,0
515143,257.75,612,759,0
515153,281.52,612,755,0
515163,304.38,612,760,0
515173,325.69,612,755,0
515183,343.74,612,759,0
515193,358.65,612,755,0
515203,369.43,612,760,0
515213,376.58,612,755,0
515223,379.41,612,759,0
515233,378.94,612,755,0
515244,375.02,612,759,0
515254,368.93,612,755,0
515264,360.59,612,759,0
515274,351.29,612,755,0
515284,340.87,612,759,0
515294,330.80,612,755,0
515304,320.70,612,759,0
515314,311.79,612,755,0
515324,303.50,612,759,0
515334,296.79,612,755,0
515344,291.02,612,759,0
515354,287.46,612,755,0
515364,285.78,612,759,0
515374,287.73,612,755,0
515384,293.98,612,759,0
515394,307.45,612,755,0
515404,329.51,612,759,0
515415,363.00,612,756,0
515425,406.84,612,758,0
515435,457.46,612,757,0
515445,511.07,612,758,0
515456,564.70,612,758,0
515465,614.55,612,758,0
515475,657.84,612,757,0
515485,691.40,612,758,0
515505,714.94,613,757,0
515508,731.41,613,756,0
515517,742.95,613,759,0
515527,751.02,613,756,0
515537,756.71,613,760,0
515547,758.69,613,757,0
515557,754.32,613,759,0
515567,741.20,613,757,0
515577,718.55,613,759,0
515587,685.90,613,757,0
515597,643.84,613,759,0
515607,592.46,613,756,0
515617,535.07,613,759,0
515628,475.48,613,756,0
515638,418.16,613,760,0
515648,365.14,613,756,0
515658,318.68,613,760,0
515668,279.44,613,755,0
515678,248.83,613,760,0
515688,226.47,613,756,0
515698,212.96,613,760,0
515708,207.23,613,755,0
515718,209.17,613,760,0
515728,217.31,613,756,0
515738,230.93,613,760,0
515748,248.35,613,755,0
515758,268.82,613,760,0
515768,290.43,613,756,0
515778,312.41,613,760,0
515788,333.08,613,755,0
515799,351.95,613,760,0
515809,367.82,613,754,0
515819,380.52,613,760,0
515829,389.41,613,754,0
515840,394.77,613,760,0
515849,396.51,613,755,0
515859,395.37,613,760,0
515869,391.49,613,755,0
515879,385.73,613,760,0
515889,378.48,613,754,0
515899,370.58,613,760,0
515909,362.39,613,754,0
515919,354.39,613,760,0
515929,346.81,613,754,0
515939,340.06,613,760,0
515949,334.17,613,754,0
515959,329.45,613,760,0
515969,326.06,613,755,0
515979,324.88,613,760,0
515989,326.89,613,754,0
515999,333.74,613,760,0
516009,347.32,613,754,0
516019,369.46,613,760,0
516029,401.77,613,755,0
516039,443.41,613,760,0
516049,490.60,613,754,0
516059,540.18,613,760,0
516069,588.90,613,755,0
516079,633.71,613,760,0
516089,671.98,613,754,0
516099,701.39,613,760,0
516118,721.97,614,759,0
516121,736.34,614,759,0
516130,746.39,614,754,0
516140,753.43,614,760,0
516150,758.36,614,754,0
516160,758.72,614,760,0
516170,752.16,614,754,0
516180,736.86,614,760,0
516190,712.47,614,754,0
516200,678.56,614,759,0
516210,635.49,614,754,0
516220,583.70,614,760,0
516230,527.52,614,754,0
516240,470.66,614,759,0
516250,416.68,614,754,0
516260,367.23,614,760,0
516270,324.43,614,754,0
516280,289.12,614,759,0
516290,262.34,614,754,0
516300,243.81,614,760,0
516311,233.80,614,754,0
516321,231.41,614,759,0
516331,236.48,614,755,0
516341,247.22,614,759,0
516352,262.97,614,755,0
516361,281.75,614,759,0
516371,302.70,614,755,0
516381,323.83,614,759,0
516391,344.45,614,755,0
516401,362.79,614,759,0
516411,378.58,614,755,0
516421,390.49,614,759,0
516431,398.96,614,755,0
516441,403.26,614,759,0
516451,404.21,614,754,0
516461,401.53,614,759,0
516471,396.40,614,755,0
516481,388.91,614,760,0
516491,380.45,614,754,0
516501,370.84,614,759,0
516511,361.33,614,755,0
516521,351.68,614,759,0
516531,343.03,614,754,0
516541,334.88,614,759,0
516551,328.19,614,755,0
516561,322.43,614,759,0
516571,318.74,614,755,0
516581,316.98,614,759,0
516591,319.08,614,755,0
516601,326.00,614,759,0
516611,340.53,614,754,0
516621,364.84,614,759,0
516631,401.70,614,755,0
516641,446.66,614,759,0
516652,496.74,614,755,0
516662,548.42,614,759,0
516672,598.82,614,755,0
516682,644.52,614,759,0
516692,682.12,614,756,0
516702,708.48,614,759,0
516721,726.94,603,758,0
516723,739.90,603,758,0
516733,748.97,603,758,0
516743,755.32,603,758,0
516753,759.77,603,757,0
516763,762.88,603,758,0
516773,765.06,603,758,0
516783,766.58,603,758,0
516793,767.61,603,757,0
516803,768.33,603,758,0
516813,768.14,603,758,0
516823,762.79,603,758,0
516833,749.82,603,757,0
516843,727.20,603,758,0
516853,694.96,603,758,0
516864,653.06,603,757,0
516873,603.07,603,757,0
516883,546.56,603,758,0
516893,489.99,603,757,0
516903,437.15,603,757,0
516913,392.32,603,757,0
516923,356.57,603,757,0
516933,331.71,603,758,0
516943,316.76,603,757,0
516953,311.81,603,757,0
516963,314.66,603,758,0
516973,324.49,603,758,0
516983,338.36,603,757,0
516993,355.26,603,757,0
517003,372.37,603,758,0
517013,389.02,603,758,0
517023,403.15,603,757,0
517033,414.85,603,758,0
517043,422.74,603,758,0
517053,427.66,603,757,0
517063,428.83,603,757,0
517073,427.60,603,758,0
517083,423.52,603,758,0
517093,418.05,603,758,0
517103,410.79,603,757,0
517113,403.18,603,758,0
517123,394.90,603,758,0
517133,387.30,603,758,0
517143,379.88,603,757,0
517153,374.05,603,758,0
517164,369.40,603,757,0
517174,367.74,603,758,0
517184,369.23,603,757,0
517194,376.23,603,759,0
517204,389.45,603,757,0
517214,410.91,603,759,0
517224,440.55,603,757,0
517234,478.66,603,759,0
517244,521.32,603,757,0
517254,565.97,603,759,0
517264,609.22,603,757,0
517274,648.84,603,759,0
517284,682.40,603,757,0
517294,708.68,603,759,0
517304,727.08,603,757,0
517323,739.23,602,756,0
517326,742.80,602,755,0
517335,737.97,602,760,0
517345,723.41,602,756,0
517355,698.94,602,760,0
517365,664.46,602,756,0
517376,620.48,602,760,0
517385,568.31,602,756,0
517395,513.10,602,760,0
517405,456.37,602,756,0
517415,401.66,602,760,0
517425,350.55,602,756,0
517435,305.04,602,760,0
517445,265.56,602,756,0
517455,233.03,602,760,0
517465,207.05,602,756,0
517475,188.48,602,760,0
517485,176.55,602,756,0
517495,171.58,602,760,0
517505,172.31,602,756,0
517515,179.07,602,760,0
517525,190.62,602,756,0
517535,206.81,602,760,0
517545,226.11,602,755,0
517555,247.93,602,760,0
517565,270.58,602,756,0
517575,293.72,602,760,0
517585,315.53,602,755,0
517595,335.73,602,760,0
517605,352.87,602,756,0
517615,366.92,602,760,0
517625,377.10,602,755,0
517635,383.84,602,760,0
517645,386.63,602,756,0
517655,386.27,602,760,0
517665,382.59,602,755,0
517676,376.67,602,760,0
517686,368.54,602,755,0
517696,359.25,602,760,0
517706,348.93,602,754,0
517716,338.41,602,760,0
517726,327.83,602,755,0
517736,317.94,602,760,0
517746,308.79,602,754,0
517756,300.75,602,760,0
517766,293.88,602,755,0
517776,288.43,602,760,0
517786,284.49,602,754,0
517796,282.76,602,760,0
517806,283.60,602,755,0
517816,288.52,602,760,0
517826,299.04,602,754,0
517836,316.90,602,760,0
517847,343.71,602,754,0
517857,380.48,602,760,0
517867,426.33,602,754,0
517877,477.53,602,760,0
517888,530.34,602,754,0
517897,581.62,602,760,0
517907,628.32,602,754,0
517926,667.87,603,753,0
517929,698.51,603,755,0
517938,719.96,603,760,0
517948,732.31,603,754,0
517958,734.92,603,759,0
517968,727.70,603,755,0
517978,710.56,603,760,0
517988,683.74,603,754,0
517998,647.30,603,759,0
518008,602.21,603,755,0
518018,551.70,603,759,0
518028,499.51,603,754,0
518038,447.71,603,759,0
518048,398.86,603,755,0
518059,354.20,603,759,0
518068,315.61,603,754,0
518078,283.20,603,759,0
518088,257.94,603,755,0
518098,239.49,603,759,0
518108,228.28,603,754,0
518118,223.36,603,759,0
518128,224.83,603,755,0
518138,231.36,603,759,0
518148,242.73,603,754,0
518158,257.30,603,759,0
518168,274.74,603,755,0
518178,293.33,603,759,0
518188,312.56,603,754,0
518198,330.91,603,759,0
518208,348.03,603,755,0
518218,362.55,603,759,0
518228,374.64,603,755,0
518238,383.19,603,759,0
518248,388.92,603,755,0
518258,391.26,603,759,0
518268,390.75,603,755,0
518278,387.36,603,759,0
518288,382.06,603,755,0
518298,374.63,603,759,0
518308,366.21,603,755,0
518318,356.68,603,759,0
518328,347.05,603,755,0
518338,337.13,603,759,0
518348,327.79,603,755,0
518359,318.68,603,759,0
518369,310.85,603,755,0
518379,303.82,603,759,0
518389,298.69,603,755,0
518400,295.31,603,758,0
518409,295.39,603,755,0
518419,299.30,603,759,0
518429,309.50,603,755,0
518439,326.66,603,758,0
518449,352.78,603,755,0
518459,387.64,603,759,0
518469,431.68,603,755,0
518479,480.80,603,758,0
518489,531.99,603,755,0
518499,581.49,603,759,0
518509,626.95,603,755,0
518529,665.75,602,755,0
518532,696.64,602,759,0
518541,716.72,602,758,0
518551,726.36,602,758,0
518561,725.18,602,757,0
518572,713.81,602,759,0
518582,692.01,602,757,0
518592,660.68,602,759,0
518602,620.10,602,756,0
518612,573.40,602,759,0
518622,523.27,602,757,0
518632,473.34,602,759,0
518642,424.98,602,756,0
518652,380.76,602,759,0
518662,341.27,602,757,0
518672,307.98,602,759,0
518682,280.43,602,756,0
518692,259.51,602,759,0
518702,244.27,602,757,0
518712,235.32,602,759,0
518722,231.50,602,756,0
518732,232.89,602,759,0
518743,238.11,602,756,0
518753,247.29,602,760,0
518763,258.69,602,755,0
518773,272.45,602,760,0
518784,286.97,602,755,0
518793,302.24,602,760,0
518803,316.65,602,755,0
518813,330.34,602,760,0
518823,342.11,602,755,0
518833,352.24,602,760,0
518843,359.71,602,755,0
518853,365.02,602,760,0
518863,367.67,602,755,0
518873,368.41,602,760,0
518883,366.88,602,755,0
518893,363.87,602,760,0
518903,359.24,602,755,0
518913,354.02,602,760,0
518923,347.97,602,755,0
518933,341.85,602,760,0
518943,335.51,602,755,0
518953,329.66,602,760,0
518963,324.10,602,755,0
518973,319.66,602,760,0
518983,316.16,602,755,0
518993,314.78,602,760,0
519003,315.79,602,755,0
519013,321.00,602,760,0
519023,331.46,602,755,0
519033,348.98,602,760,0
519043,373.93,602,756,0
519053,407.21,602,760,0
519063,447.86,602,755,0
519073,493.97,602,761,0
519084,541.68,602,759,0
519094,588.19,602,759,0
519104,630.65,602,754,0
519123,667.40,595,753,0
519127,694.32,595,755,0
519135,709.95,595,760,0
519145,713.78,595,754,0
519155,706.48,595,760,0
519165,688.89,595,754,0
519175,661.79,595,760,0
519185,626.03,595,754,0
519195,584.75,595,760,0
519205,540.08,595,754,0
519215,494.58,595,760,0
519225,450.44,595,754,0
519235,408.86,595,760,0
519245,371.15,595,754,0
519255,337.97,595,760,0
519265,309.87,595,754,0
519275,286.76,595,760,0
519285,268.75,595,754,0
519296,255.54,595,759,0
519305,247.19,595,754,0
519315,242.98,595,760,0
519325,242.81,595,754,0
519335,245.95,595,759,0
519345,252.31,595,754,0
519355,260.92,595,760,0
519365,271.61,595,754,0
519375,283.52,595,759,0
519385,296.35,595,754,0
519395,309.10,595,760,0
519405,321.76,595,754,0
519415,333.27,595,759,0
519425,343.69,595,754,0
519435,352.27,595,760,0
519445,359.00,595,754,0
519455,363.37,595,759,0
519465,365.79,595,754,0
519475,365.94,595,760,0
519485,364.54,595,754,0
519495,361.34,595,759,0
519505,357.12,595,754,0
519515,351.77,595,760,0
519525,346.05,595,754,0
519535,339.65,595,759,0
519545,333.33,595,754,0
519555,326.93,595,760,0
519565,321.29,595,754,0
519575,316.45,595,759,0
519585,313.66,595,755,0
519596,313.42,595,759,0
519606,317.66,595,755,0
519616,327.06,595,759,0
519626,343.50,595,755,0
519636,367.14,595,759,0
519646,398.34,595,755,0
519656,435.74,595,759,0
519666,478.29,595,755,0
519676,522.82,595,759,0
519686,566.89,595,755,0
519696,606.48,595,759,0
519715,639.46,592,758,0
519718,662.60,592,758,0
519727,675.83,592,755,0
519737,677.68,592,758,0
519747,669.16,592,756,0
519757,650.64,592,758,0
519767,624.78,592,755,0
519777,592.57,592,759,0
519787,557.34,592,755,0
519797,519.48,592,758,0
519808,481.88,592,756,0
519817,445.10,592,759,0
519827,411.34,592,755,0
519837,380.25,592,758,0
519847,353.44,592,756,0
519857,330.33,592,759,0
519867,312.02,592,755,0
519877,297.48,592,758,0
519887,287.57,592,756,0
519897,281.05,592,759,0
519907,278.64,592,755,0
519917,278.92,592,758,0
519927,282.50,592,757,0
519937,287.96,592,759,0
519947,295.95,592,756,0
519957,304.96,592,758,0
519967,315.39,592,757,0
519977,325.77,592,758,0
519987,336.64,592,756,0
519997,346.43,592,758,0
520007,355.82,592,757,0
520017,363.24,592,758,0
520027,369.47,592,756,0
520037,373.44,592,758,0
520047,376.10,592,757,0
520057,376.50,592,758,0
520067,375.75,592,756,0
520077,373.04,592,758,0
520087,369.68,592,757,0
520097,364.89,592,758,0
520108,359.91,592,758,0
520118,353.98,592,757,0
520128,348.50,592,758,0
520138,342.91,592,757,0
520148,338.78,592,758,0
520158,335.80,592,757,0
520168,336.20,592,758,0
520178,340.26,592,757,0
520188,350.34,592,758,0
520198,366.31,592,757,0
520208,390.04,592,758,0
520218,420.50,592,757,0
520228,457.85,592,758,0
520238,499.12,592,757,0
520248,542.76,592,758,0
520258,584.79,592,757,0
520268,623.34,592,758,0
520288,654.56,573,758,0
520291,676.77,573,761,0
520300,688.37,573,756,0
520310,689.63,573,760,0
520321,680.22,573,755,0
520331,661.99,573,760,0
520341,635.93,573,755,0
520351,604.54,573,760,0
520361,569.75,573,754,0
520371,533.44,573,760,0
520381,497.05,573,755,0
520391,462.28,573,760,0
520401,429.84,573,755,0
520411,400.74,573,760,0
520421,375.06,573,755,0
520431,353.23,573,760,0
520441,335.12,573,754,0
520451,320.98,573,760,0
520461,310.53,573,755,0
520471,303.86,573,760,0
520481,300.47,573,754,0
520492,300.46,573,760,0
520502,303.36,573,754,0
520512,308.87,573,760,0
520522,316.41,573,754,0
520532,325.54,573,760,0
520542,335.54,573,754,0
520552,345.83,573,760,0
520562,355.87,573,754,0
520572,365.12,573,760,0
520582,373.10,573,754,0
520592,379.28,573,760,0
520602,383.66,573,754,0
520612,385.99,573,760,0
520622,386.72,573,754,0
520632,385.60,573,760,0
520642,383.02,573,754,0
520652,379.03,573,760,0
520663,374.31,573,754,0
520673,368.77,573,759,0
520683,363.18,573,754,0
520693,357.21,573,759,0
520704,351.92,573,755,0
520713,347.32,573,759,0
520723,344.52,573,754,0
520733,344.06,573,759,0
520743,347.86,573,755,0
520753,356.52,573,759,0
520763,372.00,573,755,0
520773,394.80,573,759,0
520783,425.80,573,755,0
520793,463.88,573,759,0
520803,507.24,573,755,0
520813,552.17,573,760,0
520823,596.26,573,755,0
520833,636.68,573,760,0
520852,671.58,564,759,0
520855,699.22,564,759,0
520864,718.52,564,755,0
520875,728.05,564,759,0
520884,729.02,564,755,0
520894,721.30,564,759,0
520904,705.74,564,755,0
520914,682.12,564,759,0
520924,651.95,564,755,0
520934,616.31,564,759,0
520944,578.42,564,755,0
520954,539.16,564,759,0
520964,501.10,564,755,0
520974,464.73,564,759,0
520984,431.94,564,755,0
520994,402.30,564,759,0
521004,377.10,564,755,0
521014,355.77,564,759,0
521024,339.38,564,755,0
521034,326.92,564,759,0
521044,319.15,564,755,0
521054,314.90,564,759,0
521064,314.76,564,755,0
521074,317.36,564,759,0
521084,323.17,564,755,0
521094,330.57,564,759,0
521104,339.96,564,755,0
521114,349.70,564,759,0
521124,360.16,564,755,0
521134,369.76,564,759,0
521144,378.96,564,755,0
521154,386.38,564,759,0
521164,392.65,564,755,0
521175,396.66,564,758,0
521185,399.16,564,756,0
521195,399.28,564,758,0
521205,398.04,564,757,0
521216,394.69,564,757,0
521225,390.41,564,756,0
521235,384.59,564,758,0
521245,378.45,564,757,0
521255,371.46,564,757,0
521265,364.98,564,756,0
521275,358.56,564,758,0
521285,353.89,564,757,0
521295,350.79,564,758,0
521305,351.33,564,756,0
521315,356.03,564,758,0
521325,367.55,564,757,0
521335,386.41,564,758,0
521345,414.27,564,756,0
521355,450.28,564,758,0
521365,492.88,564,757,0
521375,538.30,564,758,0
521385,583.98,564,758,0
521395,626.50,564,758,0
521414,663.89,562,757,0
521417,694.18,562,758,0
521426,716.76,562,759,0
521436,732.56,562,757,0
521446,742.25,562,758,0
521456,744.75,562,757,0
521466,739.98,562,759,0
521476,727.47,562,757,0
521486,707.44,562,758,0
521496,679.54,562,757,0
521506,644.75,562,759,0
521516,604.62,562,757,0
521526,562.82,562,758,0
521536,520.62,562,757,0
521546,480.45,562,759,0
521556,442.81,562,757,0
521566,409.70,562,758,0
521576,380.65,562,757,0
521586,356.84,562,759,0
521596,337.43,562,757,0
521606,323.37,562,758,0
521616,313.53,562,757,0
521626,308.62,562,759,0
521636,307.27,562,757,0
521646,309.89,562,758,0
521656,314.98,562,757,0
521666,322.87,562,759,0
521676,332.00,562,757,0
521687,342.54,562,759,0
521697,352.88,562,756,0
521707,363.24,562,760,0
521717,372.34,562,756,0
521728,380.47,562,760,0
521737,386.50,562,756,0
521747,391.02,562,760,0
521757,393.20,562,756,0
521767,393.78,562,760,0
521777,392.22,562,756,0
521787,389.41,562,760,0
521797,384.96,562,756,0
521807,379.70,562,760,0
521817,373.40,562,756,0
521827,367.07,562,760,0
521837,360.53,562,756,0
521847,354.97,562,760,0
521857,350.52,562,756,0
521867,349.00,562,760,0
521877,351.31,562,756,0
521887,359.75,562,760,0
521897,375.34,562,755,0
521907,399.71,562,760,0
521917,432.62,562,756,0
521927,473.67,562,760,0
521937,518.89,562,756,0
521947,565.38,562,760,0
521957,609.75,562,756,0
521967,649.68,562,760,0
521987,683.04,572,759,0
521990,708.91,572,761,0
521999,727.07,572,755,0
522009,738.19,572,760,0
522019,741.65,572,754,0
522029,737.38,572,760,0
522039,724.92,572,754,0
522049,704.20,572,760,0
522059,675.47,572,754,0
522070,639.16,572,760,0
522079,597.71,572,754,0
522089,553.95,572,760,0
522099,509.91,572,754,0
522109,467.55,572,760,0
522119,428.47,572,754,0
522129,393.53,572,760,0
522139,363.50,572,754,0
522149,338.41,572,760,0
522159,318.61,572,754,0
522169,304.07,572,760,0
522179,294.75,572,754,0
522189,290.20,572,760,0
522199,290.05,572,754,0
522209,293.68,572,760,0
522219,300.68,572,754,0
522229,310.20,572,760,0
522240,321.67,572,754,0
522249,334.11,572,760,0
522259,346.89,572,754,0
522269,359.27,572,760,0
522279,370.72,572,754,0
522289,380.62,572,760,0
522299,388.62,572,754,0
522309,394.22,572,760,0
522319,397.67,572,754,0
522329,398.80,572,760,0
522339,397.87,572,754,0
522349,394.95,572,760,0
522359,390.55,572,754,0
522369,384.94,572,760,0
522379,378.70,572,754,0
522389,371.98,572,760,0
522399,365.56,572,754,0
522409,359.95,572,760,0
522419,356.28,572,754,0
522429,355.64,572,760,0
522439,359.95,572,754,0
522449,370.76,572,760,0
522459,389.52,572,754,0
522469,417.05,572,760,0
522479,453.63,572,754,0
522489,496.47,572,760,0
522499,542.23,572,754,0
522509,587.59,572,760,0
522519,629.88,572,754,0
522529,666.86,572,760,0
522540,696.73,572,755,0
522559,718.46,573,754,0
522562,732.25,573,757,0
522571,737.92,573,759,0
522582,735.37,573,755,0
522591,724.12,573,759,0
522601,704.54,573,755,0
522611,676.26,573,759,0
522621,640.18,573,755,0
522631,597.96,573,759,0
522641,552.76,573,755,0
522651,506.37,573,759,0
522661,461.47,573,755,0
522671,418.90,573,759,0
522681,380.70,573,755,0
522691,346.72,573,759,0
522701,318.35,573,755,0
522711,295.01,573,759,0
522721,277.78,573,755,0
522731,265.68,573,759,0
522741,259.34,573,755,0
522752,257.57,573,758,0
522761,260.70,573,755,0
522771,267.26,573,759,0
522781,277.51,573,755,0
522791,289.74,573,759,0
522801,303.83,573,755,0
522811,318.03,573,759,0
522821,332.42,573,755,0
522831,345.36,573,758,0
522841,357.00,573,755,0
522851,366.00,573,759,0
522861,372.90,573,755,0
522871,376.79,573,758,0
522881,378.61,573,755,0
522891,377.70,573,759,0
522901,375.34,573,755,0
522911,370.78,573,758,0
522921,365.41,573,756,0
522931,358.60,573,759,0
522941,351.82,573,755,0
522951,344.50,573,758,0
522961,338.22,573,756,0
522971,332.80,573,759,0
522981,330.42,573,756,0
522991,331.58,573,758,0
523001,339.03,573,756,0
523011,353.42,573,759,0
523021,377.30,573,756,0
523031,410.59,573,758,0
523041,452.97,573,756,0
523052,500.17,573,758,0
523062,549.19,573,757,0
523072,596.40,573,757,0
523082,639.65,573,758,0
523092,675.97,573,758,0
523102,704.05,573,757,0
523121,723.66,562,757,0
523124,737.44,562,759,0
523133,744.38,562,757,0
523143,744.22,562,758,0
523153,735.58,562,757,0
523163,718.57,562,759,0
523173,692.51,562,757,0
523183,658.59,562,758,0
523193,616.54,562,757,0
523203,570.13,562,759,0
523213,521.19,562,757,0
523223,473.31,562,758,0
523233,427.36,562,757,0
523243,385.89,562,759,0
523253,348.68,562,757,0
523264,317.49,562,759,0
523273,291.97,562,757,0
523283,273.17,562,759,0
523293,260.13,562,757,0
523303,253.71,562,759,0
523313,252.29,562,757,0
523323,256.23,562,759,0
523333,263.96,562,757,0
523343,275.46,562,759,0
523353,289.04,562,757,0
523363,304.63,562,759,0
523373,320.34,562,757,0
523383,336.35,562,759,0
523393,350.82,562,757,0
523403,363.94,562,759,0
523413,374.33,562,757,0
523423,382.46,562,759,0
523433,387.29,562,756,0
523443,389.69,562,759,0
523453,389.01,562,757,0
523463,386.48,562,759,0
523473,381.71,562,756,0
523483,375.97,562,759,0
523493,368.86,562,757,0
523503,361.66,562,759,0
523513,354.01,562,756,0
523523,347.23,562,759,0
523533,341.16,562,757,0
523543,337.56,562,759,0
523553,337.05,562,756,0
523564,342.30,562,759,0
523574,354.64,562,756,0
523584,376.78,562,760,0
523594,409.24,562,756,0
523604,451.04,562,760,0
523614,498.09,562,756,0
523624,547.43,562,760,0
523634,595.47,562,756,0
523644,639.43,562,760,0
523654,676.20,562,756,0
523664,704.08,562,760,0
523674,723.64,562,756,0
523694,737.34,572,754,0
523697,746.92,572,754,0
523706,753.67,572,760,0
523716,756.64,572,754,0
523726,753.58,572,760,0
523736,743.33,572,754,0
523746,724.85,572,760,0
523756,697.76,572,754,0
523766,662.09,572,760,0
523777,618.35,572,754,0
523787,568.83,572,760,0
523797,517.50,572,754,0
523807,466.65,572,759,0
523817,419.10,572,755,0
523827,376.34,572,760,0
523837,339.89,572,754,0
523847,310.10,572,759,0
523857,287.91,572,755,0
523867,272.72,572,760,0
523877,264.83,572,754,0
523887,263.21,572,759,0
523897,267.56,572,755,0
523907,276.48,572,760,0
523917,289.32,572,755,0
523927,304.35,572,759,0
523937,321.09,572,755,0
523948,337.78,572,759,0
523958,353.92,572,755,0
523968,368.08,572,759,0
523978,380.19,572,755,0
523988,389.22,572,759,0
523998,395.58,572,755,0
524008,398.53,572,759,0
524018,398.97,572,755,0
524028,396.41,572,759,0
524038,392.09,572,755,0
524048,385.63,572,759,0
524058,378.37,572,755,0
524068,369.95,572,759,0
524078,361.69,572,755,0
524088,353.38,572,759,0
524098,346.67,572,755,0
524108,341.75,572,759,0
524119,341.14,572,755,0
524129,345.86,572,758,0
524139,359.06,572,756,0
524149,381.93,572,758,0
524160,416.53,572,757,0
524169,459.40,572,758,0
524179,507.45,572,756,0
524189,556.86,572,758,0
524199,604.94,572,757,0
524209,647.95,572,759,0
524219,683.58,572,756,0
524229,709.33,572,758,0
524239,727.40,572,757,0
524249,740.01,572,759,0
524268,748.88,575,758,0
524271,755.09,575,757,0
524280,759.48,575,758,0
524290,759.46,575,758,0
524300,753.28,575,758,0
524310,738.75,575,757,0
524320,715.56,575,758,0
524331,682.90,575,757,0
524340,641.79,575,758,0
524350,592.18,575,757,0
524360,538.51,575,758,0
524370,483.50,575,757,0
524380,431.28,575,758,0
524390,383.15,575,757,0
524400,341.75,575,758,0
524410,306.94,575,757,0
524420,280.47,575,758,0
524430,261.52,575,757,0
524440,251.03,575,758,0
524450,247.59,575,757,0
524460,251.23,575,758,0
524470,259.99,575,757,0
524480,273.71,575,758,0
524490,290.17,575,757,0
524500,309.10,575,759,0
524510,328.01,575,757,0
524520,346.70,575,758,0
524530,363.37,575,757,0
524540,378.18,575,759,0
524550,389.57,575,757,0
524560,398.14,575,758,0
524570,402.85,575,757,0
524580,404.91,575,759,0
524590,403.57,575,757,0
524600,400.18,575,758,0
524610,394.26,575,757,0
524620,387.28,575,759,0
524631,378.88,575,757,0
524641,370.60,575,759,0
524651,362.36,575,756,0
524661,356.08,575,759,0
524672,352.50,575,756,0
524681,354.11,575,759,0
524691,362.30,575,756,0
524701,380.34,575,760,0
524711,409.21,575,756,0
524721,448.32,575,759,0
524731,493.57,575,757,0
524741,541.87,575,759,0
524751,589.91,575,756,0
524761,634.76,575,759,0
524771,672.85,575,757,0
524781,701.99,575,759,0
524791,722.40,575,756,0
524801,736.68,575,759,0
524811,746.67,575,756,0
524821,753.67,575,759,0
524840,758.57,572,759,0
524844,762.00,572,760,0
524852,762.60,572,756,0
524862,757.58,572,760,0
524872,744.72,572,755,0
524882,722.90,572,760,0
524892,691.82,572,756,0
524902,651.67,572,760,0
524912,602.70,572,755,0
524922,547.72,572,760,0
524932,490.89,572,756,0
524942,436.19,572,760,0
524952,386.08,572,755,0
524962,342.55,572,760,0
524972,306.60,572,756,0
524982,279.46,572,760,0
524992,261.15,572,755,0
525002,251.68,572,760,0
525012,250.06,572,755,0
525022,255.61,572,760,0
525032,266.79,572,755,0
525042,282.62,572,760,0
525052,301.42,572,755,0
525062,321.82,572,760,0
525072,342.15,572,755,0
525082,361.47,572,760,0
525092,378.48,572,755,0
525102,392.78,572,760,0
525112,403.47,572,755,0
525122,410.53,572,760,0
525132,413.84,572,755,0
525143,413.89,572,760,0
525153,410.71,572,754,0
525163,405.18,572,760,0
525173,397.58,572,754,0
525184,388.75,572,760,0
525193,379.18,572,754,0
525203,369.70,572,760,0
525213,361.22,572,754,0
525223,354.98,572,760,0
525233,352.54,572,754,0
525243,355.98,572,760,0
525253,367.90,572,754,0
525263,390.52,572,760,0
525273,425.08,572,754,0
525283,467.78,572,760,0
525293,515.33,572,754,0
525303,564.48,572,760,0
525313,612.03,572,754,0
525323,654.49,572,760,0
525333,688.89,572,754,0
525343,713.22,572,760,0
525353,730.26,572,754,0
525363,742.18,572,760,0
525373,750.53,572,754,0
525383,756.37,572,760,0
525403,760.46,562,759,0
525406,763.32,562,760,0
525415,763.87,562,755,0
525425,758.42,562,759,0
525435,745.05,562,755,0
525445,722.36,562,759,0
525455,690.16,562,755,0
525465,647.98,562,759,0
525475,596.77,562,755,0
525485,538.73,562,759,0
525495,479.24,562,755,0
525505,421.44,562,759,0
525515,368.85,562,755,0
525526,322.74,562,759,0
525535,285.53,562,755,0
525545,257.17,562,759,0
525555,238.65,562,755,0
525565,229.03,562,759,0
525575,228.25,562,755,0
525585,234.43,562,759,0
525595,247.16,562,755,0
525605,264.08,562,759,0
525615,284.37,562,755,0
525625,305.60,562,759,0
525635,327.06,562,755,0
525645,346.76,562,759,0
525655,364.40,562,755,0
525665,378.47,562,759,0
525675,389.21,562,755,0
525685,395.79,562,759,0
525696,399.03,562,755,0
525705,398.50,562,759,0
525715,395.52,562,755,0
525725,389.75,562,759,0
525735,382.71,562,755,0
525745,374.18,562,759,0
525755,365.56,562,755,0
525765,356.60,562,759,0
525775,348.75,562,755,0
525785,342.01,562,759,0
525795,338.49,562,755,0
525805,339.16,562,759,0
525815,347.21,562,755,0
525825,363.95,562,759,0
525835,392.46,562,755,0
525845,431.54,562,759,0
525855,477.83,562,756,0
525865,527.60,562,759,0
525875,577.82,562,755,0
525885,624.63,562,759,0
525895,665.46,562,756,0
525905,696.82,562,759,0
525915,718.77,562,755,0
525925,734.14,562,759,0
525935,744.90,562,756,0
525945,752.43,562,759,0
525964,757.70,562,758,0
525967,761.39,562,757,0
525976,763.97,562,757,0
525986,763.12,562,758,0
525996,756.53,562,756,0
526006,741.41,562,758,0
526016,716.95,562,757,0
526026,682.16,562,758,0
526036,637.76,562,758,0
526046,584.00,562,758,0
526056,524.94,562,757,0
526066,463.80,562,757,0
526076,405.45,562,758,0
526086,351.83,562,758,0
526096,306.07,562,757,0
526106,268.46,562,757,0
526116,240.68,562,758,0
526126,221.75,562,758,0
526136,212.52,562,757,0
526146,211.29,562,758,0
526156,217.98,562,758,0
526167,230.20,562,757,0
526177,247.50,562,758,0
526187,267.28,562,757,0
526197,289.18,562,759,0
526208,310.60,562,757,0
526217,331.29,562,758,0
526227,349.25,562,757,0
526237,364.64,562,759,0
526247,375.98,562,757,0
526257,384.00,562,758,0
526267,387.81,562,757,0
526277,388.68,562,759,0
526287,386.08,562,757,0
526297,381.47,562,758,0
526307,374.43,562,757,0
526317,366.59,562,759,0
526327,357.50,562,756,0
526337,348.73,562,758,0
526347,340.07,562,757,0
526357,333.32,562,759,0
526367,328.94,562,756,0
526377,329.77,562,759,0
526387,336.78,562,757,0
526397,353.56,562,759,0
526407,381.42,562,756,0
526417,420.94,562,759,0
526427,467.63,562,757,0
526437,518.40,562,759,0
526447,569.36,562,756,0
526457,617.85,562,759,0
526467,659.90,562,757,0
526477,692.93,562,759,0
526487,716.05,562,757,0
526497,732.24,562,759,0
526508,743.56,562,756,0
526518,751.50,562,760,0
526537,757.05,573,759,0
526539,760.98,573,760,0
526550,761.50,573,755,0
526559,755.99,573,760,0
526569,741.98,573,754,0
526579,718.33,573,760,0
526589,684.46,573,755,0
526599,640.95,573,760,0
526609,587.95,573,754,0
526619,528.87,573,760,0
526629,467.58,573,755,0
526639,408.43,573,760,0
526649,353.96,573,755,0
526659,306.57,573,760,0
526669,267.19,573,755,0
526679,237.13,573,760,0
526689,216.39,573,755,0
526699,205.43,573,760,0
526709,203.24,573,755,0
526720,209.26,573,760,0
526729,221.91,573,755,0
526739,239.89,573,760,0
526749,261.40,573,755,0
526759,285.02,573,760,0
526769,308.71,573,755,0
526779,331.47,573,760,0
526789,351.77,573,755,0
526799,368.98,573,760,0
526809,382.32,573,755,0
526819,391.82,573,760,0
526829,397.28,573,755,0
526839,399.08,573,760,0
526849,397.43,573,755,0
526859,393.18,573,760,0
526869,386.70,573,755,0
526879,378.60,573,760,0
526889,369.29,573,754,0
526899,359.61,573,760,0
526909,350.04,573,755,0
526919,341.54,573,760,0
526929,335.12,573,754,0
526939,332.51,573,760,0
526949,335.83,573,755,0
526959,347.62,573,760,0
526969,370.19,573,754,0
526979,405.02,573,760,0
526989,448.86,573,755,0
526999,498.10,573,760,0
527009,549.33,573,755,0
527020,599.20,573,760,0
527030,644.18,573,754,0
527040,681.07,573,760,0
527050,707.75,573,754,0
527060,726.42,573,760,0
527070,739.50,573,755,0
527080,748.65,573,760,0
527090,755.05,573,754,0
527110,759.54,572,754,0
527113,759.20,572,755,0
527122,751.77,572,759,0
527132,735.68,572,755,0
527142,709.51,572,759,0
527152,673.70,572,755,0
527162,627.97,572,759,0
527172,573.30,572,755,0
527182,513.55,572,759,0
527192,453.17,572,755,0
527202,394.96,572,759,0
527212,342.52,572,755,0
527222,296.46,572,759,0
527233,259.12,572,755,0
527243,230.50,572,759,0
527253,212.05,572,756,0
527263,202.44,572,758,0
527273,202.00,572,757,0
527283,208.69,572,759,0
527293,222.24,572,756,0
527303,240.25,572,758,0
527313,262.08,572,757,0
527323,284.94,572,759,0
527333,308.49,572,756,0
527343,330.33,572,758,0
527353,350.37,572,757,0
527363,366.93,572,759,0
527373,380.24,572,756,0
527383,388.95,572,758,0
527393,394.20,572,757,0
527404,395.08,572,758,0
527414,393.04,572,758,0
527424,387.63,572,757,0
527434,380.41,572,758,0
527444,371.07,572,757,0
527454,361.45,572,758,0
527464,351.03,572,757,0
527474,341.42,572,758,0
527484,332.29,572,757,0
527494,325.52,572,758,0
527504,321.16,572,757,0
527514,322.10,572,758,0
527524,329.61,572,757,0
527534,346.70,572,758,0
527544,374.73,572,757,0
527554,414.58,572,758,0
527564,461.72,572,758,0
527575,513.19,572,759,0
527585,565.03,572,757,0
527595,614.10,572,759,0
527605,656.92,572,757,0
527616,690.85,572,760,0
527625,714.59,572,757,0
527635,731.21,572,759,0
527645,742.85,572,757,0
527655,751.00,572,760,0
527674,756.70,565,758,0
527677,760.69,565,760,0
527686,762.62,565,756,0
527696,759.22,565,760,0
527706,747.93,565,756,0
527716,727.51,565,760,0
527726,696.84,565,756,0
527736,656.17,565,760,0
527746,605.85,565,756,0
527756,547.87,565,760,0
527766,486.62,565,756,0
527776,426.56,565,760,0
527787,370.38,565,755,0
527796,321.07,565,760,0
527806,279.73,565,756,0
527816,247.67,565,760,0
527826,224.88,565,755,0
527836,211.72,565,760,0
527846,207.13,565,756,0
527856,210.65,565,760,0
527866,220.61,565,755,0
527876,236.03,565,760,0
527886,254.92,565,756,0
527896,276.07,565,760,0
527906,297.69,565,755,0
527916,318.96,565,760,0
527926,338.13,565,756,0
527936,354.80,565,760,0
527946,367.93,565,755,0
527956,377.55,565,760,0
527966,383.26,565,756,0
527976,385.67,565,760,0
527986,384.57,565,755,0
527996,380.93,565,760,0
528006,374.86,565,756,0
528016,367.40,565,760,0
528026,358.71,565,755,0
528036,349.58,565,760,0
528046,340.11,565,756,0
528056,331.20,565,760,0
528066,323.09,565,755,0
528076,316.93,565,760,0
528087,313.57,565,755,0
528097,315.24,565,760,0
528107,324.00,565,755,0
528117,342.60,565,760,0
528128,372.98,565,754,0
528137,414.64,565,760,0
528147,463.39,565,755,0
528157,515.90,565,760,0
528167,568.56,565,754,0
528177,617.93,565,760,0
528187,660.51,565,755,0
528197,693.36,565,760,0
528207,716.35,565,754,0
528217,732.45,565,760,0
528227,743.71,565,755,0
528246,751.60,572,753,0
528249,757.16,572,755,0
528258,761.06,572,760,0
528268,760.70,572,755,0
528278,753.07,572,760,0
528288,736.42,572,755,0
528299,709.55,572,760,0
528308,672.79,572,754,0
528318,626.09,572,759,0
528328,570.31,572,754,0
528338,509.32,572,759,0
528348,448.02,572,754,0
528358,389.56,572,759,0
528368,336.98,572,755,0
528378,291.25,572,760,0
528388,253.98,572,754,0
528398,225.61,572,759,0
528408,206.74,572,755,0
528418,196.58,572,760,0
528428,194.86,572,754,0
528438,200.26,572,760,0
528448,212.10,572,755,0
528458,228.65,572,760,0
528468,248.94,572,755,0
528478,270.90,572,760,0
528488,293.52,572,755,0
528498,315.13,572,760,0
528508,335.07,572,755,0
528518,352.02,572,760,0
528528,365.81,572,755,0
528538,375.51,572,760,0
528548,381.66,572,755,0
528558,383.99,572,760,0
528568,383.26,572,755,0
528578,379.41,572,760,0
528588,373.46,572,755,0
528599,365.44,572,759,0
528609,356.52,572,755,0
528619,346.68,572,759,0
528629,337.05,572,755,0
528640,327.69,572,759,0
528649,320.11,572,755,0
528659,314.89,572,759,0
528669,314.58,572,755,0
528679,320.62,572,759,0
528689,335.78,572,755,0
528699,361.73,572,759,0
528709,400.51,572,755,0
528719,447.50,572,759,0
528729,499.38,572,755,0
528739,552.19,572,759,0
528749,602.84,572,755,0
528759,647.89,572,759,0
528769,684.48,572,755,0
528779,710.13,572,759,0
528789,728.09,572,755,0
528799,740.67,572,759,0
528809,749.47,572,755,0
528828,755.63,582,754,0
528831,758.48,582,758,0
528840,755.17,582,759,0
528850,743.76,582,757,0
528860,722.79,582,759,0
528870,692.08,582,756,0
528880,651.04,582,758,0
528890,600.59,582,757,0
528900,542.64,582,759,0
528910,482.06,582,756,0
528920,421.91,582,758,0
528930,365.75,582,757,0
528940,314.87,582,759,0
528950,272.01,582,756,0
528960,237.21,582,758,0
528970,211.94,582,757,0
528980,195.42,582,758,0
528990,188.26,582,756,0
529000,189.04,582,758,0
529010,197.73,582,757,0
529020,212.04,582,758,0
529030,231.44,582,756,0
529040,253.38,582,758,0
529050,277.31,582,757,0
529060,300.79,582,758,0
529070,323.31,582,756,0
529080,342.84,582,758,0
529090,359.48,582,757,0
529100,371.89,582,758,0
529111,380.80,582,758,0
529121,385.19,582,758,0
529131,386.33,582,758,0
529141,383.75,582,757,0
529152,379.06,582,759,0
529161,372.02,582,757,0
529171,363.95,582,758,0
529181,354.67,582,757,0
529191,345.60,582,759,0
529201,336.42,582,758,0
529211,328.58,582,758,0
529221,321.76,582,757,0
529231,318.06,582,759,0
529241,318.21,582,758,0
529251,325.14,582,758,0
529261,340.44,582,757,0
529271,367.26,582,759,0
529281,405.41,582,758,0
529291,452.00,582,758,0
529301,502.92,582,758,0
529311,555.31,582,759,0
529321,605.23,582,757,0
529331,649.73,582,758,0
529341,685.21,582,757,0
529351,710.65,582,759,0
529361,728.46,582,757,0
529371,740.92,582,759,0
529381,749.64,582,757,0
529400,755.75,572,757,0
529402,757.50,572,756,0
529412,753.49,572,759,0
529422,741.13,572,757,0
529432,719.49,572,760,0
529442,687.71,572,756,0
529452,646.53,572,759,0
529462,595.93,572,756,0
529472,539.55,572,759,0
529482,479.94,572,756,0
529492,421.72,572,760,0
529502,367.03,572,756,0
529512,318.68,572,759,0
529522,277.03,572,756,0
529532,243.85,572,760,0
529542,218.78,572,756,0
529552,202.78,572,759,0
529562,194.79,572,756,0
529572,194.81,572,760,0
529582,201.08,572,756,0
529592,213.31,572,760,0
529602,229.59,572,756,0
529612,249.34,572,760,0
529623,270.37,572,756,0
529633,291.94,572,760,0
529643,312.27,572,755,0
529653,331.05,572,760,0
529664,346.85,572,755,0
529673,359.58,572,760,0
529683,368.49,572,755,0
529693,374.04,572,760,0
529703,375.96,572,755,0
529713,375.16,572,760,0
529723,371.60,572,755,0
529733,366.19,572,760,0
529743,359.10,572,754,0
529753,351.36,572,760,0
529763,342.98,572,755,0
529773,334.76,572,760,0
529783,326.64,572,754,0
529793,319.47,572,760,0
529803,313.24,572,755,0
529813,309.01,572,760,0
529823,307.46,572,754,0
529833,310.75,572,760,0
529843,320.30,572,755,0
529853,338.94,572,760,0
529863,368.66,572,755,0
529873,409.82,572,760,0
529883,458.21,572,755,0
529893,510.44,572,761,0
529903,562.89,572,754,0
529913,612.68,572,760,0
529923,656.15,572,755,0
529933,690.30,572,760,0
529943,714.21,572,755,0
529963,730.95,562,754,0
529965,742.66,562,755,0
529975,750.86,562,760,0
529985,756.61,562,754,0
529995,760.62,562,760,0
530006,759.37,562,755,0
530015,750.51,562,760,0
530025,732.36,562,754,0
530035,703.88,562,760,0
530045,665.17,562,755,0
530055,616.65,562,760,0
530065,559.15,562,754,0
530075,497.57,562,760,0
530085,436.15,562,755,0
530095,378.04,562,760,0
530105,326.00,562,754,0
530115,281.25,562,759,0
530125,245.18,562,755,0
530135,217.82,562,760,0
530145,199.79,562,754,0
530155,190.25,562,760,0
530165,189.11,562,755,0
530176,194.99,562,759,0
530185,207.12,562,754,0
530195,223.67,562,760,0
530205,243.95,562,755,0
530215,266.00,562,759,0
530225,288.80,562,755,0
530235,310.50,562,760,0
530245,330.58,562,755,0
530255,347.68,562,760,0
530265,361.70,562,755,0
530275,371.73,562,759,0
530285,378.24,562,755,0
530295,380.78,562,759,0
530305,380.29,562,755,0
530315,376.73,562,759,0
530325,371.20,562,755,0
530335,363.60,562,759,0
530345,355.10,562,755,0
530355,345.69,562,759,0
530365,336.52,562,755,0
530375,327.32,562,760,0
530385,319.04,562,755,0
530395,311.61,562,759,0
530405,306.24,562,755,0
530415,303.34,562,760,0
530425,305.00,562,755,0
530435,312.28,562,760,0
530445,328.18,562,755,0
530455,354.31,562,759,0
530465,392.88,562,755,0
530476,439.84,562,759,0
530486,491.75,562,755,0
530496,544.84,562,759,0
530506,596.27,562,756,0
530516,642.35,562,759,0
530526,680.21,562,755,0
530536,707.15,562,759,0
530546,726.01,562,756,0
530566,739.20,603,755,0
530569,748.44,603,759,0
530578,754.91,603,758,0
530588,759.44,603,758,0
530598,757.93,603,757,0
530608,749.04,603,758,0
530618,730.60,603,758,0
530628,702.48,603,758,0
530638,663.93,603,757,0
530648,616.17,603,758,0
530658,559.29,603,758,0
530668,499.50,603,758,0
530678,439.31,603,757,0
530689,382.94,603,759,0
530699,331.75,603,757,0
530709,288.49,603,759,0
530719,252.99,603,756,0
530729,226.85,603,759,0
530739,209.19,603,757,0
530749,200.69,603,759,0
530759,199.93,603,756,0
530769,206.76,603,760,0
530779,219.01,603,757,0
530789,236.19,603,759,0
530799,256.06,603,756,0
530809,278.11,603,760,0
530819,299.89,603,757,0
530829,321.14,603,759,0
530839,339.87,603,756,0
530849,356.15,603,760,0
530860,368.53,603,756,0
530870,377.50,603,760,0
530880,382.28,603,756,0
530890,383.91,603,760,0
530900,381.84,603,755,0
530910,377.43,603,760,0
530920,370.44,603,755,0
530930,362.30,603,760,0
530940,352.99,603,755,0
530950,343.65,603,760,0
530960,334.20,603,756,0
530970,325.53,603,760,0
530980,317.57,603,755,0
530990,311.65,603,760,0
531000,308.03,603,756,0
531010,308.62,603,760,0
531020,314.82,603,755,0
531031,329.36,603,760,0
531041,353.94,603,755,0
531051,390.47,603,760,0
531061,435.93,603,755,0
531072,486.91,603,760,0
531081,539.61,603,755,0
531091,590.90,603,760,0
531101,637.21,603,755,0
531111,675.76,603,760,0
531121,703.99,603,755,0
531131,723.75,603,760,0
531150,737.58,585,760,0
531153,747.31,585,760,0
531162,754.12,585,754,0
531172,756.48,585,760,0
531182,751.92,585,755,0
531192,738.40,585,760,0
531202,715.48,585,754,0
531212,682.64,585,760,0
531222,640.15,585,755,0
531232,588.37,585,760,0
531243,530.83,585,754,0
531252,471.65,585,760,0
531262,414.59,585,754,0
531272,361.52,585,760,0
531282,314.74,585,754,0
531292,275.22,585,760,0
531302,244.04,585,754,0
531312,221.23,585,760,0
531322,206.84,585,754,0
531332,200.25,585,760,0
531342,201.03,585,755,0
531352,207.92,585,760,0
531362,220.29,585,755,0
531372,236.44,585,760,0
531382,255.34,585,755,0
531392,275.29,585,760,0
531402,295.52,585,755,0
531412,314.52,585,760,0
531422,331.77,585,755,0
531432,346.19,585,760,0
531442,357.83,585,755,0
531452,365.86,585,760,0
531462,370.87,585,755,0
531472,372.67,585,760,0
531482,371.91,585,755,0
531492,368.59,585,760,0
531502,363.40,585,754,0
531512,356.64,585,760,0
531522,349.29,585,755,0
531532,341.27,585,760,0
531543,333.39,585,755,0
531553,325.56,585,760,0
531563,318.71,585,755,0
531573,312.71,585,759,0
531584,308.72,585,755,0
531593,307.22,585,760,0
531603,310.11,585,755,0
531613,318.65,585,759,0
531623,335.85,585,755,0
531633,362.51,585,760,0
531643,400.76,585,755,0
531653,446.95,585,759,0
531663,497.83,585,755,0
531673,549.78,585,760,0
531683,599.86,585,755,0
531693,644.35,585,759,0
531703,681.19,585,755,0
531713,707.83,585,760,0
531732,726.48,582,759,0
531734,739.54,582,758,0
531744,748.68,582,756,0
531755,754.69,582,759,0
531764,755.47,582,756,0
531774,748.47,582,759,0
531784,732.69,582,756,0
531794,706.98,582,759,0
531804,672.01,582,756,0
531814,627.52,582,759,0
531824,574.95,582,756,0
531834,517.54,582,759,0
531844,460.16,582,755,0
531854,404.70,582,759,0
531864,354.30,582,756,0
531874,309.21,582,759,0
531884,271.61,582,755,0
531894,241.04,582,759,0
531904,218.78,582,756,0
531914,203.63,582,759,0
531924,196.46,582,757,0
531934,195.59,582,759,0
531944,201.24,582,756,0
531954,211.50,582,759,0
531964,226.39,582,757,0
531974,243.85,582,759,0
531984,263.56,582,756,0
531994,283.28,582,759,0
532004,303.00,582,757,0
532014,320.83,582,759,0
532024,336.86,582,756,0
532034,349.50,582,759,0
532044,359.47,582,757,0
532055,365.46,582,758,0
532065,368.66,582,758,0
532075,368.21,582,758,0
532085,365.44,582,758,0
532096,359.87,582,757,0
532105,353.09,582,758,0
532115,344.45,582,758,0
532125,335.74,582,758,0
532135,326.44,582,757,0
532145,318.12,582,758,0
532155,310.41,582,758,0
532165,305.02,582,758,0
532175,302.01,582,758,0
532185,303.72,582,758,0
532195,310.88,582,758,0
532205,326.60,582,758,0
532215,351.79,582,758,0
532225,388.15,582,758,0
532235,433.41,582,758,0
532245,484.11,582,758,0
532255,536.41,582,758,0
532265,587.50,582,759,0
532275,633.59,582,758,0
532285,672.33,582,758,0
532295,701.50,582,758,0
532305,721.97,582,758,0
532324,736.25,592,757,0
532327,746.24,592,761,0
532336,749.81,592,757,0
532346,745.58,592,759,0
532356,732.21,592,757,0
532366,709.43,592,759,0
532376,676.65,592,757,0
532386,634.58,592,759,0
532396,583.75,592,757,0
532406,528.62,592,759,0
532416,472.17,592,757,0
532426,417.77,592,759,0
532436,367.01,592,756,0
532446,322.35,592,759,0
532456,284.02,592,757,0
532466,253.24,592,759,0
532476,229.60,592,756,0
532486,213.69,592,759,0
532496,204.53,592,757,0
532506,202.35,592,759,0
532516,205.59,592,756,0
532526,214.20,592,759,0
532536,226.05,592,757,0
532546,240.99,592,759,0
532556,257.28,592,756,0
532567,274.55,592,760,0
532577,291.02,592,756,0
532587,306.53,592,760,0
532597,319.78,592,756,0
532608,331.03,592,760,0
532617,339.42,592,756,0
532627,345.25,592,760,0
532637,348.09,592,756,0
532647,348.58,592,760,0
532657,346.65,592,756,0
532667,343.11,592,760,0
532677,337.85,592,756,0
532687,331.68,592,760,0
532697,324.66,592,756,0
532707,317.69,592,760,0
532717,310.71,592,756,0
532727,304.46,592,760,0
532737,298.92,592,756,0
532747,295.43,592,760,0
532757,294.40,592,756,0
532767,297.67,592,760,0
532777,306.47,592,755,0
532787,322.74,592,760,0
532797,347.55,592,756,0
532807,382.10,592,761,0
532817,425.57,592,755,0
532827,474.94,592,760,0
532837,526.34,592,756,0
532847,576.56,592,761,0
532857,622.67,592,755,0
532867,662.37,592,760,0
532877,693.76,592,756,0
532896,715.09,572,755,0
532899,725.43,572,755,0
532908,725.90,572,760,0
532918,716.25,572,755,0
532928,696.80,572,760,0
532938,667.76,572,755,0
532948,629.60,572,760,0
532958,584.51,572,755,0
532968,536.14,572,760,0
532978,486.30,572,755,0
532988,437.44,572,760,0
532998,391.32,572,755,0
533008,349.40,572,760,0
533018,312.59,572,755,0
533028,281.21,572,760,0
533038,255.56,572,755,0
533048,235.77,572,760,0
533058,221.82,572,755,0
533068,213.39,572,760,0
533079,210.14,572,754,0
533089,211.39,572,760,0
533099,216.80,572,755,0
533109,225.39,572,760,0
533120,236.59,572,755,0
533129,249.31,572,760,0
533139,262.89,572,755,0
533149,276.34,572,760,0
533159,289.35,572,755,0
533169,300.94,572,760,0
533179,311.12,572,755,0
533189,319.10,572,760,0
533199,325.20,572,754,0
533209,329.08,572,760,0
533219,331.11,572,755,0
533229,331.12,572,760,0
533239,329.71,572,755,0
533249,326.84,572,760,0
533259,323.16,572,755,0
533269,318.48,572,760,0
533279,313.54,572,755,0
533289,308.11,572,760,0
533299,302.89,572,755,0
533309,297.78,572,760,0
533319,293.65,572,754,0
533329,290.84,572,760,0
533339,290.76,572,755,0
533349,294.17,572,760,0
533359,303.29,572,755,0
533369,319.02,572,760,0
533379,342.58,572,755,0
533389,374.00,572,760,0
533399,413.00,572,755,0
533409,457.57,572,760,0
533420,505.53,572,755,0
533430,552.90,572,760,0
533440,596.69,572,755,0
533450,633.21,572,759,0
533470,660.40,573,759,0
533473,675.50,573,758,0
533482,678.90,573,757,0
533492,670.28,573,758,0
533502,651.55,573,758,0
533512,624.00,573,758,0
533522,590.53,573,757,0
533532,552.36,573,758,0
533542,512.99,573,758,0
533552,472.97,573,758,0
533562,434.79,573,757,0
533572,398.68,573,758,0
533582,366.33,573,758,0
533592,337.35,573,758,0
533602,313.07,573,757,0
533612,292.69,573,758,0
533622,277.23,573,758,0
533633,265.63,573,758,0
533643,258.71,573,758,0
533653,255.11,573,757,0
533663,255.55,573,759,0
533673,258.64,573,757,0
533683,264.71,573,758,0
533693,272.25,573,757,0
533703,281.69,573,759,0
533713,291.55,573,757,0
533723,302.06,573,758,0
533733,311.64,573,757,0
533743,320.79,573,759,0
533753,328.31,573,757,0
533763,334.82,573,758,0
533773,339.12,573,757,0
533783,342.08,573,759,0
533793,342.87,573,757,0
533804,342.57,573,759,0
533814,340.47,573,756,0
533824,337.71,573,760,0
533834,333.69,573,756,0
533844,329.49,573,760,0
533854,324.59,573,756,0
533864,320.13,573,760,0
533874,315.59,573,756,0
533884,311.90,573,760,0
533894,308.76,573,757,0
533904,307.46,573,760,0
533914,308.26,573,756,0
533924,312.81,573,760,0
533934,321.44,573,756,0
533944,336.05,573,760,0
533954,356.95,573,756,0
533964,384.95,573,760,0
533975,418.91,573,756,0
533985,457.76,573,760,0
533995,498.85,573,755,0
534005,539.99,573,761,0
534016,577.67,573,755,0
534034,609.78,565,755,0
534037,633.38,565,755,0
534046,647.66,565,760,0
534056,651.88,565,754,0
534066,646.60,565,760,0
534076,632.53,565,755,0
534086,611.25,565,760,0
534096,584.09,565,754,0
534106,553.42,565,760,0
534116,520.38,565,755,0
534126,486.66,565,760,0
534136,453.51,565,754,0
534146,422.28,565,760,0
534156,393.70,565,755,0
534166,368.25,565,760,0
534176,346.19,565,754,0
534187,327.87,565,760,0
534196,313.38,565,755,0
534206,302.55,565,760,0
534216,295.06,565,754,0
534226,290.71,565,760,0
534236,289.30,565,755,0
534246,290.41,565,760,0
534256,293.72,565,754,0
534266,298.60,565,760,0
534276,304.72,565,755,0
534286,311.62,565,760,0
534296,318.93,565,754,0
534306,326.11,565,760,0
534316,332.85,565,755,0
534326,338.85,565,760,0
534336,344.00,565,754,0
534346,348.03,565,760,0
534356,350.98,565,755,0
534366,352.65,565,760,0
534376,353.31,565,754,0
534386,352.79,565,760,0
534396,351.40,565,755,0
534406,349.18,565,760,0
534416,346.34,565,754,0
534426,342.94,565,760,0
534436,339.44,565,754,0
534446,335.84,565,760,0
534456,332.72,565,754,0
534466,330.19,565,760,0
534476,329.14,565,754,0
534487,330.26,565,760,0
534497,334.81,565,754,0
534507,343.65,565,760,0
534517,358.16,565,755,0
534528,378.64,565,760,0
534537,405.36,565,755,0
534547,437.35,565,760,0
534557,473.63,565,755,0
534567,511.54,565,760,0
534586,549.09,552,759,0
534589,583.09,552,760,0
534598,612.08,552,755,0
534608,633.57,552,759,0
534618,646.99,552,755,0
534628,651.23,552,760,0
534638,647.35,552,755,0
534648,635.29,552,759,0
534658,617.24,552,755,0
534668,593.51,552,759,0
534678,566.62,552,755,0
534688,537.12,552,759,0
534699,507.17,552,755,0
534708,477.20,552,759,0
534718,449.07,552,755,0
534728,422.56,552,759,0
534738,399.12,552,755,0
534748,378.30,552,759,0
534758,361.24,552,755,0
534768,347.20,552,759,0
534778,337.02,552,756,0
534788,329.82,552,759,0
534798,326.19,552,755,0
534808,325.02,552,759,0
534818,326.85,552,756,0
534828,330.45,552,759,0
534838,336.28,552,755,0
534848,342.92,552,759,0
534858,350.92,552,756,0
534868,358.74,552,759,0
534878,366.88,552,755,0
534888,373.98,552,759,0
534898,380.63,552,756,0
534908,385.67,552,759,0
534918,389.84,552,755,0
534928,392.03,552,759,0
534938,393.31,552,756,0
534948,392.79,552,759,0
534958,391.57,552,755,0
534968,388.87,552,759,0
534978,385.82,552,756,0
534988,381.67,552,759,0
534999,377.74,552,756,0
535009,373.32,552,759,0
535019,370.05,552,757,0
535029,367.68,552,758,0
535040,368.20,552,758,0
535049,371.66,552,759,0
535059,380.37,552,757,0
535069,394.45,552,758,0
535079,415.74,552,758,0
535089,442.99,552,759,0
535099,476.51,552,757,0
535109,513.77,552,758,0
535119,553.74,552,758,0
535138,592.77,552,756,0
535141,628.93,552,759,0
535150,658.95,552,757,0
535160,681.94,552,759,0
535170,695.84,552,758,0
535180,700.95,552,759,0
535190,696.59,552,757,0
535200,684.37,552,759,0
535211,664.80,552,757,0
535220,640.22,552,758,0
535230,611.35,552,757,0
535240,580.60,552,759,0
535250,548.49,552,757,0
535260,517.27,552,758,0
535270,486.94,552,757,0
535280,459.23,552,759,0
535290,433.53,552,757,0
535300,411.30,552,758,0
535310,391.71,552,757,0
535320,376.03,552,759,0
535330,363.29,552,757,0
535340,354.55,552,758,0
535350,348.51,552,757,0
535360,346.09,552,759,0
535370,346.10,552,757,0
535380,349.20,552,759,0
535390,353.94,552,757,0
535400,360.60,552,759,0
535410,367.71,552,757,0
535420,375.81,552,759,0
535430,383.37,552,757,0
535440,390.71,552,759,0
535450,396.46,552,757,0
535460,401.29,552,759,0
535470,404.12,552,758,0
535480,405.75,552,759,0
535490,405.40,552,757,0
535500,404.08,552,759,0
535511,401.14,552,757,0
535521,397.71,552,760,0
535531,393.21,552,756,0
535541,388.82,552,760,0
535552,384.16,552,756,0
535561,380.26,552,759,0
535571,376.92,552,756,0
535581,375.75,552,760,0
535591,377.15,552,756,0
535601,382.85,552,760,0
535611,393.61,552,756,0
535621,411.21,552,760,0
535631,435.79,552,756,0
535641,467.65,552,760,0
535651,505.21,552,756,0
535661,546.16,552,760,0
535681,587.47,542,760,0
535684,626.84,542,760,0
535693,661.82,542,755,0
535703,691.15,542,760,0
535713,713.04,542,755,0
535724,726.23,542,760,0
535734,730.88,542,755,0
535744,727.40,542,760,0
535754,716.35,542,755,0
535764,697.90,542,760,0
535774,672.86,542,755,0
535784,642.39,542,760,0
535794,608.67,542,755,0
535804,573.20,542,760,0
535814,537.87,542,754,0
535824,503.54,542,760,0
535834,471.53,542,755,0
535844,442.02,542,760,0
535854,415.95,542,755,0
535864,393.34,542,760,0
535874,374.81,542,755,0
535884,359.95,542,760,0
535895,349.21,542,755,0
535905,342.03,542,760,0
535915,338.72,542,755,0
535925,338.38,542,759,0
535936,341.05,542,755,0
535945,345.58,542,760,0
535955,352.05,542,755,0
535965,359.19,542,759,0
535975,367.19,542,755,0
535985,374.72,542,760,0
535995,382.00,542,755,0
536005,388.00,542,759,0
536015,393.19,542,755,0
536025,396.65,542,760,0
536035,398.98,542,755,0
536045,399.46,542,759,0
536055,398.85,542,755,0
536065,396.58,542,760,0
536075,393.53,542,755,0
536085,389.30,542,759,0
536095,384.93,542,755,0
536105,380.15,542,759,0
536115,376.20,542,755,0
536125,373.31,542,759,0
536135,373.48,542,755,0
536145,377.23,542,759,0
536155,386.59,542,755,0
536165,402.06,542,759,0
536175,425.31,542,755,0
536185,455.73,542,760,0
536195,492.93,542,755,0
536205,533.92,542,759,0
536224,576.07,544,759,0
536227,616.51,544,759,0
536236,653.30,544,756,0
536246,684.28,544,759,0
536256,707.94,544,756,0
536266,722.14,544,759,0
536276,727.37,544,757,0
536286,724.09,544,759,0
536296,713.09,544,756,0
536306,694.38,544,759,0
536316,668.89,544,757,0
536326,637.68,544,759,0
536336,603.58,544,756,0
536346,567.32,544,759,0
536356,531.18,544,757,0
536366,495.64,544,759,0
536376,462.58,544,756,0
536386,431.80,544,759,0
536396,404.69,544,757,0
536407,380.70,544,758,0
536417,361.16,544,757,0
536427,345.17,544,758,0
536437,333.80,544,758,0
536448,325.89,544,757,0
536457,322.32,544,758,0
536467,321.67,544,758,0
536477,324.51,544,758,0
536487,329.37,544,758,0
536497,336.63,544,758,0
536507,344.71,544,758,0
536517,354.06,544,758,0
536527,362.91,544,757,0
536537,371.90,544,758,0
536547,379.34,544,758,0
536557,385.92,544,758,0
536567,390.45,544,758,0
536577,393.74,544,758,0
536587,394.80,544,758,0
536597,394.65,544,758,0
536607,392.44,544,758,0
536617,389.61,544,758,0
536627,385.35,544,758,0
536637,381.01,544,758,0
536647,375.90,544,758,0
536657,371.78,544,758,0
536667,368.67,544,758,0
536677,368.68,544,758,0
536687,372.29,544,758,0
536697,381.81,544,759,0
536707,397.38,544,758,0
536717,420.75,544,758,0
536727,450.87,544,758,0
536737,487.72,544,759,0
536748,528.48,544,758,0
536758,570.68,544,759,0
536777,611.10,553,759,0
536780,647.67,553,761,0
536790,677.21,553,756,0
536799,698.41,553,760,0
536809,709.08,553,756,0
536819,709.74,553,760,0
536829,700.69,553,756,0
536839,683.38,553,760,0
536849,658.46,553,756,0
536859,628.02,553,760,0
536869,593.26,553,756,0
536879,556.88,553,760,0
536889,519.80,553,756,0
536899,483.82,553,760,0
536909,449.20,553,756,0
536919,417.51,553,760,0
536929,388.60,553,756,0
536939,363.56,553,760,0
536949,342.01,553,756,0
536960,324.56,553,760,0
536969,311.02,553,756,0
536979,301.76,553,760,0
536989,296.09,553,756,0
536999,294.39,553,760,0
537009,295.69,553,756,0
537019,300.07,553,760,0
537029,306.52,553,756,0
537039,314.93,553,760,0
537049,324.08,553,756,0
537059,333.96,553,760,0
537069,343.44,553,756,0
537079,352.52,553,760,0
537089,360.21,553,756,0
537099,366.66,553,760,0
537109,371.18,553,756,0
537119,374.12,553,760,0
537129,375.03,553,755,0
537139,374.42,553,760,0
537149,372.15,553,756,0
537159,368.93,553,760,0
537169,364.67,553,755,0
537179,360.10,553,760,0
537189,355.35,553,756,0
537199,351.39,553,760,0
537209,348.66,553,755,0
537219,348.68,553,760,0
537229,352.16,553,756,0
537239,360.98,553,760,0
537249,375.99,553,755,0
537260,398.58,553,760,0
537270,428.40,553,755,0
537280,464.84,553,760,0
537290,505.90,553,755,0
537300,549.30,553,760,0
537319,591.85,542,760,0
537322,630.47,542,761,0
537331,662.39,542,755,0
537341,685.41,542,760,0
537351,698.45,542,754,0
537361,700.84,542,760,0
537371,693.17,542,755,0
537381,676.15,542,760,0
537391,651.81,542,754,0
537401,621.39,542,760,0
537411,587.12,542,754,0
537421,550.27,542,760,0
537431,512.94,542,754,0
537441,476.19,542,760,0
537451,441.59,542,754,0
537461,409.36,542,760,0
537472,380.49,542,755,0
537481,355.10,542,760,0
537491,333.86,542,754,0
537501,316.33,542,760,0
537511,302.99,542,755,0
537521,293.35,542,760,0
537531,287.59,542,755,0
537541,284.92,542,760,0
537551,285.46,542,755,0
537561,288.28,542,760,0
537571,293.42,542,755,0
537581,299.85,542,760,0
537591,307.53,542,755,0
537601,315.60,542,760,0
537611,323.95,542,755,0
537621,331.68,542,760,0
537631,338.97,542,754,0
537641,345.02,542,760,0
537651,350.12,542,755,0
537661,353.68,542,760,0
537671,355.96,542,755,0
537681,356.57,542,760,0
537691,356.06,542,755,0
537701,354.16,542,760,0
537711,351.54,542,754,0
537721,347.90,542,760,0
537731,344.03,542,755,0
537741,340.08,542,760,0
537751,337.27,542,754,0
537761,335.99,542,760,0
537772,338.01,542,755,0
537782,344.13,542,760,0
537792,356.39,542,755,0
537802,375.09,542,760,0
537812,401.25,542,755,0
537822,433.62,542,760,0
537832,471.53,542,755,0
537842,512.22,542,759,0
537862,553.76,542,759,0
537865,592.24,542,758,0
537874,625.76,542,757,0
537884,651.04,542,758,0
537894,667.52,542,758,0
537904,673.80,542,759,0
537914,670.56,542,757,0
537924,657.62,542,758,0
537934,637.29,542,758,0
537944,610.33,542,758,0
537954,579.50,542,757,0
537964,545.45,542,758,0
537974,510.65,542,758,0
537985,475.52,542,758,0
537995,442.24,542,758,0
538005,410.79,542,757,0
538015,382.61,542,759,0
538025,357.27,542,757,0
538035,336.15,542,758,0
538045,318.36,542,758,0
538055,305.05,542,759,0
538065,295.14,542,757,0
538075,289.27,542,758,0
538085,286.23,542,757,0
538095,286.68,542,759,0
538105,289.26,542,757,0
538115,294.50,542,758,0
538125,300.95,542,758,0
538135,309.06,542,759,0
538145,317.53,542,757,0
538156,326.80,542,759,0
538166,335.43,542,757,0
538176,343.87,542,760,0
538186,350.98,542,756,0
538196,357.20,542,760,0
538206,361.51,542,757,0
538216,364.62,542,760,0
538226,365.76,542,756,0
538236,365.87,542,760,0
538246,364.41,542,757,0
538256,362.23,542,760,0
538266,359.08,542,756,0
538276,355.92,542,760,0
538286,352.73,542,757,0
538296,350.93,542,760,0
538306,350.86,542,756,0
538316,354.55,542,760,0
538327,362.83,542,756,0
538337,377.54,542,760,0
538347,398.97,542,755,0
538357,427.65,542,761,0
538368,462.17,542,755,0
538377,501.25,542,760,0
538396,541.93,535,760,0
538399,581.59,535,760,0
538408,617.29,535,755,0
538418,646.73,535,760,0
538428,667.47,535,755,0
538438,678.73,535,761,0
538448,680.05,535,754,0
538458,672.32,535,760,0
538468,656.37,535,755,0
538478,633.20,535,760,0
538488,604.55,535,754,0
538498,572.50,535,760,0
538508,538.49,535,755,0
538518,504.02,535,760,0
538528,469.94,535,754,0
538539,437.43,535,760,0
538548,407.47,535,755,0
538558,380.50,535,760,0
538568,356.87,535,754,0
538578,336.89,535,760,0
538588,320.81,535,755,0
538598,308.70,535,760,0
538608,300.56,535,754,0
538618,296.11,535,760,0
538628,295.13,535,755,0
538638,297.28,535,760,0
538648,302.17,535,754,0
538658,309.06,535,760,0
538668,317.44,535,755,0
538678,326.65,535,760,0
538688,336.14,535,754,0
538698,345.27,535,760,0
538708,353.68,535,755,0
538718,360.84,535,760,0
538728,366.72,535,754,0
538738,371.00,535,760,0
538748,373.83,535,755,0
538758,375.17,535,760,0
538768,375.12,535,754,0
538778,373.67,535,760,0
538788,371.24,535,755,0
538798,368.00,535,760,0
538808,364.40,535,754,0
538818,360.68,535,760,0
538828,357.73,535,755,0
538839,356.40,535,760,0
538849,358.16,535,754,0
538859,364.11,535,760,0
538869,375.99,535,755,0
538880,394.55,535,760,0
538889,420.49,535,754,0
538899,453.04,535,760,0
538909,491.51,535,755,0
538919,533.32,535,760,0
538938,575.82,542,759,0
538941,615.95,542,760,0
538950,651.75,542,755,0
538960,680.02,542,759,0
538970,699.86,542,755,0
538980,709.50,542,760,0
538990,709.57,542,755,0
539000,700.22,542,759,0
539010,682.93,542,755,0
539020,658.18,542,760,0
539030,628.60,542,755,0
539040,594.99,542,759,0
539051,559.94,542,755,0
539060,524.17,542,759,0
539070,489.83,542,755,0
539080,456.88,542,759,0
539090,426.92,542,755,0
539100,399.81,542,759,0
539110,376.64,542,755,0
539120,356.78,542,759,0
539130,341.07,542,755,0
539140,328.75,542,759,0
539150,320.73,542,755,0
539160,315.79,542,759,0
539170,314.48,542,755,0
539180,315.62,542,759,0
539190,319.68,542,755,0
539200,325.26,542,759,0
539210,332.77,542,756,0
539220,340.68,542,759,0
539230,349.39,542,755,0
539240,357.55,542,759,0
539250,365.70,542,756,0
539260,372.47,542,759,0
539270,378.50,542,755,0
539280,382.64,542,759,0
539290,385.75,542,756,0
539300,386.94,542,759,0
539310,387.21,542,755,0
539320,385.73,542,759,0
539330,383.63,542,756,0
539340,380.27,542,759,0
539351,376.93,542,756,0
539361,373.09,542,759,0
539371,370.54,542,757,0
539381,369.22,542,758,0
539392,371.42,542,758,0
539401,377.51,542,759,0
539411,389.92,542,757,0
539421,408.93,542,758,0
539431,436.12,542,758,0
539441,469.90,542,759,0
539451,509.83,542,757,0
539461,552.05,542,758,0
539481,594.34,542,757,0
539484,633.66,542,757,0
539493,668.35,542,759,0
539503,696.53,542,757,0
539513,717.33,542,760,0
539523,728.84,542,757,0
539533,732.15,542,759,0
539543,727.13,542,757,0
539553,714.49,542,760,0
539564,694.16,542,757,0
539574,666.73,542,760,0
539584,633.47,542,756,0
539594,596.98,542,760,0
539604,558.55,542,756,0
539614,520.62,542,760,0
539624,483.71,542,756,0
539634,449.60,542,760,0
539644,418.56,542,756,0
539654,391.61,542,760,0
539664,368.45,542,756,0
539674,349.80,542,760,0
539684,335.12,542,756,0
539694,324.97,542,760,0
539704,318.55,542,756,0
539714,316.16,542,760,0
539724,316.92,542,756,0
539735,320.93,542,760,0
539745,327.21,542,755,0
539755,335.50,542,761,0
539765,344.82,542,755,0
539776,354.86,542,760,0
539785,364.68,542,755,0
539795,373.94,542,760,0
539805,381.89,542,755,0
539815,388.35,542,760,0
539825,393.05,542,755,0
539835,395.99,542,760,0
539845,397.06,542,755,0
539855,396.49,542,760,0
539865,394.41,542,755,0
539875,391.25,542,760,0
539885,387.19,542,755,0
539895,382.84,542,760,0
539905,378.82,542,755,0
539915,376.52,542,760,0
539925,377.09,542,755,0
539935,382.25,542,760,0
539945,393.57,542,754,0
539955,412.43,542,761,0
539965,439.34,542,755,0
539975,474.43,542,761,0
539985,515.01,542,755,0
539995,558.04,542,760,0
540014,600.50,534,760,0
540017,639.82,534,760,0
540026,673.99,534,755,0
540036,701.59,534,760,0
540046,721.81,534,755,0
540056,735.97,534,760,0
540066,743.78,534,754,0
540076,744.92,534,760,0
540086,739.03,534,755,0
540096,725.73,534,760,0
540106,705.03,534,755,0
540116,676.86,534,760,0
540126,641.93,534,755,0
540136,602.70,534,760,0
540146,561.30,534,755,0
540156,519.51,534,760,0
540166,479.29,534,755,0
540176,441.66,534,760,0
540186,408.07,534,755,0
540196,378.52,534,760,0
540206,353.81,534,755,0
540216,334.11,534,760,0
540226,319.89,534,755,0
540236,310.62,534,760,0
540247,306.54,534,755,0
540257,306.63,534,760,0
540267,311.03,534,755,0
540277,318.43,534,760,0
540288,328.63,534,755,0
540297,340.14,534,760,0
540307,352.57,534,755,0
540317,364.44,534,759,0
540327,375.80,534,755,0
540337,385.41,534,760,0
540347,393.56,534,755,0
540357,399.18,534,759,0
540367,402.98,534,755,0
540377,404.49,534,760,0
540387,404.51,534,755,0
540397,402.43,534,760,0
540407,399.26,534,755,0
540417,394.68,534,760,0
540427,389.98,534,755,0
540437,385.18,534,759,0
540447,382.26,534,755,0
540457,381.92,534,760,0
540467,386.57,534,755,0
540477,397.29,534,759,0
540487,416.44,534,755,0
540497,444.21,534,760,0
540507,480.79,534,755,0
540517,522.21,534,759,0
540527,565.86,534,755,0
540537,608.55,534,760,0
540556,647.98,542,759,0
540559,681.46,542,758,0
540568,707.81,542,756,0
540578,726.29,542,759,0
540588,739.28,542,756,0
540598,747.25,542,759,0
540608,749.58,542,756,0
540618,744.86,542,759,0
540628,732.99,542,757,0
540638,713.41,542,759,0
540648,686.37,542,756,0
540658,651.50,542,759,0
540668,610.89,542,757,0
540678,566.57,542,759,0
540688,521.83,542,756,0
540698,477.65,542,759,0
540708,436.27,542,757,0
540718,398.22,542,759,0
540728,365.41,542,756,0
540738,337.43,542,759,0
540748,315.57,542,757,0
540759,298.99,542,758,0
540769,288.70,542,758,0
540779,283.44,542,758,0
540789,283.69,542,758,0
540800,287.77,542,758,0
540809,295.81,542,758,0
540819,305.98,542,758,0
540829,318.42,542,758,0
540839,331.15,542,758,0
540849,344.30,542,758,0
540859,356.00,542,758,0
540869,366.76,542,758,0
540879,375.19,542,758,0
540889,382.03,542,758,0
540899,386.14,542,758,0
540909,388.54,542,758,0
540919,388.46,542,757,0
540929,387.21,542,757,0
540939,384.06,542,758,0
540949,380.49,542,758,0
540959,375.93,542,758,0
540969,372.22,542,758,0
540979,369.45,542,758,0
540989,370.05,542,758,0
540999,374.88,542,758,0
541009,386.78,542,759,0
541019,406.09,542,758,0
541029,434.82,542,759,0
541039,471.99,542,758,0
541049,514.72,542,759,0
541059,559.38,542,758,0
541069,603.45,542,758,0
541079,643.64,542,758,0
541099,678.42,542,757,0
541102,705.55,542,756,0
541111,724.67,542,760,0
541121,738.06,542,756,0
541131,746.27,542,760,0
541142,747.69,542,756,0
541151,742.08,542,760,0
541161,728.26,542,756,0
541171,706.28,542,760,0
541181,675.81,542,756,0
541191,637.77,542,760,0
541201,593.35,542,756,0
541211,546.19,542,760,0
541221,497.96,542,756,0
541231,451.56,542,760,0
541241,407.93,542,756,0
541251,368.91,542,760,0
541261,334.44,542,756,0
541271,305.85,542,760,0
541281,282.88,542,756,0
541291,266.29,542,760,0
541301,255.23,542,756,0
541312,249.98,542,760,0
541321,249.47,542,756,0
541331,253.74,542,760,0
541341,261.41,542,756,0
541351,272.38,542,761,0
541361,284.91,542,756,0
541371,298.91,542,760,0
541381,313.08,542,756,0
541391,327.16,542,760,0
541401,339.88,542,756,0
541411,351.27,542,760,0
541421,360.32,542,756,0
541431,367.42,542,760,0
541441,371.93,542,756,0
541451,374.30,542,760,0
541461,374.21,542,756,0
541471,372.39,542,760,0
541481,368.85,542,755,0
541491,364.61,542,760,0
541501,360.05,542,756,0
541511,356.82,542,761,0
541521,356.19,542,755,0
541531,360.42,542,760,0
541541,370.92,542,756,0
541551,389.93,542,761,0
541561,418.11,542,755,0
541571,455.62,542,760,0
541581,499.10,542,756,0
541591,545.27,542,761,0
541601,590.92,542,755,0
541612,633.46,542,761,0
541622,670.09,542,755,0
541632,699.25,542,761,0
541642,720.18,542,755,0
541652,734.09,542,760,0
541662,740.79,542,755,0
541681,739.66,583,754,0
541684,729.60,583,755,0
541693,710.82,583,760,0
541703,683.70,583,754,0
541713,648.26,583,760,0
541723,605.84,583,755,0
541733,558.88,583,760,0
541743,510.44,583,755,0
541753,463.17,583,760,0
541763,418.46,583,755,0
541773,377.22,583,760,0
541783,340.85,583,754,0
541793,309.78,583,760,0
541803,284.86,583,754,0
541813,265.79,583,760,0
541824,252.91,583,755,0
541833,245.78,583,760,0
541843,244.17,583,755,0
541853,247.25,583,760,0
541863,254.68,583,755,0
541873,265.19,583,760,0
541883,278.29,583,755,0
541893,292.64,583,760,0
541903,307.84,583,755,0
541913,322.67,583,760,0
541923,336.74,583,755,0
541933,348.99,583,760,0
541943,359.49,583,755,0
541953,367.49,583,760,0
541963,373.30,583,755,0
541973,376.42,583,760,0
541983,377.45,583,755,0
541993,376.20,583,760,0
542003,373.53,583,755,0
542013,369.47,583,760,0
542023,365.26,583,754,0
542033,361.54,583,760,0
542043,360.05,583,755,0
542053,362.22,583,760,0
542063,370.42,583,754,0
542073,385.98,583,760,0
542083,410.25,583,755,0
542093,443.13,583,760,0
542103,483.68,583,754,0
542113,528.22,583,760,0
542124,573.71,583,755,0
542134,616.91,583,760,0
542144,655.42,583,755,0
542154,687.44,583,760,0
542164,711.99,583,755,0
542174,727.81,583,760,0
542184,735.32,583,755,0
542194,734.03,583,759,0
542204,724.25,583,756,0
542223,705.83,542,754,0
542226,678.80,542,757,0
542235,643.54,542,759,0
542245,602.41,542,756,0
542255,557.46,542,759,0
542265,511.72,542,755,0
542275,466.33,542,759,0
542285,423.50,542,756,0
542295,384.18,542,759,0
542305,349.63,542,755,0
542315,319.65,542,759,0
542325,295.54,542,756,0
542336,276.65,542,758,0
542345,263.98,542,755,0
542355,256.36,542,759,0
542365,254.41,542,756,0
542375,256.64,542,758,0
542385,263.31,542,756,0
542395,272.60,542,759,0
542405,284.76,542,756,0
542415,297.91,542,758,0
542425,312.16,542,755,0
542435,325.79,542,759,0
542445,339.05,542,756,0
542455,350.39,542,758,0
542465,360.35,542,755,0
542475,367.66,542,759,0
542485,373.16,542,756,0
542495,375.90,542,758,0
542505,376.91,542,757,0
542515,375.57,542,759,0
542525,373.13,542,756,0
542535,369.10,542,758,0
542545,365.17,542,757,0
542555,361.22,542,759,0
542565,359.61,542,756,0
542575,360.97,542,758,0
542585,368.09,542,758,0
542595,381.52,542,759,0
542605,403.61,542,756,0
542615,433.90,542,758,0
542625,472.84,542,758,0
542636,516.39,542,758,0
542646,561.79,542,758,0
542656,605.44,542,758,0
542666,645.51,542,759,0
542676,679.38,542,757,0
542686,706.22,542,758,0
542696,723.60,542,758,0
542706,732.25,542,758,0
542716,731.79,542,757,0
542735,723.07,512,757,0
542738,705.35,512,757,0
542747,679.70,512,759,0
542757,645.98,512,756,0
542767,606.94,512,759,0
542777,564.10,512,757,0
542787,520.66,512,759,0
542797,477.26,512,756,0
542807,436.68,512,759,0
542817,398.76,512,757,0
542827,365.23,512,759,0
542837,335.68,512,756,0
542848,311.39,512,760,0
542857,291.69,512,757,0
542867,277.47,512,759,0
542877,267.73,512,756,0
542887,263.14,512,760,0
542897,262.50,512,757,0
542907,266.03,512,759,0
542917,272.37,512,756,0
542927,281.64,512,760,0
542937,292.21,512,757,0
542947,304.23,512,759,0
542957,316.08,512,756,0
542967,327.92,512,760,0
542977,338.32,512,757,0
542987,347.69,512,759,0
542997,354.86,512,756,0
543007,360.51,512,760,0
543017,363.79,512,756,0
543027,365.57,512,759,0
543037,365.18,512,756,0
543047,363.63,512,760,0
543057,360.52,512,756,0
543067,357.15,512,759,0
543077,353.46,512,756,0
543087,351.31,512,760,0
543097,351.39,512,756,0
543107,355.86,512,759,0
543117,365.71,512,756,0
543127,383.16,512,760,0
543137,408.31,512,756,0
543148,441.90,512,760,0
543158,481.87,512,756,0
543168,525.93,512,760,0
543178,570.56,512,755,0
543198,613.38,462,754,0
543201,651.32,462,755,0
543210,681.87,462,760,0
543220,702.35,462,755,0
543230,711.85,462,760,0
543240,710.78,462,754,0
543250,700.00,462,760,0
543260,680.24,462,755,0
543270,652.23,462,760,0
543280,618.22,462,754,0
543290,580.27,462,760,0
543300,540.59,462,754,0
543310,500.51,462,760,0
543320,461.74,462,754,0
543330,425.31,462,760,0
543340,392.34,462,755,0
543350,362.88,462,760,0
543361,337.55,462,754,0
543371,316.25,462,760,0
543381,299.46,462,755,0
543391,286.68,462,760,0
543401,278.21,462,755,0
543411,273.30,462,760,0
543421,272.14,462,755,0
543431,273.81,462,760,0
543441,278.41,462,755,0
543451,284.89,462,760,0
543461,293.24,462,755,0
543471,302.25,462,760,0
543481,312.03,462,755,0
543491,321.49,462,760,0
543501,330.82,462,755,0
543511,338.93,462,760,0
543521,346.06,462,755,0
543532,351.49,462,759,0
543542,355.67,462,755,0
543552,357.91,462,759,0
543562,358.97,462,755,0
543572,358.21,462,759,0
543582,356.64,462,755,0
543592,354.01,462,759,0
543602,351.69,462,755,0
543612,349.81,462,759,0
543622,350.38,462,755,0
543632,354.04,462,759,0
543642,363.28,462,756,0
543652,378.59,462,759,0
543662,401.47,462,755,0
543672,431.16,462,759,0
543682,467.67,462,756,0
543692,508.39,462,759,0
543703,551.52,462,756,0
543722,593.02,525,756,0
543725,630.51,525,759,0
543734,660.66,525,758,0
543745,682.06,525,759,0
543755,692.54,525,757,0
543765,692.68,525,759,0
543775,682.06,525,757,0
543785,662.80,525,759,0
543795,635.99,525,757,0
543805,604.19,525,759,0
543815,568.52,525,757,0
543825,531.68,525,759,0
543835,494.45,525,757,0
543845,459.08,525,759,0
543855,425.63,525,757,0
543865,395.48,525,759,0
543875,368.38,525,757,0
543885,345.60,525,759,0
543895,326.52,525,757,0
543905,311.92,525,759,0
543916,300.97,525,756,0
543926,294.42,525,760,0
543936,291.30,525,756,0
543946,291.94,525,760,0
543956,295.13,525,756,0
543966,301.05,525,760,0
543976,308.40,525,756,0
543986,317.33,525,760,0
543996,326.61,525,756,0
544006,336.29,525,760,0
544016,345.29,525,756,0
544026,353.77,525,760,0
544036,360.83,525,756,0
544046,366.88,525,760,0
544056,371.11,525,756,0
544066,374.04,525,760,0
544076,375.18,525,756,0
544087,375.09,525,760,0
544097,373.56,525,755,0
544107,371.38,525,760,0
544117,368.69,525,755,0
544128,366.73,525,760,0
544137,366.17,525,755,0
544147,368.82,525,760,0
544157,375.94,525,755,0
544167,389.12,525,760,0
544177,408.97,525,755,0
544187,435.93,525,760,0
544197,469.21,525,755,0
544207,507.51,525,760,0
544217,548.11,525,755,0
544236,588.58,514,754,0
544239,625.69,514,755,0
544248,657.03,514,760,0
544258,680.33,514,754,0
544268,694.38,514,760,0
544278,698.42,514,754,0
544288,692.77,514,760,0
544299,678.14,514,754,0
544308,656.15,514,760,0
544318,628.38,514,755,0
544328,596.38,514,760,0
544338,561.89,514,754,0
544348,526.57,514,760,0
544358,491.86,514,754,0
544368,458.51,514,760,0
544378,427.46,514,754,0
544388,399.25,514,760,0
544398,374.53,514,754,0
544408,353.33,514,760,0
544418,335.92,514,754,0
544428,322.27,514,760,0
544438,312.50,514,754,0
544448,306.22,514,760,0
544458,303.33,514,754,0
544468,303.32,514,760,0
544478,305.96,514,754,0
544488,310.56,514,760,0
544498,316.86,514,754,0
544508,324.15,514,760,0
544518,332.16,514,754,0
544528,340.21,514,760,0
544538,348.08,514,754,0
544548,355.17,514,760,0
544558,361.46,514,754,0
544568,366.42,514,760,0
544578,370.28,514,754,0
544588,372.60,514,760,0
544599,373.75,514,755,0
544609,373.39,514,760,0
544619,372.29,514,755,0
544629,370.36,514,759,0
544640,368.84,514,755,0
544649,368.12,514,760,0
544659,369.92,514,755,0
544669,375.26,514,759,0
544679,386.28,514,755,0
544689,403.38,514,760,0
544699,427.91,514,755,0
544709,458.97,514,760,0
544719,496.31,514,755,0
544729,537.19,514,760,0
544748,578.92,512,759,0
544751,618.50,512,759,0
544760,654.35,512,756,0
544770,683.22,512,759,0
544780,703.85,512,755,0
544790,714.35,512,759,0
544800,715.40,512,756,0
544811,707.31,512,759,0
544820,691.45,512,755,0
544830,667.87,512,759,0
544840,639.02,512,756,0
544850,605.89,512,759,0
544860,571.12,512,755,0
544870,535.21,512,759,0
544880,500.39,512,755,0
544890,466.50,512,759,0
544900,435.45,512,755,0
544910,406.90,512,759,0
544920,382.12,512,755,0
544930,360.35,512,759,0
544940,342.76,512,755,0
544950,328.48,512,759,0
544960,318.48,512,756,0
544970,311.60,512,759,0
544980,308.64,512,756,0
544990,308.27,512,759,0
545000,311.06,512,755,0
545010,315.59,512,759,0
545020,322.27,512,756,0
545030,329.56,512,759,0
545040,337.88,512,756,0
545050,345.84,512,759,0
545060,353.99,512,756,0
545070,360.89,512,759,0
545080,367.23,512,756,0
545090,371.79,512,759,0
545100,375.49,512,756,0
545111,377.23,512,758,0
545121,377.89,512,757,0
545131,376.72,512,758,0
545141,375.01,512,758,0
545152,372.30,512,757,0
545161,370.41,512,757,0
545171,369.35,512,758,0
545181,371.64,512,758,0
545191,377.71,512,757,0
545201,389.79,512,757,0
545211,408.07,512,758,0
545221,433.94,512,758,0
545231,465.97,512,757,0
545241,503.74,512,757,0
545251,544.10,512,758,0
545270,585.04,522,757,0
545273,623.34,522,756,0
545282,657.40,522,759,0
545292,683.64,522,758,0
545302,701.32,522,759,0
545312,708.85,522,757,0
545323,706.97,522,759,0
545332,696.01,522,758,0
545342,677.32,522,759,0
545352,651.25,522,757,0
545362,620.62,522,759,0
545372,586.40,522,757,0
545382,551.01,522,759,0
545392,514.97,522,757,0
545402,480.09,522,759,0
545412,446.63,522,757,0
545422,416.23,522,759,0
545432,388.56,522,757,0
545442,364.69,522,759,0
545452,344.04,522,757,0
545462,327.70,522,759,0
545472,314.85,522,757,0
545482,306.24,522,759,0
545492,300.81,522,757,0
545502,299.11,522,759,0
545512,299.93,522,757,0
545522,303.68,522,759,0
545532,309.09,522,756,0
545542,316.39,522,759,0
545552,324.12,522,757,0
545562,332.57,522,759,0
545572,340.45,522,756,0
545582,348.20,522,759,0
545592,354.57,522,757,0
545602,360.01,522,759,0
545612,363.61,522,756,0
545623,366.13,522,760,0
545633,366.82,522,756,0
545643,366.53,522,760,0
545653,364.70,522,756,0
545664,362.52,522,760,0
545673,359.92,522,756,0
545683,358.53,522,760,0
545693,358.88,522,756,0
545703,362.91,522,760,0
545713,371.12,522,756,0
545723,385.48,522,760,0
545733,406.21,522,756,0
545743,433.79,522,760,0
545753,466.55,522,756,0
545763,503.50,522,760,0
545773,541.71,522,756,0
545793,579.38,522,755,0
545796,613.04,522,756,0
545805,640.50,522,760,0
545815,659.72,522,754,0
545825,670.00,522,760,0
545836,670.77,522,755,0
545846,662.57,522,760,0
545856,646.16,522,755,0
545866,623.01,522,760,0
545876,594.98,522,755,0
545886,563.48,522,760,0
545896,530.47,522,755,0
545906,496.77,522,760,0
545916,464.14,522,755,0
545926,433.15,522,760,0
545936,404.91,522,754,0
545946,379.39,522,760,0
545956,357.33,522,755,0
545966,338.46,522,760,0
545976,323.49,522,755,0
545986,311.86,522,760,0
545996,304.02,522,755,0
546007,299.30,522,759,0
546017,297.92,522,755,0
546027,299.10,522,759,0
546037,302.89,522,755,0
546048,308.23,522,759,0
546057,315.24,522,755,0
546067,322.62,522,760,0
546077,330.62,522,755,0
546087,337.98,522,759,0
546097,344.97,522,755,0
546107,350.64,522,759,0
546117,355.59,522,755,0
546127,358.80,522,759,0
546137,361.09,522,755,0
546147,361.66,522,759,0
546157,361.55,522,755,0
546167,360.18,522,759,0
546177,358.67,522,755,0
546187,356.80,522,760,0
546197,356.43,522,755,0
546207,357.80,522,759,0
546217,363.05,522,755,0
546227,372.38,522,759,0
546237,387.56,522,755,0
546247,408.35,522,759,0
546257,435.33,522,755,0
546267,466.47,522,760,0
546277,500.96,522,755,0
546287,535.60,522,759,0
546307,568.98,514,758,0
546310,597.57,514,758,0
546319,620.50,514,758,0
546329,635.22,514,758,0
546339,642.05,514,758,0
546349,640.02,514,758,0
546359,630.67,514,758,0
546369,613.89,514,758,0
546379,592.23,514,758,0
546390,565.89,514,758,0
546399,537.68,514,758,0
546409,507.73,514,757,0
546419,478.11,514,758,0
546429,448.81,514,757,0
546439,421.78,514,758,0
546449,396.56,514,758,0
546459,374.49,514,758,0
546469,354.63,514,758,0
546479,338.28,514,758,0
546489,324.57,514,758,0
546499,314.58,514,758,0
546509,307.21,514,758,0
546519,303.20,514,758,0
546529,301.39,514,758,0
546539,302.47,514,758,0
546549,305.11,514,758,0
546560,309.88,514,758,0
546569,315.19,514,758,0
546579,321.65,514,758,0
546589,327.92,514,758,0
546599,334.63,514,759,0
546609,340.40,514,758,0
546619,345.89,514,758,0
546629,350.04,514,758,0
546639,353.71,514,759,0
546649,355.77,514,758,0
546659,357.21,514,758,0
546669,357.11,514,757,0
546679,356.64,514,759,0
546689,355.21,514,758,0
546699,354.25,514,758,0
546709,353.53,514,758,0
546719,355.13,514,759,0
546729,359.20,514,757,0
546739,367.84,514,758,0
546749,380.96,514,758,0
546759,400.39,514,759,0
546769,425.00,514,757,0
546779,454.91,514,758,0
546789,487.68,514,758,0
546799,522.19,514,759,0
546819,555.35,512,758,0
546822,585.59,512,761,0
546831,610.10,512,756,0
546841,628.07,512,760,0
546851,637.78,512,756,0
546861,639.81,512,760,0
546871,633.74,512,756,0
546881,621.00,512,760,0
546891,602.27,512,756,0
546902,579.09,512,760,0
546911,552.54,512,756,0
546921,524.56,512,760,0
546931,495.68,512,756,0
546941,467.40,512,760,0
546951,440.11,512,756,0
546961,414.96,512,760,0
546971,392.00,512,756,0
546981,371.86,512,760,0
546991,354.33,512,756,0
547001,340.05,512,760,0
547011,328.59,512,756,0
547021,320.31,512,760,0
547031,314.56,512,756,0
547041,311.65,512,760,0
547051,310.90,512,756,0
547061,312.43,512,760,0
547072,315.43,512,755,0
547081,319.97,512,760,0
547091,325.21,512,756,0
547101,331.19,512,760,0
547111,337.09,512,755,0
547121,342.98,512,760,0
547131,348.08,512,756,0
547141,352.56,512,760,0
547151,355.82,512,755,0
547161,358.27,512,760,0
547171,359.43,512,756,0
547181,359.78,512,760,0
547191,359.07,512,755,0
547201,358.02,512,760,0
547211,356.69,512,756,0
547221,356.22,512,760,0
547231,357.10,512,755,0
547241,360.88,512,761,0
547251,368.29,512,756,0
547261,380.93,512,760,0
547271,399.25,512,755,0
547281,423.91,512,761,0
547291,453.76,512,756,0
547301,487.95,512,761,0
547311,524.13,512,755,0
547331,560.39,512,754,0
547334,593.83,512,755,0
547343,622.34,512,760,0
547353,643.71,512,754,0
547363,656.78,512,760,0
547373,661.30,512,755,0
547383,657.36,512,760,0
547393,645.64,512,754,0
547403,627.06,512,760,0
547414,603.30,512,755,0
547423,575.87,512,760,0
547433,546.46,512,754,0
547443,515.81,512,760,0
547453,485.52,512,755,0
547463,456.40,512,760,0
547473,429.45,512,754,0
547483,404.76,512,760,0
547493,382.97,512,755,0
547503,364.25,512,760,0
547513,349.01,512,754,0
547523,336.88,512,760,0
547533,328.08,512,755,0
547543,322.32,512,760,0
547553,319.74,512,754,0
547563,319.56,512,760,0
547573,321.79,512,755,0
547584,325.71,512,760,0
547593,331.37,512,754,0
547603,337.69,512,760,0
547613,344.68,512,755,0
547623,351.46,512,760,0
547633,358.14,512,754,0
547643,364.01,512,760,0
547653,369.24,512,755,0
547663,373.19,512,760,0
547673,376.35,512,754,0
547683,378.09,512,760,0
547693,378.96,512,755,0
547703,378.63,512,760,0
547713,377.80,512,754,0
547723,376.62,512,760,0
547733,376.43,512,755,0
547743,377.76,512,760,0
547753,382.59,512,755,0
547763,391.58,512,760,0
547773,406.58,512,755,0
547783,427.83,512,760,0
547793,455.53,512,755,0
547803,488.03,512,760,0
547813,524.36,512,755,0
547823,561.67,512,760,0
547843,597.98,512,759,0
547846,629.79,512,759,0
547855,655.61,512,756,0
547865,673.21,512,759,0
547875,682.45,512,756,0
547885,682.53,512,759,0
547895,674.40,512,756,0
547905,658.21,512,759,0
547915,636.16,512,756,0
547926,608.73,512,758,0
547935,578.55,512,756,0
547945,546.16,512,759,0
547955,513.50,512,756,0
547965,480.90,512,758,0
547975,450.33,512,756,0
547985,421.60,512,759,0
547995,396.18,512,756,0
548005,373.33,512,758,0
548015,354.37,512,756,0
548025,338.62,512,759,0
548035,327.03,512,756,0
548045,318.67,512,758,0
548055,314.22,512,756,0
548065,312.44,512,759,0
548075,313.98,512,756,0
548085,317.41,512,758,0
548096,323.25,512,757,0
548105,329.99,512,759,0
548115,338.01,512,756,0
548125,345.89,512,758,0
548135,354.11,512,757,0
548145,361.28,512,759,0
548155,368.05,512,756,0
548165,373.14,512,758,0
548175,377.47,512,757,0
548185,379.85,512,759,0
548195,381.40,512,756,0
548205,381.11,512,758,0
548215,380.35,512,757,0
548225,378.49,512,759,0
548235,377.05,512,756,0
548245,376.05,512,758,0
548255,377.75,512,757,0
548265,382.58,512,758,0
548275,392.87,512,756,0
548285,408.63,512,758,0
548295,431.59,512,757,0
548305,460.64,512,758,0
548315,495.46,512,757,0
548325,533.25,512,758,0
548335,572.43,512,757,0
548355,609.46,512,757,0
548358,642.32,512,760,0
548367,667.85,512,757,0
548377,685.26,512,759,0
548387,692.76,512,757,0
548397,691.29,512,759,0
548407,680.36,512,757,0
548417,661.87,512,759,0
548427,636.49,512,757,0
548438,606.60,512,760,0
548447,573.16,512,757,0
548457,538.66,512,759,0
548467,503.40,512,757,0
548477,469.51,512,760,0
548487,437.04,512,757,0
548497,407.63,512,759,0
548507,380.96,512,757,0
548517,358.04,512,760,0
548527,338.31,512,757,0
548537,322.79,512,759,0
548547,310.73,512,757,0
548557,302.84,512,760,0
548567,298.04,512,757,0
548577,296.87,512,759,0
548587,298.24,512,757,0
548597,302.45,512,760,0
548608,308.23,512,756,0
548617,315.75,512,759,0
548627,323.75,512,757,0
548637,332.57,512,760,0
548647,340.84,512,756,0
548657,349.03,512,759,0
548667,355.92,512,757,0
548677,362.03,512,760,0
548687,366.44,512,756,0
548697,369.82,512,759,0
548707,371.37,512,757,0
548717,371.90,512,760,0
548727,370.86,512,756,0
548737,369.45,512,759,0
548747,367.56,512,757,0
548757,366.96,512,760,0
548767,368.21,512,756,0
548777,373.55,512,760,0
548787,383.54,512,757,0
548797,400.22,512,760,0
548807,423.60,512,756,0
548817,454.19,512,760,0
548827,490.00,512,757,0
548837,529.90,512,760,0
548847,570.56,512,756,0
548867,609.95,512,755,0
548870,644.25,512,755,0
548879,671.60,512,761,0
548889,689.59,512,755,0
548899,697.73,512,760,0
548909,695.54,512,755,0
548919,683.93,512,760,0
548929,663.60,512,755,0
548939,636.46,512,760,0
548950,603.97,512,755,0
548959,568.32,512,760,0
548969,531.11,512,755,0
548979,493.62,512,760,0
548989,457.22,512,754,0
548999,423.08,512,760,0
549009,391.90,512,755,0
549019,364.20,512,760,0
549029,340.23,512,754,0
549039,320.27,512,760,0
549049,304.42,512,755,0
549059,292.59,512,760,0
549069,284.66,512,755,0
549079,280.39,512,760,0
549089,279.33,512,755,0
549099,281.16,512,760,0
549109,285.48,512,754,0
549120,291.81,512,760,0
549129,299.58,512,755,0
549139,308.28,512,760,0
549149,317.37,512,754,0
549159,326.47,512,760,0
549169,335.16,512,755,0
549179,342.95,512,760,0
549189,349.65,512,755,0
549199,354.90,512,760,0
549209,358.70,512,755,0
549219,361.02,512,760,0
549229,362.04,512,755,0
549239,361.77,512,761,0
549249,360.77,512,755,0
549259,359.72,512,762,0
549269,359.81,512,758,0
549279,362.31,512,760,0
549289,368.90,512,755,0
549299,380.72,512,760,0
549309,399.23,512,755,0
549319,424.96,512,760,0
549329,457.72,512,755,0
549339,496.03,512,761,0
549349,537.76,512,755,0
549359,579.79,512,760,0
549379,619.80,512,760,0
549382,654.23,512,760,0
549391,681.12,512,755,0
549401,698.05,512,760,0
549411,704.64,512,755,0
549421,700.50,512,760,0
549431,686.90,512,755,0
549441,664.21,512,760,0
549451,634.92,512,755,0
549462,599.89,512,759,0
549471,561.99,512,755,0
549481,522.22,512,760,0
549491,482.77,512,756,0
549501,444.18,512,759,0
549511,408.51,512,755,0
549521,375.79,512,759,0
549531,347.44,512,755,0
549541,322.96,512,759,0
549551,303.47,512,755,0
549561,288.25,512,760,0
549571,278.19,512,755,0
549581,272.04,512,759,0
549591,270.36,512,755,0
549601,271.79,512,759,0
549611,276.79,512,755,0
549621,283.88,512,759,0
549632,293.30,512,755,0
549641,303.50,512,760,0
549651,314.75,512,755,0
549661,325.58,512,760,0
549671,336.42,512,756,0
549681,345.85,512,760,0
549691,354.42,512,755,0
549701,360.98,512,759,0
549711,366.30,512,755,0
549721,369.51,512,760,0
549731,371.42,512,755,0
549741,371.38,512,759,0
549751,370.66,512,755,0
549761,369.14,512,759,0
549771,368.62,512,755,0
549781,369.68,512,759,0
549791,374.75,512,755,0
549801,384.77,512,759,0
549811,401.89,512,755,0
549821,426.27,512,759,0
549831,458.76,512,755,0
549841,497.62,512,759,0
549851,540.16,512,755,0
549861,582.93,512,760,0
549880,623.66,502,759,0
549883,659.85,502,758,0
549892,690.24,502,756,0
549902,711.51,502,759,0
549912,722.89,502,756,0
549922,724.29,502,758,0
549932,716.92,502,756,0
549942,700.61,502,759,0
549952,676.17,502,756,0
549962,643.72,502,758,0
549972,606.39,502,758,0
549982,565.52,502,759,0
549992,524.00,502,756,0
550002,482.35,502,758,0
550012,443.03,502,758,0
550022,406.21,502,759,0
550032,373.53,502,756,0
550042,344.57,502,758,0
550052,320.70,502,758,0
550062,301.03,502,759,0
550072,286.58,502,756,0
550082,276.29,502,758,0
550092,271.06,502,758,0
550103,269.63,502,758,0
550113,272.44,502,758,0
550123,277.97,502,758,0
550133,286.68,502,758,0
550144,297.02,502,757,0
550153,309.18,502,758,0
550163,321.47,502,758,0
550173,334.14,502,759,0
550183,345.76,502,757,0
550193,356.67,502,758,0
550203,365.56,502,758,0
550213,373.10,502,758,0
550223,378.22,502,758,0
550233,381.84,502,758,0
550243,383.04,502,757,0
550253,383.07,502,759,0
550263,381.55,502,758,0
550273,380.36,502,758,0
550283,379.86,502,757,0
550293,382.73,502,759,0
550303,389.84,502,757,0
550313,404.25,502,759,0
550323,426.16,502,758,0
550333,457.27,502,759,0
550343,495.50,502,758,0
550353,537.99,502,759,0
550363,581.24,502,758,0
550373,622.95,502,759,0
550392,660.00,512,758,0
550395,691.11,512,761,0
550404,714.48,512,757,0
550414,730.83,512,760,0
550424,742.24,512,757,0
550434,747.91,512,760,0
550444,746.78,512,757,0
550454,738.53,512,760,0
550464,722.30,512,757,0
550474,698.34,512,760,0
550484,666.48,512,756,0
550494,627.76,512,760,0
550504,584.38,512,757,0
550514,539.48,512,760,0
550524,494.51,512,756,0
550534,452.01,512,759,0
550544,412.71,512,757,0
550554,378.17,512,760,0
550564,348.07,512,756,0
550574,323.88,512,759,0
550584,305.02,512,757,0
550594,292.28,512,760,0
550604,284.70,512,756,0
550615,282.52,512,760,0
550625,284.63,512,756,0
550635,291.04,512,760,0
550645,300.24,512,755,0
550656,312.04,512,761,0
550665,324.89,512,756,0
550675,338.64,512,761,0
550685,351.90,512,755,0
550695,364.53,512,761,0
550705,375.47,512,756,0
550715,384.89,512,761,0
550725,391.99,512,755,0
550735,397.09,512,761,0
550745,399.85,512,756,0
550755,400.84,512,760,0
550765,400.16,512,755,0
550775,398.95,512,761,0
550785,397.90,512,756,0
550795,399.13,512,761,0
550805,404.27,512,755,0
550815,415.85,512,761,0
550825,435.61,512,755,0
550835,464.70,512,761,0
550845,501.13,512,755,0
550855,542.11,512,761,0
550865,584.50,512,755,0
550875,625.71,512,760,0
550885,662.78,512,755,0
550904,693.40,512,754,0
550907,716.13,512,756,0
550916,732.03,512,760,0
550926,743.16,512,755,0
550936,750.96,512,760,0
550946,756.41,512,755,0
550956,760.23,512,761,0
550966,761.96,512,755,0
550976,758.93,512,761,0
550986,749.31,512,755,0
550996,731.77,512,760,0
551006,706.00,512,755,0
551016,671.84,512,760,0
551026,629.63,512,755,0
551036,580.76,512,760,0
551046,529.27,512,755,0
551056,478.28,512,760,0
551066,430.41,512,755,0
551076,387.21,512,760,0
551086,350.12,512,755,0
551096,320.00,512,760,0
551106,297.59,512,754,0
551116,282.58,512,760,0
551127,274.82,512,755,0
551137,273.55,512,760,0
551147,278.23,512,755,0
551157,287.59,512,760,0
551168,300.70,512,755,0
551177,315.92,512,760,0
551187,332.40,512,755,0
551197,348.78,512,760,0
551207,364.53,512,755,0
551217,378.39,512,760,0
551227,390.18,512,755,0
551237,398.96,512,761,0
551247,405.23,512,757,0
551257,408.42,512,762,0
551267,409.41,512,758,0
551277,407.96,512,762,0
551287,405.91,512,760,0
551297,404.05,512,763,0
551307,405.07,512,759,0
551317,410.53,512,761,0
551327,423.61,512,757,0
551337,445.54,512,761,0
551347,477.57,512,757,0
551357,515.80,512,762,0
551367,557.77,512,757,0
551377,600.23,512,762,0
551387,640.66,512,758,0
551397,675.86,512,762,0
551407,703.89,512,758,0
551417,723.51,512,762,0
551427,737.28,512,758,0
551437,746.93,512,763,0
551447,753.68,512,759,0
551457,758.36,512,762,0
551468,761.68,512,759,0
551478,762.42,512,762,0
551488,758.26,512,758,0
551498,746.49,512,761,0
551508,726.37,512,759,0
551518,697.03,512,762,0
551528,658.92,512,758,0
551538,611.80,512,761,0
551548,558.59,512,759,0
551558,502.48,512,762,0
551568,448.17,512,758,0
551578,397.20,512,761,0
551588,352.57,512,759,0
551598,314.51,512,762,0
551608,285.17,512,758,0
551618,263.69,512,761,0
551628,251.10,512,759,0
551639,245.71,512,762,0
551649,248.03,512,759,0
551659,255.65,512,761,0
551669,268.78,512,758,0
551680,284.75,512,760,0
551689,303.34,512,758,0
551699,322.05,512,760,0
551709,340.94,512,759,0
551719,357.71,512,760,0
551729,372.88,512,758,0
551739,384.53,512,760,0
551749,393.63,512,758,0
551759,399.01,512,760,0
551769,402.01,512,758,0
551779,401.83,512,760,0
551789,400.47,512,758,0
551799,397.93,512,759,0
551809,396.88,512,758,0
551819,398.37,512,760,0
551829,406.10,512,759,0
551839,421.33,512,760,0
551849,447.07,512,760,0
551859,481.51,512,760,0
551869,522.03,512,759,0
551879,565.22,512,760,0
551889,608.65,512,760,0
551899,648.66,512,760,0
551909,683.05,512,759,0
551919,709.00,512,760,0
551929,727.22,512,760,0
551939,739.92,512,760,0
551949,748.86,512,759,0
551959,755.07,512,760,0
551969,757.75,512,760,0
551980,753.80,512,760,0
551990,742.16,512,760,0
552000,721.15,512,760,0
552010,690.98,512,761,0
552020,651.04,512,759,0
552030,602.60,512,760,0
552040,547.39,512,760,0
552050,490.57,512,761,0
552060,434.13,512,759,0
552070,381.89,512,760,0
552080,334.48,512,760,0
552090,294.48,512,761,0
552100,261.29,512,759,0
552110,236.56,512,760,0
552120,219.12,512,759,0
552130,209.87,512,760,0
552140,207.17,512,759,0
552151,211.32,512,761,0
552161,220.22,512,759,0
552171,233.91,512,761,0
552181,250.22,512,758,0
552192,269.01,512,761,0
552201,288.12,512,759,0
552211,307.42,512,761,0
552221,325.21,512,758,0
552231,341.43,512,761,0
552241,354.76,512,759,0
552251,365.72,512,761,0
552261,373.26,512,758,0
552271,378.24,512,761,0
552281,379.92,512,759,0
552291,379.65,512,761,0
552301,377.48,512,758,0
552311,375.41,512,761,0
552321,374.13,512,759,0
552331,376.70,512,761,0
552341,384.72,512,758,0
552351,401.39,512,761,0
552361,427.42,512,758,0
552371,463.42,512,762,0
552381,505.42,512,758,0
552391,550.81,512,761,0
552401,595.95,512,758,0
552411,638.27,512,761,0
552421,674.49,512,758,0
552431,702.97,512,761,0
552441,722.95,512,758,0
552451,736.98,512,761,0
552461,746.76,512,758,0
552471,751.42,512,761,0
552481,748.68,512,758,0
552492,737.63,512,762,0
552502,717.08,512,758,0
552512,687.10,512,761,0
552522,647.60,512,757,0
552532,599.29,512,762,0
552542,545.08,512,757,0
552552,489.12,512,761,0
552562,433.80,512,757,0
552572,382.00,512,762,0
552582,334.95,512,757,0
552592,294.33,512,762,0
552602,260.63,512,757,0
552612,234.34,512,762,0
552622,215.21,512,758,0
552632,203.53,512,762,0
552642,198.53,512,757,0
552652,200.00,512,762,0
552663,206.69,512,757,0
552673,217.88,512,762,0
552683,232.49,512,756,0
552693,249.40,512,762,0
552704,267.54,512,757,0
552713,285.89,512,762,0
552723,303.45,512,757,0
552733,319.69,512,762,0
552743,333.92,512,756,0
552753,345.73,512,762,0
552763,355.03,512,756,0
552773,361.49,512,762,0
552783,365.46,512,756,0
552793,366.91,512,761,0
552803,366.25,512,756,0
552813,363.95,512,762,0
552823,360.96,512,756,0
552833,358.53,512,762,0
552843,358.63,512,754,0
552853,363.07,512,760,0
552863,374.28,512,755,0
552873,393.91,512,760,0
552883,422.99,512,755,0
552893,461.39,512,761,0
552903,505.63,512,755,0
552913,552.11,512,760,0
552923,597.85,512,755,0
552933,639.77,512,761,0
552943,675.58,512,755,0
552953,703.69,512,760,0
552963,723.37,512,755,0
552973,736.29,512,761,0
552983,741.60,512,755,0
552993,738.34,512,760,0
553004,726.11,512,755,0
553014,704.26,512,760,0
553024,673.24,512,755,0
553034,633.10,512,760,0
553044,585.54,512,755,0
553054,533.86,512,760,0
553064,481.32,512,755,0
553074,429.88,512,760,0
553084,382.22,512,755,0
553094,339.08,512,760,0
553104,302.03,512,755,0
553114,271.12,512,760,0
553124,247.17,512,755,0
553134,229.80,512,760,0
553144,219.28,512,755,0
553154,214.61,512,760,0
553164,215.84,512,755,0
553175,221.72,512,760,0
553185,231.92,512,755,0
553195,244.88,512,760,0
553205,260.39,512,755,0
553216,276.86,512,759,0
553225,294.00,512,755,0
553235,310.37,512,760,0
553245,325.86,512,755,0
553255,339.36,512,759,0
553265,350.91,512,755,0
553275,359.42,512,760,0
553285,365.72,512,755,0
553295,368.89,512,759,0
553305,369.95,512,755,0
553315,368.51,512,760,0
553325,365.83,512,755,0
553335,361.98,512,759,0
553345,358.77,512,755,0
553355,356.87,512,760,0
553365,359.05,512,755,0
553375,366.41,512,759,0
553385,381.71,512,756,0
553395,405.03,512,760,0
553405,437.76,512,755,0
553415,478.29,512,760,0
553425,523.38,512,756,0
553435,569.25,512,760,0
553445,613.32,512,755,0
553455,652.44,512,760,0
553465,685.43,512,756,0
553475,710.59,512,760,0
553485,726.66,512,756,0
553495,733.36,512,759,0
553505,731.11,512,756,0
553516,719.38,512,759,0
553526,698.69,512,756,0
553536,668.83,512,759,0
553546,630.86,512,757,0
553556,586.42,512,758,0
553566,539.32,512,756,0
553576,491.01,512,758,0
553586,444.59,512,757,0
553596,400.66,512,758,0
553606,361.42,512,756,0
553616,326.62,512,759,0
553626,297.81,512,757,0
553636,274.16,512,758,0
553646,256.80,512,756,0
553656,244.47,512,758,0
553666,237.99,512,757,0
553676,235.81,512,758,0
553687,238.44,512,758,0
553697,244.18,512,758,0
553707,253.34,512,758,0
553717,264.21,512,758,0
553728,277.05,512,759,0
553737,290.02,512,758,0
553747,303.47,512,758,0
553757,315.76,512,758,0
553767,327.49,512,759,0
553777,337.16,512,758,0
553787,345.51,512,758,0
553797,351.44,512,758,0
553807,355.94,512,759,0
553817,358.14,512,758,0
553827,359.13,512,758,0
553837,358.23,512,758,0
553847,357.01,512,758,0
553857,355.16,512,758,0
553867,354.86,512,758,0
553877,356.66,512,758,0
553887,363.32,512,759,0
553897,375.74,512,758,0
553907,396.04,512,758,0
553917,424.10,512,758,0
553927,460.76,512,759,0
553937,503.04,512,757,0
553947,548.12,512,758,0
553957,592.31,512,758,0
553976,633.45,0,757,0
553978,669.05,0,756,0
553988,698.14,0,759,0
553998,717.64,0,757,0
554008,727.43,0,759,0
554018,727.47,0,757,0
554028,718.72,0,759,0
554038,700.76,0,757,0
554048,674.39,0,759,0
554058,639.60,0,756,0
554068,599.22,0,760,0
554078,555.05,0,757,0
554088,510.17,0,759,0
554098,465.29,0,756,0
554108,422.94,0,760,0
554118,383.58,0,757,0
554128,348.82,0,759,0
554138,318.49,0,756,0
554148,293.57,0,760,0
554158,273.34,0,757,0
554168,258.71,0,759,0
554178,248.64,0,757,0
554188,243.61,0,760,0
554199,242.48,0,756,0
554209,245.47,0,760,0
554219,251.33,0,756,0
554229,260.23,0,760,0
554240,270.70,0,755,0
554249,282.96,0,760,0
554259,295.53,0,756,0
554269,308.36,0,760,0
554279,320.38,0,755,0
554289,331.62,0,760,0
554299,341.16,0,756,0
554309,349.34,0,760,0
554319,355.33,0,755,0
554329,359.60,0,760,0
554339,361.65,0,756,0
554349,362.18,0,760,0
554359,361.01,0,755,0
554369,359.17,0,760,0
554379,356.97,0,756,0
554389,356.17,0,760,0
554399,357.96,0,755,0
554409,364.70,0,761,0
554419,377.35,0,756,0
554429,398.03,0,760,0
554439,426.95,0,755,0
554449,464.29,0,761,0
554459,507.06,0,756,0
554469,552.09,0,760,0
554479,596.12,0,756,0
554499,637.01,522,755,0
554502,672.19,522,755,0
554511,700.46,522,760,0
554521,718.97,522,755,0
554531,727.21,522,760,0
554541,725.94,522,755,0
554551,715.16,522,760,0
554561,695.14,522,755,0
554571,666.21,522,760,0
554582,629.12,522,755,0
554591,586.61,522,760,0
554601,541.43,522,755,0
554611,495.27,522,760,0
554621,450.45,522,755,0
554631,408.31,522,760,0
554641,370.08,522,755,0
554651,336.24,522,760,0
554661,307.32,522,755,0
554671,283.57,522,760,0
554681,265.23,522,754,0
554691,251.92,522,760,0
554701,243.76,522,755,0
554711,240.10,522,760,0
554721,240.71,522,755,0
554731,244.91,522,760,0
554741,252.31,522,755,0
554752,262.03,522,760,0
554761,273.72,522,755,0
554771,286.41,522,760,0
554781,299.78,522,755,0
554791,312.83,522,760,0
554801,325.27,522,755,0
554811,336.33,522,760,0
554821,346.05,522,755,0
554831,353.79,522,760,0
554841,359.68,522,754,0
554851,363.38,522,760,0
554861,365.36,522,755,0
554871,365.38,522,760,0
554881,364.15,522,755,0
554891,361.96,522,760,0
554901,360.13,522,755,0
554911,359.62,522,760,0
554921,362.65,522,755,0
554931,370.43,522,760,0
554941,385.21,522,755,0
554951,408.08,522,760,0
554961,439.85,522,755,0
554971,479.37,522,760,0
554981,523.36,522,755,0
554991,568.29,522,760,0
555011,611.75,512,759,0
555014,650.95,512,759,0
555023,683.97,512,755,0
555033,709.39,512,759,0
555043,725.90,512,756,0
555053,733.35,512,760,0
555063,732.00,512,755,0
555073,721.33,512,759,0
555083,701.73,512,756,0
555094,672.97,512,759,0
555103,636.16,512,755,0
555113,592.74,512,759,0
555123,546.19,512,756,0
555133,498.13,512,759,0
555143,451.68,512,755,0
555153,407.63,512,759,0
555163,368.23,512,756,0
555173,333.19,512,759,0
555183,304.12,512,755,0
555193,280.43,512,760,0
555203,263.33,512,756,0
555213,251.61,512,759,0
555223,245.90,512,755,0
555233,244.82,512,759,0
555243,248.77,512,756,0
555253,256.13,512,759,0
555264,267.02,512,757,0
555273,279.57,512,760,0
555283,293.84,512,756,0
555293,308.16,512,759,0
555303,322.68,512,757,0
555313,335.72,512,760,0
555323,347.72,512,756,0
555333,357.27,512,759,0
555343,365.08,512,757,0
555353,370.20,512,760,0
555363,373.52,512,756,0
555373,374.18,512,759,0
555383,373.44,512,757,0
555393,370.74,512,760,0
555403,367.69,512,756,0
555413,364.22,512,759,0
555423,362.57,512,757,0
555433,363.43,512,759,0
555443,369.34,512,756,0
555453,381.24,512,759,0
555463,401.53,512,757,0
555473,430.04,512,759,0
555483,467.01,512,756,0
555493,509.27,512,759,0
555503,553.97,512,757,0
555513,597.82,512,759,0
555523,638.55,512,756,0
555533,673.40,512,759,0
555543,701.35,512,757,0
555553,720.32,512,759,0
555564,730.25,512,758,0
555574,730.82,512,759,0
555584,722.69,512,758,0
555594,705.34,512,758,0
555604,679.57,512,758,0
555614,645.50,512,758,0
555624,605.45,512,758,0
555634,561.00,512,758,0
555644,515.44,512,758,0
555654,469.84,512,758,0
555664,426.86,512,758,0
555674,386.74,512,758,0
555684,351.12,512,758,0
555694,319.76,512,758,0
555704,294.11,512,758,0
555714,273.42,512,758,0
555724,258.68,512,758,0
555735,248.66,512,758,0
555745,244.05,512,759,0
555755,243.56,512,758,0
555765,247.55,512,759,0
555776,254.46,512,757,0
555785,264.48,512,759,0
555795,275.82,512,758,0
555805,288.73,512,759,0
555815,301.67,512,757,0
555825,314.75,512,759,0
555835,326.53,512,757,0
555845,337.34,512,759,0
555855,345.98,512,757,0
555865,353.19,512,759,0
555875,357.89,512,757,0
555885,360.88,512,759,0
555895,361.43,512,757,0
555905,360.74,512,759,0
555915,358.29,512,757,0
555925,355.63,512,759,0
555935,352.74,512,757,0
555945,351.92,512,760,0
555955,353.62,512,758,0
555965,360.55,512,759,0
555975,373.28,512,757,0
555985,394.03,512,760,0
555995,422.00,512,758,0
556005,457.70,512,760,0
556015,498.68,512,757,0
556025,542.75,512,760,0
556035,586.19,512,758,0
556054,626.89,1044,756,0
556057,661.30,1044,756,0
556066,687.86,1044,761,0
556076,703.89,1044,757,0
556086,709.11,1044,760,0
556096,703.55,1044,756,0
556106,688.26,1044,761,0
556116,663.75,1044,756,0
556126,632.15,1044,760,0
556136,594.86,1044,756,0
556146,554.36,1044,761,0
556156,512.21,1044,755,0
556166,470.66,1044,761,0
556176,430.65,1044,756,0
556186,393.73,1044,761,0
556196,360.08,1044,755,0
556206,330.83,1044,760,0
556216,305.94,1044,756,0
556226,285.98,1044,761,0
556236,270.56,1044,756,0
556247,259.98,1044,761,0
556257,253.60,1044,755,0
556267,251.36,1044,761,0
556277,252.54,1044,755,0
556288,256.88,1044,761,0
556297,263.47,1044,755,0
556307,272.12,1044,761,0
556317,282.02,1044,755,0
556327,292.82,1044,761,0
556337,303.71,1044,755,0
556347,314.39,1044,761,0
556357,324.43,1044,755,0
556367,333.56,1044,761,0
556377,341.32,1044,755,0
556387,347.65,1044,761,0
556397,352.30,1044,755,0
556407,355.38,1044,761,0
556417,356.77,1044,755,0
556427,356.75,1044,761,0
556437,355.45,1044,755,0
556447,353.52,1044,761,0
556457,351.56,1044,755,0
556467,350.88,1044,761,0
556477,352.67,1044,755,0
556487,358.69,1044,761,0
556497,370.35,1044,755,0
556507,388.85,1044,761,0
556517,414.56,1044,755,0
556527,447.09,1044,761,0
556537,485.08,1044,755,0
556547,526.28,1044,761,0
556566,567.73,512,760,0
556569,605.91,512,760,0
556578,638.47,512,755,0
556588,662.84,512,761,0
556598,677.59,512,755,0
556608,681.44,512,761,0
556618,674.97,512,755,0
556628,658.65,512,760,0
556638,634.58,512,755,0
556648,603.94,512,761,0
556658,568.85,512,755,0
556668,530.88,512,760,0
556678,492.48,512,755,0
556688,454.66,512,761,0
556698,419.19,512,755,0
556708,386.31,512,760,0
556718,357.16,512,755,0
556728,331.74,512,760,0
556738,310.82,512,755,0
556748,293.90,512,760,0
556759,281.46,512,755,0
556769,272.84,512,760,0
556779,268.43,512,755,0
556789,267.27,512,760,0
556800,269.72,512,755,0
556809,274.56,512,760,0
556819,281.93,512,755,0
556829,290.57,512,760,0
556839,300.64,512,755,0
556849,310.86,512,760,0
556859,321.40,512,755,0
556869,331.01,512,760,0
556879,340.05,512,756,0
556889,347.49,512,760,0
556899,353.82,512,755,0
556909,358.11,512,760,0
556919,361.17,512,756,0
556929,362.36,512,760,0
556939,362.55,512,755,0
556949,361.14,512,760,0
556959,359.39,512,756,0
556969,357.21,512,760,0
556979,356.38,512,755,0
556989,357.12,512,760,0
556999,361.63,512,756,0
557009,370.48,512,760,0
557019,385.59,512,755,0
557029,406.80,512,760,0
557039,434.89,512,755,0
557049,468.09,512,760,0
557059,505.44,512,755,0
557069,543.75,512,760,0
557088,581.02,522,759,0
557091,613.63,522,758,0
557100,640.36,522,756,0
557110,658.38,522,759,0
557120,667.39,522,756,0
557130,666.42,522,759,0
557140,656.61,522,757,0
557150,638.38,522,759,0
557160,614.27,522,756,0
557170,584.57,522,759,0
557180,552.04,522,757,0
557190,517.53,522,759,0
557200,483.47,522,757,0
557210,450.03,522,759,0
557220,418.95,522,757,0
557230,390.04,522,759,0
557240,364.74,522,756,0
557250,342.45,522,759,0
557260,324.27,522,757,0
557271,309.23,522,758,0
557281,298.53,522,758,0
557291,291.00,522,758,0
557301,287.44,522,758,0
557312,286.54,522,758,0
557321,288.82,522,758,0
557331,292.90,522,758,0
557341,299.36,522,758,0
557351,306.58,522,758,0
557361,315.06,522,758,0
557371,323.32,522,758,0
557381,331.96,522,759,0
557391,339.65,522,758,0
557401,347.04,522,758,0
557411,352.86,522,758,0
557421,358.00,522,759,0
557431,361.38,522,758,0
557441,364.01,522,758,0
557451,364.91,522,758,0
557461,365.32,522,759,0
557471,364.41,522,758,0
557481,363.73,522,759,0
557491,362.87,522,758,0
557501,363.85,522,758,0
557511,366.85,522,758,0
557521,374.27,522,759,0
557531,386.14,522,758,0
557541,404.62,522,759,0
557551,429.20,522,758,0
557561,460.43,522,759,0
557571,495.96,522,758,0
557581,534.93,522,759,0
557600,573.73,512,758,0
557603,610.71,512,761,0
557612,642.56,512,758,0
557622,667.59,512,759,0
557632,683.40,512,757,0
557642,690.22,512,760,0
557652,686.94,512,757,0
557662,675.30,512,759,0
557672,655.45,512,757,0
557682,629.35,512,760,0
557692,598.04,512,757,0
557702,564.26,512,759,0
557712,528.57,512,757,0
557722,493.21,512,759,0
557732,458.43,512,757,0
557742,426.20,512,759,0
557752,396.44,512,757,0
557762,370.34,512,759,0
557772,347.31,512,757,0
557783,328.53,512,760,0
557793,313.46,512,757,0
557803,302.73,512,760,0
557813,295.57,512,756,0
557824,292.27,512,761,0
557833,291.89,512,757,0
557843,294.71,512,760,0
557853,299.60,512,756,0
557863,306.53,512,761,0
557873,314.34,512,757,0
557883,322.98,512,760,0
557893,331.52,512,756,0
557903,340.06,512,761,0
557913,347.63,512,757,0
557923,354.51,512,760,0
557933,359.97,512,756,0
557943,364.40,512,761,0
557953,367.19,512,757,0
557963,368.98,512,760,0
557973,369.24,512,756,0
557983,368.70,512,761,0
557993,367.12,512,756,0
558003,365.58,512,760,0
558013,364.42,512,756,0
558023,365.24,512,761,0
558033,368.94,512,756,0
558043,377.27,512,760,0
558053,391.12,512,756,0
558063,411.91,512,761,0
558073,439.41,512,756,0
558083,473.32,512,760,0
558093,511.66,512,756,0
558103,552.56,512,761,0
558123,593.11,522,760,0
558126,630.53,522,760,0
558135,662.17,522,755,0
558145,685.82,522,761,0
558155,700.02,522,755,0
558166,704.21,522,760,0
558175,698.53,522,755,0
558185,683.85,522,761,0
558195,661.48,522,755,0
558205,632.58,522,760,0
558215,599.40,522,755,0
558225,563.45,522,761,0
558235,526.55,522,755,0
558245,489.65,522,760,0
558255,454.23,522,755,0
558265,421.16,522,761,0
558275,391.37,522,755,0
558285,364.99,522,760,0
558295,342.66,522,755,0
558305,324.38,522,761,0
558315,310.42,522,755,0
558325,300.48,522,761,0
558336,294.59,522,755,0
558345,292.27,522,761,0
558355,293.26,522,756,0
558365,296.87,522,761,0
558375,302.87,522,756,0
558385,310.36,522,759,0
558395,319.38,522,754,0
558405,328.95,522,760,0
558415,338.82,522,755,0
558425,348.31,522,760,0
558435,357.17,522,755,0
558445,364.79,522,760,0
558455,371.41,522,755,0
558465,376.26,522,760,0
558475,379.57,522,755,0
558485,381.07,522,760,0
558495,381.22,522,755,0
558505,380.12,522,760,0
558515,378.54,522,755,0
558525,376.92,522,760,0
558535,376.56,522,755,0
558545,378.58,522,760,0
558555,384.49,522,755,0
558565,395.57,522,760,0
558575,413.31,522,755,0
558585,438.03,522,760,0
558595,469.57,522,755,0
558605,506.64,522,760,0
558615,547.03,522,755,0
558635,587.87,512,754,0
558638,626.69,512,756,0
558647,661.20,512,760,0
558657,689.21,512,755,0
558667,708.39,512,760,0
558678,717.87,512,756,0
558687,717.48,512,760,0
558697,708.25,512,755,0
558707,690.22,512,760,0
558717,664.48,512,756,0
558727,632.24,512,760,0
558737,596.12,512,755,0
558747,557.21,512,760,0
558757,517.81,512,756,0
558767,478.82,512,760,0
558777,442.28,512,755,0
558787,408.34,512,760,0
558797,378.41,512,756,0
558807,352.27,512,760,0
558817,331.15,512,755,0
558827,314.35,512,760,0
558837,302.67,512,756,0
558848,295.23,512,759,0
558857,292.42,512,755,0
558867,293.11,512,760,0
558877,297.62,512,756,0
558887,304.42,512,759,0
558897,313.81,512,755,0
558907,324.06,512,760,0
558917,335.45,512,756,0
558927,346.50,512,759,0
558937,357.36,512,755,0
558947,366.77,512,760,0
558957,375.28,512,756,0
558967,381.71,512,759,0
558977,386.81,512,755,0
558987,389.70,512,760,0
558997,391.33,512,756,0
559007,390.97,512,759,0
559017,389.82,512,756,0
559027,387.43,512,760,0
559037,385.50,512,756,0
559047,384.15,512,759,0
559057,385.52,512,756,0
559067,390.08,512,760,0
559077,400.38,512,756,0
559087,416.77,512,759,0
559097,440.88,512,756,0
559107,471.39,512,760,0
559117,508.26,512,756,0
559127,548.29,512,759,0
559137,589.13,512,756,0
559157,627.71,523,756,0
559160,662.38,523,760,0
559169,690.00,523,758,0
559179,709.45,523,759,0
559190,718.40,523,758,0
559199,717.94,523,758,0
559209,708.14,523,758,0
559219,689.93,523,759,0
559229,663.29,523,758,0
559239,630.72,523,758,0
559249,593.30,523,758,0
559259,553.91,523,759,0
559269,513.05,523,758,0
559279,473.48,523,758,0
559289,435.54,523,758,0
559299,401.22,523,759,0
559309,370.12,523,757,0
559319,343.69,523,758,0
559329,321.37,523,758,0
559339,304.37,523,759,0
559349,291.53,523,757,0
559360,283.70,523,759,0
559369,279.46,523,758,0
559379,279.41,523,759,0
559389,282.20,523,757,0
559399,288.18,523,759,0
559409,295.71,523,758,0
559419,305.19,523,759,0
559429,315.03,523,757,0
559439,325.74,523,760,0
559449,335.80,523,758,0
559459,345.72,523,759,0
559469,354.25,523,757,0
559479,362.01,523,759,0
559489,367.84,523,758,0
559499,372.69,523,759,0
559509,375.48,523,757,0
559519,377.18,523,759,0
559529,377.13,523,757,0
559539,376.57,523,759,0
559549,375.29,523,757,0
559559,375.12,523,759,0
559569,376.28,523,757,0
559579,381.08,523,759,0
559589,390.14,523,757,0
559599,405.74,523,759,0
559609,427.98,523,757,0
559619,457.47,523,759,0
559629,492.64,523,757,0
559639,532.44,523,759,0
559649,573.45,523,757,0
559669,613.43,512,756,0
559672,649.30,512,755,0
559681,679.08,512,761,0
559691,700.01,512,756,0
559702,711.07,512,761,0
559711,711.43,512,756,0
559721,702.26,512,761,0
559731,684.01,512,755,0
559741,657.78,512,760,0
559751,624.89,512,755,0
559761,588.06,512,760,0
559771,548.79,512,755,0
559781,508.95,512,760,0
559791,469.75,512,755,0
559801,432.80,512,761,0
559811,398.70,512,755,0
559821,368.23,512,760,0
559831,341.42,512,755,0
559841,319.09,512,761,0
559851,301.15,512,755,0
559861,287.69,512,761,0
559872,278.40,512,755,0
559881,273.26,512,761,0
559891,271.73,512,755,0
559901,273.65,512,761,0
559911,278.21,512,755,0
559921,285.09,512,760,0
559931,293.51,512,755,0
559941,303.13,512,761,0
559951,313.12,512,755,0
559961,323.28,512,760,0
559971,332.71,512,755,0
559981,341.37,512,761,0
559991,348.63,512,755,0
560001,354.66,512,760,0
560011,358.92,512,755,0
560021,361.77,512,760,0
560031,363.04,512,755,0
560041,363.20,512,760,0
560051,362.45,512,755,0
560061,361.55,512,760,0
560071,360.91,512,755,0
560081,361.88,512,760,0
560091,365.43,512,756,0
560101,373.06,512,761,0
560111,386.07,512,755,0
560121,405.55,512,760,0
560131,431.48,512,755,0
560141,463.87,512,761,0
560151,501.15,512,755,0
560161,541.43,512,760,0
560181,581.89,512,760,0
560184,619.38,512,760,0
560193,651.37,512,755,0
560203,675.38,512,760,0
560214,689.75,512,755,0
560223,693.81,512,760,0
560233,687.70,512,755,0
560243,672.02,512,760,0
560253,648.44,512,755,0
560263,618.22,512,760,0
560273,583.74,512,755,0
560283,546.28,512,760,0
560293,507.92,512,755,0
560303,469.76,512,760,0
560313,433.49,512,755,0
560323,399.70,512,760,0
560333,369.49,512,755,0
560343,342.94,512,760,0
560353,320.89,512,755,0
560363,302.96,512,760,0
560373,289.65,512,755,0
560384,280.28,512,760,0
560393,275.18,512,755,0
560403,273.37,512,759,0
560413,275.15,512,755,0
560423,279.52,512,760,0
560433,286.39,512,755,0
560443,294.72,512,759,0
