Time,PPG,IBI,GSR,GSR_Event
296796,758.70,602,755,0
296806,761.62,602,755,0
296816,763.58,602,758,0
296826,764.95,602,757,0
296836,765.82,602,753,0
296846,766.34,602,754,0
296856,766.63,602,753,0
296866,766.74,602,755,0
296876,766.82,602,753,0
296886,766.87,602,755,0
296896,762.67,602,753,0
296906,748.50,602,755,0
296916,721.05,602,753,0
296926,679.63,602,754,0
296936,623.99,602,753,0
296946,555.29,602,755,0
296956,475.36,602,753,0
296966,391.21,602,755,0
296976,310.96,602,753,0
296986,240.77,602,755,0
296996,183.71,602,753,0
297006,142.23,602,755,0
297016,116.62,602,753,0
297026,106.32,602,755,0
297036,109.18,602,753,0
297047,122.93,602,755,0
297057,144.50,602,753,0
297067,170.97,602,755,0
297077,199.26,602,753,0
297088,227.00,602,755,0
297097,252.11,602,753,0
297107,273.16,602,755,0
297117,289.14,602,753,0
297127,299.52,602,755,0
297137,304.33,602,753,0
297147,304.19,602,755,0
297157,299.59,602,753,0
297167,291.23,602,755,0
297177,279.97,602,753,0
297187,266.91,602,755,0
297197,252.88,602,753,0
297207,239.03,602,755,0
297217,226.81,602,753,0
297227,219.19,602,755,0
297237,220.04,602,753,0
297247,234.12,602,755,0
297257,266.62,602,753,0
297267,314.65,602,755,0
297277,373.51,602,753,0
297287,439.18,602,755,0
297297,507.14,602,753,0
297307,572.24,602,755,0
297317,628.66,602,753,0
297327,670.29,602,755,0
297337,699.43,602,753,0
297347,719.87,602,755,0
297357,734.18,602,753,0
297367,744.20,602,755,0
297377,751.17,602,753,0
297388,756.00,602,755,0
297407,759.39,653,755,0
297410,761.80,653,756,0
297419,763.49,653,754,0
297430,764.71,653,755,0
297439,765.57,653,754,0
297449,766.21,653,755,0
297459,766.71,653,754,0
297469,767.09,653,755,0
297479,761.37,653,754,0
297489,743.86,653,755,0
297499,711.89,653,754,0
297509,664.05,653,755,0
297519,601.38,653,754,0
297529,524.85,653,755,0
297539,438.37,653,754,0
297549,350.91,653,755,0
297559,270.28,653,755,0
297569,200.64,653,755,0
297579,144.43,653,753,0
297589,102.95,653,755,0
297600,77.76,653,755,0
297609,66.01,653,755,0
297619,65.96,653,754,0
297629,75.44,653,757,0
297639,93.57,653,756,0
297649,118.51,653,760,0
297659,147.42,653,755,0
297669,176.73,653,754,0
297679,204.76,653,754,0
297689,228.92,653,755,0
297699,248.57,653,754,0
297709,261.90,653,755,0
297719,269.34,653,754,0
297729,270.78,653,755,0
297739,267.12,653,754,0
297749,258.51,653,755,0
297759,246.57,653,754,0
297769,231.79,653,755,0
297779,216.08,653,754,0
297789,199.64,653,761,0
297799,184.79,653,757,0
297809,173.15,653,766,0
297819,168.05,653,758,0
297829,173.52,653,756,0
297839,194.58,653,759,0
297849,234.69,653,757,0
297859,290.76,653,756,0
297869,357.00,653,760,0
297879,429.00,653,761,0
297889,501.94,653,759,0
297900,570.06,653,756,0
297910,627.60,653,759,0
297920,669.72,653,759,0
297930,699.20,653,756,0
297940,719.84,653,759,0
297950,734.29,653,758,0
297960,744.40,653,757,0
297970,751.48,653,758,0
297990,756.44,582,754,0
297993,759.91,582,755,0
298002,762.33,582,756,0
298012,764.03,582,755,0
298022,765.22,582,756,0
298032,766.06,582,755,0
298042,766.64,582,756,0
298052,761.82,582,755,0
298062,746.92,582,755,0
298072,719.04,582,754,0
298082,677.20,582,755,0
298092,621.00,582,754,0
298102,552.00,582,755,0
298113,471.77,582,754,0
298123,388.40,582,755,0
298133,309.08,582,754,0
298143,239.80,582,755,0
298153,183.84,582,754,0
298163,143.90,582,755,0
298173,119.85,582,754,0
298183,111.58,582,755,0
298193,116.68,582,754,0
298203,132.93,582,755,0
298213,156.74,582,754,0
298223,185.70,582,755,0
298233,216.48,582,754,0
298243,246.98,582,755,0
298253,274.46,582,754,0
298263,297.93,582,755,0
298273,316.00,582,754,0
298284,328.77,582,756,0
298294,335.52,582,754,0
298304,337.08,582,756,0
298314,333.63,582,753,0
298324,326.45,582,756,0
298334,315.99,582,754,0
298344,303.74,582,755,0
298354,290.49,582,753,0
298364,278.43,582,756,0
298374,269.56,582,754,0
298384,267.67,582,756,0
298394,276.51,582,754,0
298404,300.57,582,756,0
298414,340.52,582,754,0
298424,391.79,582,756,0
298434,450.14,582,753,0
298444,511.77,582,756,0
298455,571.92,582,754,0
298465,625.86,582,756,0
298475,668.50,582,753,0
298485,698.35,582,756,0
298496,719.25,582,754,0
298505,733.87,582,756,0
298515,744.11,582,753,0
298525,751.28,582,756,0
298535,756.29,582,754,0
298545,759.81,582,756,0
298555,762.26,582,754,0
298574,763.98,585,756,0
298577,765.19,585,760,0
298586,765.99,585,759,0
298596,762.18,585,759,0
298606,748.50,585,756,0
298616,722.20,585,755,0
298626,682.37,585,758,0
298636,628.69,585,759,0
298646,561.50,585,757,0
298656,483.00,585,755,0
298667,399.52,585,756,0
298676,319.18,585,755,0
298686,247.17,585,757,0
298696,187.25,585,757,0
298706,141.96,585,758,0
298716,113.04,585,756,0
298726,99.79,585,757,0
298736,101.61,585,756,0
298746,116.04,585,758,0
298756,140.76,585,757,0
298766,172.72,585,758,0
298776,209.23,585,753,0
298786,247.09,585,755,0
298796,283.96,585,756,0
298806,317.02,585,756,0
298816,345.43,585,758,0
298826,368.10,585,755,0
298836,384.70,585,753,0
298846,394.90,585,755,0
298856,399.43,585,754,0
298866,398.53,585,755,0
298876,393.66,585,754,0
298886,384.93,585,755,0
298896,373.42,585,754,0
298906,359.45,585,755,0
298916,343.97,585,754,0
298926,327.40,585,755,0
298936,310.86,585,754,0
298946,295.30,585,755,0
298956,283.13,585,754,0
298967,277.09,585,756,0
298977,281.48,585,754,0
298987,300.02,585,756,0
298997,335.84,585,754,0
299008,384.06,585,755,0
299017,440.61,585,754,0
299027,501.29,585,755,0
299037,561.76,585,754,0
299047,616.94,585,755,0
299057,662.22,585,754,0
299067,693.95,585,756,0
299077,716.17,585,754,0
299087,731.72,585,755,0
299097,742.60,585,754,0
299107,750.22,585,756,0
299117,755.55,585,754,0
299127,759.29,585,755,0
299146,761.90,572,755,0
299149,763.73,572,755,0
299158,761.33,572,755,0
299168,749.87,572,755,0
299179,726.94,572,755,0
299188,691.34,572,755,0
299198,642.85,572,755,0
299208,581.61,572,755,0
299218,508.79,572,755,0
299228,429.44,572,755,0
299238,350.75,572,754,0
299248,277.67,572,755,0
299258,213.14,572,755,0
299268,158.63,572,755,0
299278,116.39,572,754,0
299288,86.75,572,754,0
299298,70.37,572,755,0
299308,65.46,572,755,0
299318,70.85,572,754,0
299328,84.95,572,754,0
299338,106.95,572,755,0
299348,133.92,572,755,0
299358,164.12,572,754,0
299368,194.55,572,755,0
299378,224.22,572,755,0
299388,250.64,572,755,0
299398,273.25,572,755,0
299408,290.57,572,755,0
299418,302.83,572,755,0
299428,309.52,572,755,0
299438,311.42,572,755,0
299448,308.47,572,754,0
299458,302.11,572,755,0
299468,292.35,572,755,0
299479,280.76,572,755,0
299489,267.37,572,754,0
299499,253.63,572,755,0
299509,239.60,572,754,0
299520,226.78,572,755,0
299529,215.19,572,754,0
299539,206.82,572,756,0
299549,202.33,572,757,0
299559,205.36,572,757,0
299569,217.38,572,754,0
299579,242.25,572,755,0
299589,281.82,572,754,0
299599,334.84,572,755,0
299609,395.96,572,754,0
299619,461.42,572,755,0
299629,526.01,572,755,0
299639,586.30,572,756,0
299649,637.60,572,758,0
299659,676.63,572,755,0
299669,703.96,572,755,0
299679,723.13,572,755,0
299689,736.50,572,754,0
299708,745.87,562,753,0
299710,752.42,562,754,0
299720,757.05,562,756,0
299730,760.25,562,754,0
299740,762.49,562,756,0
299750,758.79,562,754,0
299760,746.46,562,756,0
299770,723.10,562,754,0
299780,688.57,562,756,0
299790,641.98,562,754,0
299800,584.13,562,756,0
299810,515.61,562,754,0
299820,443.55,562,755,0
299830,372.29,562,754,0
299840,306.37,562,755,0
299850,247.76,562,754,0
299860,199.62,562,755,0
299870,162.62,562,754,0
299880,138.05,562,755,0
299890,125.05,562,754,0
299900,123.45,562,755,0
299910,131.37,562,754,0
299920,147.67,562,756,0
299930,169.80,562,754,0
299940,196.26,562,756,0
299950,224.25,562,754,0
299960,252.51,562,756,0
299970,278.75,562,754,0
299980,302.31,562,755,0
299991,321.55,562,754,0
300001,336.34,562,756,0
300011,345.97,562,754,0
300021,350.95,562,756,0
300032,351.09,562,754,0
300041,347.38,562,756,0
300051,340.02,562,754,0
300061,330.20,562,756,0
300071,318.36,562,754,0
300081,305.61,562,756,0
300091,292.40,562,754,0
300101,279.59,562,755,0
300111,267.46,562,754,0
300121,256.99,562,756,0
300131,248.68,562,754,0
300141,244.23,562,755,0
300151,245.58,562,754,0
300161,255.26,562,756,0
300171,276.10,562,754,0
300181,311.47,562,756,0
300191,359.50,562,754,0
300201,415.92,562,756,0
300211,476.50,562,754,0
300221,537.25,562,756,0
300231,594.30,562,754,0
300241,643.58,562,756,0
300251,680.91,562,754,0
300261,707.04,562,756,0
300271,725.33,562,754,0
300281,738.13,562,756,0
300300,747.09,592,755,0
300302,753.36,592,756,0
300312,757.75,592,754,0
300322,760.83,592,756,0
300332,762.98,592,754,0
300342,764.44,592,756,0
300352,764.91,592,754,0
300362,759.54,592,756,0
300372,745.06,592,754,0
300382,719.93,592,756,0
300392,683.22,592,754,0
300402,634.94,592,756,0
300412,575.94,592,754,0
300422,508.16,592,756,0
300432,438.17,592,754,0
300442,371.18,592,756,0
300452,311.04,592,754,0
300462,260.54,592,756,0
300472,221.68,592,753,0
300482,195.25,592,756,0
300492,181.24,592,754,0
300503,178.77,592,756,0
300513,186.51,592,754,0
300523,202.17,592,756,0
300533,223.89,592,754,0
300544,248.87,592,756,0
300553,275.01,592,754,0
300563,300.03,592,756,0
300573,322.57,592,754,0
300583,341.08,592,755,0
300593,355.03,592,754,0
300603,363.59,592,756,0
300613,367.27,592,754,0
300623,365.99,592,756,0
300633,360.59,592,754,0
300643,351.46,592,756,0
300653,339.83,592,754,0
300663,326.21,592,756,0
300673,311.88,592,754,0
300683,297.21,592,756,0
300693,283.26,592,754,0
300703,270.07,592,756,0
300713,258.56,592,754,0
300723,248.71,592,756,0
300733,241.68,592,754,0
300743,238.43,592,756,0
300753,241.48,592,754,0
300763,252.86,592,756,0
300773,276.35,592,754,0
300783,314.90,592,756,0
300793,365.42,592,754,0
300803,423.40,592,756,0
300813,485.08,592,754,0
300823,546.22,592,756,0
300833,603.11,592,754,0
300844,651.16,592,756,0
300854,686.21,592,754,0
300864,710.75,592,756,0
300874,727.92,592,754,0
300894,739.95,593,753,0
300897,748.36,593,755,0
300906,754.25,593,755,0
300916,758.38,593,755,0
300926,761.26,593,755,0
300936,763.29,593,755,0
300946,764.70,593,755,0
300956,765.69,593,755,0
300966,766.38,593,755,0
300976,763.44,593,755,0
300986,752.21,593,755,0
300996,730.46,593,755,0
301006,696.64,593,754,0
301016,651.45,593,755,0
301026,595.13,593,755,0
301036,529.35,593,755,0
301046,459.04,593,754,0
301057,391.49,593,755,0
301067,330.83,593,755,0
301077,281.12,593,755,0
301087,243.20,593,754,0
301097,218.97,593,756,0
301107,207.06,593,754,0
301117,207.04,593,755,0
301127,216.33,593,754,0
301137,233.29,593,755,0
301147,254.59,593,755,0
301157,278.50,593,755,0
301167,301.79,593,754,0
301177,323.58,593,756,0
301187,341.75,593,755,0
301197,356.01,593,755,0
301207,364.92,593,754,0
301217,369.23,593,755,0
301228,368.35,593,754,0
301238,363.53,593,755,0
301248,354.88,593,754,0
301258,343.82,593,756,0
301268,330.63,593,754,0
301278,317.20,593,755,0
301288,303.51,593,754,0
301298,290.93,593,756,0
301308,279.29,593,754,0
301318,269.61,593,755,0
301328,261.62,593,754,0
301338,255.82,593,756,0
301348,251.76,593,754,0
301358,250.33,593,755,0
301368,252.38,593,754,0
301378,260.45,593,755,0
301388,277.50,593,754,0
301399,307.69,593,755,0
301409,351.16,593,754,0
301419,403.65,593,756,0
301429,461.61,593,754,0
301440,521.69,593,756,0
301449,579.94,593,754,0
301459,631.94,593,756,0
301469,672.76,593,754,0
301479,701.33,593,756,0
301498,721.33,605,755,0
301501,735.38,605,756,0
301510,745.21,605,754,0
301520,752.09,605,756,0
301530,756.90,605,754,0
301540,760.28,605,756,0
301550,762.64,605,754,0
301560,764.25,605,756,0
301570,765.33,605,775,0
301580,766.04,605,773,0
301590,766.50,605,765,0
301600,766.78,605,769,0
301611,766.93,605,769,0
301620,764.64,605,772,0
301630,754.85,605,771,0
301640,734.36,605,772,0
301650,702.03,605,772,0
301660,658.05,605,775,0
301670,603.09,605,775,0
301680,538.65,605,778,0
301690,469.07,605,780,0
301700,401.68,605,780,0
301710,341.86,605,782,0
301720,292.96,605,782,0
301730,256.50,605,782,0
301740,233.16,605,782,0
301750,222.27,605,783,0
301760,222.32,605,782,0
301770,231.35,605,781,0
301780,246.85,605,782,0
301790,266.14,605,782,0
301800,286.75,605,781,0
301810,306.71,605,783,0
301820,324.24,605,783,0
301830,338.31,605,783,0
301840,348.08,605,782,0
301850,353.15,605,783,0
301860,353.71,605,782,0
301870,350.32,605,782,0
301880,343.45,605,782,0
301890,334.06,605,780,0
301900,322.69,605,780,0
301911,310.09,605,781,0
301921,297.08,605,780,0
301931,284.41,605,781,0
301941,272.25,605,782,0
301952,261.24,605,783,0
301961,251.49,605,783,0
301971,243.37,605,782,0
301981,236.91,605,782,0
301991,232.44,605,782,0
302001,229.69,605,783,0
302011,229.87,605,783,0
302021,234.32,605,783,0
302031,246.48,605,783,0
302041,269.10,605,783,0
302051,306.70,605,783,0
302061,355.99,605,783,0
302071,413.25,605,783,0
302081,474.76,605,783,0
302091,536.93,605,783,0
302101,595.02,605,783,0
302111,645.03,605,703,0
302131,681.66,632,711,0
302134,707.35,632,712,0
302143,725.37,632,713,0
302153,738.03,632,713,0
302163,746.94,632,753,0
302173,753.21,632,752,0
302183,757.65,632,754,0
302193,760.75,632,754,0
302203,762.93,632,755,0
302213,764.45,632,753,0
302223,765.51,632,755,0
302233,766.26,632,754,0
302243,766.78,632,755,0
302253,767.15,632,753,0
302263,767.40,632,755,0
302273,767.58,632,754,0
302283,765.31,632,755,0
302294,755.83,632,754,0
302303,736.21,632,755,0
302313,705.42,632,754,0
302323,662.95,632,755,0
302333,610.16,632,754,0
302343,548.36,632,755,0
302353,482.25,632,754,0
302363,418.36,632,755,0
302373,362.07,632,754,0
302383,315.76,632,755,0
302393,281.85,632,754,0
302403,259.65,632,755,0
302413,248.91,632,754,0
302423,247.14,632,755,0
302433,252.88,632,754,0
302443,263.08,632,755,0
302453,276.30,632,754,0
302464,289.66,632,755,0
302473,302.36,632,754,0
302483,312.20,632,755,0
302493,319.25,632,754,0
302503,322.26,632,755,0
302513,322.01,632,754,0
302523,317.89,632,755,0
302533,311.15,632,754,0
302543,301.47,632,755,0
302553,290.57,632,754,0
302563,278.31,632,755,0
302573,266.30,632,754,0
302583,254.30,632,755,0
302593,243.62,632,754,0
302603,233.92,632,755,0
302613,226.27,632,754,0
302623,220.02,632,755,0
302633,216.11,632,755,0
302643,213.64,632,755,0
302653,213.36,632,754,0
302663,214.75,632,754,0
302673,219.76,632,755,0
302683,229.30,632,755,0
302693,247.25,632,754,0
302703,276.75,632,754,0
302713,321.01,632,755,0
302723,374.88,632,755,0
302733,435.09,632,755,0
302743,497.59,632,755,0
302763,559.34,632,754,0
302766,615.42,632,754,0
302775,661.28,632,755,0
302785,693.38,632,754,0
302795,715.90,632,756,0
302806,731.66,632,754,0
302815,742.69,632,755,0
302825,750.37,632,754,0
302835,755.74,632,756,0
302845,759.46,632,754,0
302855,762.07,632,755,0
302865,763.85,632,754,0
302875,765.09,632,756,0
302885,765.97,632,754,0
302895,766.62,632,755,0
302905,767.08,632,754,0
302915,767.40,632,756,0
302925,767.62,632,754,0
302935,765.21,632,756,0
302945,754.26,632,754,0
302955,731.81,632,755,0
302965,696.34,632,754,0
302976,648.24,632,756,0
302985,588.55,632,754,0
302995,519.34,632,755,0
303005,445.10,632,754,0
303015,374.57,632,755,0
303025,312.85,632,754,0
303035,263.96,632,755,0
303045,229.13,632,754,0
303055,208.99,632,756,0
303065,202.01,632,754,0
303075,207.06,632,755,0
303085,220.93,632,754,0
303095,241.52,632,756,0
303105,265.37,632,754,0
303115,290.54,632,755,0
303125,314.12,632,754,0
303135,334.96,632,756,0
303145,351.00,632,754,0
303155,362.23,632,755,0
303165,367.69,632,754,0
303175,368.00,632,756,0
303185,362.90,632,754,0
303195,353.93,632,755,0
303205,341.44,632,754,0
303215,327.03,632,756,0
303225,311.17,632,754,0
303235,295.17,632,755,0
303245,279.35,632,754,0
303255,264.84,632,756,0
303265,251.35,632,754,0
303276,239.84,632,756,0
303286,230.12,632,754,0
303296,223.44,632,756,0
303306,221.29,632,754,0
303316,226.78,632,756,0
303326,242.27,632,754,0
303336,272.23,632,756,0
303346,317.46,632,754,0
303356,373.42,632,756,0
303366,435.74,632,754,0
303376,500.36,632,756,0
303386,562.74,632,754,0
303396,618.87,632,756,0
303406,663.61,632,754,0
303416,694.93,632,756,0
303426,716.85,632,754,0
303446,732.19,683,753,0
303449,742.94,683,754,0
303458,750.46,683,756,0
303468,755.72,683,754,0
303478,759.40,683,756,0
303489,761.98,683,754,0
303499,763.79,683,756,0
303509,765.05,683,754,0
303528,765.94,0,753,0
303531,766.60,0,754,0
303540,763.08,0,756,0
303550,750.71,0,754,0
303560,726.28,0,755,0
303570,688.91,0,754,0
303580,638.54,0,756,0
303590,576.28,0,754,0
303600,503.21,0,755,0
303610,425.92,0,754,0
303620,351.07,0,755,0
303630,284.79,0,754,0
303640,230.04,0,755,0
303650,189.44,0,754,0
303660,163.25,0,756,0
303670,151.95,0,754,0
303680,153.51,0,755,0
303690,166.60,0,754,0
303700,187.89,0,755,0
303710,215.01,0,754,0
303720,244.28,0,755,0
303730,273.72,0,754,0
303740,300.42,0,755,0
303750,323.18,0,754,0
303760,340.01,0,755,0
303770,350.98,0,754,0
303780,355.36,0,755,0
303790,354.31,0,754,0
303800,347.70,0,755,0
303810,337.16,0,754,0
303820,323.01,0,755,0
303831,307.24,0,754,0
303841,289.94,0,755,0
303851,272.90,0,754,0
303861,256.00,0,755,0
303872,240.87,0,755,0
303881,227.11,0,755,0
303891,215.72,0,754,0
303901,206.08,0,755,0
303911,199.20,0,755,0
303921,194.42,0,755,0
303931,193.05,0,754,0
303941,195.52,0,755,0
303951,204.79,0,755,0
303961,222.56,0,755,0
303971,253.08,0,755,0
303981,298.95,0,755,0
303991,355.67,0,755,0
304001,418.68,0,755,0
304011,484.35,0,755,0
304021,548.19,0,755,0
304031,606.72,0,755,0
304041,654.89,0,755,0
304051,688.86,0,755,0
304070,712.65,542,754,0
304073,729.34,542,756,0
304082,741.02,542,754,0
304092,749.20,542,755,0
304102,754.93,542,755,0
304112,758.93,542,755,0
304122,761.70,542,754,0
304132,763.63,542,755,0
304151,764.94,0,754,0
304153,765.90,0,756,0
304163,766.57,0,754,0
304173,765.84,0,755,0
304183,757.58,0,754,0
304193,738.38,0,755,0
304203,706.03,0,754,0
304214,660.30,0,756,0
304223,601.58,0,754,0
304233,531.42,0,755,0
304243,452.39,0,754,0
304253,373.33,0,755,0
304263,299.73,0,754,0
304273,236.64,0,755,0
304283,186.22,0,754,0
304293,150.37,0,755,0
304303,128.62,0,754,0
304313,121.14,0,755,0
304323,125.69,0,754,0
304333,140.70,0,755,0
304343,162.73,0,754,0
304353,189.77,0,755,0
304363,218.42,0,754,0
304373,247.10,0,755,0
304384,273.00,0,754,0
304393,295.15,0,755,0
304403,311.87,0,754,0
304413,323.31,0,755,0
304423,328.74,0,754,0
304433,329.16,0,755,0
304443,324.49,0,754,0
304453,316.11,0,755,0
304463,304.33,0,754,0
304473,290.99,0,756,0
304483,276.17,0,754,0
304493,261.29,0,755,0
304503,246.50,0,754,0
304513,233.02,0,755,0
304523,220.72,0,754,0
304533,210.47,0,755,0
304543,201.76,0,754,0
304553,195.49,0,756,0
304563,191.57,0,754,0
304573,191.70,0,755,0
304583,197.28,0,754,0
304593,211.42,0,756,0
304603,235.89,0,754,0
304613,274.20,0,755,0
304623,325.87,0,754,0
304633,386.38,0,756,0
304643,451.11,0,754,0
304653,516.13,0,755,0
304663,576.91,0,754,0
304673,630.12,0,756,0
304684,671.48,0,754,0
304694,700.44,0,756,0
304713,720.71,562,755,0
304716,734.90,562,756,0
304726,744.83,562,754,0
304735,751.78,562,756,0
304745,756.65,562,754,0
304755,760.05,562,756,0
304765,762.44,562,754,0
304775,762.69,562,756,0
304785,756.06,562,753,0
304795,739.41,562,756,0
304805,711.04,562,753,0
304815,670.70,562,756,0
304825,618.42,562,753,0
304835,554.95,562,756,0
304845,483.05,562,753,0
304855,409.49,562,756,0
304865,339.27,562,753,0
304875,276.23,562,756,0
304885,222.72,562,753,0
304896,180.50,562,756,0
304905,150.44,562,753,0
304915,132.61,562,756,0
304925,126.30,562,753,0
304935,130.49,562,756,0
304945,143.33,562,753,0
304955,162.90,562,756,0
304965,187.28,562,753,0
304975,214.28,562,756,0
304985,241.84,562,753,0
304995,268.11,562,756,0
305005,291.65,562,753,0
305015,311.43,562,756,0
305025,326.73,562,753,0
305035,337.14,562,756,0
305045,342.67,562,753,0
305055,343.71,562,756,0
305065,340.63,562,753,0
305075,334.18,562,756,0
305085,325.08,562,753,0
305095,314.13,562,756,0
305105,301.88,562,753,0
305115,289.10,562,756,0
305125,276.38,562,754,0
305135,264.18,562,756,0
305145,252.86,562,753,0
305155,242.87,562,756,0
305165,234.77,562,754,0
305175,229.65,562,756,0
305185,229.33,562,753,0
305196,235.91,562,756,0
305206,252.53,562,754,0
305216,281.60,562,756,0
305226,325.56,562,754,0
305236,379.86,562,756,0
305246,440.33,562,754,0
305256,502.80,562,756,0
305266,563.33,562,754,0
305276,617.71,562,756,0
305286,662.37,562,754,0
305296,694.06,562,756,0
305306,716.24,562,754,0
305326,731.77,612,753,0
305328,742.64,612,755,0
305338,750.25,612,756,0
305348,755.57,612,754,0
305358,759.30,612,755,0
305368,761.91,612,754,0
305378,761.34,612,756,0
305388,753.65,612,754,0
305398,735.84,612,755,0
305409,706.87,612,754,0
305419,666.07,612,755,0
305429,613.98,612,754,0
305439,551.07,612,755,0
305449,481.45,612,755,0
305459,410.64,612,755,0
305469,343.89,612,754,0
305479,283.88,612,755,0
305489,233.56,612,755,0
305499,193.66,612,755,0
305509,165.61,612,754,0
305519,148.75,612,755,0
305529,143.30,612,755,0
305539,147.32,612,755,0
305549,160.21,612,754,0
305559,179.52,612,755,0
305569,204.35,612,755,0
305580,231.93,612,755,0
305590,261.01,612,755,0
305600,288.73,612,754,0
305610,314.53,612,755,0
305620,336.27,612,754,0
305630,353.85,612,755,0
305640,365.81,612,754,0
305650,372.85,612,755,0
305660,374.40,612,754,0
305670,371.88,612,755,0
305680,365.10,612,754,0
305690,355.56,612,755,0
305700,343.30,612,754,0
305710,330.01,612,755,0
305720,315.69,612,754,0
305730,301.90,612,755,0
305740,288.34,612,754,0
305751,276.37,612,755,0
305761,265.54,612,754,0
305771,256.85,612,755,0
305781,249.65,612,754,0
305792,245.04,612,755,0
305801,242.72,612,754,0
305811,244.69,612,756,0
305821,252.24,612,754,0
305831,268.75,612,755,0
305841,296.08,612,754,0
305851,337.97,612,756,0
305861,389.58,612,754,0
305871,447.35,612,756,0
305881,507.33,612,754,0
305891,566.03,612,756,0
305901,619.16,612,754,0
305911,663.47,612,756,0
305921,694.79,612,754,0
305940,716.71,615,754,0
305943,732.14,615,754,0
305952,742.94,615,757,0
305963,750.50,615,754,0
305972,755.79,615,756,0
305982,759.50,615,754,0
305992,762.09,615,756,0
306002,763.91,615,754,0
306012,765.14,615,756,0
306022,765.99,615,754,0
306032,766.60,615,756,0
306042,767.02,615,754,0
306052,765.85,615,756,0
306062,757.97,615,754,0
306072,740.24,615,757,0
306082,710.98,615,754,0
306092,670.49,615,756,0
306102,618.87,615,754,0
306112,557.24,615,756,0
306122,488.55,615,754,0
306132,420.03,615,756,0
306142,356.81,615,754,0
306152,302.86,615,756,0
306162,259.70,615,754,0
306172,229.02,615,756,0
306182,210.72,615,754,0
306192,204.50,615,756,0
306202,208.59,615,754,0
306212,221.36,615,756,0
306222,240.02,615,754,0
306232,262.77,615,756,0
306242,286.88,615,754,0
306252,310.83,615,756,0
306263,332.48,615,754,0
306273,350.90,615,756,0
306283,364.90,615,754,0
306293,374.44,615,756,0
306304,379.02,615,754,0
306313,379.23,615,756,0
306323,375.43,615,754,0
306333,368.36,615,756,0
306343,358.82,615,754,0
306353,347.69,615,756,0
306363,335.66,615,753,0
306373,323.42,615,756,0
306383,311.72,615,754,0
306393,300.83,615,756,0
306403,290.98,615,754,0
306413,282.29,615,756,0
306423,275.09,615,754,0
306433,269.79,615,756,0
306443,267.37,615,753,0
306453,269.40,615,756,0
306463,278.62,615,754,0
306473,298.45,615,756,0
306483,331.57,615,755,0
306493,376.79,615,756,0
306503,429.99,615,754,0
306513,487.60,615,756,0
306523,545.87,615,754,0
306533,600.77,615,756,0
306543,647.98,615,754,0
306553,683.99,615,756,0
306563,709.19,615,754,0
306582,726.83,642,753,0
306584,739.23,642,756,0
306594,747.90,642,756,0
306604,753.97,642,754,0
306614,758.22,642,756,0
306624,761.20,642,754,0
306634,763.28,642,756,0
306644,764.74,642,755,0
306654,765.72,642,756,0
306664,766.40,642,754,0
306674,766.88,642,756,0
306684,767.22,642,754,0
306694,767.45,642,756,0
306704,765.39,642,754,0
306714,755.80,642,756,0
306724,735.80,642,754,0
306734,704.36,642,756,0
306744,661.40,642,754,0
306754,607.45,642,756,0
306764,544.40,642,754,0
306775,476.22,642,756,0
306785,410.88,642,754,0
306795,353.15,642,756,0
306805,306.60,642,754,0
306816,272.69,642,755,0
306825,252.47,642,754,0
306835,244.57,642,756,0
306845,247.87,642,754,0
306855,259.40,642,755,0
306865,277.23,642,754,0
306875,297.95,642,756,0
306885,319.82,642,754,0
306895,340.10,642,755,0
306905,357.77,642,754,0
306915,371.13,642,756,0
306925,380.00,642,754,0
306935,383.52,642,755,0
306945,382.59,642,754,0
306955,377.01,642,756,0
306965,368.05,642,754,0
306975,355.86,642,755,0
306985,342.02,642,754,0
306995,326.89,642,756,0
307005,311.92,642,754,0
307015,297.07,642,755,0
307025,283.76,642,754,0
307035,272.22,642,756,0
307045,264.44,642,754,0
307055,261.82,642,756,0
307065,267.83,642,754,0
307075,284.73,642,756,0
307085,316.95,642,754,0
307095,362.27,642,755,0
307105,416.66,642,754,0
307116,475.90,642,756,0
307126,536.32,642,754,0
307136,593.22,642,755,0
307146,643.00,642,755,0
307156,680.54,642,755,0
307166,706.82,642,755,0
307176,725.22,642,755,0
307186,738.14,642,755,0
307206,747.18,623,754,0
307209,753.51,623,756,0
307218,757.90,623,754,0
307228,760.97,623,756,0
307238,763.13,623,754,0
307248,764.63,623,756,0
307258,765.64,623,754,0
307268,766.35,623,756,0
307278,766.84,623,754,0
307288,767.19,623,756,0
307298,766.53,623,754,0
307308,759.09,623,756,0
307318,740.29,623,754,0
307329,708.62,623,756,0
307339,663.35,623,753,0
307349,605.47,623,756,0
307359,536.37,623,753,0
307369,459.38,623,756,0
307379,382.59,623,753,0
307389,313.37,623,756,0
307399,255.53,623,754,0
307409,212.17,623,756,0
307419,183.79,623,753,0
307429,170.40,623,756,0
307439,170.32,623,754,0
307449,181.62,623,756,0
307459,201.24,623,753,0
307469,226.67,623,756,0
307479,254.45,623,754,0
307489,282.56,623,756,0
307500,308.36,623,753,0
307510,330.33,623,756,0
307520,347.16,623,753,0
307530,358.55,623,757,0
307540,364.00,623,753,0
307550,364.34,623,756,0
307560,359.61,623,753,0
307570,351.07,623,757,0
307580,339.26,623,753,0
307590,325.47,623,756,0
307600,310.33,623,753,0
307610,294.80,623,756,0
307620,279.43,623,753,0
307630,265.07,623,756,0
307640,252.11,623,753,0
307650,241.36,623,756,0
307660,233.54,623,753,0
307671,230.59,623,756,0
307681,235.30,623,753,0
307691,250.98,623,757,0
307701,281.59,623,753,0
307712,327.14,623,756,0
307721,382.85,623,753,0
307731,444.74,623,757,0
307741,508.76,623,753,0
307751,570.46,623,757,0
307761,625.22,623,754,0
307771,668.06,623,757,0
307781,698.04,623,754,0
307791,719.03,623,757,0
307801,733.72,623,753,0
307820,744.00,615,752,0
307823,751.25,615,755,0
307832,756.31,615,756,0
307842,759.86,615,754,0
307852,762.35,615,757,0
307862,764.09,615,754,0
307872,765.30,615,756,0
307883,766.15,615,754,0
307892,766.71,615,757,0
307902,767.10,615,754,0
307912,767.37,615,756,0
307922,763.31,615,754,0
307932,750.23,615,756,0
307942,725.01,615,753,0
307952,686.09,615,756,0
307962,633.69,615,754,0
307972,568.94,615,756,0
307982,493.66,615,754,0
307992,414.13,615,756,0
308002,337.76,615,754,0
308012,270.12,615,756,0
308022,215.27,615,753,0
308032,174.95,615,756,0
308042,149.93,615,754,0
308052,139.54,615,756,0
308062,142.29,615,753,0
308072,155.62,615,756,0
308082,177.12,615,754,0
308092,203.57,615,756,0
308102,232.63,615,754,0
308112,261.15,615,756,0
308122,287.38,615,754,0
308132,309.59,615,756,0
308142,327.16,615,754,0
308152,339.11,615,756,0
308162,345.68,615,754,0
308172,346.72,615,756,0
308183,343.33,615,754,0
308193,335.73,615,756,0
308203,325.31,615,754,0
308213,312.40,615,756,0
308224,298.44,615,754,0
308233,283.82,615,756,0
308243,269.65,615,754,0
308253,256.12,615,756,0
308263,244.47,615,754,0
308273,235.20,615,756,0
308283,230.38,615,754,0
308293,231.98,615,756,0
308303,244.16,615,754,0
308313,269.31,615,756,0
308323,311.30,615,754,0
308333,364.70,615,756,0
308343,425.47,615,754,0
308353,489.49,615,756,0
308363,552.73,615,754,0
308373,609.94,615,756,0
308383,657.44,615,754,0
308393,690.70,615,756,0
308403,714.02,615,754,0
308413,730.38,615,756,0
308423,741.88,615,754,0
308443,749.89,622,753,0
308446,755.54,622,757,0
308455,759.45,622,755,0
308465,762.18,622,756,0
308475,764.06,622,754,0
308485,765.33,622,755,0
308495,766.17,622,755,0
308505,766.76,622,756,0
308515,767.13,622,754,0
308525,762.85,622,755,0
308535,748.62,622,755,0
308545,721.95,622,756,0
308555,681.34,622,754,0
308566,627.32,622,756,0
308575,560.93,622,755,0
308585,484.36,622,755,0
308595,403.85,622,754,0
308605,327.70,622,756,0
308615,260.50,622,755,0
308625,206.82,622,756,0
308635,167.75,622,754,0
308645,144.29,622,756,0
308655,134.95,622,755,0
308665,139.16,622,756,0
308675,153.90,622,755,0
308685,177.29,622,756,0
308695,205.44,622,755,0
308705,236.30,622,756,0
308715,266.51,622,755,0
308725,294.73,622,756,0
308736,318.55,622,755,0
308745,337.41,622,756,0
308755,349.89,622,755,0
308765,356.57,622,755,0
308775,356.95,622,754,0
308785,352.64,622,756,0
308795,343.58,622,755,0
308805,331.36,622,755,0
308815,316.29,622,754,0
308825,300.22,622,755,0
308835,283.35,622,755,0
308845,267.22,622,756,0
308855,251.60,622,754,0
308865,238.17,622,755,0
308875,227.49,622,755,0
308885,222.29,622,756,0
308895,224.77,622,755,0
308905,239.03,622,756,0
308915,267.52,622,755,0
308925,312.45,622,756,0
308935,368.37,622,755,0
308945,431.35,622,756,0
308955,496.73,622,756,0
308965,560.15,622,755,0
308975,616.51,622,755,0
308985,662.04,622,756,0
308995,693.91,622,755,0
309005,716.23,622,755,0
309015,731.80,622,755,0
309025,742.75,622,756,0
309036,750.41,622,755,0
309055,755.77,613,753,0
309058,759.48,613,753,0
309067,762.08,613,757,0
309078,763.90,613,754,0
309087,765.17,613,756,0
309097,766.02,613,754,0
309107,766.61,613,757,0
309117,762.40,613,754,0
309127,748.95,613,756,0
309137,722.78,613,754,0
309147,682.60,613,756,0
309157,628.12,613,753,0
309167,560.71,613,756,0
309177,481.69,613,753,0
309187,398.08,613,756,0
309197,317.14,613,753,0
309207,244.33,613,756,0
309217,183.24,613,753,0
309227,136.84,613,756,0
309237,105.60,613,753,0
309248,89.87,613,756,0
309257,87.93,613,754,0
309267,97.90,613,756,0
309277,117.86,613,754,0
309287,145.37,613,756,0
309297,177.06,613,754,0
309307,210.47,613,756,0
309317,242.94,613,754,0
309327,272.83,613,757,0
309337,298.25,613,754,0
309347,318.45,613,757,0
309357,332.59,613,754,0
309367,340.98,613,756,0
309377,343.69,613,754,0
309387,341.60,613,756,0
309397,335.20,613,753,0
309407,325.63,613,756,0
309417,313.48,613,753,0
309427,300.14,613,756,0
309437,286.00,613,753,0
309447,272.07,613,756,0
309457,258.63,613,753,0
309467,246.66,613,756,0
309477,236.22,613,753,0
309487,228.57,613,756,0
309497,224.93,613,753,0
309507,227.86,613,757,0
309517,240.50,613,754,0
309527,267.05,613,757,0
309537,309.81,613,753,0
309548,363.99,613,757,0
309558,425.24,613,754,0
309568,489.67,613,757,0
309578,553.15,613,753,0
309588,611.01,613,757,0
309598,658.15,613,754,0
309608,691.15,613,757,0
309618,714.25,613,753,0
309628,730.41,613,757,0
309638,741.73,613,753,0
309657,749.66,602,752,0
309660,755.20,602,753,0
309669,759.04,602,757,0
309679,761.73,602,753,0
309689,763.61,602,757,0
309699,764.93,602,753,0
309709,765.85,602,757,0
309719,766.49,602,753,0
309729,766.95,602,757,0
309739,767.26,602,754,0
309749,760.41,602,757,0
309760,742.29,602,754,0
309769,711.22,602,757,0
309779,666.54,602,753,0
309789,608.48,602,756,0
309799,538.69,602,753,0
309809,459.03,602,757,0
309819,378.96,602,753,0
309829,305.09,602,756,0
309839,241.76,602,753,0
309849,191.65,602,757,0
309859,156.61,602,753,0
309869,136.50,602,756,0
309879,130.78,602,754,0
309889,137.36,602,757,0
309899,154.09,602,753,0
309909,177.94,602,756,0
309919,206.54,602,753,0
309929,236.81,602,756,0
309939,266.48,602,753,0
309949,293.08,602,757,0
309959,315.51,602,754,0
309969,332.37,602,756,0
309979,343.58,602,753,0
309989,348.67,602,756,0
309999,348.51,602,753,0
310009,343.39,602,756,0
310019,334.62,602,753,0
310029,322.82,602,756,0
310039,309.33,602,753,0
310049,294.74,602,756,0
310060,280.16,602,753,0
310070,265.80,602,756,0
310080,252.66,602,754,0
310090,240.89,602,756,0
310100,231.58,602,754,0
310110,225.62,602,756,0
310120,225.61,602,754,0
310130,234.38,602,756,0
310140,256.25,602,754,0
310150,293.93,602,756,0
310160,344.70,602,754,0
310170,403.93,602,756,0
310180,467.94,602,754,0
310190,532.20,602,756,0
310200,592.35,602,754,0
310210,643.12,602,756,0
310220,680.63,602,754,0
310231,706.88,602,756,0
310241,725.30,602,754,0
310251,738.20,602,756,0
310270,747.22,613,755,0
310274,753.50,613,755,0
310283,757.94,613,756,0
310293,761.04,613,755,0
310303,763.21,613,756,0
310313,764.69,613,755,0
310323,765.77,613,756,0
310333,766.53,613,755,0
310343,767.05,613,756,0
310353,767.38,613,754,0
310363,763.58,613,756,0
310373,750.21,613,755,0
310383,724.64,613,755,0
310393,685.49,613,754,0
310403,633.79,613,755,0
310413,570.25,613,754,0
310423,497.15,613,756,0
310433,420.56,613,754,0
310444,348.74,613,756,0
310454,286.63,613,754,0
310464,238.23,613,756,0
310474,204.17,613,754,0
310484,185.48,613,756,0
310494,180.49,613,754,0
310504,187.80,613,756,0
310514,204.32,613,754,0
310524,227.75,613,756,0
310534,254.40,613,754,0
310544,282.18,613,756,0
310554,308.05,613,754,0
310564,330.75,613,756,0
310574,348.44,613,754,0
310584,360.78,613,756,0
310594,366.76,613,754,0
310604,367.22,613,756,0
310615,362.10,613,754,0
310625,352.64,613,756,0
310635,339.33,613,753,0
310645,323.59,613,757,0
310656,306.23,613,753,0
310665,288.67,613,756,0
310675,271.29,613,753,0
310685,255.09,613,757,0
310695,240.49,613,754,0
310705,228.43,613,756,0
310715,219.77,613,753,0
310725,216.93,613,757,0
310735,222.60,613,753,0
310745,240.25,613,756,0
310755,273.56,613,753,0
310765,321.78,613,757,0
310775,380.00,613,754,0
310785,444.29,613,757,0
310795,509.99,613,753,0
310805,572.56,613,757,0
310815,627.42,613,754,0
310825,669.72,613,757,0
310835,699.34,613,753,0
310845,720.11,613,757,0
310855,734.60,613,754,0
310865,744.79,613,757,0
310884,751.88,614,755,0
310887,756.85,614,757,0
310896,760.28,614,753,0
310906,762.68,614,757,0
310916,764.32,614,753,0
310926,765.47,614,757,0
310936,766.23,614,753,0
310946,766.76,614,757,0
310956,765.63,614,753,0
310966,756.96,614,757,0
310976,736.48,614,753,0
310986,702.52,614,757,0
310996,654.37,614,753,0
311006,593.10,614,757,0
311016,520.08,614,753,0
311026,438.84,614,757,0
311036,357.89,614,753,0
311046,284.04,614,757,0
311056,221.50,614,753,0
311066,173.39,614,757,0
311076,140.70,614,753,0
311086,123.35,614,757,0
311096,120.37,614,753,0
311106,129.82,614,757,0
311116,149.24,614,753,0
311127,175.83,614,757,0
311137,206.57,614,753,0
311147,238.41,614,757,0
311157,269.23,614,753,0
311168,296.80,614,757,0
311177,319.88,614,753,0
311187,337.27,614,757,0
311197,348.55,614,753,0
311207,353.57,614,756,0
311217,353.14,614,753,0
311227,347.78,614,757,0
311237,338.55,614,753,0
311247,326.00,614,757,0
311257,311.43,614,753,0
311267,295.61,614,757,0
311277,279.70,614,753,0
311287,264.06,614,756,0
311297,249.64,614,753,0
311307,236.68,614,757,0
311317,225.76,614,753,0
311327,216.96,614,757,0
311337,211.62,614,754,0
311347,210.83,614,757,0
311357,217.40,614,753,0
311367,234.55,614,757,0
311377,266.57,614,754,0
311387,313.58,614,757,0
311397,370.97,614,753,0
311407,434.32,614,757,0
311417,500.05,614,754,0
311427,563.68,614,757,0
311437,620.26,614,754,0
311447,664.67,614,757,0
311457,695.80,614,754,0
311468,717.59,614,757,0
311478,732.84,614,754,0
311497,743.47,613,753,0
311499,750.92,613,755,0
311510,756.13,613,756,0
311519,759.77,613,754,0
311529,762.29,613,756,0
311539,764.04,613,754,0
311559,765.27,0,754,0
311561,766.18,0,756,0
311571,766.77,0,755,0
311581,767.18,0,757,0
311591,763.40,0,763,0
311601,750.55,0,761,0
311611,724.71,0,776,0
311621,684.56,0,765,0
311631,629.75,0,767,0
311641,561.98,0,769,0
311651,482.49,0,770,0
311661,398.00,0,772,0
311671,316.14,0,771,0
311681,242.77,0,773,0
311691,181.04,0,773,0
311701,133.93,0,776,0
311711,101.42,0,778,0
311721,84.07,0,780,0
311731,79.72,0,780,0
311741,86.70,0,781,0
311751,103.12,0,781,0
311761,127.26,0,781,0
311771,155.51,0,781,0
311781,185.91,0,780,0
311791,215.47,0,781,0
311801,242.93,0,782,0
311811,265.96,0,782,0
311821,284.15,0,783,0
311831,296.19,0,783,0
311841,302.77,0,783,0
311852,303.57,0,782,0
311862,299.89,0,783,0
311872,291.99,0,783,0
311882,281.49,0,784,0
311892,268.70,0,784,0
311902,255.38,0,785,0
311912,241.85,0,784,0
311922,229.25,0,784,0
311932,217.65,0,783,0
311942,207.98,0,784,0
311952,200.02,0,784,0
311962,194.48,0,784,0
311972,191.72,0,783,0
311982,193.26,0,783,0
311992,201.07,0,777,0
312002,218.75,0,778,0
312012,249.34,0,777,0
312023,295.95,0,777,0
312033,353.27,0,775,0
312043,417.13,0,776,0
312053,483.60,0,774,0
312064,548.65,0,776,0
312073,607.38,0,775,0
312083,655.48,0,776,0
312093,689.20,0,692,1
312103,712.84,0,712,0
312122,729.39,564,715,0
312125,741.01,564,748,0
312134,749.15,564,751,0
312144,754.85,564,756,0
312154,758.84,564,753,0
312164,761.63,564,756,0
312174,763.58,564,753,0
312184,764.95,564,757,0
312194,765.87,564,753,0
312204,766.51,564,756,0
312214,764.38,564,753,0
312224,754.07,564,756,0
312235,732.02,564,753,0
312244,697.17,564,756,0
312254,648.91,564,753,0
312264,587.78,564,757,0
312274,515.11,564,753,0
312284,435.71,564,756,0
312294,357.11,564,753,0
312304,285.46,564,756,0
312314,224.34,564,753,0
312324,176.54,564,756,0
312334,143.42,564,753,0
312344,125.34,564,756,0
312354,121.12,564,753,0
312364,129.23,564,757,0
312374,147.24,564,753,0
312384,172.59,564,757,0
312394,202.58,564,753,0
312404,234.55,564,757,0
312414,265.84,564,753,0
312424,294.48,564,757,0
312434,318.93,564,753,0
312444,338.07,564,757,0
312454,351.38,564,753,0
312464,358.68,564,757,0
312474,360.15,564,753,0
312484,356.42,564,757,0
312494,348.28,564,753,0
312504,336.84,564,756,0
312514,323.13,564,753,0
312524,307.92,564,757,0
312535,292.17,564,753,0
312545,276.73,564,757,0
312555,262.37,564,753,0
312565,249.53,564,757,0
312576,238.87,564,753,0
312585,231.28,564,756,0
312595,228.63,564,753,0
312605,233.32,564,757,0
312615,248.83,564,754,0
312625,277.76,564,757,0
312635,322.28,564,753,0
312645,377.22,564,757,0
312655,438.61,564,754,0
312665,502.29,564,757,0
312675,564.04,564,753,0
312685,619.14,564,757,0
312695,663.80,564,754,0
312705,695.06,564,757,0
312715,716.94,564,753,0
312725,732.26,564,757,0
312735,742.98,564,754,0
312755,750.49,632,752,0
312757,755.74,632,755,0
312767,759.42,632,756,0
312777,761.99,632,754,0
312787,763.80,632,756,0
312797,765.06,632,754,0
312807,765.94,632,756,0
312817,766.56,632,754,0
312827,761.63,632,756,0
312837,747.56,632,754,0
312847,721.42,632,756,0
312857,682.21,632,754,0
312867,629.73,632,756,0
312877,565.44,632,754,0
312887,490.39,632,756,0
312897,412.45,632,754,0
312907,337.23,632,756,0
312918,270.47,632,754,0
312927,215.00,632,756,0
312937,173.56,632,754,0
312947,146.13,632,756,0
312957,133.41,632,754,0
312967,133.16,632,756,0
312977,144.12,632,754,0
312987,163.29,632,756,0
312997,188.83,632,754,0
313007,217.29,632,756,0
313017,246.78,632,754,0
313027,274.44,632,756,0
313037,299.38,632,754,0
313047,319.84,632,756,0
313057,335.36,632,754,0
313067,344.94,632,756,0
313077,349.41,632,754,0
313088,348.39,632,756,0
313097,343.26,632,754,0
313107,334.09,632,756,0
313117,322.32,632,754,0
313127,308.43,632,756,0
313137,293.98,632,754,0
313147,279.03,632,756,0
313157,265.01,632,754,0
313167,251.63,632,756,0
313177,240.13,632,754,0
313187,230.11,632,756,0
313197,222.53,632,754,0
313207,217.44,632,756,0
313217,216.37,632,754,0
313227,220.76,632,756,0
313237,234.24,632,754,0
313247,259.67,632,756,0
313257,301.51,632,755,0
313267,354.72,632,756,0
313277,415.27,632,755,0
313287,479.31,632,756,0
313297,543.11,632,755,0
313307,601.88,632,756,0
313317,651.29,632,754,0
313327,686.30,632,756,0
313337,710.85,632,755,0
313356,728.04,602,753,0
313359,740.07,602,756,0
313368,748.49,602,756,0
313378,754.39,602,755,0
313388,758.51,602,756,0
313398,761.40,602,755,0
313408,763.38,602,756,0
313418,764.77,602,755,0
313428,765.74,602,755,0
313438,766.42,602,755,0
313448,766.89,602,756,0
313458,767.22,602,755,0
313468,760.17,602,755,0
313478,742.63,602,754,0
313488,711.84,602,755,0
313498,667.40,602,755,0
313508,609.34,602,755,0
313518,539.68,602,754,0
313528,459.76,602,755,0
313538,379.39,602,755,0
313548,303.80,602,755,0
313559,238.63,602,755,0
313569,186.29,602,754,0
313579,149.00,602,756,0
313589,125.94,602,754,0
313600,117.22,602,755,0
313609,120.37,602,755,0
313619,133.97,602,756,0
313629,154.77,602,755,0
313639,180.46,602,756,0
313649,207.75,602,755,0
313659,234.96,602,756,0
313669,259.44,602,755,0
313679,280.57,602,755,0
313689,296.55,602,755,0
313699,307.44,602,756,0
313709,312.50,602,755,0
313719,312.82,602,756,0
313729,308.37,602,755,0
313739,300.63,602,756,0
313749,289.86,602,755,0
313759,277.60,602,756,0
313769,264.05,602,754,0
313779,250.88,602,756,0
313789,237.89,602,755,0
313799,226.26,602,756,0
313809,215.64,602,754,0
313819,206.92,602,756,0
313829,199.66,602,754,0
313839,195.13,602,756,0
313849,193.76,602,754,0
313859,197.99,602,756,0
313869,209.91,602,755,0
313879,233.76,602,756,0
313889,272.62,602,754,0
313900,325.02,602,756,0
313910,385.91,602,754,0
313920,451.47,602,756,0
313930,517.46,602,754,0
313940,579.76,602,757,0
313950,633.28,602,754,0
313960,673.69,602,756,0
313970,701.99,602,754,0
313990,721.79,633,753,0
313993,735.65,633,753,0
314002,745.36,633,757,0
314012,752.15,633,753,0
314022,756.90,633,757,0
314032,760.23,633,754,0
314042,762.56,633,757,0
314052,764.19,633,753,0
314062,765.34,633,757,0
314072,766.14,633,754,0
314082,766.69,633,757,0
314092,765.50,633,753,0
314102,757.04,633,757,0
314113,737.70,633,753,0
314123,705.82,633,757,0
314133,661.13,633,753,0
314143,604.13,633,757,0
314153,536.51,633,753,0
314163,461.83,633,757,0
314173,387.99,633,753,0
314183,320.80,633,757,0
314193,264.46,633,753,0
314203,220.86,633,757,0
314213,191.38,633,753,0
314223,175.53,633,757,0
314233,172.20,633,753,0
314243,179.38,633,757,0
314253,194.83,633,753,0
314263,215.66,633,757,0
314273,239.64,633,753,0
314284,264.00,633,757,0
314294,286.84,633,753,0
314304,306.26,633,757,0
314314,321.40,633,754,0
314324,331.39,633,756,0
314334,336.20,633,753,0
314344,335.80,633,756,0
314354,330.97,633,754,0
314364,322.02,633,756,0
314374,310.40,633,753,0
314384,296.40,633,756,0
314394,281.36,633,754,0
314404,265.53,633,756,0
314414,250.24,633,753,0
314424,235.51,633,757,0
314434,222.29,633,754,0
314444,210.63,633,756,0
314455,202.47,633,753,0
314465,199.20,633,756,0
314475,204.37,633,754,0
314485,220.71,633,756,0
314496,252.56,633,754,0
314505,300.48,633,756,0
314515,359.52,633,754,0
314525,424.85,633,756,0
314535,492.48,633,754,0
314545,557.48,633,756,0
314555,615.36,633,754,0
314565,661.15,633,756,0
314575,693.21,633,754,0
314585,715.65,633,756,0
314604,731.35,615,755,0
314606,742.35,615,756,0
314616,750.04,615,754,0
314626,755.43,615,756,0
314636,759.20,615,754,0
314646,761.84,615,756,0
314656,763.69,615,755,0
314667,764.98,615,755,0
314676,765.89,615,755,0
314686,766.52,615,756,0
314696,766.96,615,754,0
314706,764.58,615,755,0
314716,755.06,615,755,0
314726,734.56,615,756,0
314736,701.69,615,754,0
314746,655.88,615,755,0
314756,598.36,615,754,0
314766,530.07,615,756,0
314776,455.99,615,754,0
314786,382.28,615,755,0
314796,315.51,615,754,0
314806,258.91,615,756,0
314816,215.48,615,754,0
314826,185.34,615,755,0
314836,169.21,615,755,0
314846,165.03,615,756,0
314856,171.84,615,755,0
314866,186.59,615,755,0
314876,207.58,615,755,0
314886,231.41,615,756,0
314896,256.48,615,755,0
314906,280.04,615,755,0
314916,301.24,615,755,0
314926,318.18,615,756,0
314936,330.81,615,755,0
314946,338.20,615,755,0
314956,341.18,615,755,0
314967,339.28,615,755,0
314977,333.84,615,755,0
314987,325.10,615,754,0
314997,314.49,615,756,0
315008,302.26,615,754,0
315017,289.75,615,755,0
315027,276.92,615,754,0
315037,265.08,615,756,0
315047,253.82,615,754,0
315057,244.19,615,755,0
315067,235.91,615,754,0
315077,230.53,615,756,0
315087,228.79,615,754,0
315097,233.57,615,755,0
315107,247.37,615,755,0
315117,274.64,615,756,0
315127,317.56,615,755,0
315137,371.52,615,756,0
315147,431.92,615,755,0
315157,495.33,615,756,0
315167,557.46,615,755,0
315177,614.15,615,756,0
315187,660.35,615,755,0
315197,692.69,615,756,0
315207,715.32,615,755,0
315227,731.17,622,754,0
315230,742.26,622,754,0
315239,750.07,622,757,0
315249,755.53,622,754,0
315259,759.36,622,757,0
315269,762.04,622,754,0
315279,763.91,622,757,0
315289,765.22,622,754,0
315299,766.10,622,757,0
315309,766.67,622,754,0
315319,767.07,622,756,0
315329,767.35,622,754,0
315339,767.54,622,757,0
315350,761.12,622,753,0
315359,745.02,622,756,0
315369,716.85,622,754,0
315379,676.27,622,757,0
315389,623.30,622,753,0
315399,559.78,622,756,0
315409,487.12,622,754,0
315419,414.18,622,757,0
315429,346.11,622,753,0
315439,287.58,622,756,0
315449,240.73,622,754,0
315459,207.39,622,757,0
315469,186.74,622,753,0
315479,178.33,622,756,0
315489,179.95,622,754,0
315499,189.86,622,757,0
315509,205.38,622,754,0
315520,224.51,622,757,0
315529,244.71,622,754,0
315539,264.56,622,757,0
315549,282.22,622,753,0
315559,297.15,622,757,0
315569,308.29,622,754,0
315579,315.75,622,757,0
315589,319.17,622,753,0
315599,318.99,622,757,0
315609,315.39,622,754,0
315619,309.40,622,757,0
315629,301.27,622,753,0
315639,291.84,622,757,0
315649,281.48,622,754,0
315659,271.09,622,757,0
315669,260.82,622,753,0
315679,251.32,622,757,0
315689,242.57,622,754,0
315699,235.37,622,757,0
315709,229.90,622,754,0
315719,227.49,622,757,0
315729,229.66,622,754,0
315739,239.23,622,757,0
315749,259.05,622,754,0
315759,293.10,622,757,0
315769,340.52,622,754,0
315779,397.02,622,757,0
315789,458.47,622,754,0
315799,521.03,622,757,0
315809,580.63,622,754,0
315820,633.07,622,757,0
315830,673.55,622,754,0
315849,701.89,623,752,0
315852,721.72,623,754,0
315862,735.60,623,757,0
315871,745.32,623,754,0
315881,752.13,623,757,0
315891,756.89,623,754,0
315901,760.22,623,757,0
315911,762.56,623,754,0
315921,764.19,623,757,0
315931,765.33,623,754,0
315941,766.13,623,757,0
315951,766.69,623,754,0
315961,767.08,623,757,0
315971,762.39,623,753,0
315981,748.30,623,757,0
315991,722.84,623,753,0
316001,684.92,623,756,0
316011,634.71,623,753,0
316021,573.04,623,757,0
316032,501.71,623,754,0
316041,427.70,623,757,0
316051,357.68,623,753,0
316061,295.72,623,757,0
316071,245.19,623,753,0
316081,207.46,623,756,0
316091,183.41,623,753,0
316101,172.19,623,757,0
316111,172.52,623,754,0
316121,182.13,623,756,0
316131,198.98,623,753,0
316141,220.41,623,757,0
316151,244.46,623,754,0
316161,268.62,623,756,0
316171,291.28,623,753,0
316181,310.82,623,757,0
316191,326.56,623,754,0
316201,337.58,623,756,0
316211,344.01,623,753,0
316221,345.80,623,757,0
316231,343.68,623,754,0
316241,337.95,623,756,0
316251,329.73,623,753,0
316261,319.48,623,757,0
316271,308.41,623,754,0
316281,296.63,623,756,0
316291,285.08,623,753,0
316301,273.96,623,757,0
316311,264.03,623,753,0
316321,255.41,623,757,0
316332,249.41,623,754,0
316342,247.23,623,757,0
316352,251.70,623,754,0
316362,265.42,623,756,0
316372,292.12,623,754,0
316382,333.70,623,757,0
316392,385.86,623,754,0
316402,444.40,623,756,0
316412,505.70,623,754,0
316422,565.53,623,757,0
316432,619.80,623,754,0
316442,663.96,623,756,0
316452,695.17,623,754,0
316462,717.02,623,757,0
316472,732.31,623,754,0
316491,743.02,642,753,0
316493,750.56,642,756,0
316503,755.83,642,757,0
316513,759.53,642,754,0
316523,762.11,642,756,0
316533,763.92,642,754,0
316544,765.19,642,756,0
316553,766.07,642,754,0
316563,766.65,642,756,0
316573,763.63,642,755,0
316583,751.91,642,756,0
316593,729.35,642,754,0
316603,694.19,642,756,0
316613,646.35,642,754,0
316623,586.29,642,756,0
316633,515.79,642,754,0
316643,439.74,642,756,0
316653,365.76,642,754,0
316663,297.94,642,756,0
316673,240.62,642,754,0
316683,195.52,642,756,0
316693,164.46,642,754,0
316703,146.50,642,756,0
316713,141.59,642,755,0
316723,147.20,642,756,0
316733,161.97,642,754,0
316743,182.93,642,756,0
316753,208.37,642,755,0
316763,235.04,642,756,0
316773,261.64,642,754,0
316783,285.62,642,756,0
316793,306.56,642,755,0
316803,322.90,642,756,0
316813,334.67,642,754,0
316823,341.03,642,756,0
316833,342.86,642,754,0
316844,340.03,642,756,0
316854,333.85,642,754,0
316864,324.47,642,755,0
316874,313.44,642,755,0
316884,300.84,642,755,0
316894,288.24,642,754,0
316904,275.53,642,755,0
316914,264.05,642,755,0
316924,253.45,642,755,0
316934,244.75,642,754,0
316944,237.36,642,755,0
316954,232.50,642,755,0
316964,230.33,642,755,0
316974,232.93,642,754,0
316984,241.91,642,755,0
316994,261.14,642,755,0
317004,293.41,642,755,0
317015,339.62,642,755,0
317025,394.80,642,755,0
317035,455.29,642,756,0
317045,517.22,642,755,0
317056,576.85,642,756,0
317065,629.53,642,755,0
317075,671.07,642,756,0
317085,700.15,642,755,0
317105,720.50,613,753,0
317107,734.84,613,755,0
317117,744.87,613,757,0
317127,751.90,613,754,0
317137,756.81,613,757,0
317147,760.25,613,754,0
317157,762.66,613,757,0
317167,764.35,613,754,0
317177,765.45,613,757,0
317187,766.21,613,754,0
317197,766.75,613,757,0
317207,767.12,613,754,0
317217,762.46,613,756,0
317228,748.35,613,754,0
317238,722.53,613,757,0
317248,683.93,613,754,0
317258,632.82,613,757,0
317268,570.22,613,753,0
317278,498.02,613,757,0
317288,423.06,613,754,0
317298,352.07,613,757,0
317308,289.39,613,753,0
317318,238.19,613,757,0
317328,199.90,613,753,0
317338,175.16,613,757,0
317348,163.20,613,753,0
317358,162.80,613,757,0
317368,171.77,613,754,0
317378,188.17,613,757,0
317388,209.55,613,753,0
317399,233.64,613,757,0
317409,258.22,613,753,0
317419,281.17,613,757,0
317429,301.13,613,753,0
317440,317.16,613,757,0
317449,328.77,613,753,0
317459,335.78,613,757,0
317469,338.25,613,753,0
317479,336.42,613,757,0
317489,331.19,613,753,0
317499,323.25,613,757,0
317509,313.49,613,753,0
317519,302.37,613,757,0
317529,290.69,613,753,0
317539,279.12,613,757,0
317549,268.33,613,753,0
317559,258.55,613,757,0
317569,250.15,613,753,0
317579,243.29,613,757,0
317589,238.58,613,753,0
317599,236.56,613,757,0
317609,239.01,613,754,0
317619,247.62,613,757,0
317629,265.52,613,753,0
317639,295.92,613,757,0
317649,340.43,613,754,0
317659,394.22,613,757,0
317669,453.55,613,753,0
317679,514.46,613,757,0
317689,573.51,613,754,0
317699,626.41,613,757,0
317709,668.89,613,753,0
317719,698.62,613,757,0
317739,719.44,634,756,0
317742,734.05,634,757,0
317751,744.32,634,754,0
317761,751.51,634,757,0
317771,756.54,634,754,0
317782,760.07,634,756,0
317791,762.53,634,754,0
317801,764.26,634,757,0
317811,765.42,634,754,0
317821,766.20,634,756,0
317831,766.74,634,754,0
317841,765.74,634,756,0
317851,757.98,634,754,0
317861,739.56,634,756,0
317871,709.43,634,754,0
317881,666.57,634,756,0
317891,611.72,634,754,0
317901,545.46,634,756,0
317911,471.52,634,754,0
317921,396.79,634,756,0
317931,327.60,634,754,0
317941,267.03,634,756,0
317952,218.47,634,754,0
317961,182.67,634,756,0
317971,160.74,634,754,0
317981,151.17,634,756,0
317991,153.18,634,754,0
318001,164.31,634,756,0
318011,182.82,634,754,0
318021,205.72,634,756,0
318031,231.34,634,754,0
318041,256.91,634,756,0
318051,281.20,634,754,0
318061,302.27,634,756,0
318071,319.76,634,754,0
318081,332.43,634,756,0
318091,340.57,634,754,0
318101,343.57,634,756,0
318111,342.54,634,754,0
318121,337.32,634,756,0
318131,329.43,634,754,0
318141,318.97,634,756,0
318151,307.32,634,754,0
318161,294.71,634,756,0
318171,282.54,634,754,0
318181,270.68,634,756,0
318191,260.27,634,754,0
318201,250.85,634,756,0
318211,243.31,634,754,0
318221,237.17,634,756,0
318231,233.44,634,754,0
318241,231.93,634,756,0
318252,234.82,634,755,0
318262,243.62,634,756,0
318272,262.03,634,755,0
318282,292.67,634,756,0
318292,337.51,634,755,0
318302,391.53,634,756,0
318312,451.33,634,755,0
318322,512.81,634,756,0
318332,572.44,634,755,0
318342,625.58,634,756,0
318352,668.31,634,755,0
318362,698.21,634,756,0
318382,719.15,643,755,0
318384,733.81,643,755,0
318394,744.06,643,756,0
318404,751.24,643,755,0
318414,756.27,643,756,0
318424,759.79,643,755,0
318434,762.25,643,756,0
318444,763.98,643,755,0
318454,765.18,643,756,0
318465,766.03,643,755,0
318475,766.62,643,756,0
318485,764.42,643,754,0
318495,754.61,643,756,0
318505,733.73,643,754,0
318515,700.85,643,756,0
318525,655.25,643,754,0
318535,597.83,643,756,0
318545,529.70,643,754,0
318555,455.77,643,756,0
318565,382.73,643,754,0
318575,316.51,643,756,0
318585,260.13,643,754,0
318595,216.55,643,756,0
318605,186.34,643,754,0
318615,170.00,643,756,0
318625,165.88,643,754,0
318636,172.95,643,757,0
318646,188.52,643,754,0
318656,210.48,643,757,0
318666,236.01,643,754,0
318676,263.00,643,757,0
318686,289.02,643,754,0
318696,312.58,643,757,0
318706,332.12,643,754,0
318716,347.09,643,757,0
318726,356.83,643,753,0
318736,361.55,643,757,0
318746,361.43,643,754,0
318756,357.19,643,757,0
318766,349.37,643,754,0
318776,339.02,643,757,0
318786,326.67,643,754,0
318796,313.48,643,757,0
318807,299.88,643,753,0
318817,286.67,643,757,0
318827,274.21,643,753,0
318837,263.05,643,757,0
318848,253.39,643,753,0
318857,245.99,643,757,0
318867,241.36,643,754,0
318877,241.34,643,757,0
318887,248.05,643,753,0
318897,264.02,643,757,0
318907,292.60,643,754,0
318917,335.92,643,757,0
318927,389.17,643,753,0
318937,448.39,643,757,0
318947,509.65,643,754,0
318957,568.98,643,757,0
318967,622.64,643,753,0
318977,666.25,643,757,0
318987,696.78,643,754,0
318997,718.14,643,757,0
319016,733.10,635,756,0
319020,743.57,635,757,0
319028,750.90,635,754,0
319038,756.03,635,757,0
319048,759.62,635,753,0
319058,762.13,635,757,0
319068,763.89,635,754,0
319078,765.13,635,757,0
319088,765.99,635,754,0
319098,766.59,635,757,0
319108,765.39,635,754,0
319118,756.91,635,757,0
319128,737.78,635,753,0
319138,706.00,635,757,0
319148,661.77,635,754,0
319158,605.27,635,757,0
319168,537.82,635,753,0
319178,462.66,635,757,0
319188,387.72,635,754,0
319198,318.42,635,757,0
319208,259.15,635,754,0
319218,211.70,635,757,0
319228,177.94,635,754,0
319238,157.68,635,757,0
319248,150.49,635,754,0
319258,154.50,635,757,0
319268,168.11,635,754,0
319278,188.65,635,757,0
319288,213.82,635,754,0
319298,240.75,635,757,0
319308,267.74,635,754,0
319319,292.59,635,757,0
319329,314.23,635,754,0
319339,331.17,635,757,0
319349,343.29,635,754,0
319360,350.02,635,756,0
319369,352.20,635,754,0
319379,349.74,635,756,0
319389,343.77,635,754,0
319399,334.50,635,756,0
319409,323.46,635,754,0
319419,310.90,635,756,0
319429,298.20,635,754,0
319439,285.32,635,756,0
319449,273.44,635,754,0
319459,262.47,635,756,0
319469,253.20,635,754,0
319479,245.17,635,757,0
319489,239.07,635,754,0
319499,234.64,635,757,0
319509,232.99,635,754,0
319519,234.88,635,757,0
319529,243.19,635,755,0
319539,259.93,635,757,0
319549,289.09,635,754,0
319559,332.69,635,757,0
319569,386.19,635,755,0
319579,445.49,635,756,0
319589,507.18,635,754,0
319599,566.91,635,757,0
319609,621.20,635,755,0
319619,665.28,635,757,0
319629,696.14,635,754,0
319648,717.74,632,754,0
319651,732.86,632,756,0
319660,743.45,632,756,0
319670,750.85,632,754,0
319680,756.00,632,756,0
319690,759.60,632,755,0
319700,762.12,632,756,0
319710,763.88,632,755,0
319720,765.12,632,757,0
319730,765.98,632,755,0
319740,766.59,632,756,0
319750,767.01,632,755,0
319760,767.31,632,756,0
319770,764.60,632,755,0
319780,753.41,632,756,0
319790,731.51,632,754,0
319800,696.99,632,756,0
319810,650.02,632,755,0
319820,590.96,632,756,0
319831,521.63,632,755,0
319841,446.70,632,756,0
319851,374.44,632,755,0
319861,309.00,632,755,0
319872,255.00,632,756,0
319881,213.51,632,756,0
319891,186.23,632,755,0
319901,172.15,632,755,0
319911,170.60,632,755,0
319921,178.69,632,756,0
319931,194.86,632,755,0
319941,215.77,632,755,0
319951,239.97,632,755,0
319961,264.36,632,756,0
319971,287.74,632,755,0
319981,307.79,632,755,0
319991,324.31,632,755,0
320001,336.05,632,756,0
320011,343.45,632,755,0
320021,345.84,632,755,0
320031,344.35,632,755,0
320041,338.80,632,755,0
320051,330.80,632,755,0
320061,320.32,632,756,0
320071,308.78,632,755,0
320081,296.20,632,755,0
320091,284.10,632,755,0
320101,272.33,632,756,0
320111,261.99,632,755,0
320121,252.69,632,755,0
320131,245.28,632,755,0
320141,239.16,632,756,0
320151,235.12,632,755,0
320161,232.73,632,755,0
320172,233.71,632,756,0
320182,239.07,632,755,0
320192,252.12,632,756,0
320202,275.70,632,755,0
320212,314.19,632,756,0
320222,363.97,632,755,0
320232,421.41,632,756,0
320242,482.40,632,755,0
320252,543.70,632,756,0
320262,600.79,632,755,0
320272,649.54,632,756,0
320282,685.08,632,755,0
320302,709.95,653,754,0
320305,727.37,653,754,0
320314,739.56,653,757,0
320324,748.09,653,754,0
320334,754.06,653,757,0
320344,758.24,653,754,0
320354,761.17,653,757,0
320364,763.22,653,754,0
320374,764.65,653,757,0
320385,765.66,653,754,0
320395,766.36,653,757,0
320405,766.85,653,754,0
320415,767.20,653,757,0
320425,766.37,653,754,0
320435,759.23,653,757,0
320445,741.67,653,754,0
320455,711.86,653,757,0
320465,669.39,653,754,0
320475,615.14,653,757,0
320485,550.30,653,754,0
320495,477.95,653,757,0
320505,405.62,653,753,0
320515,339.74,653,756,0
320525,284.32,653,754,0
320535,241.92,653,757,0
320545,213.23,653,754,0
320556,198.38,653,757,0
320566,195.99,653,754,0
320576,204.05,653,757,0
320586,220.15,653,754,0
320596,241.71,653,757,0
320606,266.01,653,754,0
320616,290.82,653,757,0
320626,313.97,653,754,0
320636,333.87,653,757,0
320646,349.51,653,754,0
320656,360.24,653,757,0
320666,366.04,653,754,0
320676,366.93,653,757,0
320686,363.52,653,754,0
320696,356.46,653,757,0
320706,346.77,653,754,0
320716,335.01,653,757,0
320727,322.23,653,754,0
320737,308.96,653,757,0
320747,296.16,653,754,0
320757,283.86,653,756,0
320768,272.80,653,754,0
320777,263.00,653,757,0
320787,255.16,653,754,0
320797,249.54,653,756,0
320807,247.83,653,754,0
320817,251.48,653,757,0
320827,263.90,653,754,0
320837,288.36,653,756,0
320847,328.62,653,754,0
320857,379.56,653,757,0
320867,437.47,653,754,0
320877,498.35,653,757,0
320887,558.81,653,754,0
320897,614.36,653,757,0
320907,660.45,653,754,0
320917,692.72,653,757,0
320927,715.30,653,754,0
320947,731.11,645,753,0
320950,742.18,645,755,0
320959,749.92,645,756,0
320969,755.39,645,755,0
320979,759.22,645,756,0
320989,761.94,645,755,0
320999,763.84,645,756,0
321009,765.17,645,755,0
321019,766.11,645,756,0
321029,766.76,645,755,0
321039,767.18,645,756,0
321049,767.47,645,755,0
321059,763.08,645,756,0
321069,750.20,645,754,0
321079,725.54,645,756,0
321089,688.18,645,754,0
321099,637.94,645,756,0
321110,576.16,645,755,0
321119,504.50,645,756,0
321129,429.86,645,754,0
321139,358.03,645,756,0
321149,295.11,645,755,0
321159,243.69,645,756,0
321169,206.37,645,754,0
321179,182.90,645,756,0
321189,173.20,645,755,0
321199,174.90,645,756,0
321209,186.71,645,754,0
321219,205.49,645,756,0
321229,229.34,645,755,0
321239,254.91,645,757,0
321249,280.57,645,754,0
321259,303.62,645,756,0
321269,323.45,645,755,0
321280,338.36,645,756,0
321289,348.41,645,754,0
321299,353.00,645,756,0
321309,353.04,645,755,0
321319,348.57,645,756,0
321329,340.77,645,754,0
321339,329.96,645,756,0
321349,317.67,645,755,0
321359,303.97,645,756,0
321369,290.31,645,754,0
321379,276.67,645,756,0
321389,264.13,645,755,0
321399,252.47,645,756,0
321409,242.78,645,754,0
321419,234.53,645,756,0
321429,228.84,645,755,0
321439,225.97,645,756,0
321449,228.34,645,755,0
321459,237.75,645,756,0
321469,258.31,645,755,0
321479,293.19,645,756,0
321489,341.52,645,755,0
321499,398.53,645,756,0
321509,460.60,645,755,0
321519,523.46,645,756,0
321529,583.41,645,755,0
321539,635.53,645,756,0
321549,675.31,645,755,0
321559,703.16,645,756,0
321579,722.70,632,755,0
321582,736.42,632,755,0
321591,746.06,632,756,0
321601,752.82,632,755,0
321611,757.54,632,756,0
321622,760.81,632,755,0
321631,763.14,632,756,0
321641,764.72,632,755,0
321651,765.79,632,756,0
321661,766.50,632,755,0
321671,766.99,632,756,0
321681,767.34,632,755,0
321691,767.58,632,756,0
321701,766.25,632,755,0
321711,758.37,632,756,0
321721,739.58,632,755,0
321731,708.16,632,756,0
321741,663.41,632,755,0
321751,606.63,632,756,0
321761,538.77,632,755,0
321771,463.75,632,756,0
321781,388.61,632,754,0
321792,320.46,632,756,0
321801,262.89,632,755,0
321811,219.08,632,756,0
321821,189.06,632,755,0
321831,173.48,632,756,0
321841,170.21,632,755,0
321851,177.99,632,756,0
321861,193.76,632,755,0
321871,215.61,632,756,0
321881,240.07,632,755,0
321891,265.42,632,756,0
321901,288.95,632,755,0
321911,309.75,632,756,0
321921,326.11,632,755,0
321931,337.91,632,756,0
321941,344.15,632,754,0
321951,345.86,632,756,0
321961,342.69,632,755,0
321971,336.05,632,756,0
321981,326.05,632,755,0
321991,314.16,632,756,0
322001,300.66,632,754,0
322011,287.18,632,756,0
322021,273.58,632,755,0
322031,261.28,632,756,0
322041,250.01,632,754,0
322051,240.88,632,756,0
322061,233.29,632,754,0
322071,228.10,632,756,0
322081,225.37,632,754,0
322092,227.27,632,756,0
322102,235.63,632,754,0
322112,254.22,632,757,0
322122,286.38,632,754,0
322132,332.68,632,757,0
322142,388.32,632,754,0
322152,449.72,632,757,0
322162,512.85,632,754,0
322172,573.79,632,757,0
322182,627.73,632,754,0
322192,669.98,632,757,0
322202,699.60,632,754,0
322222,720.38,643,753,0
322225,734.96,643,754,0
322234,745.13,643,757,0
322244,752.21,643,754,0
322254,757.12,643,757,0
322264,760.55,643,754,0
322274,762.92,643,757,0
322284,764.53,643,754,0
322294,765.61,643,757,0
322305,766.37,643,753,0
322315,766.90,643,757,0
322325,767.27,643,754,0
322335,767.49,643,757,0
322345,766.87,643,754,0
322355,760.01,643,757,0
322365,742.91,643,754,0
322375,713.58,643,757,0
322385,671.58,643,754,0
322395,617.92,643,757,0
322405,554.00,643,754,0
322415,482.43,643,757,0
322425,411.24,643,753,0
322435,346.63,643,757,0
322445,292.91,643,754,0
322455,252.39,643,757,0
322465,225.88,643,753,0
322476,212.71,643,757,0
322486,211.94,643,754,0
322496,220.87,643,757,0
322506,237.41,643,754,0
322516,258.37,643,757,0
322526,281.49,643,754,0
322536,304.01,643,757,0
322546,324.54,643,754,0
322556,341.09,643,756,0
322566,353.36,643,754,0
322576,360.50,643,757,0
322586,363.01,643,754,0
322596,360.86,643,757,0
322606,354.95,643,754,0
322616,345.62,643,757,0
322626,334.25,643,754,0
322636,321.10,643,757,0
322647,307.40,643,754,0
322657,293.39,643,757,0
322667,280.12,643,754,0
322677,267.57,643,756,0
322688,256.86,643,755,0
322697,248.07,643,757,0
322707,243.03,643,754,0
322717,243.20,643,756,0
322727,252.27,643,755,0
322737,272.41,643,757,0
322747,308.25,643,754,0
322757,356.64,643,756,0
322767,413.67,643,755,0
322777,475.01,643,757,0
322787,537.02,643,754,0
322797,594.83,643,756,0
322807,644.85,643,755,0
322817,681.92,643,757,0
322827,707.88,643,754,0
322837,726.00,643,757,0
322856,738.73,635,756,0
322859,747.68,635,756,0
322868,753.95,635,755,0
322878,758.29,635,756,0
322888,761.33,635,755,0
322898,763.46,635,756,0
322908,764.95,635,755,0
322918,765.95,635,756,0
322928,766.65,635,755,0
322938,767.14,635,756,0
322948,767.49,635,755,0
322958,766.57,635,756,0
322968,758.68,635,756,0
322978,739.32,635,758,0
322988,707.72,635,759,0
322998,662.64,635,755,0
323008,605.32,635,754,0
323018,536.61,635,756,0
323028,460.23,635,757,0
323038,383.96,635,758,0
323048,315.27,635,760,0
323058,256.99,635,757,0
323068,213.02,635,755,0
323078,183.44,635,757,0
323088,169.00,635,756,0
323098,167.37,635,755,0
323108,177.54,635,755,0
323118,195.98,635,756,0
323128,220.59,635,755,0
323138,247.58,635,756,0
323148,275.26,635,755,0
323159,300.73,635,755,0
323169,323.10,635,756,0
323179,340.17,635,755,0
323189,352.12,635,756,0
323200,357.65,635,757,0
323209,358.23,635,759,0
323219,353.70,635,755,0
323229,345.56,635,756,0
323239,333.95,635,754,0
323249,320.64,635,755,0
323259,305.75,635,755,0
323269,291.29,635,756,0
323279,276.93,635,755,0
323289,264.01,635,755,0
323299,252.31,635,755,0
323309,243.00,635,756,0
323319,235.37,635,755,0
323329,230.37,635,756,0
323339,227.35,635,759,0
323349,227.63,635,755,0
323359,231.55,635,755,0
323369,241.97,635,756,0
323379,260.58,635,756,0
323389,291.69,635,756,0
323399,336.53,635,755,0
323409,390.84,635,756,0
323419,450.33,635,756,0
323429,511.86,635,756,0
323439,571.13,635,755,0
323449,624.75,635,756,0
323459,667.81,635,760,0
323469,698.00,635,755,0
323488,719.13,632,755,0
323491,733.96,632,756,0
323500,744.30,632,755,0
323510,751.58,632,756,0
323520,756.64,632,755,0
323530,760.22,632,756,0
323540,762.68,632,755,0
323550,764.45,632,756,0
323560,765.64,632,755,0
323570,766.52,632,756,0
323580,767.09,632,757,0
323590,767.54,632,757,0
323600,762.53,632,760,0
323610,748.19,632,757,0
323620,721.69,632,756,0
323630,683.00,632,758,0
323640,631.48,632,755,0
323650,568.42,632,756,0
323660,495.01,632,755,0
323671,418.85,632,756,0
323681,345.91,632,754,0
323691,281.65,632,756,0
323701,228.14,632,758,0
323712,188.16,632,756,0
323721,161.84,632,754,0
323731,149.46,632,756,0
323741,149.32,632,755,0
323751,160.02,632,756,0
323761,178.36,632,755,0
323771,202.34,632,756,0
323781,228.76,632,755,0
323791,255.79,632,757,0
323801,280.84,632,755,0
323811,302.83,632,756,0
323821,320.11,632,755,0
323831,332.89,632,757,0
323841,340.38,632,755,0
323851,343.44,632,756,0
323861,341.98,632,755,0
323871,337.23,632,756,0
323881,329.45,632,754,0
323891,320.01,632,756,0
323901,309.17,632,755,0
323911,298.10,632,756,0
323921,286.97,632,755,0
323931,276.74,632,756,0
323941,266.87,632,757,0
323951,258.17,632,756,0
323961,250.23,632,754,0
323971,244.03,632,756,0
323981,239.78,632,755,0
323991,239.68,632,756,0
324001,245.64,632,755,0
324012,261.52,632,756,0
324022,289.95,632,754,0
324032,333.47,632,757,0
324042,386.90,632,755,0
324052,446.67,632,757,0
324062,508.48,632,755,0
324072,568.60,632,757,0
324082,622.46,632,755,0
324092,666.16,632,757,0
324102,696.76,632,755,0
324112,718.22,632,757,0
324131,733.24,643,756,0
324133,743.75,643,757,0
324143,751.07,643,754,0
324153,756.19,643,757,0
324163,759.78,643,754,0
324173,762.29,643,757,0
324183,764.00,643,754,0
324193,761.77,643,757,0
324203,751.34,643,754,0
324213,729.94,643,756,0
324224,696.23,643,754,0
324233,650.39,643,757,0
324243,592.50,643,754,0
324253,523.52,643,756,0
324263,448.41,643,754,0
324273,373.67,643,757,0
324283,304.08,643,754,0
324293,243.03,643,756,0
324303,192.62,643,754,0
324313,154.51,643,757,0
324323,129.50,643,754,0
324333,117.31,643,757,0
324343,116.87,643,754,0
324353,126.72,643,757,0
324363,145.06,643,754,0
324373,169.52,643,757,0
324383,197.90,643,754,0
324393,227.72,643,757,0
324403,256.86,643,754,0
324413,283.56,643,757,0
324423,306.41,643,754,0
324433,324.50,643,757,0
324443,337.25,643,754,0
324453,344.50,643,757,0
324463,346.58,643,754,0
324473,344.09,643,757,0
324483,337.76,643,754,0
324493,328.58,643,757,0
324503,317.30,643,754,0
324513,304.78,643,757,0
324524,291.95,643,754,0
324534,279.32,643,757,0
324544,267.65,643,754,0
324554,256.96,643,757,0
324564,247.84,643,754,0
324574,240.22,643,757,0
324584,234.58,643,754,0
324594,230.94,643,757,0
324604,230.65,643,754,0
324614,234.57,643,757,0
324624,245.16,643,754,0
324634,264.61,643,757,0
324644,296.23,643,754,0
324654,341.29,643,757,0
324664,395.63,643,754,0
324674,454.88,643,757,0
324684,515.69,643,754,0
324695,574.15,643,757,0
324705,626.48,643,754,0
324715,668.72,643,757,0
324725,698.51,643,755,0
324745,719.35,613,754,0
324748,733.99,613,756,0
324757,744.24,613,756,0
324767,751.41,613,755,0
324777,756.43,613,756,0
324787,759.94,613,755,0
324797,762.40,613,756,0
324807,764.12,613,755,0
324817,762.20,613,756,0
324827,753.40,613,755,0
324837,734.46,613,756,0
324847,704.33,613,755,0
324857,662.10,613,756,0
324867,608.97,613,755,0
324877,545.16,613,756,0
324887,475.60,613,755,0
324897,404.96,613,756,0
324908,338.85,613,755,0
324918,280.05,613,755,0
324928,231.95,613,756,0
324938,194.68,613,755,0
324948,170.17,613,756,0
324958,157.18,613,756,0
324968,155.84,613,756,0
324978,164.16,613,755,0
324988,181.04,613,755,0
324998,203.49,613,755,0
325008,230.17,613,756,0
325018,257.97,613,755,0
325028,285.93,613,755,0
325038,311.58,613,755,0
325048,334.16,613,756,0
325058,351.68,613,755,0
325068,364.51,613,756,0
325079,371.60,613,755,0
325089,373.95,613,756,0
325099,371.18,613,755,0
325109,364.57,613,756,0
325120,354.24,613,755,0
325129,342.17,613,756,0
325139,328.27,613,755,0
325149,314.31,613,756,0
325159,300.03,613,755,0
325169,287.08,613,756,0
325179,274.97,613,755,0
325189,264.78,613,756,0
325199,255.97,613,755,0
325209,249.38,613,756,0
325219,244.21,613,755,0
325229,241.10,613,756,0
325239,239.19,613,755,0
325249,239.47,613,756,0
325259,241.99,613,755,0
325269,248.81,613,756,0
325279,261.55,613,755,0
325289,283.76,613,756,0
325299,317.47,613,755,0
325309,363.53,613,756,0
325319,417.41,613,755,0
325329,475.79,613,756,0
325339,534.74,613,755,0
325349,590.79,613,756,0
325359,639.62,613,755,0
325379,678.14,634,754,0
325382,705.10,634,755,0
325391,723.97,634,757,0
325401,737.18,634,754,0
325411,746.42,634,757,0
325421,752.90,634,755,0
325440,757.43,0,753,0
325442,760.60,0,754,0
325452,762.82,0,757,0
325463,764.37,0,754,0
325473,765.46,0,756,0
325483,766.22,0,754,0
325493,766.76,0,757,0
325504,767.13,0,754,0
325513,767.39,0,757,0
325523,761.87,0,754,0
325533,747.00,0,757,0
325543,720.98,0,754,0
325553,683.66,0,756,0
325563,635.38,0,754,0
325573,577.19,0,757,0
325583,511.01,0,754,0
325593,444.53,0,756,0
325603,383.60,0,754,0
325613,332.08,0,757,0
325623,292.07,0,754,0
325633,264.53,0,757,0
325643,249.59,0,754,0
325653,245.98,0,757,0
325663,252.07,0,754,0
325673,265.47,0,756,0
325683,283.67,0,754,0
325693,304.21,0,757,0
325703,325.15,0,754,0
325713,344.43,0,757,0
325723,360.85,0,754,0
325733,373.11,0,757,0
325743,380.83,0,754,0
325753,383.75,0,756,0
325763,382.33,0,754,0
325773,376.79,0,757,0
325783,368.02,0,754,0
325793,356.53,0,757,0
325804,343.56,0,754,0
325814,329.68,0,757,0
325824,316.10,0,754,0
325834,303.00,0,756,0
325844,291.39,0,754,0
325854,281.33,0,756,0
325864,273.30,0,754,0
325874,267.00,0,756,0
325884,262.88,0,754,0
325894,260.52,0,757,0
325904,260.71,0,754,0
325914,264.09,0,756,0
325924,273.02,0,754,0
325934,289.60,0,757,0
325944,317.79,0,754,0
325954,359.17,0,757,0
325964,409.60,0,754,0
325975,465.39,0,756,0
325985,523.35,0,755,0
325995,579.60,0,756,0
326005,630.72,0,754,0
326016,671.99,0,756,0
326034,700.92,594,756,0
326037,721.22,594,757,0
326046,735.47,594,755,0
326056,745.44,594,756,0
326066,752.47,594,755,0
326076,757.34,594,756,0
326086,760.80,594,755,0
326096,763.17,594,756,0
326106,764.83,594,755,0
326116,765.96,594,756,0
326126,766.74,594,754,0
326136,767.25,594,756,0
326146,767.64,594,755,0
326156,767.88,594,756,0
326166,768.04,594,754,0
326176,768.12,594,756,0
326187,763.45,594,755,0
326196,750.20,594,756,0
326206,726.27,594,754,0
326216,690.58,594,757,0
326226,644.03,594,755,0
326236,587.79,594,756,0
326246,523.96,594,754,0
326256,458.91,594,756,0
326266,398.81,594,755,0
326276,347.65,594,756,0
326286,308.59,594,754,0
326296,281.71,594,756,0
326306,267.14,594,755,0
326316,262.90,594,756,0
326326,267.86,594,755,0
326336,279.26,594,756,0
326346,295.21,594,755,0
326356,312.63,594,756,0
326366,330.19,594,754,0
326376,345.47,594,761,0
326386,357.76,594,753,0
326396,365.72,594,755,0
326406,369.53,594,754,0
326416,368.39,594,756,0
326426,363.30,594,755,0
326436,354.08,594,755,0
326446,342.23,594,754,0
326456,328.10,594,756,0
326466,312.99,594,755,0
326476,296.96,594,756,0
326487,281.59,594,755,0
326497,266.93,594,755,0
326507,254.30,594,755,0
326517,243.41,594,755,0
326528,235.49,594,756,0
326537,229.90,594,755,0
326547,228.00,594,755,0
326557,230.23,594,755,0
326567,239.12,594,756,0
326577,256.18,594,755,0
326587,285.61,594,755,0
326597,329.27,594,755,0
326607,382.89,594,756,0
326617,442.19,594,755,0
326627,503.94,594,755,0
326637,563.96,594,755,0
326647,618.91,594,756,0
326666,663.81,632,754,0
326669,695.28,632,756,0
326678,717.35,632,755,0
326688,732.85,632,756,0
326699,743.69,632,755,0
326708,751.29,632,756,0
326718,756.60,632,755,0
326728,760.32,632,756,0
326738,762.92,632,755,0
326748,764.75,632,756,0
326767,765.98,0,755,0
326769,766.84,0,757,0
326779,767.45,0,754,0
326789,767.87,0,756,0
326799,768.12,0,755,0
326809,768.26,0,756,0
326819,767.88,0,754,0
326829,761.10,0,756,0
326839,743.20,0,754,0
326849,712.24,0,756,0
326859,667.47,0,754,0
326870,609.81,0,756,0
326879,541.00,0,755,0
326889,463.73,0,756,0
326899,386.24,0,754,0
326909,316.18,0,756,0
326919,257.45,0,754,0
326929,213.35,0,756,0
326939,184.40,0,754,0
326949,170.44,0,756,0
326959,169.36,0,755,0
326969,179.45,0,756,0
326979,197.40,0,754,0
326989,220.85,0,756,0
326999,246.35,0,755,0
327009,271.83,0,756,0
327019,294.60,0,754,0
327029,313.75,0,756,0
327040,327.67,0,754,0
327049,336.34,0,756,0
327059,339.32,0,754,0
327069,337.38,0,756,0
327079,330.67,0,754,0
327089,320.61,0,756,0
327099,307.70,0,754,0
327109,293.56,0,756,0
327119,278.44,0,754,0
327129,263.90,0,756,0
327139,250.00,0,754,0
327149,237.92,0,756,0
327159,227.57,0,754,0
327169,219.60,0,756,0
327179,213.59,0,754,0
327189,210.03,0,756,0
327199,208.35,0,754,0
327209,209.36,0,756,0
327219,213.06,0,754,0
327229,221.23,0,756,0
327239,235.99,0,754,0
327249,261.02,0,757,0
327259,299.07,0,755,0
327269,349.15,0,756,0
327279,406.75,0,754,0
327289,468.58,0,757,0
327299,530.76,0,754,0
327309,589.51,0,756,0
327319,640.05,0,755,0
327339,678.65,571,753,0
327342,705.67,571,755,0
327351,724.63,571,757,0
327361,737.90,571,754,0
327371,747.23,571,757,0
327382,753.72,571,754,0
327391,758.26,571,757,0
327401,761.44,571,754,0
327411,763.66,571,757,0
327421,765.18,571,754,0
327431,766.24,571,757,0
327441,766.98,571,754,0
327451,767.50,571,757,0
327461,767.82,571,754,0
327471,768.00,571,757,0
327481,766.63,571,754,0
327491,757.70,571,757,0
327501,737.26,571,753,0
327511,704.10,571,757,0
327521,657.52,571,753,0
327531,598.22,571,757,0
327541,527.74,571,753,0
327552,449.69,571,757,0
327561,372.60,571,754,0
327571,303.03,571,757,0
327581,244.65,571,754,0
327591,200.48,571,757,0
327601,171.37,571,753,0
327611,157.16,571,757,0
327621,156.47,571,754,0
327631,167.17,571,756,0
327641,186.32,571,754,0
327651,211.21,571,757,0
327661,238.83,571,754,0
327671,266.83,571,756,0
327681,292.76,571,754,0
327691,315.08,571,757,0
327701,332.41,571,754,0
327711,344.29,571,756,0
327721,350.29,571,754,0
327731,350.76,571,757,0
327741,346.07,571,754,0
327751,337.14,571,756,0
327761,324.71,571,753,0
327771,310.10,571,757,0
327781,294.17,571,754,0
327791,277.96,571,756,0
327801,262.29,571,753,0
327811,248.01,571,757,0
327821,235.58,571,753,0
327831,225.38,571,757,0
327841,217.38,571,753,0
327852,211.78,571,757,0
327862,208.55,571,753,0
327872,207.52,571,756,0
327882,209.38,571,753,0
327892,215.22,571,757,0
327902,226.86,571,753,0
327912,247.34,571,757,0
327922,280.45,571,754,0
327932,327.33,571,757,0
327942,383.46,571,754,0
327952,444.74,571,761,0
327962,507.69,571,755,0
327972,568.64,571,756,0
327982,623.30,571,757,0
327992,666.84,571,756,0
328011,697.36,673,756,0
328014,718.77,673,763,0
328023,733.79,673,755,0
328033,744.27,673,758,0
328043,751.65,673,753,0
328053,756.81,673,761,0
328064,760.47,673,756,0
328082,762.98,0,759,0
328084,764.66,0,756,0
328094,765.79,0,756,0
328104,766.58,0,754,0
328114,767.09,0,756,0
328124,767.45,0,754,0
328134,767.66,0,756,0
328144,765.40,0,755,0
328154,755.30,0,756,0
328164,734.04,0,754,0
328174,699.53,0,756,0
328184,651.88,0,754,0
328194,591.83,0,756,0
328204,521.13,0,754,0
328214,443.94,0,756,0
328224,368.49,0,754,0
328235,300.41,0,756,0
328244,244.36,0,754,0
328254,202.08,0,757,0
328264,174.84,0,754,0
328274,161.99,0,756,0
328284,162.46,0,754,0
328294,173.43,0,756,0
328304,192.75,0,754,0
328314,217.13,0,756,0
328324,244.22,0,754,0
328334,270.85,0,756,0
328344,295.45,0,754,0
328354,315.89,0,756,0
328364,331.74,0,754,0
328374,341.72,0,756,0
328384,346.30,0,754,0
328394,345.31,0,756,0
328404,339.86,0,754,0
328414,330.17,0,756,0
328424,317.91,0,754,0
328434,303.45,0,756,0
328444,288.40,0,754,0
328454,273.15,0,756,0
328464,258.88,0,754,0
328474,245.67,0,756,0
328484,234.46,0,754,0
328494,225.02,0,756,0
328504,218.03,0,754,0
328514,212.92,0,756,0
328524,210.71,0,754,0
328535,211.96,0,756,0
328545,219.30,0,754,0
328555,234.81,0,756,0
328565,262.51,0,754,0
328576,305.34,0,756,0
328585,359.41,0,755,0
328595,420.23,0,756,0
328605,484.36,0,754,0
328615,547.42,0,756,0
328625,605.58,0,755,0
328635,653.97,0,756,0
328645,688.48,0,754,0
328665,712.63,582,754,0
328668,729.54,582,757,0
328677,741.38,582,755,0
328687,749.67,582,756,0
328697,755.42,582,755,0
328707,759.45,582,756,0
328717,762.27,582,755,0
328727,764.25,582,756,0
328737,765.59,582,755,0
328748,766.53,582,756,0
328758,767.14,582,755,0
328768,767.61,582,756,0
328778,767.90,582,754,0
328788,762.96,582,756,0
328798,748.53,582,755,0
328808,722.06,582,756,0
328818,682.10,582,754,0
328828,628.97,582,756,0
328838,563.66,582,754,0
328848,488.25,582,756,0
328858,409.62,582,754,0
328868,334.90,582,756,0
328878,268.76,582,754,0
328888,215.26,582,756,0
328898,175.97,582,754,0
328908,151.94,582,756,0
328919,142.05,582,754,0
328929,145.47,582,756,0
328939,159.21,582,754,0
328949,181.22,582,757,0
328960,208.20,582,754,0
328969,237.71,582,756,0
328979,266.55,582,754,0
328989,293.00,582,757,0
328999,315.12,582,754,0
329009,332.31,582,756,0
329019,343.70,582,754,0
329029,349.45,582,757,0
329039,349.61,582,754,0
329049,345.27,582,756,0
329059,336.75,582,754,0
329069,325.21,582,757,0
329079,311.26,582,754,0
329089,296.27,582,756,0
329099,280.76,582,754,0
329109,265.92,582,757,0
329119,251.80,582,754,0
329129,239.56,582,757,0
329139,229.02,582,754,0
329149,220.87,582,757,0
329159,214.78,582,754,0
329169,211.08,582,758,0
329179,209.21,582,754,0
329189,209.70,582,756,0
329199,212.54,582,754,0
329209,219.15,582,757,0
329219,230.85,582,754,0
329229,250.86,582,757,0
329239,282.40,582,754,0
329249,327.97,582,757,0
329260,382.71,582,754,0
329270,442.92,582,757,0
329280,505.05,582,754,0
329290,565.63,582,757,0
329300,620.34,582,754,0
329310,664.85,582,757,0
329329,696.06,665,756,0
329332,717.90,665,757,0
329341,733.18,665,754,0
329351,743.89,665,757,0
329361,751.42,665,754,0
329371,756.69,665,757,0
329391,760.39,0,756,0
329393,762.97,0,756,0
329403,764.78,0,754,0
329413,766.00,0,757,0
329423,766.86,0,754,0
329433,767.46,0,757,0
329443,767.88,0,754,0
329453,768.13,0,757,0
329463,768.30,0,754,0
329473,765.60,0,757,0
329483,754.79,0,754,0
329493,732.10,0,756,0
329503,696.24,0,754,0
329513,646.80,0,756,0
329523,585.36,0,754,0
329533,513.12,0,756,0
329543,435.38,0,754,0
329553,359.37,0,756,0
329563,291.54,0,754,0
329573,234.85,0,756,0
329583,191.87,0,754,0
329593,162.34,0,756,0
329603,146.38,0,754,0
329613,142.19,0,757,0
329623,148.52,0,754,0
329633,162.64,0,758,0
329644,183.06,0,754,0
329654,206.96,0,756,0
329664,232.64,0,754,0
329674,257.73,0,756,0
329684,281.04,0,755,0
329694,300.83,0,756,0
329704,316.61,0,754,0
329714,327.27,0,756,0
329724,333.36,0,755,0
329734,334.75,0,756,0
329744,332.68,0,754,0
329754,327.29,0,756,0
329764,320.18,0,754,0
329774,311.51,0,756,0
329784,302.74,0,754,0
329794,293.86,0,756,0
329804,285.85,0,755,0
329815,278.18,0,756,0
329825,271.57,0,754,0
329835,265.23,0,756,0
329845,259.97,0,755,0
329856,254.79,0,755,0
329865,249.63,0,762,0
329875,245.15,0,754,0
329885,242.66,0,755,0
329895,242.64,0,755,0
329905,246.60,0,753,0
329915,255.55,0,755,0
329925,271.71,0,755,0
329935,296.31,0,755,0
329945,329.48,0,755,0
329955,370.22,0,757,0
329965,418.80,0,757,0
329975,471.66,0,763,0
329985,525.07,0,755,0
329995,575.75,0,757,0
330014,621.60,624,754,0
330017,660.59,624,754,0
330027,692.17,624,755,0
330036,714.92,624,755,0
330046,730.41,624,756,0
330056,738.43,624,754,0
330066,739.59,624,754,0
330076,734.27,624,754,0
330086,722.70,624,755,0
330096,704.41,624,755,0
330106,679.60,624,755,0
330116,648.48,624,755,0
330126,613.58,624,756,0
330136,575.22,624,755,0
330146,534.44,624,756,0
330156,491.88,624,756,0
330166,449.40,624,756,0
330176,407.54,624,755,0
330186,368.16,624,756,0
330196,331.86,624,755,0
330206,300.70,624,756,0
330216,275.03,624,755,0
330226,256.08,624,757,0
330236,243.50,624,756,0
330246,238.29,624,755,0
330256,239.40,624,755,0
330266,246.95,624,756,0
330276,259.40,624,755,0
330286,276.38,624,756,0
330296,296.36,624,755,0
330306,318.71,624,762,0
330316,341.26,624,755,0
330327,363.34,624,756,0
330337,383.04,624,755,0
330347,399.82,624,756,0
330357,412.22,624,754,0
330368,419.83,624,756,0
330377,422.11,624,755,0
330387,419.33,624,756,0
330397,411.18,624,754,0
330407,398.95,624,756,0
330417,383.07,624,755,0
330427,365.26,624,756,0
330437,346.03,624,754,0
330447,326.65,624,756,0
330457,307.68,624,755,0
330467,290.46,624,756,0
330477,274.77,624,754,0
330487,261.42,624,756,0
330497,249.68,624,755,0
330507,240.18,624,756,0
330517,232.24,624,754,0
330527,226.47,624,756,0
330537,222.51,624,754,0
330547,221.54,624,756,0
330557,224.17,624,754,0
330567,232.90,624,756,0
330577,249.47,624,755,0
330587,276.25,624,756,0
330597,314.62,624,754,0
330607,364.75,624,756,0
330617,421.86,624,755,0
330627,482.21,624,756,0
330637,541.63,624,754,0
330647,596.64,624,756,0
330657,644.06,624,754,0
330668,681.24,624,757,0
330678,707.27,624,754,0
330688,725.49,624,757,0
330698,738.24,624,754,0
330708,747.17,624,757,0
330718,753.42,624,754,0
330728,757.79,624,757,0
330738,760.86,624,754,0
330748,763.00,624,757,0
330758,762.31,624,754,0
330777,755.53,763,753,0
330780,739.30,763,755,0
330789,713.33,763,757,0
330799,677.57,763,754,0
330809,632.40,763,757,0
330819,578.49,763,754,0
330829,519.29,763,757,0
330839,459.67,763,754,0
330849,404.74,763,757,0
330859,356.35,763,754,0
330869,316.13,763,757,0
330880,285.06,763,753,0
330889,263.53,763,757,0
330899,251.03,763,754,0
330909,246.78,763,757,0
330919,249.33,763,754,0
330929,257.33,763,757,0
330939,269.02,763,754,0
330949,283.03,763,757,0
330959,298.02,763,754,0
330969,313.06,763,757,0
330979,327.22,763,754,0
330989,340.14,763,757,0
330999,351.37,763,754,0
331009,360.95,763,757,0
331019,368.50,763,754,0
331029,373.92,763,757,0
331039,376.86,763,754,0
331049,377.20,763,757,0
331059,374.70,763,754,0
331069,369.43,763,757,0
331079,361.25,763,754,0
331089,350.46,763,757,0
331099,337.42,763,754,0
331109,322.72,763,757,0
331119,306.78,763,754,0
331129,290.34,763,757,0
331139,273.87,763,754,0
331149,258.09,763,757,0
331159,243.28,763,754,0
331169,229.70,763,756,0
331180,217.62,763,753,0
331190,207.36,763,757,0
331200,199.49,763,753,0
331210,195.40,763,757,0
331220,197.30,763,754,0
331230,207.45,763,757,0
331240,228.57,763,754,0
331250,262.90,763,757,0
331260,311.79,763,754,0
331270,370.87,763,757,0
331280,435.45,763,754,0
331290,500.76,763,757,0
331300,562.84,763,754,0
331319,617.75,542,753,0
331322,662.18,542,754,0
331331,693.93,542,757,0
331341,716.15,542,754,0
331351,731.70,542,757,0
331361,742.59,542,754,0
331371,750.22,542,757,0
331381,755.55,542,754,0
331392,759.29,542,757,0
331401,761.90,542,754,0
331411,763.73,542,757,0
331421,763.94,542,754,0
331441,758.69,0,753,0
331443,744.98,0,755,0
331453,721.89,0,756,0
331463,689.18,0,754,0
331473,646.70,0,756,0
331483,595.74,0,754,0
331493,538.14,0,756,0
331503,479.55,0,754,0
331513,424.23,0,756,0
331523,375.13,0,754,0
331533,333.56,0,756,0
331543,301.38,0,754,0
331553,278.04,0,756,0
331564,264.05,0,755,0
331574,257.91,0,756,0
331584,259.05,0,755,0
331594,265.34,0,756,0
331604,275.95,0,755,0
331614,288.39,0,756,0
331624,301.78,0,755,0
331634,314.06,0,756,0
331644,324.93,0,755,0
331654,333.18,0,756,0
331664,338.74,0,755,0
331674,340.79,0,756,0
331684,340.25,0,755,0
331694,336.96,0,756,0
331704,331.79,0,755,0
331714,324.57,0,756,0
331724,316.30,0,755,0
331735,306.99,0,755,0
331745,297.87,0,755,0
331755,288.56,0,755,0
331765,279.99,0,756,0
331776,271.90,0,754,0
331785,265.28,0,755,0
331795,259.88,0,755,0
331805,257.18,0,756,0
331815,257.94,0,755,0
331825,264.99,0,756,0
331835,280.20,0,759,0
331845,308.13,0,755,0
331855,349.96,0,754,0
331865,401.49,0,755,0
331875,458.60,0,755,0
331885,517.95,0,756,0
331895,575.52,0,755,0
331914,627.86,474,754,0
331917,669.99,474,755,0
331926,699.52,474,756,0
331936,720.19,474,755,0
331947,734.71,474,756,0
331956,744.87,474,755,0
331966,752.02,474,756,0
331976,757.03,474,755,0
331986,760.53,474,756,0
331996,762.95,474,755,0
332006,764.68,474,756,0
332016,765.84,474,755,0
332026,766.66,474,756,0
332036,767.19,474,755,0
332046,767.56,474,756,0
332056,767.78,474,755,0
332066,767.93,474,756,0
332076,761.95,474,755,0
332086,746.24,474,756,0
332096,718.35,474,755,0
332106,678.05,474,756,0
332116,625.58,474,754,0
332126,562.75,474,756,0
332136,491.16,474,755,0
332146,419.16,474,756,0
332156,352.60,474,754,0
332166,296.27,474,756,0
332176,252.09,474,755,0
332186,221.76,474,756,0
332196,204.48,474,754,0
332206,199.58,474,756,0
332216,204.89,474,755,0
332226,218.55,474,756,0
332236,237.54,474,754,0
332247,259.92,474,756,0
332257,282.79,474,754,0
332267,304.58,474,756,0
332277,323.31,474,754,0
332288,338.39,474,757,0
332297,348.64,474,754,0
332307,354.45,474,756,0
332317,355.56,474,754,0
332327,352.78,474,757,0
332337,346.41,474,754,0
332347,337.63,474,756,0
332357,326.73,474,754,0
332367,314.90,474,757,0
332377,302.46,474,754,0
332387,290.45,474,756,0
332397,278.96,474,755,0
332407,268.68,474,756,0
332417,259.74,474,758,0
332427,253.34,474,755,0
332437,250.33,474,753,0
332447,253.57,474,756,0
332457,265.66,474,763,0
332467,289.80,474,756,0
332477,329.12,474,754,0
332487,379.65,474,757,0
332497,437.14,474,761,0
332507,498.17,474,756,0
332517,558.21,474,755,0
332527,613.17,474,757,0
332537,659.06,474,760,0
332547,691.79,474,755,0
332557,714.69,474,776,0
332576,730.73,662,760,0
332579,742.00,662,762,0
332588,749.88,662,749,0
332598,755.40,662,765,0
332608,759.27,662,758,0
332618,761.97,662,750,0
332628,763.87,662,760,0
332638,765.19,662,755,0
332648,766.08,662,755,0
332658,766.70,662,756,0
332668,767.09,662,756,0
332678,767.36,662,753,0
332688,767.55,662,757,0
332698,761.52,662,754,0
332708,745.50,662,757,0
332718,717.88,662,754,0
332728,677.85,662,757,0
332738,625.56,662,754,0
332748,562.18,662,756,0
332759,489.44,662,753,0
332769,415.55,662,757,0
332779,346.69,662,753,0
332789,286.74,662,757,0
332800,238.69,662,753,0
332809,203.98,662,757,0
332819,182.86,662,754,0
332829,174.46,662,757,0
332839,177.23,662,753,0
332849,188.69,662,757,0
332859,206.31,662,754,0
332869,227.48,662,757,0
332879,249.83,662,753,0
332889,271.27,662,757,0
332899,290.17,662,753,0
332909,305.38,662,757,0
332919,316.49,662,754,0
332929,323.33,662,757,0
332939,326.02,662,754,0
332949,325.03,662,757,0
332959,320.99,662,753,0
332969,314.52,662,756,0
332979,306.48,662,754,0
332989,297.46,662,757,0
332999,288.11,662,753,0
333009,278.82,662,757,0
333019,270.05,662,754,0
333029,262.06,662,757,0
333039,255.19,662,753,0
333049,249.52,662,757,0
333059,245.33,662,754,0
333069,243.52,662,757,0
333079,245.51,662,753,0
333089,253.58,662,757,0
333100,270.76,662,754,0
333110,300.58,662,757,0
333120,344.33,662,756,0
333130,397.50,662,757,0
333140,456.20,662,754,0
333150,516.87,662,757,0
333160,575.62,662,754,0
333170,628.23,662,756,0
333180,670.34,662,754,0
333190,699.85,662,757,0
333209,720.55,633,755,0
333212,735.04,633,756,0
333221,745.19,633,754,0
333231,752.29,633,756,0
333241,757.30,633,754,0
333251,760.77,633,756,0
333261,763.20,633,754,0
333271,764.89,633,756,0
333281,766.08,633,754,0
333291,766.87,633,756,0
333301,767.42,633,754,0
333312,767.77,633,756,0
333321,768.01,633,754,0
333331,768.14,633,756,0
333341,766.81,633,754,0
333351,757.95,633,756,0
333361,738.68,633,754,0
333371,706.76,633,756,0
333381,662.05,633,754,0
333391,604.95,633,756,0
333401,537.42,633,754,0
333411,462.51,633,756,0
333421,388.81,633,754,0
333431,321.28,633,756,0
333441,264.33,633,754,0
333451,219.74,633,756,0
333461,188.58,633,754,0
333471,169.63,633,756,0
333481,162.24,633,754,0
333491,164.06,633,756,0
333501,173.55,633,754,0
333511,188.34,633,756,0
333521,206.71,633,754,0
333531,226.51,633,756,0
333541,246.59,633,754,0
333551,265.05,633,756,0
333561,281.45,633,754,0
333571,294.52,633,756,0
333581,304.22,633,754,0
333591,310.07,633,756,0
333601,312.70,633,754,0
333612,311.98,633,756,0
333622,308.90,633,754,0
333632,303.32,633,756,0
333642,296.36,633,754,0
333652,287.77,633,756,0
333662,278.71,633,754,0
333672,268.85,633,756,0
333682,259.08,633,754,0
333692,249.12,633,756,0
333702,240.04,633,754,0
333712,231.63,633,756,0
333722,225.78,633,754,0
333732,223.49,633,756,0
333742,227.84,633,754,0
333752,241.86,633,756,0
333762,270.10,633,755,0
333772,314.09,633,756,0
333783,369.22,633,755,0
333793,430.87,633,756,0
333803,495.28,633,755,0
333813,558.19,633,755,0
333824,615.22,633,755,0
333833,661.18,633,756,0
333843,693.40,633,755,0
333862,715.91,653,754,0
333865,731.71,653,756,0
333874,742.81,653,755,0
333884,750.62,653,756,0
333894,756.05,653,754,0
333904,759.85,653,756,0
333914,762.47,653,755,0
333924,764.34,653,756,0
333934,765.61,653,755,0
333944,766.50,653,756,0
333954,767.08,653,755,0
333964,767.53,653,756,0
333974,767.80,653,755,0
333984,767.99,653,756,0
333995,761.18,653,755,0
334004,744.15,653,756,0
334014,714.32,653,754,0
334024,671.54,653,756,0
334034,615.92,653,755,0
334044,549.64,653,756,0
334054,474.15,653,754,0
334064,399.06,653,756,0
334074,329.70,653,755,0
334084,271.29,653,755,0
334094,225.77,653,754,0
334104,195.03,653,756,0
334114,177.75,653,755,0
334124,173.58,653,756,0
334134,179.75,653,755,0
334144,194.52,653,756,0
334154,214.72,653,755,0
334164,238.34,653,756,0
334174,262.32,653,755,0
334184,285.41,653,756,0
334194,305.39,653,755,0
334204,321.86,653,756,0
334214,333.51,653,755,0
334224,340.60,653,756,0
334234,342.52,653,755,0
334244,340.35,653,756,0
334254,334.03,653,755,0
334264,324.94,653,756,0
334274,313.21,653,755,0
334284,300.42,653,756,0
334295,286.58,653,755,0
334305,273.16,653,756,0
334315,260.00,653,755,0
334325,248.21,653,756,0
334336,237.65,653,754,0
334345,229.57,653,756,0
334355,224.34,653,755,0
334365,224.67,653,756,0
334375,232.61,653,754,0
334385,251.50,653,756,0
334395,284.26,653,755,0
334405,331.54,653,756,0
334415,388.25,653,754,0
334425,450.62,653,756,0
334435,514.16,653,755,0
334445,574.80,653,756,0
334455,628.26,653,754,0
334465,670.35,653,756,0
334475,699.86,653,755,0
334485,720.56,653,756,0
334504,735.01,642,755,0
334507,745.08,642,757,0
334516,752.12,642,754,0
334526,757.10,642,757,0
334536,760.54,642,754,0
334546,762.95,642,757,0
334556,764.64,642,754,0
334566,765.86,642,757,0
334576,766.72,642,754,0
334586,767.27,642,756,0
334596,764.66,642,754,0
334606,753.96,642,756,0
334616,731.60,642,754,0
334626,696.19,642,756,0
334636,647.54,642,754,0
334646,586.47,642,756,0
334656,514.03,642,754,0
334666,435.21,642,756,0
334676,357.19,642,754,0
334686,286.07,642,756,0
334696,225.45,642,754,0
334706,177.87,642,756,0
334716,144.27,642,754,0
334726,125.16,642,756,0
334736,119.33,642,754,0
334746,125.44,642,756,0
334756,140.95,642,754,0
334766,163.68,642,756,0
334776,190.65,642,754,0
334786,219.77,642,756,0
334796,248.51,642,754,0
334807,275.27,642,757,0
334817,298.20,642,754,0
334827,316.53,642,756,0
334837,329.44,642,754,0
334848,337.07,642,757,0
334857,339.32,642,754,0
334867,336.95,642,756,0
334877,330.37,642,754,0
334887,320.57,642,757,0
334897,308.44,642,754,0
334907,295.07,642,756,0
334917,281.03,642,754,0
334927,267.18,642,757,0
334937,253.97,642,754,0
334947,242.15,642,756,0
334957,231.86,642,754,0
334967,223.33,642,757,0
334977,216.42,642,754,0
334987,211.54,642,757,0
334997,208.67,642,754,0
335007,208.69,642,757,0
335017,212.81,642,754,0
335027,223.11,642,757,0
335037,242.36,642,754,0
335047,274.10,642,757,0
335057,320.35,642,754,0
335067,376.35,642,757,0
335077,437.91,642,754,0
335087,501.33,642,757,0
335097,562.86,642,754,0
335107,618.31,642,757,0
335117,663.35,642,754,0
335136,694.92,632,753,0
335139,717.05,632,754,0
335148,732.55,632,757,0
335158,743.36,632,754,0
335168,750.92,632,757,0
335178,756.26,632,754,0
335188,759.95,632,757,0
335198,762.54,632,754,0
335208,764.31,632,757,0
335218,765.54,632,754,0
335228,766.41,632,757,0
335238,766.97,632,754,0
335248,763.72,632,757,0
335258,752.15,632,754,0
335268,729.18,632,757,0
335278,694.07,632,754,0
335288,646.43,632,757,0
335298,586.86,632,754,0
335308,516.57,632,757,0
335319,441.02,632,754,0
335329,366.78,632,757,0
335339,299.26,632,754,0
335349,241.28,632,757,0
335360,195.47,632,754,0
335369,162.71,632,757,0
335379,143.43,632,754,0
335389,136.70,632,757,0
335399,141.25,632,754,0
335409,154.67,632,757,0
335419,175.04,632,754,0
335429,199.59,632,757,0
335439,226.41,632,754,0
335449,252.99,632,757,0
335459,277.76,632,754,0
335469,299.05,632,757,0
335479,316.39,632,754,0
335489,328.96,632,757,0
335499,336.90,632,754,0
335509,340.02,632,757,0
335519,339.11,632,754,0
335529,334.28,632,756,0
335539,326.78,632,754,0
335549,316.86,632,757,0
335559,305.50,632,754,0
335569,293.09,632,757,0
335579,280.64,632,754,0
335589,268.36,632,757,0
335599,257.20,632,754,0
335609,247.02,632,756,0
335619,238.53,632,754,0
335629,231.60,632,757,0
335639,226.62,632,754,0
335649,223.18,632,757,0
335660,221.54,632,754,0
335670,221.16,632,756,0
335680,222.36,632,754,0
335690,224.82,632,756,0
335700,229.80,632,754,0
335710,238.05,632,756,0
335720,252.39,632,754,0
335730,275.16,632,756,0
335740,310.13,632,754,0
335750,357.06,632,757,0
335760,412.03,632,754,0
335770,470.99,632,756,0
335780,530.95,632,755,0
335790,587.79,632,756,0
335809,637.87,673,755,0
335812,676.91,673,756,0
335821,704.28,673,755,0
335831,723.44,673,756,0
335841,736.85,673,755,0
335851,746.24,673,756,0
335861,752.85,673,755,0
335872,757.48,673,756,0
335881,760.72,673,755,0
335891,762.95,673,756,0
335901,764.55,673,755,0
335911,765.67,673,756,0
335921,766.46,673,755,0
335931,766.96,673,756,0
335941,765.39,673,755,0
335951,756.49,673,756,0
335961,737.87,673,755,0
335971,707.39,673,756,0
335981,664.98,673,755,0
335991,610.73,673,756,0
336001,546.31,673,754,0
336011,474.99,673,756,0
336021,404.19,673,755,0
336031,338.13,673,756,0
336041,281.35,673,755,0
336051,235.65,673,756,0
336061,202.79,673,755,0
336071,182.07,673,756,0
336081,173.56,673,755,0
336091,175.28,673,756,0
336101,186.17,673,755,0
336111,203.39,673,756,0
336121,225.47,673,755,0
336131,249.59,673,756,0
336141,274.53,673,755,0
336151,297.85,673,756,0
336161,318.98,673,755,0
336172,336.09,673,756,0
336182,349.22,673,755,0
336192,357.30,673,756,0
336202,361.06,673,756,0
336212,360.10,673,755,0
336222,355.66,673,755,0
336232,347.70,673,755,0
336242,337.68,673,755,0
336252,325.69,673,755,0
336262,313.18,673,755,0
336272,300.23,673,756,0
336282,288.16,673,755,0
336292,276.58,673,755,0
336302,266.64,673,755,0
336312,257.83,673,756,0
336322,251.11,673,755,0
336332,245.68,673,755,0
336343,242.26,673,756,0
336353,239.95,673,755,0
336363,239.41,673,756,0
336373,239.80,673,754,0
336384,242.09,673,756,0
336393,246.18,673,755,0
336403,254.35,673,756,0
336413,268.22,673,755,0
336423,291.60,673,756,0
336433,326.30,673,755,0
336443,372.71,673,756,0
336453,426.37,673,755,0
336463,484.16,673,756,0
336473,542.27,673,755,0
336483,597.26,673,756,0
336502,644.71,693,755,0
336505,681.70,693,757,0
336514,707.59,693,755,0
336524,725.71,693,756,0
336534,738.40,693,754,0
336544,747.28,693,756,0
336555,753.50,693,755,0
336564,757.85,693,756,0
336574,760.89,693,755,0
336584,763.02,693,756,0
336594,764.52,693,755,0
336604,765.56,693,756,0
336614,766.29,693,755,0
336624,766.85,693,756,0
336634,767.24,693,755,0
336644,767.51,693,756,0
336654,764.01,693,755,0
336664,752.57,693,756,0
336674,730.24,693,754,0
336684,696.78,693,756,0
336694,651.76,693,755,0
336704,596.33,693,756,0
336714,531.78,693,754,0
336724,464.04,693,756,0
336734,399.19,693,755,0
336744,342.56,693,756,0
336754,296.11,693,755,0
336764,262.13,693,757,0
336774,240.41,693,755,0
336784,230.94,693,756,0
336794,231.69,693,755,0
336804,241.21,693,756,0
336814,256.62,693,755,0
336824,276.02,693,756,0
336834,296.63,693,755,0
336844,317.22,693,756,0
336855,335.54,693,755,0
336865,350.85,693,756,0
336875,361.91,693,754,0
336885,368.79,693,757,0
336896,371.13,693,754,0
336905,369.67,693,756,0
336915,364.37,693,754,0
336925,356.29,693,757,0
336935,345.79,693,754,0
336945,333.98,693,756,0
336955,321.26,693,754,0
336965,308.49,693,757,0
336975,295.92,693,754,0
336985,284.50,693,756,0
336995,274.02,693,754,0
337005,265.14,693,757,0
337015,257.60,693,754,0
337025,251.89,693,756,0
337035,247.85,693,754,0
337045,246.05,693,757,0
337055,246.98,693,754,0
337065,252.86,693,756,0
337075,265.33,693,754,0
337085,287.90,693,757,0
337095,323.46,693,754,0
337105,370.76,693,756,0
337115,425.56,693,754,0
337125,484.32,693,757,0
337135,543.20,693,754,0
337145,598.81,693,757,0
337155,646.78,693,754,0
337174,683.15,672,754,0
337177,708.65,672,756,0
337186,726.49,672,757,0
337196,738.99,672,754,0
337206,747.74,672,757,0
337216,753.86,672,754,0
337226,758.14,672,757,0
337236,761.14,672,754,0
337246,763.20,672,757,0
337256,764.64,672,754,0
337266,765.65,672,757,0
337276,766.35,672,754,0
337286,766.85,672,757,0
337296,767.19,672,754,0
337306,766.11,672,757,0
337316,758.10,672,754,0
337326,740.33,672,757,0
337336,710.66,672,754,0
337346,668.63,672,757,0
337356,614.79,672,754,0
337367,550.39,672,757,0
337377,478.66,672,754,0
337387,407.28,672,757,0
337397,341.45,672,754,0
337408,285.47,672,757,0
337417,241.75,672,754,0
337427,211.35,672,757,0
337437,194.40,672,754,0
337447,189.70,672,757,0
337457,195.49,672,754,0
337467,209.40,672,757,0
337477,229.12,672,754,0
337487,252.14,672,757,0
337497,276.19,672,754,0
337507,299.10,672,757,0
337517,319.51,672,754,0
337527,336.12,672,757,0
337537,348.42,672,754,0
337547,355.97,672,757,0
337557,358.85,672,754,0
337567,357.27,672,757,0
337577,351.83,672,754,0
337587,343.18,672,757,0
337597,332.20,672,754,0
337607,319.50,672,757,0
337617,305.93,672,754,0
337627,292.24,672,757,0
337637,279.18,672,754,0
337647,267.08,672,757,0
337657,256.47,672,754,0
337667,247.55,672,757,0
337677,240.52,672,754,0
337687,235.27,672,757,0
337697,231.76,672,754,0
337708,229.73,672,757,0
337718,229.43,672,754,0
337728,230.71,672,757,0
337738,234.87,672,754,0
337748,243.48,672,756,0
337758,259.24,672,754,0
337768,285.48,672,757,0
337778,326.14,672,754,0
337788,377.05,672,757,0
337798,434.68,672,754,0
337808,495.20,672,757,0
337818,555.14,672,754,0
337828,610.60,672,757,0
337847,657.26,673,756,0
337850,690.57,673,756,0
337859,713.93,673,755,0
337869,730.23,673,757,0
337879,741.69,673,754,0
337889,749.71,673,757,0
337899,755.37,673,755,0
337909,759.29,673,756,0
337920,762.07,673,754,0
337929,763.98,673,757,0
337939,765.36,673,755,0
337949,766.28,673,757,0
337959,766.97,673,754,0
337969,767.41,673,757,0
337979,767.71,673,755,0
337989,767.88,673,756,0
337999,764.32,673,754,0
338009,752.57,673,757,0
338019,729.90,673,755,0
338029,694.70,673,756,0
338039,647.35,673,754,0
338049,588.70,673,756,0
338059,520.52,673,754,0
338069,448.15,673,756,0
338079,378.50,673,754,0
338089,316.38,673,756,0
338099,265.65,673,754,0
338109,227.57,673,756,0
338119,203.10,673,754,0
338129,191.20,673,756,0
338139,190.88,673,754,0
338149,199.70,673,756,0
338159,215.91,673,754,0
338169,236.46,673,756,0
338179,259.55,673,755,0
338189,282.27,673,756,0
338199,303.41,673,754,0
338209,321.24,673,756,0
338220,335.35,673,755,0
338230,344.59,673,756,0
338240,349.47,673,755,0
338250,349.59,673,756,0
338260,346.15,673,755,0
338270,339.12,673,756,0
338280,329.87,673,755,0
338290,318.55,673,756,0
338300,306.56,673,755,0
338310,294.01,673,756,0
338320,282.13,673,754,0
338330,270.69,673,756,0
338340,260.80,673,755,0
338350,251.99,673,756,0
338360,245.05,673,754,0
338370,239.38,673,756,0
338380,235.66,673,755,0
338391,233.11,673,756,0
338401,232.35,673,755,0
338411,232.89,673,755,0
338421,236.18,673,756,0
338432,243.07,673,755,0
338441,256.29,673,755,0
338451,278.32,673,755,0
338461,313.49,673,756,0
338471,360.49,673,755,0
338481,415.50,673,755,0
338491,474.58,673,756,0
338501,534.53,673,756,0
338511,591.42,673,755,0
338530,641.26,683,755,0
338533,679.33,683,755,0
338542,706.01,683,756,0
338552,724.70,683,755,0
338562,737.82,683,756,0
338572,746.96,683,755,0
338582,753.40,683,756,0
338592,757.91,683,755,0
338603,761.11,683,756,0
338612,763.30,683,755,0
338622,764.88,683,756,0
338632,765.95,683,755,0
338642,766.69,683,756,0
338652,767.17,683,755,0
338662,767.55,683,756,0
338672,767.77,683,755,0
338682,766.98,683,756,0
338692,759.66,683,755,0
338702,742.32,683,756,0
338712,712.69,683,755,0
338722,670.66,683,756,0
338732,616.85,683,755,0
338742,552.78,683,756,0
338752,480.97,683,755,0
338762,409.37,683,756,0
338772,343.51,683,754,0
338782,288.12,683,756,0
338792,244.92,683,755,0
338802,215.25,683,756,0
338812,198.50,683,754,0
338822,194.11,683,756,0
338832,199.69,683,755,0
338842,213.58,683,756,0
338852,232.82,683,755,0
338862,255.50,683,756,0
338872,278.71,683,755,0
338882,301.08,683,756,0
338892,320.47,683,755,0
338903,336.36,683,756,0
338913,347.44,683,755,0
338923,353.95,683,756,0
338933,355.46,683,754,0
338944,352.88,683,756,0
338953,346.53,683,755,0
338963,337.59,683,756,0
338973,326.35,683,754,0
338983,314.16,683,756,0
338993,301.30,683,755,0
339003,288.99,683,756,0
339013,277.34,683,754,0
339023,266.95,683,757,0
339033,257.88,683,755,0
339043,250.63,683,756,0
339053,244.78,683,754,0
339063,240.78,683,756,0
339073,237.97,683,755,0
339083,236.95,683,756,0
339093,237.22,683,754,0
339103,239.94,683,756,0
339113,246.35,683,755,0
339123,259.06,683,756,0
339133,280.77,683,754,0
339143,315.77,683,756,0
339153,362.46,683,755,0
339163,417.23,683,756,0
339173,476.17,683,755,0
339183,535.95,683,756,0
339193,592.71,683,755,0
339212,642.42,682,754,0
339215,680.27,682,755,0
339224,706.76,682,757,0
339234,725.30,682,754,0
339244,738.33,682,757,0
339254,747.40,682,754,0
339264,753.75,682,757,0
339274,758.15,682,754,0
339284,761.28,682,757,0
339294,763.47,682,754,0
339304,765.00,682,757,0
339314,766.03,682,754,0
339324,766.75,682,757,0
339334,767.21,682,754,0
339344,767.57,682,757,0
339354,767.83,682,754,0
339364,768.01,682,757,0
339374,762.18,682,754,0
339384,746.48,682,757,0
339394,718.74,682,754,0
339404,678.53,682,757,0
339415,626.30,682,754,0
339425,563.64,682,757,0
339435,492.56,682,754,0
339445,421.29,682,757,0
339456,356.19,682,754,0
339465,301.58,682,757,0
339475,259.79,682,754,0
339485,232.04,682,757,0
339495,217.80,682,754,0
339505,215.72,682,757,0
339515,223.73,682,754,0
339525,239.37,682,757,0
339535,260.13,682,754,0
339545,283.49,682,757,0
339555,306.91,682,754,0
339565,328.54,682,757,0
339575,346.94,682,754,0
339585,361.18,682,757,0
339595,370.56,682,754,0
339605,374.89,682,757,0
339615,374.37,682,754,0
339625,369.54,682,756,0
339635,361.24,682,754,0
339645,350.32,682,757,0
339655,337.58,682,754,0
339665,323.95,682,757,0
339675,310.17,682,754,0
339685,297.00,682,757,0
339695,284.87,682,754,0
339705,274.03,682,757,0
339715,264.59,682,754,0
339725,256.78,682,757,0
339735,250.81,682,754,0
339745,247.05,682,757,0
339756,246.56,682,754,0
339766,251.45,682,757,0
339776,264.60,682,754,0
339786,289.41,682,757,0
339796,329.27,682,754,0
339806,379.80,682,757,0
339816,437.25,682,754,0
339826,497.90,682,757,0
339836,558.02,682,754,0
339846,613.34,682,757,0
339856,659.52,682,754,0
339866,692.24,682,757,0
339886,715.18,673,756,0
339889,731.20,673,756,0
339898,742.45,673,755,0
339908,750.29,673,756,0
339918,755.77,673,755,0
339928,759.57,673,757,0
339938,762.27,673,755,0
339948,764.12,673,756,0
339958,765.45,673,755,0
339969,766.35,673,756,0
339979,767.01,673,755,0
339989,767.44,673,756,0
339999,766.36,673,755,0
340009,757.64,673,756,0
340019,738.68,673,755,0
340029,706.89,673,756,0
340039,662.01,673,755,0
340049,604.23,673,756,0
340059,535.46,673,755,0
340069,458.57,673,756,0
340079,382.28,673,755,0
340089,311.40,673,756,0
340099,251.11,673,755,0
340109,203.59,673,756,0
340119,170.88,673,755,0
340129,152.19,673,756,0
340140,147.42,673,755,0
340150,154.11,673,756,0
340160,170.58,673,756,0
340170,193.59,673,755,0
340180,221.14,673,756,0
340190,249.77,673,756,0
340200,278.00,673,756,0
340210,303.11,673,755,0
340220,324.51,673,756,0
340230,340.55,673,756,0
340240,351.53,673,756,0
340250,356.64,673,755,0
340260,357.01,673,756,0
340270,352.46,673,756,0
340280,344.52,673,755,0
340290,333.31,673,755,0
340300,320.40,673,756,0
340311,305.97,673,755,0
340321,291.53,673,756,0
340331,277.15,673,755,0
340341,263.99,673,756,0
340352,251.86,673,755,0
340361,241.75,673,756,0
340371,233.21,673,755,0
340381,227.06,673,756,0
340391,222.88,673,755,0
340401,221.76,673,756,0
340411,224.53,673,755,0
340421,233.97,673,756,0
340431,252.37,673,755,0
340441,282.90,673,756,0
340451,327.76,673,755,0
340461,382.43,673,756,0
340471,442.82,673,755,0
340481,505.40,673,756,0
340491,565.84,673,755,0
340501,620.23,673,756,0
340511,664.65,673,755,0
340521,695.78,673,756,0
340540,717.58,655,755,0
340543,732.87,655,757,0
340552,743.54,655,755,0
340562,751.01,655,756,0
340572,756.19,655,755,0
340582,759.86,655,757,0
340592,762.39,655,755,0
340602,764.20,655,756,0
340612,765.43,655,755,0
340622,766.33,655,757,0
340632,766.96,655,755,0
340642,765.34,655,756,0
340652,756.58,655,755,0
340662,737.42,655,757,0
340672,705.71,655,755,0
340682,661.27,655,756,0
340692,604.23,655,754,0
340702,536.40,655,757,0
340712,461.15,655,755,0
340722,385.68,655,756,0
340732,315.40,655,754,0
340742,254.90,655,757,0
340752,206.33,655,755,0
340762,171.52,655,756,0
340772,149.98,655,754,0
340782,141.58,655,757,0
340792,144.49,655,755,0
340802,157.29,655,756,0
340812,177.26,655,754,0
340823,202.34,655,757,0
340833,229.75,655,754,0
340843,257.64,655,756,0
340853,283.76,655,754,0
340864,306.93,655,757,0
340873,325.51,655,754,0
340883,339.29,655,757,0
340893,347.51,655,754,0
340903,350.62,655,757,0
340913,348.67,655,754,0
340923,342.60,655,757,0
340933,332.95,655,754,0
340943,320.71,655,757,0
340953,306.40,655,754,0
340963,290.98,655,757,0
340973,274.96,655,754,0
340983,259.20,655,757,0
340993,244.01,655,754,0
341003,230.08,655,757,0
341013,217.54,655,754,0
341023,206.88,655,757,0
341033,198.60,655,754,0
341043,193.53,655,757,0
341053,192.65,655,754,0
341063,198.19,655,757,0
341073,212.36,655,754,0
341083,237.71,655,757,0
341093,276.76,655,754,0
341103,329.07,655,757,0
341113,389.69,655,755,0
341123,454.50,655,756,0
341133,519.11,655,754,0
341143,579.50,655,757,0
341153,631.98,655,754,0
341164,672.83,655,757,0
341183,701.42,643,756,0
341186,721.48,643,757,0
341195,735.52,643,754,0
341206,745.35,643,757,0
341215,752.19,643,754,0
341225,756.98,643,757,0
341235,760.37,643,754,0
341245,762.74,643,757,0
341255,764.36,643,754,0
341274,765.50,0,754,0
341276,766.33,0,755,0
341286,762.51,0,757,0
341296,751.00,0,754,0
341306,728.97,0,756,0
341316,695.42,0,755,0
341326,649.95,0,756,0
341336,593.65,0,754,0
341346,527.37,0,756,0
341356,457.32,0,754,0
341366,388.14,0,756,0
341377,324.88,0,754,0
341387,270.27,0,756,0
341397,226.86,0,754,0
341407,194.85,0,756,0
341417,175.09,0,754,0
341427,166.32,0,756,0
341437,168.11,0,754,0
341447,178.32,0,756,0
341457,195.67,0,755,0
341467,217.50,0,756,0
341477,242.46,0,754,0
341487,267.95,0,756,0
341497,293.21,0,754,0
341507,315.99,0,756,0
341517,335.84,0,754,0
341527,351.36,0,756,0
341537,362.73,0,754,0
341548,369.11,0,756,0
341558,371.27,0,755,0
341568,368.91,0,756,0
341578,363.41,0,754,0
341588,354.76,0,756,0
341598,344.50,0,755,0
341608,332.74,0,756,0
341618,320.90,0,754,0
341628,308.97,0,755,0
341638,298.14,0,755,0
341648,288.03,0,756,0
341658,279.62,0,754,0
341668,272.23,0,755,0
341678,266.63,0,755,0
341688,262.33,0,756,0
341698,260.39,0,754,0
341708,260.91,0,755,0
341719,265.95,0,755,0
341729,276.30,0,755,0
341739,294.21,0,755,0
341749,320.63,0,755,0
341760,357.43,0,756,0
341769,403.84,0,755,0
341779,456.39,0,755,0
341789,510.83,0,755,0
341799,564.15,0,756,0
341809,613.14,0,756,0
341819,655.52,0,755,0
341838,688.88,564,755,0
341841,712.70,564,757,0
341850,729.38,564,755,0
341860,741.05,564,756,0
341870,749.22,564,755,0
341880,754.98,564,756,0
341890,759.02,564,755,0
341900,761.84,564,756,0
341910,763.73,564,755,0
341920,765.05,564,756,0
341931,764.18,564,755,0
341940,758.00,564,756,0
341950,742.57,564,776,0
341960,716.77,564,765,0
341970,679.94,564,767,0
341980,632.86,564,770,0
341990,575.77,564,770,0
342000,511.85,564,772,0
342010,445.38,564,772,0
342020,382.27,564,773,0
342030,324.97,564,774,0
342040,276.04,564,777,0
342050,235.91,564,780,0
342060,205.68,564,782,0
342070,184.91,564,783,0
342080,173.62,564,784,0
342090,170.31,564,784,0
342100,174.50,564,784,0
342110,184.16,564,784,0
342120,198.43,564,785,0
342130,215.44,564,784,0
342140,234.25,564,784,0
342150,252.99,564,784,0
342160,271.08,564,785,0
342170,286.91,564,784,0
342180,300.57,564,785,0
342190,310.90,564,785,0
342200,318.34,564,785,0
342210,322.27,564,784,0
342220,323.60,564,785,0
342231,322.09,564,785,0
342241,318.68,564,785,0
342251,313.29,564,785,0
342261,307.03,564,785,0
342272,299.86,564,785,0
342281,292.88,564,785,0
342291,285.89,564,785,0
342301,279.53,564,785,0
342311,273.85,564,785,0
342321,269.18,564,785,0
342331,265.14,564,785,0
342341,262.23,564,785,0
342351,260.06,564,785,0
342361,259.05,564,785,0
342371,259.38,564,785,0
342381,262.31,564,785,0
342391,268.99,564,785,0
342401,281.21,564,785,0
342411,300.43,564,785,0
342421,328.89,564,785,0
342431,367.83,564,785,0
342441,416.01,564,785,0
342451,469.02,564,785,0
342461,523.45,564,785,0
342471,576.11,564,785,0
342491,624.16,652,784,0
342494,664.66,652,786,0
342503,695.40,652,785,0
342513,716.92,652,785,0
342523,731.99,652,785,0
342533,742.54,652,786,0
342543,749.92,652,786,0
342553,755.09,652,785,0
342563,758.66,652,785,0
342573,761.16,652,785,0
342583,762.91,652,785,0
342593,764.14,652,785,0
342603,765.00,652,785,0
342614,765.60,652,786,0
342623,766.02,652,785,0
342633,763.53,652,785,0
342643,754.20,652,785,0
342653,735.45,652,785,0
342663,706.60,652,785,0
342673,667.25,652,785,0
342683,618.02,652,785,0
342693,559.73,652,785,0
342703,496.68,652,785,0
342713,434.25,652,785,0
342723,376.74,652,785,0
342733,326.55,652,785,0
342743,285.41,652,785,0
342753,253.96,652,785,0
342763,232.46,652,785,0
342773,220.28,652,785,0
342784,216.59,652,785,0
342793,220.06,652,786,0
342803,229.13,652,786,0
342813,242.46,652,786,0
342823,258.74,652,785,0
342833,276.47,652,785,0
342843,294.55,652,785,0
342853,311.82,652,785,0
342863,327.43,652,785,0
342873,340.76,652,785,0
342883,351.33,652,785,0
342893,358.90,652,786,0
342903,363.35,652,785,0
342913,364.66,652,786,0
342923,363.17,652,786,0
342933,359.35,652,786,0
342943,353.55,652,786,0
342953,346.35,652,786,0
342963,338.10,652,786,0
342973,329.50,652,786,0
342983,321.04,652,786,0
342993,313.10,652,786,0
343003,305.95,652,786,0
343013,300.01,652,786,0
343023,295.55,652,786,0
343033,293.24,652,786,0
343043,293.90,652,786,0
343053,298.94,652,786,0
343063,310.32,652,785,0
343073,329.98,652,786,0
343084,360.07,652,786,0
343094,401.49,652,786,0
343104,450.12,652,786,0
343114,502.54,652,786,0
343124,555.39,652,786,0
343134,605.37,652,786,0
343144,649.49,652,786,0
343154,684.79,652,786,0
343174,709.49,683,786,0
343177,726.83,683,787,0
343186,738.97,683,786,0
343196,747.51,683,786,0
343206,753.48,683,786,0
343216,757.71,683,786,0
343226,760.63,683,786,0
343236,762.71,683,786,0
343246,764.12,683,786,0
343256,765.16,683,786,0
343266,765.84,683,786,0
343276,766.36,683,786,0
343286,766.68,683,786,0
343297,766.95,683,786,0
343307,762.21,683,786,0
343317,748.90,683,786,0
343327,724.55,683,786,0
343337,688.81,683,786,0
343347,641.94,683,786,0
343357,585.21,683,786,0
343367,519.88,683,786,0
343377,452.97,683,786,0
343387,389.77,683,786,0
343397,334.89,683,786,0
343407,290.14,683,786,0
343417,257.05,683,786,0
343427,235.14,683,786,0
343437,224.34,683,786,0
343447,222.87,683,785,0
343457,229.68,683,786,0
343468,242.33,683,786,0
343478,259.59,683,786,0
343488,278.96,683,785,0
343498,299.58,683,786,0
343508,319.34,683,786,0
343518,337.71,683,786,0
343528,353.18,683,785,0
343538,365.81,683,786,0
343548,374.70,683,786,0
343558,380.36,683,786,0
343568,382.14,683,785,0
343578,380.98,683,786,0
343588,376.62,683,786,0
343598,370.17,683,786,0
343608,361.55,683,785,0
343618,351.83,683,786,0
343628,341.04,683,786,0
343639,330.31,683,786,0
343649,319.55,683,785,0
343659,309.70,683,786,0
343669,300.57,683,786,0
343680,293.29,683,786,0
343689,288.02,683,785,0
343699,286.55,683,786,0
343709,290.20,683,786,0
343719,301.63,683,786,0
343729,322.18,683,786,0
343739,354.74,683,786,0
343749,398.49,683,786,0
343759,449.60,683,786,0
343769,503.98,683,786,0
343779,558.37,683,786,0
343789,609.00,683,786,0
343799,653.23,683,786,0
343809,687.53,683,786,0
343819,711.59,683,786,0
343838,728.43,665,785,0
343841,740.25,665,787,0
343851,748.49,665,786,0
343860,754.26,665,786,0
343870,758.30,665,786,0
343880,761.16,665,786,0
343890,763.13,665,786,0
343900,764.50,665,786,0
343910,765.47,665,786,0
343920,766.18,665,786,0
343930,766.64,665,786,0
343940,766.96,665,786,0
343950,766.85,665,786,0
343960,760.55,665,786,0
343970,744.06,665,786,0
343980,716.10,665,786,0
343990,675.57,665,786,0
344000,623.03,665,786,0
344010,559.29,665,786,0
344020,486.52,665,786,0
344030,412.35,665,786,0
344040,342.94,665,786,0
344050,281.63,665,786,0
344060,231.51,665,786,0
344070,193.56,665,786,0
344080,168.62,665,786,0
344090,155.92,665,786,0
344100,154.36,665,786,0
344110,161.92,665,786,0
344120,176.86,665,786,0
344130,196.83,665,786,0
344140,220.15,665,786,0
344151,244.45,665,786,0
344161,268.23,665,786,0
344171,290.02,665,786,0
344181,309.08,665,786,0
344192,324.53,665,786,0
344201,336.29,665,786,0
344211,344.04,665,786,0
344221,348.19,665,786,0
344231,348.82,665,786,0
344241,346.69,665,786,0
344251,342.11,665,786,0
344261,335.73,665,786,0
344271,327.97,665,786,0
344281,319.49,665,786,0
344291,310.65,665,786,0
344301,302.05,665,786,0
344311,293.85,665,786,0
344321,286.52,665,786,0
344331,280.15,665,786,0
344341,275.05,665,786,0
344351,271.61,665,786,0
344361,270.78,665,786,0
344371,273.55,665,786,0
344381,281.78,665,786,0
344391,297.53,665,786,0
344401,323.39,665,786,0
344411,360.90,665,786,0
344421,408.24,665,786,0
344431,461.36,665,786,0
344441,516.84,665,786,0
344451,571.14,665,786,0
344461,620.90,665,786,0
344471,662.72,665,786,0
344481,694.22,665,786,0
344501,716.31,663,785,0
344504,731.77,663,786,0
344513,742.60,663,786,0
344523,750.18,663,786,0
344534,755.52,663,786,0
344543,759.22,663,786,0
344553,761.81,663,786,0
344563,763.63,663,786,0
344573,764.90,663,786,0
344583,765.74,663,786,0
344593,766.33,663,786,0
344603,766.75,663,786,0
344613,767.08,663,786,0
344623,762.51,663,786,0
344633,748.73,663,786,0
344643,723.27,663,786,0
344653,685.30,663,786,0
344663,635.24,663,786,0
344673,574.01,663,786,0
344683,502.91,663,786,0
344693,428.92,663,786,0
344704,358.32,663,786,0
344713,295.95,663,786,0
344723,244.58,663,786,0
344733,205.66,663,786,0
344743,179.58,663,786,0
344753,166.16,663,786,0
344763,163.80,663,786,0
344773,171.15,663,786,0
344783,185.76,663,786,0
344793,205.67,663,786,0
344803,228.57,663,786,0
344813,252.91,663,786,0
344823,276.85,663,786,0
344833,299.31,663,786,0
344843,319.06,663,786,0
344853,335.59,663,786,0
344863,348.35,663,786,0
344873,357.29,663,786,0
344883,362.17,663,786,0
344893,363.49,663,786,0
344903,361.37,663,786,0
344913,356.59,663,786,0
344923,349.64,663,786,0
344933,341.44,663,786,0
344943,332.26,663,786,0
344953,322.84,663,786,0
344963,313.42,663,786,0
344973,304.72,663,786,0
344983,296.83,663,786,0
344993,290.63,663,786,0
345004,286.75,663,786,0
345014,287.21,663,786,0
345024,293.58,663,786,0
345034,308.36,663,786,0
345044,333.67,663,786,0
345054,371.44,663,786,0
345064,418.75,663,786,0
345074,471.75,663,786,0
345084,526.60,663,786,0
345094,580.03,663,786,0
345104,628.54,663,786,0
345114,668.96,663,786,0
345124,698.67,663,786,0
345134,719.47,663,786,0
345144,734.03,663,786,0
345163,744.22,662,785,0
345165,751.35,662,787,0
345175,756.35,662,786,0
345185,759.84,662,786,0
345195,762.29,662,786,0
345205,764.00,662,786,0
345216,765.20,662,786,0
345225,766.04,662,786,0
345235,766.63,662,786,0
345245,766.61,662,786,0
345255,760.34,662,786,0
345265,744.34,662,786,0
345275,716.64,662,786,0
345285,676.20,662,786,0
345295,623.51,662,786,0
345305,559.46,662,786,0
345315,486.08,662,786,0
345325,410.71,662,786,0
345335,339.31,662,786,0
345345,275.62,662,786,0
345355,223.02,662,786,0
345365,182.51,662,786,0
345375,155.15,662,786,0
345385,140.14,662,786,0
345395,136.84,662,786,0
345405,142.98,662,786,0
345415,157.38,662,786,0
345425,177.28,662,786,0
345435,201.16,662,786,0
345445,226.31,662,786,0
345455,251.63,662,786,0
345465,275.27,662,786,0
345475,296.75,662,786,0
345485,314.57,662,786,0
345495,328.92,662,786,0
345505,339.06,662,786,0
345516,345.64,662,786,0
345526,348.24,662,786,0
345536,347.82,662,786,0
345546,344.28,662,786,0
345556,338.75,662,786,0
345566,331.20,662,786,0
345576,322.82,662,786,0
345586,313.49,662,786,0
345596,304.43,662,786,0
345606,295.34,662,786,0
345616,287.27,662,786,0
345626,279.90,662,786,0
345636,274.40,662,786,0
345646,270.98,662,786,0
345656,271.67,662,786,0
345666,277.90,662,786,0
345676,292.46,662,786,0
345687,317.14,662,786,0
345697,354.81,662,786,0
345707,402.57,662,786,0
345717,456.70,662,786,0
345728,513.23,662,786,0
345737,568.70,662,786,0
345747,619.45,662,786,0
345757,662.34,662,786,0
345767,694.04,662,786,0
345777,716.23,662,786,0
345796,731.76,633,785,0
345799,742.63,633,787,0
345808,750.24,633,786,0
345818,755.57,633,786,0
345828,759.30,633,786,0
345838,761.91,633,786,0
345848,763.74,633,786,0
345858,765.02,633,786,0
345868,765.91,633,786,0
345878,766.54,633,786,0
345888,766.98,633,786,0
345899,764.58,633,786,0
345908,754.64,633,786,0
345918,734.09,633,786,0
345928,701.19,633,785,0
345938,655.79,633,786,0
345948,598.51,633,786,0
345958,530.73,633,786,0
345968,456.62,633,786,0
345978,383.19,633,786,0
345988,315.42,633,786,0
345998,257.35,633,786,0
346008,210.70,633,785,0
346018,176.76,633,786,0
346028,155.19,633,785,0
346038,145.79,633,785,0
346048,146.80,633,785,0
346058,156.93,633,786,0
346068,173.71,633,786,0
346078,195.52,633,786,0
346088,219.84,633,785,0
346098,245.30,633,786,0
346108,269.81,633,785,0
346118,292.41,633,786,0
346128,311.62,633,785,0
346138,327.16,633,786,0
346148,338.38,633,785,0
346158,345.73,633,785,0
346168,348.89,633,785,0
346178,348.63,633,786,0
346188,345.14,633,785,0
346199,339.35,633,786,0
346209,331.53,633,786,0
346219,322.63,633,786,0
346229,312.84,633,786,0
346240,303.07,633,786,0
346249,293.41,633,785,0
346259,284.50,633,786,0
346269,276.38,633,786,0
346279,269.97,633,786,0
346289,265.65,633,786,0
346299,264.94,633,786,0
346309,269.46,633,786,0
346319,281.66,633,786,0
346329,303.19,633,786,0
346339,336.86,633,786,0
346349,382.29,633,786,0
346359,435.30,633,786,0
346369,491.91,633,786,0
346379,548.47,633,786,0
346389,601.30,633,786,0
346399,647.54,633,786,0
346409,683.68,633,786,0
346419,708.97,633,786,0
346438,726.68,642,785,0
346440,739.08,642,787,0
346450,747.75,642,786,0
346460,753.83,642,786,0
346470,758.08,642,786,0
346480,761.06,642,786,0
346490,763.14,642,786,0
346500,764.60,642,786,0
346510,765.62,642,786,0
346520,766.33,642,786,0
346530,766.83,642,786,0
346540,766.37,642,786,0
346550,759.23,642,786,0
346560,741.76,642,786,0
346570,712.13,642,786,0
346580,669.71,642,786,0
346590,615.32,642,786,0
346600,550.08,642,786,0
346610,476.43,642,786,0
346620,402.16,642,786,0
346630,333.15,642,786,0
346640,273.41,642,786,0
346650,225.67,642,786,0
346660,190.80,642,786,0
346670,169.04,642,786,0
346680,159.90,642,786,0
346690,162.12,642,786,0
346700,173.83,642,785,0
346711,192.99,642,786,0
346721,217.12,642,785,0
346731,244.17,642,785,0
346741,272.02,642,785,0
346752,298.93,642,785,0
346761,323.25,642,785,0
346771,344.00,642,785,0
346781,360.16,642,785,0
346791,371.77,642,784,0
346801,378.61,642,783,0
346811,381.17,642,783,0
346821,379.53,642,783,0
346831,374.62,642,783,0
346841,366.80,642,782,0
346851,357.09,642,781,0
346861,345.66,642,781,0
346871,333.46,642,780,0
346881,320.85,642,780,0
346891,308.77,642,780,0
346901,297.52,642,779,0
346911,288.50,642,779,0
346921,282.82,642,779,0
346931,282.40,642,779,0
346941,289.01,642,780,0
346951,305.29,642,780,0
346961,333.53,642,781,0
346971,375.29,642,781,0
346981,425.64,642,780,0
346991,480.74,642,780,0
347001,536.96,642,781,0
347011,590.89,642,781,0
347021,638.88,642,782,0
347031,677.61,642,782,0
347041,704.73,642,781,0
347052,723.71,642,782,0
347062,737.00,642,782,0
347072,746.30,642,781,0
347091,752.81,653,780,0
347094,757.41,653,781,0
347103,760.63,653,781,0
347113,762.88,653,782,0
347123,764.46,653,782,0
347133,765.57,653,782,0
347143,766.34,653,782,0
347153,766.88,653,781,0
347163,761.26,653,776,0
347173,746.10,653,776,0
347183,719.50,653,776,0
347193,680.78,653,775,0
347203,629.67,653,776,0
347213,567.46,653,776,0
347223,495.40,653,775,0
347233,421.48,653,774,0
347243,350.80,653,774,0
347253,287.64,653,774,0
347264,234.39,653,773,0
347273,193.35,653,772,0
347283,164.57,653,773,0
347293,148.46,653,772,0
347303,143.52,653,772,0
347313,148.85,653,772,0
347323,162.05,653,774,0
347333,181.58,653,774,0
347343,204.81,653,777,0
347353,230.15,653,780,0
347363,255.05,653,781,0
347373,278.69,653,783,0
347383,299.31,653,783,0
347393,316.66,653,784,0
347403,329.75,653,784,0
347413,338.91,653,784,0
347423,343.65,653,784,0
347433,344.87,653,784,0
347443,342.42,653,784,0
