Time,PPG,IBI,GSR,GSR_Event
373149,398.22,543,749,0
373159,392.58,543,747,0
373169,387.14,543,749,0
373179,383.41,543,747,0
373189,381.83,543,749,0
373199,383.08,543,748,0
373209,386.57,543,749,0
373219,394.16,543,748,0
373229,407.57,543,750,0
373239,422.10,543,748,0
373249,435.44,543,750,0
373259,446.28,543,747,0
373269,453.27,543,749,0
373279,456.87,543,748,0
373289,456.44,543,749,0
373299,453.01,543,747,0
373309,446.92,543,749,0
373319,439.57,543,748,0
373329,431.39,543,749,0
373339,423.60,543,747,0
373349,416.56,543,749,0
373359,411.55,543,747,0
373369,408.47,543,749,0
373379,407.90,543,747,0
373389,409.43,543,749,0
373399,413.37,543,748,0
373409,419.00,543,749,0
373420,426.07,543,747,0
373430,433.42,543,749,0
373440,441.05,543,748,0
373450,448.11,543,749,0
373460,454.63,543,747,0
373470,459.89,543,749,0
373480,464.33,543,748,0
373490,467.28,543,749,0
373500,469.42,543,747,0
373510,470.11,543,749,0
373520,470.12,543,748,0
373530,468.71,543,749,0
373540,466.96,543,748,0
373550,464.23,543,749,0
373560,461.42,543,748,0
373570,457.69,543,749,0
373580,453.97,543,747,0
373591,449.52,543,748,0
373601,445.46,543,748,0
373611,440.83,543,748,0
373621,436.72,543,748,0
373632,432.26,543,748,0
373641,428.63,543,748,0
373651,424.88,543,749,0
373661,422.17,543,748,0
373671,419.38,543,748,0
373681,417.64,543,748,0
373691,415.77,543,749,0
373701,414.90,543,748,0
373711,413.86,543,748,0
373721,413.69,543,748,0
373731,413.05,543,749,0
373741,413.04,543,748,0
373751,412.38,543,748,0
373761,412.22,543,748,0
373771,411.56,543,749,0
373781,411.26,543,748,0
373791,410.15,543,748,0
373801,409.42,543,748,0
373811,408.05,543,749,0
373821,407.14,543,748,0
373831,405.51,543,748,0
373841,404.29,543,748,0
373851,402.57,543,749,0
373861,401.50,543,748,0
373871,400.15,543,748,0
373881,399.76,543,748,0
373891,399.49,543,749,0
373901,400.63,543,748,0
373911,402.20,543,748,0
373921,405.40,543,748,0
373932,409.48,543,749,0
373942,415.25,543,748,0
373952,421.30,543,748,0
373962,428.75,543,749,0
373972,436.16,543,748,0
373982,444.34,543,748,0
373992,451.87,543,748,0
374011,459.45,1074,749,0
374014,467.97,1074,751,0
374023,477.62,1074,751,0
374033,485.15,1074,749,0
374043,490.98,1074,750,0
374053,493.43,1074,749,0
374063,493.94,1074,750,0
374073,491.39,1074,749,0
374083,485.27,1074,750,0
374093,475.68,1074,749,0
374103,465.92,1074,750,0
374113,455.96,1074,749,0
374123,447.70,1074,750,0
374133,440.07,1074,749,0
374144,434.52,1074,750,0
374153,429.82,1074,749,0
374163,427.00,1074,750,0
374173,424.60,1074,749,0
374183,423.61,1074,750,0
374193,422.65,1074,749,0
374203,422.76,1074,750,0
374213,422.53,1074,749,0
374223,423.01,1074,750,0
374233,422.97,1074,749,0
374243,423.62,1074,750,0
374253,423.65,1074,749,0
374263,424.27,1074,750,0
374273,424.10,1074,749,0
374283,424.46,1074,750,0
374293,424.23,1074,750,0
374303,424.46,1074,751,0
374313,423.77,1074,749,0
374323,423.24,1074,750,0
374333,421.67,1074,750,0
374343,420.31,1074,750,0
374353,417.86,1074,749,0
374363,415.46,1074,750,0
374373,412.02,1074,749,0
374383,409.06,1074,750,0
374393,405.53,1074,749,0
374403,402.84,1074,750,0
374413,399.93,1074,750,0
374423,398.19,1074,750,0
374433,396.42,1074,749,0
374444,396.21,1074,750,0
374454,396.40,1074,749,0
374464,398.34,1074,751,0
374474,400.89,1074,749,0
374484,405.26,1074,751,0
374494,410.24,1074,749,0
374504,416.94,1074,751,0
374514,423.90,1074,749,0
374524,431.94,1074,751,0
374543,439.72,532,749,0
374546,447.82,532,751,0
374555,455.54,532,749,0
374565,463.05,532,751,0
374575,469.04,532,749,0
374585,474.21,532,751,0
374595,477.49,532,749,0
374605,479.74,532,751,0
374615,480.21,532,749,0
374625,479.33,532,751,0
374635,476.92,532,749,0
374645,474.20,532,751,0
374656,470.54,532,749,0
374665,467.08,532,751,0
374675,463.07,532,749,0
374685,459.32,532,751,0
374695,455.11,532,749,0
374705,451.35,532,751,0
374715,447.09,532,749,0
374725,443.25,532,750,0
374735,439.06,532,749,0
374745,435.44,532,751,0
374755,431.71,532,749,0
374765,428.71,532,751,0
374775,425.58,532,749,0
374785,423.22,532,750,0
374795,420.84,532,749,0
374805,419.05,532,750,0
374815,417.10,532,749,0
374825,415.70,532,751,0
374835,413.95,532,749,0
374845,412.68,532,750,0
374855,411.02,532,749,0
374865,409.64,532,751,0
374875,407.82,532,749,0
374885,406.33,532,750,0
374895,404.43,532,749,0
374905,402.80,532,751,0
374915,400.72,532,749,0
374925,399.00,532,750,0
374935,396.95,532,749,0
374945,395.33,532,751,0
374956,393.43,532,749,0
374966,391.89,532,750,0
374976,390.34,532,749,0
374986,389.29,532,751,0
374996,388.35,532,749,0
375006,388.03,532,750,0
375016,387.89,532,749,0
375026,388.57,532,751,0
375036,389.85,532,749,0
375046,392.08,532,750,0
375056,394.84,532,749,0
375066,398.45,532,751,0
375076,402.56,532,749,0
375086,407.40,532,750,0
375096,412.38,532,749,0
375106,417.58,532,751,0
375116,422.42,532,749,0
375127,427.10,532,750,0
375137,431.10,532,749,0
375147,434.54,532,751,0
375157,437.16,532,749,0
375168,439.00,532,750,0
375177,440.03,532,748,0
375187,440.41,532,751,0
375197,440.16,532,749,0
375207,439.25,532,750,0
375217,437.85,532,748,0
375227,435.96,532,751,0
375237,433.83,532,749,0
375247,431.27,532,750,0
375257,428.49,532,748,0
375267,425.51,532,751,0
375277,422.62,532,749,0
375287,419.65,532,750,0
375297,416.75,532,748,0
375307,414.04,532,751,0
375317,411.63,532,748,0
375327,409.43,532,750,0
375337,407.46,532,749,0
375347,405.73,532,751,0
375357,404.31,532,749,0
375367,403.02,532,750,0
375377,401.86,532,749,0
375387,400.79,532,751,0
375397,399.86,532,748,0
375407,398.92,532,751,0
375417,398.04,532,749,0
375427,397.17,532,751,0
375437,396.35,532,748,0
375447,395.56,532,751,0
375457,394.79,532,748,0
375468,393.83,532,751,0
375478,392.98,532,749,0
375488,391.83,532,750,0
375498,390.81,532,748,0
375508,389.67,532,750,0
375518,388.57,532,749,0
375528,387.41,532,750,0
375538,386.56,532,749,0
375548,385.62,532,750,0
375558,385.09,532,749,0
375568,384.42,532,750,0
375578,384.38,532,749,0
375588,384.35,532,751,0
375598,384.93,532,749,0
375608,385.72,532,751,0
375618,387.22,532,748,0
375628,389.13,532,750,0
375639,391.87,532,749,0
375649,394.65,532,750,0
375659,398.32,532,749,0
375669,401.82,532,750,0
375680,405.82,532,749,0
375689,409.64,532,751,0
375699,413.39,532,749,0
375709,416.32,532,750,0
375719,419.18,532,749,0
375729,420.97,532,750,0
375739,422.61,532,749,0
375749,423.15,532,750,0
375759,423.28,532,749,0
375769,422.64,532,751,0
375779,422.06,532,749,0
375789,420.67,532,750,0
375799,419.53,532,749,0
375809,417.70,532,751,0
375828,416.16,0,749,0
375831,414.10,0,750,0
375840,412.87,0,749,0
375851,411.28,0,750,0
375860,410.30,0,749,0
375870,408.79,0,750,0
375880,407.87,0,749,0
375890,406.45,0,750,0
375900,405.67,0,749,0
375910,403.97,0,750,0
375920,402.87,0,749,0
375930,401.23,0,750,0
375940,400.31,0,749,0
375950,399.01,0,750,0
375960,398.54,0,749,0
375970,397.73,0,750,0
375980,397.60,0,749,0
375990,396.95,0,750,0
376000,396.96,0,749,0
376010,396.42,0,750,0
376020,396.46,0,749,0
376030,395.90,0,750,0
376040,395.84,0,749,0
376050,395.16,0,750,0
376060,395.07,0,749,0
376070,394.41,0,750,0
376080,394.33,0,749,0
376090,393.59,0,750,0
376100,393.41,0,749,0
376110,392.64,0,750,0
376120,392.45,0,749,0
376130,391.63,0,750,0
376140,391.40,0,749,0
376151,390.72,0,750,0
376161,390.85,0,750,0
376171,390.68,0,750,0
376181,391.46,0,749,0
376192,392.22,0,750,0
376201,394.13,0,749,0
376211,395.97,0,750,0
376221,398.90,0,749,0
376231,401.58,0,750,0
376241,405.22,0,750,0
376251,408.33,0,750,0
376261,412.00,0,749,0
376271,414.87,0,750,0
376290,418.12,462,749,0
376293,420.44,462,750,0
376302,423.44,462,750,0
376312,425.45,462,749,0
376322,427.72,462,750,0
376332,428.79,462,749,0
376342,429.88,462,750,0
376352,429.70,462,749,0
376363,429.49,462,750,0
376372,427.67,462,749,0
376382,425.84,462,750,0
376392,423.02,462,749,0
376402,420.61,462,750,0
376412,417.60,462,749,0
376422,415.32,462,750,0
376432,412.61,462,749,0
376442,410.71,462,750,0
376452,408.57,462,750,0
376462,407.33,462,750,0
376472,405.77,462,749,0
376482,405.11,462,750,0
376492,404.14,462,750,0
376502,404.09,462,750,0
376512,403.72,462,749,0
376522,404.19,462,750,0
376532,404.09,462,749,0
376542,404.75,462,750,0
376552,404.82,462,749,0
376562,405.48,462,750,0
376572,405.42,462,749,0
376582,405.85,462,750,0
376592,405.47,462,749,0
376602,405.63,462,750,0
376612,405.01,462,749,0
376622,404.84,462,750,0
376632,403.90,462,749,0
376642,403.46,462,750,0
376652,402.38,462,749,0
376663,401.84,462,750,0
376673,400.64,462,749,0
376683,400.06,462,750,0
376693,398.97,462,749,0
376704,398.55,462,750,0
376713,397.66,462,749,0
376723,397.63,462,750,0
376733,397.36,462,749,0
376743,398.06,462,750,0
376753,398.60,462,749,0
376763,400.22,462,750,0
376773,401.91,462,749,0
376783,404.64,462,750,0
376793,407.15,462,749,0
376803,410.57,462,751,0
376822,413.66,532,749,0
376825,417.40,532,752,0
376834,421.05,532,749,0
376844,425.15,532,751,0
376854,428.54,532,749,0
376864,431.89,532,751,0
376875,434.15,532,748,0
376884,436.12,532,751,0
376894,436.94,532,749,0
376904,437.09,532,751,0
376914,435.82,532,748,0
376924,434.33,532,750,0
376934,432.00,532,749,0
376944,429.64,532,751,0
376954,426.79,532,748,0
376964,424.33,532,751,0
376974,421.49,532,749,0
376984,419.37,532,751,0
376994,417.07,532,748,0
377004,415.51,532,750,0
377014,413.90,532,749,0
377024,412.94,532,751,0
377034,411.85,532,748,0
377044,411.38,532,751,0
377054,410.71,532,749,0
377064,410.58,532,751,0
377074,410.24,532,748,0
377084,410.38,532,751,0
377094,410.31,532,749,0
377104,410.69,532,751,0
377114,410.52,532,748,0
377124,410.62,532,751,0
377134,410.31,532,749,0
377144,410.39,532,751,0
377154,410.01,532,749,0
377164,409.84,532,751,0
377175,409.07,532,749,0
377185,408.54,532,751,0
377195,407.60,532,748,0
377205,406.78,532,751,0
377216,405.52,532,749,0
377225,404.59,532,751,0
377235,403.39,532,749,0
377245,402.50,532,751,0
377255,401.66,532,749,0
377265,401.16,532,751,0
377275,400.77,532,749,0
377285,400.80,532,751,0
377295,401.07,532,749,0
377305,402.08,532,751,0
377315,403.47,532,749,0
377325,405.60,532,751,0
377335,408.25,532,749,0
377345,411.65,532,751,0
377355,415.35,532,749,0
377365,419.40,532,751,0
377384,423.44,562,750,0
377388,427.38,562,750,0
377396,431.51,562,749,0
377406,435.47,562,751,0
377416,439.06,562,749,0
377426,442.08,562,751,0
377436,444.37,562,749,0
377446,445.89,562,751,0
377456,446.82,562,749,0
377466,446.40,562,751,0
377476,445.13,562,749,0
377486,443.03,562,751,0
377496,440.58,562,749,0
377506,437.75,562,751,0
377516,434.87,562,749,0
377526,431.95,562,751,0
377536,429.26,562,749,0
377546,426.79,562,751,0
377556,424.62,562,749,0
377566,422.76,562,751,0
377576,421.29,562,748,0
377586,420.09,562,751,0
377596,419.25,562,749,0
377606,418.70,562,750,0
377616,418.45,562,749,0
377626,418.36,562,751,0
377636,418.38,562,749,0
377646,418.39,562,750,0
377656,418.49,562,748,0
377666,418.56,562,751,0
377676,418.65,562,749,0
377687,418.58,562,751,0
377697,418.54,562,749,0
377707,418.20,562,751,0
377717,418.06,562,749,0
377728,417.57,562,750,0
377737,417.14,562,749,0
377747,416.41,562,751,0
377757,415.86,562,749,0
377767,414.92,562,750,0
377777,414.21,562,749,0
377787,413.16,562,751,0
377797,412.51,562,749,0
377807,411.63,562,750,0
377817,410.88,562,749,0
377827,409.76,562,751,0
377837,409.02,562,749,0
377847,408.11,562,750,0
377857,407.74,562,749,0
377867,407.56,562,751,0
377877,408.25,562,749,0
377887,409.46,562,750,0
377897,411.89,562,749,0
377907,414.84,562,751,0
377917,418.79,562,749,0
377927,423.05,562,750,0
377947,427.96,562,749,0
377950,432.69,562,751,0
377959,438.27,562,750,0
377969,443.12,562,750,0
377979,447.97,562,750,0
377989,451.75,562,750,0
377999,455.21,562,749,0
378009,457.12,562,750,0
378019,458.54,562,749,0
378029,457.99,562,750,0
378039,457.09,562,749,0
378049,454.84,562,750,0
378059,452.61,562,749,0
378070,449.30,562,750,0
378079,446.34,562,749,0
378089,442.64,562,750,0
378099,439.49,562,749,0
378109,435.91,562,750,0
378119,433.20,562,749,0
378129,430.18,562,750,0
378139,428.11,562,749,0
378149,425.98,562,750,0
378159,424.91,562,749,0
378169,423.70,562,750,0
378179,423.49,562,749,0
378189,423.00,562,750,0
378199,423.38,562,749,0
378209,423.44,562,750,0
378219,424.17,562,749,0
378229,424.29,562,750,0
378240,424.97,562,750,0
378249,424.94,562,750,0
378259,425.30,562,749,0
378269,424.95,562,750,0
378279,424.97,562,749,0
378289,424.25,562,750,0
378299,423.96,562,749,0
378309,422.94,562,750,0
378319,422.40,562,750,0
378329,421.34,562,750,0
378339,420.81,562,749,0
378349,419.62,562,750,0
378359,418.96,562,750,0
378369,417.73,562,750,0
378379,417.17,562,749,0
378389,416.13,562,750,0
378399,415.79,562,750,0
378409,415.13,562,750,0
378419,415.56,562,749,0
378429,416.08,562,750,0
378439,417.94,562,750,0
378449,420.06,562,750,0
378459,423.60,562,749,0
378469,427.36,562,750,0
378479,432.35,562,750,0
378499,437.18,552,748,0
378502,442.95,552,751,0
378511,448.54,552,749,0
378521,454.42,552,750,0
378531,459.22,552,749,0
378541,464.04,552,750,0
378551,467.41,552,750,0
378561,470.59,552,750,0
378571,472.17,552,749,0
378582,473.06,552,750,0
378591,472.53,552,750,0
378601,471.94,552,750,0
378611,470.03,552,749,0
378621,468.48,552,750,0
378631,465.85,552,749,0
378641,463.62,552,750,0
378651,460.56,552,749,0
378661,457.95,552,750,0
378671,454.62,552,749,0
378681,451.91,552,750,0
378691,448.51,552,749,0
378701,445.95,552,750,0
378711,443.01,552,750,0
378721,441.04,552,750,0
378731,438.88,552,749,0
378741,437.76,552,750,0
378752,436.50,552,749,0
378761,436.22,552,750,0
378771,435.60,552,749,0
378781,435.68,552,750,0
378791,435.26,552,749,0
378801,435.57,552,750,0
378811,435.18,552,749,0
378821,435.30,552,750,0
378831,434.70,552,749,0
378841,434.66,552,750,0
378851,433.86,552,749,0
378861,433.43,552,750,0
378871,432.14,552,749,0
378881,431.33,552,750,0
378891,429.86,552,749,0
378901,428.87,552,750,0
378911,427.15,552,749,0
378921,425.99,552,750,0
378931,424.32,552,749,0
378941,423.37,552,750,0
378951,422.02,552,749,0
378961,421.54,552,750,0
378971,420.91,552,750,0
378981,421.53,552,750,0
378991,422.49,552,749,0
379001,425.21,552,751,0
379011,428.28,552,750,0
379021,433.04,552,750,0
379031,438.00,552,749,0
379041,444.34,552,751,0
379052,450.84,552,750,0
379062,458.30,552,751,0
379081,465.20,583,749,0
379084,472.68,583,752,0
379094,479.80,583,749,0
379103,487.15,583,751,0
379113,493.15,583,749,0
379123,498.33,583,751,0
379133,501.66,583,749,0
379143,504.08,583,751,0
379153,504.70,583,749,0
379163,503.80,583,751,0
379173,501.12,583,749,0
379183,497.87,583,750,0
379193,493.49,583,749,0
379203,489.02,583,751,0
379213,483.87,583,749,0
379223,479.11,583,751,0
379233,473.98,583,748,0
379243,469.61,583,751,0
379253,465.36,583,749,0
379264,461.99,583,751,0
379273,458.82,583,749,0
379283,456.48,583,751,0
379293,454.19,583,749,0
379303,452.80,583,751,0
379313,451.32,583,749,0
379323,450.50,583,751,0
379333,449.66,583,749,0
379343,449.33,583,751,0
379353,448.81,583,748,0
379363,448.65,583,751,0
379373,448.24,583,749,0
379383,448.17,583,751,0
379393,447.52,583,748,0
379403,447.11,583,751,0
379413,446.26,583,749,0
379423,445.62,583,751,0
379433,444.49,583,748,0
379443,443.57,583,751,0
379453,442.12,583,749,0
379463,441.01,583,751,0
379473,439.38,583,748,0
379483,438.11,583,751,0
379493,436.40,583,749,0
379503,434.95,583,751,0
379513,433.21,583,748,0
379523,431.95,583,751,0
379533,430.72,583,749,0
379543,430.42,583,751,0
379553,430.59,583,748,0
379564,432.22,583,751,0
379574,434.94,583,749,0
379584,439.46,583,751,0
379594,445.45,583,748,0
379604,453.11,583,751,0
379614,461.65,583,749,0
379624,471.14,583,751,0
379643,480.70,562,749,0
379646,490.17,562,752,0
379655,499.42,562,749,0
379665,507.52,562,751,0
379675,514.01,562,749,0
379685,518.85,562,751,0
379695,521.85,562,749,0
379705,523.31,562,751,0
379715,523.26,562,748,0
379725,521.34,562,751,0
379735,518.28,562,749,0
379745,514.38,562,751,0
379755,509.94,562,748,0
379765,504.99,562,750,0
379776,499.80,562,749,0
379785,494.46,562,751,0
379795,489.10,562,748,0
379805,483.88,562,750,0
379815,479.07,562,749,0
379825,474.68,562,751,0
379835,470.88,562,748,0
379845,467.36,562,750,0
379855,464.51,562,749,0
379865,462.25,562,751,0
379875,460.64,562,749,0
379885,459.07,562,751,0
379895,457.72,562,749,0
379905,456.35,562,751,0
379915,455.17,562,748,0
379925,453.84,562,751,0
379935,452.51,562,749,0
379945,450.82,562,750,0
379955,449.33,562,749,0
379965,447.73,562,750,0
379975,446.31,562,749,0
379985,444.80,562,751,0
379995,443.41,562,748,0
380005,441.74,562,751,0
380015,440.23,562,749,0
380025,438.53,562,750,0
380035,436.87,562,748,0
380045,435.11,562,750,0
380055,433.49,562,749,0
380065,431.76,562,751,0
380076,430.20,562,749,0
380086,428.56,562,750,0
380096,427.15,562,749,0
380106,425.69,562,751,0
380116,424.54,562,749,0
380126,423.52,562,750,0
380136,423.15,562,749,0
380146,423.23,562,750,0
380156,424.66,562,749,0
380166,427.12,562,750,0
380176,431.41,562,749,0
380186,436.99,562,751,0
380196,444.54,562,749,0
380206,453.33,562,751,0
380216,463.69,562,749,0
380226,474.50,562,751,0
380236,485.88,562,750,0
380247,496.58,562,750,0
380257,506.82,562,750,0
380267,515.36,562,750,0
380286,522.54,643,749,0
380290,527.26,643,750,0
380299,530.78,643,750,0
380309,531.83,643,750,0
380319,531.50,643,750,0
380329,528.95,643,749,0
380339,525.49,643,750,0
380349,520.29,643,750,0
380359,514.93,643,750,0
380369,507.88,643,749,0
380379,501.14,643,749,0
380389,493.64,643,749,0
380399,487.02,643,749,0
380409,479.99,643,749,0
380419,474.29,643,749,0
380429,468.55,643,750,0
380439,464.27,643,749,0
380449,460.12,643,749,0
380460,457.42,643,750,0
380470,454.77,643,749,0
380480,453.42,643,750,0
380490,451.88,643,748,0
380500,451.36,643,750,0
380510,450.40,643,749,0
380520,450.19,643,750,0
380530,449.36,643,749,0
380540,449.12,643,750,0
380550,448.14,643,749,0
380560,447.54,643,750,0
380570,446.14,643,748,0
380580,445.11,643,750,0
380590,443.23,643,749,0
380600,441.79,643,750,0
380610,439.58,643,749,0
380620,437.99,643,750,0
380631,435.64,643,749,0
380641,433.69,643,750,0
380651,430.95,643,748,0
380661,428.48,643,750,0
380672,425.29,643,749,0
380681,422.72,643,750,0
380691,419.59,643,748,0
380701,417.40,643,750,0
380711,415.31,643,749,0
380721,414.66,643,750,0
380731,414.72,643,749,0
380741,416.82,643,750,0
380751,419.91,643,749,0
380761,425.25,643,751,0
380771,431.69,643,749,0
380781,440.44,643,751,0
380791,450.25,643,749,0
380801,461.92,643,751,0
380811,473.73,643,749,0
380821,486.28,643,751,0
380831,498.03,643,750,0
380851,509.38,564,748,0
380854,518.73,564,749,0
380863,526.91,564,751,0
380873,532.38,564,749,0
380883,535.87,564,751,0
380893,536.55,564,748,0
380903,535.36,564,751,0
380913,532.04,564,749,0
380923,527.35,564,751,0
380933,520.90,564,748,0
380952,513.99,0,747,0
380954,506.62,0,749,0
380964,499.62,0,751,0
380974,492.28,0,748,0
380984,485.21,0,751,0
380994,478.50,0,748,0
381004,472.31,0,751,0
381015,466.56,0,748,0
381025,461.25,0,750,0
381035,456.46,0,749,0
381045,452.59,0,751,0
381056,449.72,0,748,0
381065,447.53,0,750,0
381075,446.21,0,749,0
381085,445.34,0,751,0
381095,445.15,0,749,0
381105,444.98,0,750,0
381115,445.11,0,749,0
381125,444.95,0,751,0
381135,444.75,0,748,0
381145,444.14,0,750,0
381155,443.41,0,749,0
381165,442.13,0,751,0
381175,440.68,0,748,0
381185,438.80,0,750,0
381195,436.93,0,749,0
381205,434.64,0,751,0
381215,432.35,0,749,0
381225,429.63,0,750,0
381235,427.08,0,749,0
381245,424.36,0,751,0
381255,421.89,0,748,0
381265,419.18,0,750,0
381275,416.81,0,749,0
381285,414.43,0,751,0
381295,412.76,0,749,0
381305,411.41,0,750,0
381315,411.12,0,749,0
381325,411.77,0,751,0
381335,414.32,0,749,0
381345,418.51,0,751,0
381356,424.79,0,749,0
381366,432.78,0,751,0
381376,443.05,0,750,0
381386,454.82,0,751,0
381396,468.16,0,750,0
381406,481.61,0,751,0
381425,495.18,473,749,0
381428,507.64,473,751,0
381437,519.62,473,750,0
381447,529.59,473,751,0
381457,537.64,473,750,0
381467,542.55,473,750,0
381477,545.34,473,750,0
381487,545.24,473,750,0
381497,543.54,473,749,0
381507,538.88,473,750,0
381517,532.87,473,749,0
381527,525.15,473,750,0
381537,517.09,473,749,0
381547,508.06,473,750,0
381557,499.56,473,749,0
381568,490.61,473,750,0
381577,482.71,473,749,0
381587,474.87,473,750,0
381597,468.18,473,749,0
381607,461.83,473,750,0
381617,456.91,473,749,0
381627,452.22,473,750,0
381637,449.07,473,749,0
381647,446.09,473,750,0
381657,444.35,473,749,0
381667,442.79,473,750,0
381677,442.34,473,749,0
381687,441.68,473,750,0
381697,441.82,473,749,0
381707,441.44,473,749,0
381717,441.57,473,749,0
381727,440.84,473,750,0
381737,440.29,473,749,0
381747,438.79,473,749,0
381757,437.39,473,749,0
381767,435.05,473,750,0
381777,432.85,473,749,0
381787,429.89,473,750,0
381797,427.31,473,749,0
381807,424.00,473,750,0
381817,421.22,473,749,0
381827,417.94,473,750,0
381837,415.30,473,749,0
381847,412.21,473,750,0
381857,409.79,473,749,0
381868,406.98,473,749,0
381878,405.10,473,749,0
381888,403.01,473,750,0
381898,402.15,473,750,0
381908,401.59,473,749,0
381918,402.87,473,749,0
381928,405.10,473,750,0
381938,409.87,473,750,0
381948,416.12,473,749,0
381958,425.13,473,750,0
381968,435.63,473,751,0
381978,448.43,473,750,0
381988,461.76,473,750,0
381998,476.23,473,750,0
382008,489.83,473,750,0
382018,503.17,473,750,0
382028,514.43,473,750,0
382039,524.33,473,750,0
382049,531.26,473,750,0
382059,536.24,473,750,0
382069,537.97,473,749,0
382080,537.93,473,750,0
382089,535.17,473,750,0
382099,531.17,473,750,0
382109,524.91,473,749,0
382129,518.12,703,748,0
382132,510.07,703,750,0
382141,502.51,703,750,0
382151,494.34,703,748,0
382161,486.82,703,750,0
382171,479.12,703,749,0
382181,472.36,703,750,0
382191,465.56,703,748,0
382201,460.04,703,751,0
382211,454.67,703,749,0
382221,450.74,703,751,0
382231,447.09,703,749,0
382241,444.66,703,751,0
382252,442.41,703,749,0
382262,440.96,703,751,0
382272,439.30,703,749,0
382282,438.01,703,751,0
382292,436.12,703,749,0
382302,434.63,703,751,0
382312,432.64,703,749,0
382322,431.08,703,751,0
382332,429.34,703,749,0
382342,427.99,703,751,0
382352,426.37,703,749,0
382362,425.06,703,751,0
382372,423.50,703,749,0
382382,422.19,703,751,0
382392,420.55,703,749,0
382402,419.23,703,751,0
382412,417.66,703,749,0
382423,416.39,703,751,0
382433,414.90,703,749,0
382443,413.56,703,751,0
382453,412.02,703,749,0
382464,410.64,703,751,0
382473,409.12,703,749,0
382483,407.97,703,751,0
382493,407.12,703,749,0
382503,407.17,703,751,0
382513,408.19,703,749,0
382523,410.83,703,751,0
382533,415.34,703,749,0
382543,422.05,703,751,0
382553,430.69,703,750,0
382563,441.41,703,751,0
382573,453.72,703,750,0
382583,467.47,703,751,0
382593,481.86,703,750,0
382603,496.47,703,751,0
382622,510.13,494,750,0
382625,522.18,494,751,0
382635,532.50,494,750,0
382644,540.45,494,751,0
382654,545.46,494,749,0
382664,547.46,494,751,0
382674,546.38,494,749,0
382684,542.88,494,750,0
382694,537.43,494,749,0
382704,529.84,494,750,0
382714,520.93,494,749,0
382724,511.27,494,750,0
382734,501.33,494,749,0
382744,491.46,494,750,0
382754,481.76,494,749,0
382764,472.62,494,750,0
382774,464.21,494,749,0
382784,456.56,494,750,0
382794,449.83,494,749,0
382804,443.93,494,750,0
382814,439.02,494,749,0
382824,435.16,494,750,0
382834,432.32,494,749,0
382844,430.34,494,750,0
382854,429.25,494,749,0
382864,428.75,494,750,0
382874,428.82,494,749,0
382884,429.01,494,750,0
382894,429.30,494,749,0
382904,429.47,494,750,0
382914,429.54,494,749,0
382924,429.21,494,750,0
382935,428.67,494,749,0
382945,427.57,494,750,0
382955,426.33,494,749,0
382965,424.52,494,750,0
382976,422.60,494,749,0
382985,420.24,494,750,0
382995,417.98,494,749,0
383005,415.20,494,750,0
383015,412.83,494,749,0
383025,410.14,494,750,0
383035,407.87,494,749,0
383045,405.29,494,750,0
383055,403.32,494,749,0
383065,401.25,494,750,0
383075,399.93,494,749,0
383085,398.67,494,750,0
383095,398.55,494,749,0
383105,399.24,494,750,0
383115,401.70,494,749,0
383125,405.43,494,750,0
383135,411.47,494,750,0
383145,419.30,494,750,0
383155,429.50,494,750,0
383165,441.18,494,751,0
383175,454.58,494,750,0
383195,468.46,572,749,0
383198,482.94,572,751,0
383207,496.67,572,750,0
383217,509.33,572,750,0
383227,519.34,572,750,0
383237,527.21,572,750,0
383247,531.73,572,750,0
383257,533.91,572,749,0
383267,532.83,572,750,0
383277,529.58,572,750,0
383287,523.75,572,750,0
383297,517.18,572,749,0
383307,508.85,572,750,0
383318,500.67,572,749,0
383327,491.51,572,750,0
383337,482.96,572,749,0
383347,473.97,572,750,0
383357,466.18,572,749,0
383367,458.33,572,750,0
383377,452.01,572,749,0
383387,445.80,572,750,0
383397,441.19,572,750,0
383407,436.76,572,750,0
383417,433.79,572,749,0
383427,430.98,572,750,0
383437,429.66,572,749,0
383447,428.30,572,750,0
383457,428.00,572,749,0
383467,427.40,572,750,0
383477,427.71,572,750,0
383488,427.24,572,749,0
383497,427.25,572,749,0
383507,426.32,572,750,0
383517,425.67,572,750,0
383527,424.18,572,749,0
383537,422.93,572,749,0
383547,420.76,572,750,0
383557,419.08,572,750,0
383567,416.61,572,750,0
383577,414.63,572,749,0
383587,412.04,572,750,0
383597,409.93,572,750,0
383607,407.12,572,749,0
383617,404.90,572,749,0
383627,402.23,572,750,0
383637,400.40,572,749,0
383647,398.05,572,750,0
383657,396.54,572,749,0
383667,394.79,572,750,0
383677,394.38,572,749,0
383687,394.27,572,750,0
383697,396.16,572,749,0
383707,398.94,572,750,0
383717,404.31,572,750,0
383727,411.12,572,750,0
383737,420.81,572,750,0
383747,431.97,572,750,0
383757,445.44,572,750,0
383767,459.23,572,750,0
383777,474.03,572,750,0
383797,487.82,603,749,0
383800,501.33,603,752,0
383809,512.98,603,750,0
383819,522.97,603,750,0
383830,529.28,603,749,0
383839,533.22,603,750,0
383849,533.59,603,749,0
383859,532.04,603,749,0
383869,527.44,603,749,0
383879,521.18,603,750,0
383889,512.73,603,749,0
383899,504.49,603,749,0
383909,495.30,603,749,0
383919,487.03,603,750,0
383929,478.28,603,749,0
383939,470.61,603,749,0
383949,462.71,603,749,0
383959,456.28,603,750,0
383969,449.81,603,749,0
383979,444.85,603,750,0
383989,439.93,603,749,0
384000,436.56,603,750,0
384009,433.39,603,749,0
384019,431.78,603,750,0
384029,430.17,603,749,0
384039,429.86,603,750,0
384049,429.30,603,749,0
384059,429.68,603,750,0
384069,429.39,603,749,0
384079,429.70,603,750,0
384089,429.06,603,749,0
384099,429.04,603,750,0
384109,427.96,603,749,0
384119,427.07,603,750,0
384129,424.82,603,749,0
384139,422.90,603,750,0
384149,419.93,603,749,0
384159,417.38,603,750,0
384169,413.71,603,749,0
384179,410.63,603,750,0
384189,406.97,603,749,0
384199,404.41,603,750,0
384209,401.45,603,749,0
384219,399.52,603,750,0
384229,397.18,603,749,0
384239,395.97,603,750,0
384249,394.82,603,749,0
384259,395.35,603,750,0
384269,396.44,603,749,0
384279,399.82,603,750,0
384289,404.42,603,749,0
384300,412.05,603,751,0
384310,421.34,603,749,0
384320,433.53,603,751,0
384330,447.05,603,750,0
384340,462.59,603,751,0
384359,478.10,562,749,0
384362,493.93,562,751,0
384371,508.65,562,750,0
384381,522.47,562,751,0
384391,533.56,562,749,0
384401,542.52,562,751,0
384411,548.06,562,749,0
384421,551.22,562,751,0
384431,551.36,562,748,0
384441,549.11,562,750,0
384451,544.15,562,749,0
384461,537.76,562,750,0
384471,529.56,562,748,0
384481,520.95,562,750,0
384491,511.41,562,748,0
384501,502.16,562,750,0
384512,492.60,562,748,0
384521,483.89,562,750,0
384531,475.52,562,749,0
384541,468.25,562,750,0
384551,461.36,562,748,0
384561,455.72,562,750,0
384571,450.24,562,749,0
384581,445.71,562,750,0
384591,441.38,562,748,0
384601,438.05,562,750,0
384611,435.12,562,749,0
384621,433.16,562,750,0
384631,431.52,562,748,0
384641,431.07,562,750,0
384651,430.79,562,749,0
384661,431.07,562,750,0
384671,430.83,562,748,0
384681,430.71,562,750,0
384691,429.98,562,749,0
384701,429.13,562,750,0
384711,427.29,562,748,0
384721,425.32,562,750,0
384731,422.74,562,749,0
384741,420.33,562,750,0
384751,417.36,562,748,0
384761,414.59,562,750,0
384771,411.46,562,749,0
384781,408.92,562,750,0
384791,406.12,562,748,0
384801,403.68,562,750,0
384812,401.29,562,749,0
384822,399.66,562,750,0
384832,398.48,562,748,0
384842,398.63,562,750,0
384852,400.07,562,749,0
384862,403.69,562,751,0
384872,409.44,562,749,0
384882,417.80,562,751,0
384892,428.57,562,749,0
384902,441.81,562,751,0
384912,456.57,562,749,0
384922,472.43,562,751,0
384932,488.58,562,750,0
384951,504.44,592,749,0
384954,519.91,592,753,0
384963,534.38,592,752,0
384973,546.52,592,750,0
384983,555.92,592,751,0
384993,561.90,592,750,0
385003,564.50,592,751,0
385013,563.75,592,750,0
385024,558.98,592,751,0
385033,551.02,592,750,0
385043,541.03,592,751,0
385053,529.88,592,749,0
385063,518.13,592,751,0
385073,506.52,592,749,0
385083,495.35,592,751,0
385093,485.17,592,750,0
385103,475.43,592,751,0
385113,466.52,592,750,0
385123,458.39,592,751,0
385133,451.42,592,750,0
385143,445.29,592,751,0
385153,440.19,592,750,0
385163,435.89,592,751,0
385173,432.79,592,750,0
385183,430.46,592,751,0
385193,429.08,592,750,0
385203,428.28,592,751,0
385213,428.03,592,750,0
385223,427.98,592,751,0
385233,428.15,592,750,0
385243,428.19,592,751,0
385253,428.18,592,750,0
385263,427.70,592,751,0
385273,427.10,592,750,0
385283,426.09,592,751,0
385293,424.90,592,750,0
385303,423.30,592,751,0
385313,421.58,592,750,0
385324,419.44,592,751,0
385334,417.51,592,750,0
385344,415.13,592,751,0
385354,412.95,592,750,0
385364,410.43,592,750,0
385374,408.33,592,750,0
385384,406.09,592,751,0
385394,404.52,592,750,0
385404,402.95,592,750,0
385414,402.45,592,750,0
385424,402.79,592,751,0
385434,405.04,592,750,0
385444,408.71,592,751,0
385454,414.84,592,750,0
385464,422.82,592,752,0
385474,433.59,592,751,0
385484,446.22,592,751,0
385495,460.99,592,751,0
385514,476.46,563,750,0
385517,492.69,563,752,0
385526,508.43,563,751,0
385537,523.56,563,751,0
385547,536.25,563,751,0
385557,546.89,563,751,0
385567,553.99,563,750,0
385577,558.62,563,751,0
385587,559.85,563,751,0
385597,558.65,563,751,0
385607,554.39,563,750,0
385617,548.83,563,751,0
385627,541.16,563,750,0
385637,533.27,563,751,0
385647,523.89,563,749,0
385657,514.67,563,751,0
385667,504.57,563,750,0
385677,495.53,563,750,0
385687,486.15,563,750,0
385697,477.96,563,751,0
385708,469.66,563,750,0
385718,462.95,563,751,0
385728,456.41,563,749,0
385738,451.53,563,751,0
385748,446.74,563,750,0
385758,443.35,563,751,0
385768,439.94,563,749,0
385778,437.73,563,751,0
385788,435.33,563,750,0
385798,433.99,563,751,0
385808,432.10,563,750,0
385818,430.96,563,751,0
385828,429.26,563,750,0
385838,428.49,563,751,0
385848,426.85,563,750,0
385858,425.95,563,751,0
385868,424.08,563,750,0
385879,423.07,563,751,0
385889,420.91,563,749,0
385899,419.01,563,751,0
385909,415.96,563,750,0
385920,413.32,563,751,0
385929,409.54,563,750,0
385939,406.25,563,751,0
385949,402.02,563,750,0
385959,398.32,563,751,0
385969,394.24,563,750,0
385979,390.53,563,751,0
385989,386.38,563,750,0
385999,383.05,563,751,0
386009,379.69,563,750,0
386019,377.69,563,751,0
386029,376.92,563,750,0
386039,378.53,563,752,0
386049,382.02,563,750,0
386059,388.82,563,751,0
386069,397.83,563,750,0
386079,410.23,563,752,0
386089,424.17,563,750,0
386099,439.94,563,752,0
386109,455.73,563,750,0
386119,472.61,563,752,0
386129,487.60,563,750,0
386139,501.30,563,751,0
386149,511.54,563,750,0
386159,519.26,563,751,0
386169,523.21,563,750,0
386179,524.74,563,751,0
386189,522.20,563,750,0
386199,518.03,563,751,0
386209,511.33,563,750,0
386220,503.73,563,751,0
386230,494.94,563,749,0
386240,486.09,563,751,0
386250,476.38,563,749,0
386260,467.01,563,751,0
386270,457.32,563,749,0
386280,448.48,563,751,0
386290,439.72,563,749,0
386300,431.75,563,751,0
386310,424.11,563,749,0
386320,417.78,563,751,0
386330,411.93,563,749,0
386340,407.28,563,751,0
386350,403.04,563,750,0
386360,400.03,563,751,0
386370,397.45,563,749,0
386380,395.81,563,751,0
386391,394.15,563,750,0
386401,393.08,563,751,0
386411,391.94,563,749,0
386421,391.14,563,751,0
386432,390.29,563,749,0
386441,389.64,563,751,0
386451,388.64,563,750,0
386461,387.72,563,751,0
386471,386.52,563,749,0
386481,385.20,563,751,0
386491,383.51,563,749,0
386501,381.60,563,751,0
386511,379.45,563,749,0
386521,377.52,563,751,0
386531,375.26,563,749,0
386541,373.13,563,751,0
386551,370.90,563,749,0
386561,369.17,563,752,0
386571,367.15,563,749,0
386581,365.09,563,751,0
386591,362.92,563,749,0
386601,361.40,563,751,0
386611,360.60,563,750,0
386621,361.06,563,751,0
386631,362.67,563,750,0
386641,366.45,563,752,0
386651,372.32,563,750,0
386661,380.37,563,751,0
386671,390.20,563,750,0
386681,401.50,563,752,0
386691,413.56,563,750,0
386701,426.29,563,752,0
386711,438.72,563,750,0
386731,450.59,0,748,0
386733,461.26,0,752,0
386743,470.61,0,751,0
386753,478.35,0,750,0
386763,484.25,0,751,0
386774,487.94,0,750,0
386783,489.72,0,751,0
386793,489.33,0,750,0
386803,486.92,0,751,0
386813,482.83,0,750,0
386823,477.18,0,751,0
386833,470.57,0,750,0
386843,462.73,0,751,0
386853,454.37,0,750,0
386863,445.51,0,751,0
386873,436.79,0,749,0
386883,427.85,0,751,0
386893,419.50,0,750,0
386903,411.38,0,751,0
386913,404.49,0,749,0
386923,398.26,0,751,0
386933,393.38,0,750,0
386944,389.24,0,751,0
386953,386.47,0,750,0
386963,384.31,0,751,0
386973,383.36,0,750,0
386983,382.74,0,751,0
386993,382.60,0,749,0
387003,382.29,0,751,0
387013,382.63,0,750,0
387023,382.57,0,751,0
387033,382.66,0,750,0
387043,382.07,0,751,0
387053,381.71,0,750,0
387063,380.77,0,751,0
387073,379.81,0,749,0
387083,378.19,0,751,0
387093,376.72,0,750,0
387103,374.49,0,751,0
387113,372.59,0,750,0
387123,370.01,0,751,0
387133,367.99,0,750,0
387143,365.90,0,751,0
387153,364.13,0,750,0
387163,362.29,0,751,0
387173,361.22,0,750,0
387183,360.25,0,751,0
387193,360.39,0,750,0
387203,361.04,0,751,0
387213,363.26,0,750,0
387223,366.65,0,751,0
387233,372.07,0,750,0
387244,378.95,0,751,0
387254,387.88,0,751,0
387264,397.56,0,751,0
387274,408.83,0,750,0
387294,420.11,563,749,0
387297,431.86,563,752,0
387306,442.83,563,751,0
387316,453.04,563,751,0
387326,461.04,563,750,0
387336,467.93,563,751,0
387346,472.11,563,750,0
387356,474.95,563,750,0
387366,475.22,563,750,0
387376,474.38,563,751,0
387386,471.48,563,751,0
387396,468.25,563,750,0
387406,463.38,563,750,0
387416,458.46,563,750,0
387426,452.24,563,750,0
387436,446.25,563,750,0
387446,439.06,563,750,0
387457,432.53,563,751,0
387467,425.51,563,750,0
387477,419.36,563,750,0
387487,412.95,563,750,0
387497,407.82,563,751,0
387507,402.90,563,750,0
387517,399.33,563,751,0
387527,395.98,563,750,0
387537,393.71,563,751,0
387547,391.78,563,750,0
387557,391.03,563,751,0
387567,390.04,563,750,0
387577,389.77,563,751,0
387587,388.98,563,750,0
387597,389.12,563,751,0
387607,388.52,563,750,0
387617,388.32,563,751,0
387628,387.33,563,750,0
387638,386.80,563,751,0
387648,385.45,563,750,0
387658,384.71,563,751,0
387668,382.83,563,750,0
387678,381.42,563,751,0
387688,379.15,563,750,0
387698,377.52,563,751,0
387708,375.48,563,750,0
387718,374.14,563,751,0
387728,372.17,563,750,0
387738,370.92,563,751,0
387748,369.48,563,750,0
387758,368.95,563,751,0
387768,368.15,563,750,0
387778,368.28,563,752,0
387788,368.37,563,750,0
387799,369.76,563,751,0
387809,371.93,563,750,0
387819,375.85,563,752,0
387829,380.95,563,750,0
387840,387.87,563,751,0
387849,395.71,563,751,0
387859,405.39,563,752,0
387869,415.56,563,751,0
387879,426.54,563,752,0
387898,437.00,605,751,0
387901,446.90,605,753,0
387910,456.27,605,751,0
387920,464.85,605,752,0
387930,471.62,605,751,0
387940,477.18,605,753,0
387950,480.64,605,754,0
387960,482.68,605,753,0
387970,483.12,605,751,0
387980,481.84,605,753,0
387990,479.06,605,751,0
388000,475.44,605,753,0
388011,470.94,605,751,0
388020,466.16,605,753,0
388030,460.75,605,751,0
388040,455.17,605,753,0
388050,449.20,605,752,0
388060,443.31,605,752,0
388070,437.26,605,752,0
388080,431.40,605,753,0
388090,425.58,605,752,0
388100,420.48,605,753,0
388110,415.83,605,751,0
388120,412.07,605,753,0
388130,408.88,605,751,0
388140,406.77,605,753,0
388150,405.04,605,750,0
388160,403.96,605,753,0
388170,403.24,605,750,0
388180,403.13,605,753,0
388190,403.09,605,750,0
388200,403.23,605,752,0
388210,403.16,605,750,0
388220,403.37,605,753,0
388230,403.39,605,751,0
388240,403.40,605,753,0
388250,403.02,605,751,0
388260,402.46,605,753,0
388270,401.51,605,751,0
388280,400.41,605,753,0
388290,398.92,605,751,0
388300,397.53,605,753,0
388311,395.83,605,751,0
388321,394.04,605,752,0
388331,392.18,605,750,0
388341,390.46,605,752,0
388352,388.73,605,751,0
388361,387.27,605,752,0
388371,385.69,605,750,0
388381,384.24,605,752,0
388391,383.27,605,751,0
388401,382.84,605,752,0
388411,383.15,605,750,0
388421,384.39,605,752,0
388431,386.89,605,751,0
388441,390.99,605,752,0
388451,396.78,605,750,0
388461,404.05,605,752,0
388471,412.65,605,751,0
388481,422.40,605,752,0
388500,432.99,602,750,0
388503,443.62,602,752,0
388512,454.71,602,751,0
388523,464.82,602,753,0
388532,474.01,602,751,0
388542,481.63,602,752,0
388552,487.66,602,751,0
388562,491.53,602,752,0
388572,493.86,602,751,0
388582,493.69,602,752,0
388592,492.54,602,751,0
388602,489.93,602,752,0
388612,486.91,602,751,0
388622,482.87,602,752,0
388632,478.75,602,751,0
388642,473.94,602,752,0
388652,469.03,602,751,0
388662,463.53,602,753,0
388672,458.15,602,752,0
388682,452.02,602,753,0
388692,446.57,602,750,0
388702,440.78,602,752,0
388712,435.45,602,750,0
388722,430.17,602,752,0
388732,425.66,602,751,0
388742,421.52,602,753,0
388752,418.49,602,752,0
388762,415.69,602,753,0
388772,414.07,602,752,0
388782,412.98,602,753,0
388792,412.81,602,750,0
388802,412.70,602,752,0
388812,413.09,602,753,0
388823,413.10,602,752,0
388833,413.33,602,752,0
388843,412.93,602,752,0
388853,412.57,602,751,0
388864,411.37,602,751,0
388873,410.49,602,751,0
388883,408.75,602,752,0
388893,407.41,602,751,0
388903,405.32,602,751,0
388913,403.42,602,750,0
388923,400.90,602,752,0
388933,398.87,602,751,0
388943,396.17,602,752,0
388953,394.19,602,750,0
388963,391.73,602,751,0
388973,389.97,602,750,0
388983,388.01,602,751,0
388993,386.93,602,750,0
389003,385.88,602,752,0
389013,386.05,602,751,0
389023,386.50,602,752,0
389033,388.71,602,751,0
389043,391.75,602,752,0
389053,397.01,602,751,0
389063,403.35,602,752,0
389073,411.86,602,752,0
389083,421.20,602,752,0
389093,432.16,602,750,0
389103,443.17,602,751,0
389123,454.99,622,750,0
389126,465.83,622,751,0
389135,477.20,622,751,0
389145,486.70,622,751,0
389155,495.40,622,752,0
389165,501.71,622,751,0
389175,506.55,622,751,0
389185,508.79,622,750,0
389195,509.92,622,751,0
389206,508.19,622,750,0
389215,505.90,622,751,0
389225,502.03,622,750,0
389235,497.95,622,751,0
389245,492.65,622,750,0
389255,487.78,622,751,0
389265,481.76,622,750,0
389275,476.31,622,751,0
389285,470.00,622,750,0
389295,464.17,622,751,0
389305,457.91,622,750,0
389315,452.75,622,751,0
389325,447.17,622,750,0
389335,442.83,622,751,0
389345,438.30,622,750,0
389355,435.04,622,751,0
389365,431.51,622,750,0
389376,429.21,622,751,0
389385,426.71,622,750,0
389395,425.17,622,751,0
389405,423.23,622,750,0
389415,422.09,622,751,0
389425,420.35,622,750,0
389435,419.52,622,751,0
389445,418.12,622,751,0
389455,417.48,622,751,0
389465,416.27,622,750,0
389475,415.76,622,751,0
389485,414.46,622,750,0
389495,413.81,622,751,0
389505,412.28,622,750,0
389515,411.21,622,751,0
389525,409.22,622,750,0
389535,407.74,622,751,0
389545,405.29,622,749,0
389555,403.53,622,751,0
389565,400.93,622,750,0
389575,399.02,622,751,0
389585,396.49,622,750,0
389595,394.88,622,751,0
389605,392.99,622,750,0
389615,392.56,622,751,0
389625,392.31,622,750,0
389635,393.80,622,751,0
389645,396.09,622,751,0
389655,400.69,622,751,0
389665,406.40,622,750,0
389676,414.68,622,752,0
389686,423.90,622,750,0
389696,435.33,622,752,0
389706,447.15,622,750,0
389716,459.87,622,752,0
389726,471.65,622,750,0
389745,483.76,623,749,0
389748,493.43,623,752,0
389757,502.39,623,752,0
389767,508.66,623,750,0
389777,513.65,623,752,0
389787,516.19,623,750,0
389797,517.55,623,751,0
389807,516.06,623,750,0
389817,514.15,623,751,0
389827,510.21,623,750,0
389837,505.99,623,751,0
389847,500.38,623,750,0
389857,494.69,623,751,0
389867,488.10,623,750,0
389877,481.98,623,751,0
389888,475.26,623,750,0
389897,469.05,623,751,0
389907,462.27,623,750,0
389917,456.19,623,751,0
389927,449.92,623,750,0
389937,444.80,623,751,0
389947,439.59,623,750,0
389957,435.47,623,751,0
389967,431.47,623,750,0
389977,428.72,623,751,0
389987,425.97,623,750,0
389997,424.31,623,751,0
390007,422.50,623,750,0
390017,421.58,623,751,0
390027,420.42,623,750,0
390037,419.82,623,751,0
390047,418.72,623,750,0
390057,417.99,623,751,0
390067,416.49,623,750,0
390077,415.19,623,751,0
390087,413.16,623,750,0
390097,411.44,623,752,0
390107,409.08,623,750,0
390117,407.21,623,751,0
390127,405.05,623,750,0
390137,403.79,623,752,0
390147,402.05,623,750,0
390157,400.84,623,751,0
390167,399.09,623,750,0
390177,398.20,623,752,0
390188,396.90,623,750,0
390198,396.12,623,751,0
390208,394.67,623,750,0
390218,394.25,623,752,0
390228,393.79,623,750,0
390238,394.58,623,752,0
390248,395.44,623,750,0
390258,397.58,623,752,0
390268,400.92,623,750,0
390278,406.34,623,751,0
390288,413.14,623,750,0
390298,422.18,623,752,0
390308,432.67,623,751,0
390318,445.37,623,752,0
390328,458.97,623,750,0
390338,473.34,623,752,0
390358,487.42,612,751,0
390361,500.62,612,753,0
390370,512.82,612,751,0
390380,523.08,612,752,0
390390,530.77,612,750,0
390401,536.07,612,751,0
390411,538.83,612,750,0
390421,539.23,612,752,0
390431,538.04,612,750,0
390441,534.43,612,751,0
390451,529.76,612,750,0
390461,523.87,612,752,0
390471,517.57,612,748,0
390481,510.41,612,750,0
390491,503.22,612,750,0
390501,495.35,612,751,0
390511,487.88,612,750,0
390521,479.94,612,751,0
390531,472.42,612,749,0
390541,464.83,612,751,0
390551,457.98,612,750,0
390561,451.30,612,751,0
390572,445.73,612,750,0
390582,440.37,612,751,0
390592,436.31,612,750,0
390602,432.62,612,751,0
390612,430.16,612,750,0
390622,427.97,612,751,0
390632,426.91,612,750,0
390642,425.82,612,751,0
390652,425.70,612,750,0
390662,425.32,612,751,0
390672,425.70,612,750,0
390682,425.36,612,751,0
390692,425.38,612,750,0
390702,424.62,612,751,0
390712,424.05,612,750,0
390722,422.62,612,751,0
390732,421.41,612,750,0
390743,419.23,612,751,0
390753,417.40,612,750,0
390763,414.71,612,751,0
390773,412.31,612,750,0
390784,409.22,612,751,0
390793,406.71,612,750,0
390803,403.58,612,751,0
390813,401.18,612,750,0
390823,398.34,612,751,0
390833,396.44,612,750,0
390843,394.25,612,751,0
390853,393.10,612,750,0
390863,391.62,612,751,0
390873,391.43,612,750,0
390883,391.52,612,751,0
390893,393.42,612,750,0
390903,396.21,612,751,0
390913,401.42,612,751,0
390923,407.85,612,751,0
390933,416.98,612,751,0
390943,427.27,612,751,0
390953,439.62,612,751,0
390963,452.29,612,751,0
390973,465.75,612,751,0
390983,478.08,612,751,0
390993,489.97,612,751,0
391012,499.66,655,749,0
391015,507.61,655,752,0
391024,513.64,655,751,0
391034,517.86,655,751,0
391044,519.15,655,751,0
391054,518.89,655,751,0
391064,517.04,655,751,0
391074,513.60,655,751,0
391084,508.15,655,751,0
391094,501.20,655,751,0
391104,492.83,655,750,0
391114,484.74,655,751,0
391124,475.90,655,750,0
391134,467.06,655,751,0
391144,458.26,655,750,0
391154,450.89,655,751,0
391164,443.51,655,750,0
391174,437.61,655,750,0
391184,431.86,655,751,0
391194,427.57,655,751,0
391204,423.16,655,750,0
391214,420.28,655,750,0
391224,417.54,655,751,0
391234,416.26,655,751,0
391244,414.90,655,750,0
391255,414.76,655,751,0
391265,414.32,655,750,0
391275,414.91,655,751,0
391285,414.89,655,750,0
391296,415.48,655,751,0
391305,415.21,655,750,0
391315,415.49,655,751,0
391325,414.70,655,750,0
391335,414.23,655,751,0
391345,412.75,655,750,0
391355,411.71,655,751,0
391365,409.83,655,750,0
391375,408.33,655,751,0
391385,405.92,655,750,0
391395,403.89,655,751,0
391405,401.05,655,750,0
391415,398.76,655,751,0
391425,395.79,655,750,0
391435,393.75,655,751,0
391445,391.17,655,750,0
391455,389.41,655,751,0
391465,387.57,655,750,0
391475,387.06,655,751,0
391485,386.57,655,750,0
391495,387.81,655,751,0
391505,389.37,655,750,0
391515,393.16,655,752,0
391525,398.00,655,751,0
391535,405.28,655,752,0
391545,413.64,655,751,0
391555,424.46,655,752,0
391565,435.90,655,751,0
391584,448.91,572,749,0
391587,461.62,572,751,0
391596,475.32,572,752,0
391606,487.18,572,751,0
391616,497.89,572,752,0
391626,505.63,572,750,0
391636,511.49,572,752,0
391646,514.38,572,750,0
391656,515.43,572,751,0
391666,513.11,572,750,0
391676,509.78,572,752,0
391686,504.75,572,750,0
391696,499.59,572,751,0
391706,493.33,572,750,0
391716,487.14,572,751,0
391726,480.29,572,750,0
391736,473.94,572,751,0
391746,467.10,572,750,0
391756,460.77,572,751,0
391767,453.98,572,750,0
391777,447.90,572,751,0
391787,441.80,572,749,0
391797,436.51,572,752,0
391808,431.13,572,750,0
391817,426.76,572,752,0
391827,422.67,572,750,0
391837,419.77,572,752,0
391847,417.57,572,750,0
391857,416.20,572,752,0
391867,415.11,572,750,0
391877,414.73,572,752,0
391887,414.34,572,750,0
391897,414.67,572,752,0
391907,414.51,572,750,0
391917,414.27,572,752,0
391927,413.59,572,750,0
391937,413.03,572,752,0
391947,411.95,572,749,0
391957,410.98,572,752,0
391967,409.23,572,750,0
391977,407.66,572,752,0
391987,405.58,572,749,0
391997,403.60,572,752,0
392007,401.32,572,750,0
392017,399.21,572,751,0
392027,396.62,572,749,0
392037,394.38,572,752,0
392047,391.91,572,750,0
392057,389.75,572,751,0
392067,387.51,572,749,0
392077,385.56,572,751,0
392087,383.59,572,750,0
392097,382.17,572,752,0
392108,380.88,572,749,0
392118,380.40,572,752,0
392128,380.54,572,750,0
392138,381.70,572,752,0
392148,383.94,572,749,0
392158,388.15,572,752,0
392168,393.85,572,750,0
392178,401.65,572,752,0
392188,411.01,572,750,0
392198,422.24,572,752,0
392208,434.81,572,750,0
392218,448.32,572,752,0
392228,461.77,572,750,0
392238,475.12,572,752,0
392257,487.13,673,751,0
392260,497.51,673,754,0
392269,506.40,673,750,0
392279,513.39,673,752,0
392289,518.29,673,750,0
392299,520.82,673,752,0
392309,521.21,673,749,0
392320,519.65,673,751,0
392329,517.05,673,750,0
392339,512.41,673,751,0
392349,506.24,673,749,0
392359,498.89,673,751,0
392369,491.33,673,750,0
392379,483.61,673,751,0
392389,476.14,673,749,0
392399,468.34,673,751,0
392409,460.95,673,750,0
392419,453.94,673,751,0
392429,447.44,673,750,0
392439,441.18,673,751,0
392449,435.30,673,750,0
392459,429.94,673,751,0
392469,425.37,673,750,0
392479,421.32,673,751,0
392489,418.26,673,750,0
392499,416.00,673,751,0
392509,414.67,673,750,0
392519,413.96,673,751,0
392529,413.93,673,750,0
392539,414.21,673,751,0
392549,414.83,673,750,0
392559,415.39,673,752,0
392569,415.79,673,750,0
392579,415.77,673,752,0
392589,415.54,673,750,0
392599,414.52,673,751,0
392609,413.16,673,750,0
392620,411.36,673,751,0
392630,409.24,673,749,0
392640,406.77,673,751,0
392650,404.31,673,750,0
392660,401.47,673,751,0
392670,399.10,673,750,0
392680,396.50,673,751,0
392690,394.29,673,750,0
392700,391.85,673,751,0
392710,389.96,673,750,0
392720,387.88,673,751,0
392730,386.28,673,750,0
392740,384.27,673,751,0
392750,382.82,673,750,0
392760,381.12,673,751,0
392770,380.27,673,750,0
392780,379.63,673,751,0
392791,380.43,673,750,0
392801,382.06,673,751,0
392811,385.90,673,750,0
392821,391.16,673,751,0
392832,398.95,673,751,0
392841,408.14,673,751,0
392851,419.45,673,751,0
392861,431.57,673,752,0
392871,444.95,673,751,0
392881,457.95,673,752,0
392891,471.03,673,751,0
392901,482.51,673,751,0
392911,493.11,673,751,0
392930,501.44,673,749,0
392933,507.95,673,753,0
392942,511.99,673,751,0
392952,514.61,673,751,0
392962,514.81,673,750,0
392972,513.97,673,750,0
392982,511.06,673,751,0
392992,507.27,673,750,0
393003,501.96,673,750,0
393012,496.32,673,750,0
393022,489.32,673,751,0
393032,482.50,673,750,0
393042,474.76,673,750,0
393052,467.63,673,750,0
393062,460.07,673,751,0
393072,453.49,673,751,0
393082,446.53,673,750,0
393092,440.76,673,750,0
393102,434.96,673,751,0
393112,430.51,673,750,0
393122,426.12,673,750,0
393132,423.12,673,750,0
393142,420.34,673,751,0
393152,419.13,673,750,0
393162,417.85,673,750,0
393172,417.76,673,751,0
393182,417.32,673,751,0
393192,417.70,673,750,0
393202,417.44,673,750,0
393212,417.70,673,750,0
393222,417.14,673,751,0
393232,417.06,673,750,0
393242,415.93,673,750,0
393252,415.18,673,750,0
393262,413.50,673,751,0
393272,412.10,673,750,0
393282,409.72,673,750,0
393292,407.57,673,750,0
393303,404.49,673,751,0
393313,401.85,673,751,0
393323,398.43,673,750,0
393333,395.68,673,751,0
393344,392.39,673,750,0
393353,390.09,673,751,0
393363,387.36,673,750,0
393373,385.71,673,751,0
393383,383.70,673,750,0
393393,382.72,673,751,0
393403,381.34,673,750,0
393413,380.98,673,751,0
393423,380.30,673,750,0
393433,380.81,673,751,0
393443,381.38,673,750,0
393453,383.75,673,751,0
393463,386.78,673,750,0
393473,392.08,673,751,0
393483,398.61,673,751,0
393493,407.64,673,751,0
393503,417.65,673,751,0
393513,429.75,673,752,0
393523,442.09,673,751,0
393533,455.39,673,752,0
393543,467.83,673,751,0
393553,480.18,673,752,0
393563,490.54,673,751,0
393573,500.02,673,751,0
393583,506.79,673,751,0
393603,512.16,672,749,0
393606,514.60,672,752,0
393615,516.35,672,751,0
393625,515.86,672,750,0
393635,514.44,672,752,0
393645,511.01,672,750,0
393655,507.15,672,751,0
393665,501.66,672,750,0
393675,496.41,672,751,0
393686,489.43,672,750,0
393695,482.40,672,751,0
393705,474.57,672,750,0
393715,467.07,672,751,0
393725,459.12,672,750,0
393735,452.10,672,751,0
393745,445.00,672,750,0
393755,439.13,672,751,0
393765,433.47,672,750,0
393775,429.26,672,751,0
393785,425.58,672,750,0
393795,423.31,672,752,0
393805,421.50,672,750,0
393815,421.14,672,751,0
393825,420.75,672,750,0
393835,421.34,672,752,0
393845,421.54,672,750,0
393856,422.28,672,751,0
393865,422.32,672,750,0
393875,422.53,672,752,0
393885,421.68,672,750,0
393895,420.92,672,751,0
393905,419.14,672,750,0
393915,417.47,672,751,0
393925,414.97,672,750,0
393935,412.71,672,752,0
393945,409.84,672,750,0
393955,407.32,672,751,0
393965,404.26,672,750,0
393975,401.70,672,751,0
393985,398.75,672,750,0
393995,396.59,672,752,0
394005,394.14,672,750,0
394015,392.17,672,751,0
394025,389.85,672,750,0
394035,388.31,672,751,0
394045,386.50,672,750,0
394055,385.49,672,751,0
394065,383.97,672,750,0
394075,383.17,672,752,0
394085,382.22,672,750,0
394095,382.11,672,752,0
394105,381.82,672,750,0
394115,382.77,672,752,0
394125,384.08,672,750,0
394135,387.14,672,752,0
394145,391.13,672,750,0
394156,397.26,672,752,0
394166,404.81,672,750,0
394176,414.68,672,752,0
394186,425.84,672,751,0
394196,438.70,672,752,0
394206,451.90,672,751,0
394216,465.78,672,752,0
394226,478.79,672,750,0
394236,491.06,672,752,0
394246,501.46,672,750,0
394265,510.19,663,749,0
394268,516.44,663,751,0
394277,520.98,663,752,0
394287,523.08,663,750,0
394297,523.44,663,752,0
394307,521.85,663,750,0
394317,518.98,663,752,0
394327,514.57,663,750,0
394337,509.43,663,752,0
394347,503.17,663,749,0
394357,496.44,663,752,0
394368,489.40,663,750,0
394377,482.43,663,752,0
394387,475.44,663,749,0
394397,468.67,663,752,0
394407,462.08,663,750,0
394417,455.97,663,752,0
394427,450.32,663,749,0
394437,445.21,663,752,0
394447,440.61,663,750,0
394457,436.70,663,752,0
394467,433.44,663,750,0
394477,431.04,663,752,0
394487,429.18,663,750,0
394497,428.06,663,752,0
394507,427.44,663,750,0
394517,427.22,663,752,0
394527,427.20,663,750,0
394537,427.31,663,752,0
394547,427.17,663,750,0
394557,426.99,663,752,0
394567,426.48,663,750,0
394577,425.61,663,752,0
394587,424.31,663,750,0
394597,422.63,663,752,0
394607,420.51,663,750,0
394617,418.05,663,752,0
394627,415.20,663,749,0
394637,412.36,663,752,0
394647,409.38,663,750,0
394657,406.48,663,752,0
394668,403.64,663,749,0
394678,400.92,663,752,0
394688,398.50,663,750,0
394698,396.16,663,752,0
394708,393.93,663,749,0
394718,391.85,663,752,0
394728,390.01,663,750,0
394738,388.25,663,752,0
394748,386.93,663,749,0
394758,385.80,663,752,0
394768,385.26,663,750,0
394778,384.84,663,752,0
394788,385.01,663,749,0
394798,385.57,663,752,0
394808,387.11,663,750,0
394818,389.52,663,752,0
394828,393.48,663,750,0
394839,398.86,663,752,0
394849,406.49,663,751,0
394859,415.77,663,752,0
394869,427.20,663,750,0
394880,440.04,663,752,0
394889,454.13,663,751,0
394899,468.27,663,752,0
394909,482.46,663,751,0
394919,495.22,663,752,0
394929,506.69,663,751,0
394939,515.74,663,752,0
394958,522.67,693,750,0
394961,526.59,693,752,0
394970,529.24,693,751,0
394980,529.64,693,751,0
394990,528.80,693,750,0
395000,526.03,693,751,0
395010,522.51,693,750,0
395020,517.64,693,751,0
395030,512.74,693,750,0
395040,505.91,693,751,0
395051,499.00,693,750,0
395060,491.16,693,751,0
395070,483.82,693,750,0
395080,475.99,693,751,0
395090,468.96,693,750,0
395100,461.82,693,751,0
395110,455.83,693,750,0
395120,449.67,693,751,0
395130,444.75,693,750,0
395140,440.03,693,751,0
395150,436.55,693,750,0
395160,433.17,693,751,0
395170,430.98,693,750,0
395180,429.01,693,751,0
395190,428.11,693,750,0
395200,427.00,693,751,0
395210,426.70,693,750,0
395220,426.02,693,751,0
395230,425.97,693,750,0
395240,425.38,693,751,0
395250,425.27,693,750,0
395260,424.46,693,751,0
395270,424.06,693,750,0
395280,422.80,693,751,0
395290,421.83,693,750,0
395300,419.83,693,751,0
395310,418.04,693,750,0
395320,415.28,693,751,0
395330,412.93,693,750,0
395340,409.82,693,751,0
395351,407.26,693,751,0
395361,404.10,693,751,0
395371,401.84,693,751,0
395381,399.10,693,751,0
395392,397.14,693,751,0
395401,394.74,693,751,0
395411,393.11,693,751,0
395421,390.89,693,751,0
395431,389.46,693,751,0
395441,387.48,693,750,0
395451,386.52,693,751,0
395461,385.38,693,751,0
395471,385.70,693,751,0
395481,386.39,693,751,0
395491,389.23,693,751,0
395501,393.15,693,751,0
395511,399.62,693,751,0
395521,407.36,693,751,0
395531,417.84,693,751,0
395541,429.46,693,752,0
395551,443.38,693,752,0
395561,457.49,693,751,0
395571,472.30,693,751,0
395581,486.01,693,752,0
395591,499.29,693,752,0
395601,510.05,693,751,0
395620,519.25,662,750,0
395623,524.92,662,752,0
395632,529.44,662,752,0
395642,531.28,662,750,0
395652,531.97,662,751,0
395662,530.35,662,751,0
395672,528.19,662,751,0
395682,524.06,662,750,0
395692,520.14,662,751,0
395702,514.14,662,751,0
395712,508.06,662,751,0
395722,500.45,662,750,0
395732,493.29,662,751,0
395742,485.15,662,751,0
395752,477.90,662,751,0
395762,470.00,662,750,0
395772,463.23,662,751,0
395782,456.26,662,751,0
395792,450.78,662,751,0
395802,445.15,662,750,0
395812,441.08,662,751,0
395822,437.24,662,751,0
395832,435.07,662,751,0
395842,432.95,662,750,0
395852,432.53,662,751,0
395863,432.03,662,750,0
395873,432.79,662,752,0
395883,433.07,662,750,0
395893,433.99,662,751,0
395904,434.08,662,750,0
395913,434.78,662,751,0
395923,434.25,662,750,0
395933,434.22,662,752,0
395943,433.08,662,750,0
395953,432.33,662,752,0
395963,430.52,662,750,0
395973,428.95,662,751,0
395983,426.26,662,750,0
395993,424.00,662,751,0
396003,420.70,662,750,0
396013,417.87,662,751,0
396023,414.31,662,750,0
396033,411.43,662,751,0
396043,408.00,662,750,0
396053,405.43,662,751,0
396063,402.30,662,750,0
396073,400.03,662,751,0
396083,397.45,662,750,0
396093,395.90,662,751,0
396103,394.26,662,750,0
396113,393.92,662,752,0
396123,393.95,662,751,0
396133,395.93,662,752,0
396143,398.87,662,750,0
396153,404.22,662,752,0
396163,410.80,662,751,0
396173,420.16,662,752,0
396183,430.95,662,751,0
396193,444.08,662,752,0
396204,457.99,662,751,0
396214,473.20,662,752,0
396224,488.01,662,751,0
396234,502.84,662,753,0
396244,515.79,662,751,0
396254,527.51,662,752,0
396273,536.44,653,751,0
396276,542.99,653,753,0
396285,547.11,653,750,0
396295,549.22,653,752,0
396305,548.81,653,750,0
396315,546.81,653,752,0
396325,542.71,653,750,0
396335,537.78,653,752,0
396345,531.76,653,750,0
396355,524.76,653,752,0
396365,516.78,653,750,0
396375,508.70,653,751,0
396385,499.92,653,750,0
396395,491.46,653,752,0
396405,482.75,653,750,0
396416,474.55,653,751,0
396425,466.50,653,750,0
396435,459.37,653,752,0
396445,452.70,653,750,0
396455,447.09,653,751,0
396465,442.01,653,750,0
396475,437.93,653,752,0
396485,434.48,653,750,0
396495,432.11,653,751,0
396505,430.15,653,750,0
396515,428.99,653,752,0
396525,428.13,653,750,0
396535,427.79,653,751,0
396545,427.30,653,750,0
396555,427.17,653,752,0
396565,426.47,653,750,0
396575,425.65,653,751,0
396585,424.21,653,750,0
396595,422.65,653,752,0
396605,420.44,653,750,0
396615,417.99,653,751,0
396625,414.82,653,749,0
396635,411.75,653,752,0
396645,408.31,653,750,0
396655,404.96,653,751,0
396665,401.46,653,750,0
396675,398.36,653,752,0
396685,395.38,653,750,0
396695,392.95,653,752,0
396705,390.57,653,750,0
396716,388.77,653,752,0
396726,386.95,653,750,0
396736,385.42,653,752,0
396746,383.97,653,750,0
396756,382.82,653,752,0
396766,381.89,653,750,0
396776,381.62,653,752,0
396786,382.04,653,750,0
396796,383.74,653,752,0
396806,386.99,653,750,0
396816,392.09,653,752,0
396826,399.39,653,750,0
396836,408.92,653,752,0
396846,420.47,653,750,0
396856,433.87,653,752,0
396866,448.61,653,751,0
396876,464.03,653,752,0
396887,479.41,653,751,0
396897,494.03,653,752,0
396907,507.26,653,750,0
396917,518.41,653,752,0
396928,527.16,653,751,0
396946,533.28,673,749,0
396949,536.76,673,753,0
396958,537.86,673,752,0
396968,537.09,673,751,0
396978,534.27,673,751,0
396988,530.33,673,750,0
396998,525.09,673,751,0
397008,519.24,673,750,0
397018,512.74,673,751,0
397028,505.74,673,750,0
397038,497.94,673,751,0
397048,490.33,673,750,0
397058,482.26,673,752,0
397068,474.68,673,750,0
397078,466.80,673,751,0
397088,459.96,673,750,0
397099,453.12,673,751,0
397108,447.12,673,750,0
397118,441.30,673,751,0
397128,436.97,673,751,0
397138,432.78,673,751,0
397148,429.97,673,750,0
397158,427.15,673,751,0
397168,425.52,673,750,0
397178,424.21,673,751,0
397188,423.67,673,750,0
397198,422.74,673,751,0
397208,422.22,673,750,0
397218,421.17,673,751,0
397228,420.18,673,749,0
397238,418.54,673,751,0
397248,417.00,673,750,0
397258,414.77,673,751,0
397268,412.66,673,750,0
397278,410.23,673,751,0
397288,408.06,673,750,0
397298,405.47,673,751,0
397308,403.40,673,750,0
397318,400.88,673,751,0
397328,398.86,673,750,0
397338,396.29,673,751,0
397348,394.10,673,750,0
397358,391.41,673,751,0
397368,389.23,673,750,0
397378,386.59,673,751,0
397388,384.57,673,750,0
397399,382.47,673,751,0
397409,381.26,673,750,0
397419,380.24,673,751,0
397429,380.68,673,750,0
397440,381.93,673,751,0
397449,385.25,673,751,0
397459,389.85,673,752,0
397469,397.14,673,751,0
397479,405.97,673,751,0
397489,417.51,673,751,0
397499,430.38,673,752,0
397509,445.22,673,751,0
397519,460.29,673,752,0
397529,476.14,673,751,0
397539,490.54,673,752,0
397549,504.14,673,751,0
397569,514.98,622,749,0
397572,523.73,622,752,0
397581,529.60,622,751,0
397591,533.79,622,751,0
397601,534.67,622,750,0
397612,533.95,622,751,0
397622,530.80,622,750,0
397632,526.83,622,751,0
397642,521.18,622,750,0
397652,514.83,622,752,0
397662,506.74,622,750,0
397672,499.06,622,751,0
397682,490.25,622,750,0
397692,481.82,622,751,0
397702,472.66,622,750,0
397712,464.36,622,751,0
397722,455.81,622,750,0
397732,448.41,622,751,0
397742,440.92,622,750,0
397752,435.07,622,751,0
397762,429.73,622,750,0
397772,426.04,622,751,0
397783,422.82,622,750,0
397793,421.03,622,752,0
397803,419.56,622,750,0
397813,419.14,622,752,0
397824,418.54,622,750,0
397833,418.76,622,752,0
397843,418.58,622,750,0
397853,418.83,622,752,0
397863,418.28,622,750,0
397873,417.85,622,752,0
397883,416.57,622,750,0
397893,415.37,622,752,0
397903,413.37,622,750,0
397913,411.55,622,751,0
397923,408.94,622,750,0
397933,406.56,622,752,0
397943,403.56,622,750,0
397953,400.99,622,752,0
397963,397.95,622,750,0
397973,395.35,622,752,0
397983,392.20,622,750,0
397993,389.44,622,752,0
398003,386.40,622,750,0
398013,384.01,622,752,0
398023,381.52,622,750,0
398033,379.78,622,752,0
398043,378.00,622,750,0
398053,377.44,622,752,0
398063,377.52,622,750,0
398073,379.42,622,752,0
398083,382.51,622,750,0
398093,387.97,622,752,0
398103,395.18,622,750,0
398113,404.94,622,752,0
398124,416.32,622,750,0
398134,429.81,622,752,0
398144,444.09,622,751,0
398154,459.24,622,752,0
398164,473.91,622,750,0
398174,488.12,622,752,0
398184,500.64,622,751,0
398203,511.55,635,749,0
398206,519.78,635,752,0
398215,526.49,635,752,0
398225,530.50,635,750,0
398235,532.11,635,752,0
398245,531.30,635,750,0
398255,528.77,635,752,0
398265,524.34,635,750,0
398275,518.84,635,752,0
398285,511.56,635,750,0
398295,503.85,635,752,0
398305,495.54,635,750,0
398315,487.32,635,752,0
398325,478.95,635,750,0
398336,470.78,635,751,0
398345,462.87,635,750,0
398355,455.54,635,752,0
398365,448.65,635,749,0
398375,442.67,635,751,0
398385,437.20,635,750,0
398395,432.77,635,752,0
398405,429.28,635,749,0
398415,426.71,635,752,0
398425,424.78,635,750,0
398435,423.60,635,752,0
398445,422.99,635,750,0
398455,422.65,635,752,0
398465,422.07,635,750,0
398475,421.41,635,752,0
398485,420.39,635,750,0
398495,419.03,635,751,0
398505,417.26,635,750,0
398515,415.04,635,752,0
398525,412.41,635,749,0
398535,409.80,635,752,0
398545,406.99,635,750,0
398555,404.21,635,752,0
398565,401.32,635,749,0
398575,398.22,635,751,0
398585,395.33,635,750,0
398595,392.49,635,752,0
398605,389.60,635,750,0
398615,386.80,635,751,0
398625,384.21,635,750,0
398636,381.83,635,752,0
398646,379.82,635,750,0
398656,377.69,635,752,0
398666,376.07,635,750,0
398676,374.51,635,752,0
398686,373.37,635,750,0
398696,372.40,635,752,0
398706,372.19,635,750,0
398716,372.52,635,752,0
398726,374.21,635,750,0
398736,377.23,635,752,0
398746,382.52,635,750,0
398756,389.73,635,752,0
398766,399.33,635,750,0
398776,410.76,635,752,0
398786,424.37,635,751,0
398796,439.18,635,752,0
398807,455.41,635,751,0
398817,471.06,635,752,0
398827,486.25,635,751,0
398837,499.59,635,752,0
398848,511.63,635,751,0
398866,520.91,663,749,0
398869,527.54,663,752,0
398878,530.81,663,751,0
398888,532.45,663,751,0
398898,531.46,663,751,0
398908,529.26,663,750,0
398918,524.73,663,751,0
398928,519.62,663,750,0
398938,513.56,663,751,0
398948,507.14,663,750,0
398958,499.43,663,751,0
398968,491.93,663,750,0
398978,483.72,663,751,0
398988,476.00,663,750,0
398998,467.69,663,751,0
399008,460.07,663,750,0
399019,452.29,663,751,0
399028,445.69,663,750,0
399038,439.23,663,751,0
399048,434.49,663,751,0
399058,429.97,663,751,0
399068,427.06,663,750,0
399078,424.47,663,751,0
399088,423.60,663,751,0
399098,422.65,663,751,0
399108,422.63,663,750,0
399118,422.01,663,751,0
399128,422.01,663,751,0
399138,421.23,663,751,0
399148,420.78,663,750,0
399158,419.00,663,751,0
399168,417.59,663,751,0
399178,415.23,663,751,0
399188,412.97,663,751,0
399198,409.98,663,751,0
399208,407.33,663,751,0
399218,404.02,663,751,0
399228,401.27,663,751,0
399238,398.02,663,751,0
399248,395.53,663,751,0
399258,392.50,663,751,0
399268,390.20,663,751,0
399278,387.53,663,751,0
399288,386.04,663,751,0
399298,384.10,663,751,0
399308,382.78,663,751,0
399319,380.88,663,751,0
399329,380.27,663,751,0
399339,379.68,663,750,0
399349,380.59,663,751,0
399360,381.61,663,751,0
399369,384.86,663,751,0
399379,389.40,663,751,0
399389,396.78,663,752,0
399399,405.37,663,751,0
399409,416.66,663,752,0
399419,429.28,663,751,0
399429,443.94,663,752,0
399439,458.70,663,752,0
399449,474.43,663,752,0
399459,488.70,663,751,0
399469,502.55,663,752,0
399479,513.61,663,751,0
399498,522.69,632,750,0
399501,528.09,632,751,0
399510,532.14,632,752,0
399520,532.91,632,751,0
399531,532.55,632,752,0
399540,529.43,632,750,0
399550,525.70,632,751,0
399560,520.13,632,750,0
399570,514.95,632,752,0
399580,507.68,632,750,0
399590,500.62,632,751,0
399600,492.42,632,750,0
399610,484.62,632,751,0
399620,476.12,632,750,0
399630,468.37,632,751,0
399640,459.86,632,750,0
399650,452.49,632,752,0
399660,444.84,632,750,0
399670,438.63,632,751,0
399680,432.48,632,750,0
399690,427.88,632,751,0
399700,423.59,632,750,0
399710,421.10,632,751,0
399720,418.84,632,750,0
399730,418.29,632,751,0
399740,417.39,632,750,0
399750,418.00,632,752,0
399760,418.00,632,751,0
399770,418.51,632,751,0
399780,418.02,632,751,0
399790,417.75,632,751,0
399800,416.16,632,750,0
399810,414.70,632,751,0
399820,411.87,632,750,0
399831,409.38,632,751,0
399841,406.10,632,750,0
399851,403.32,632,752,0
399861,400.23,632,750,0
399872,397.67,632,751,0
399881,394.99,632,751,0
399891,393.06,632,752,0
399901,390.64,632,750,0
399911,389.08,632,751,0
399921,387.00,632,750,0
399931,385.41,632,752,0
399941,383.36,632,750,0
399951,382.01,632,751,0
399961,380.21,632,750,0
399971,379.46,632,752,0
399981,378.85,632,750,0
399991,379.88,632,752,0
400001,381.59,632,750,0
400011,385.74,632,752,0
400021,391.30,632,751,0
400031,399.91,632,752,0
400041,410.27,632,751,0
400051,423.43,632,752,0
400061,437.87,632,751,0
400071,454.20,632,752,0
400081,470.42,632,751,0
400091,486.75,632,752,0
400101,501.10,632,751,0
400120,514.23,622,749,0
400123,524.10,622,751,0
400132,532.47,622,752,0
400142,537.69,622,751,0
400152,540.91,622,752,0
400162,541.19,622,750,0
400172,540.11,622,752,0
400182,536.77,622,750,0
400192,532.73,622,751,0
400202,526.55,622,750,0
400212,520.09,622,752,0
400222,512.39,622,750,0
400232,504.56,622,751,0
400242,495.99,622,750,0
400252,487.55,622,752,0
400262,478.77,622,750,0
400272,470.48,622,751,0
400282,461.94,622,750,0
400292,454.29,622,752,0
400302,447.09,622,750,0
400312,440.97,622,752,0
400322,435.24,622,750,0
400332,430.88,622,752,0
400343,426.85,622,750,0
400353,423.89,622,752,0
400363,421.22,622,750,0
400373,419.27,622,752,0
400384,417.56,622,750,0
400393,416.66,622,752,0
400403,415.52,622,750,0
400413,414.89,622,752,0
400423,414.07,622,750,0
400433,413.45,622,752,0
400443,412.67,622,750,0
400453,411.74,622,752,0
400463,410.40,622,750,0
400473,408.91,622,752,0
400483,406.88,622,750,0
400493,404.56,622,752,0
400503,401.86,622,750,0
400513,399.08,622,752,0
400523,396.10,622,749,0
400533,393.24,622,752,0
400543,390.38,622,750,0
400553,387.78,622,752,0
400563,385.28,622,750,0
400573,383.05,622,752,0
400583,380.85,622,750,0
400593,379.22,622,752,0
400603,377.66,622,750,0
400613,376.52,622,752,0
400623,376.02,622,750,0
400633,376.70,622,752,0
400643,378.72,622,750,0
400653,382.79,622,752,0
400663,388.85,622,750,0
400673,397.55,622,752,0
400684,408.74,622,751,0
400694,422.28,622,752,0
400704,437.79,622,751,0
400714,454.36,622,752,0
400724,471.44,622,751,0
400734,487.80,622,752,0
400753,502.69,633,751,0
400756,515.00,633,752,0
400765,525.41,633,751,0
400775,532.66,633,752,0
400785,537.35,633,750,0
400795,538.83,633,752,0
400805,538.15,633,750,0
400815,535.54,633,752,0
400825,531.73,633,750,0
400835,525.77,633,752,0
400845,519.02,633,750,0
400855,511.22,633,751,0
400865,503.18,633,750,0
400875,494.47,633,751,0
400885,485.89,633,750,0
400896,477.18,633,751,0
400905,468.90,633,750,0
400915,460.61,633,752,0
400925,453.06,633,750,0
400935,445.63,633,751,0
400945,439.18,633,750,0
400955,432.91,633,751,0
400965,427.92,633,750,0
400975,423.49,633,751,0
400985,420.21,633,750,0
400995,417.45,633,752,0
401005,415.94,633,750,0
401015,414.76,633,751,0
401025,414.49,633,750,0
401035,414.21,633,752,0
401045,414.45,633,750,0
401055,414.27,633,751,0
401065,414.23,633,750,0
401075,413.52,633,751,0
401085,412.85,633,750,0
401095,411.14,633,751,0
401105,409.21,633,750,0
401115,406.53,633,752,0
401125,403.97,633,750,0
401135,400.68,633,751,0
401145,397.65,633,751,0
401155,394.03,633,752,0
401165,390.89,633,750,0
401175,387.41,633,751,0
401185,384.37,633,750,0
401196,381.05,633,751,0
401206,378.37,633,750,0
401216,375.56,633,751,0
401226,373.59,633,750,0
401236,371.70,633,751,0
401246,370.55,633,750,0
401256,369.36,633,751,0
401266,368.91,633,750,0
401276,368.42,633,751,0
401286,368.64,633,750,0
401296,368.75,633,751,0
401306,370.19,633,751,0
401316,372.32,633,751,0
401326,376.77,633,751,0
401336,382.71,633,752,0
401346,391.58,633,751,0
401356,402.21,633,752,0
401367,415.99,633,751,0
401377,430.95,633,752,0
401387,447.89,633,752,0
401397,464.42,633,751,0
401408,481.35,633,752,0
401417,496.55,633,752,0
401427,510.91,633,752,0
401446,522.30,693,750,0
401449,531.59,693,753,0
401458,538.01,693,751,0
401468,542.72,693,752,0
401478,544.31,693,751,0
401488,544.17,693,752,0
401498,541.29,693,751,0
401508,537.22,693,751,0
401518,531.28,693,751,0
401528,524.21,693,752,0
401538,515.32,693,751,0
401548,506.44,693,751,0
401558,496.36,693,750,0
401568,486.91,693,751,0
401579,476.74,693,750,0
401588,467.47,693,751,0
401598,457.95,693,750,0
401608,449.78,693,751,0
401618,441.66,693,750,0
401628,435.37,693,751,0
401638,429.35,693,750,0
401648,425.39,693,751,0
401658,421.88,693,750,0
401668,420.33,693,751,0
401678,419.12,693,751,0
401688,419.43,693,751,0
401698,419.56,693,750,0
401708,420.63,693,751,0
401718,421.34,693,751,0
401728,422.35,693,752,0
401738,421.90,693,750,0
401748,421.33,693,751,0
401758,419.69,693,751,0
401768,417.94,693,751,0
401778,414.70,693,750,0
401788,411.23,693,751,0
401798,406.92,693,751,0
401808,403.43,693,751,0
401818,399.36,693,750,0
401828,395.82,693,751,0
401838,391.89,693,751,0
401848,388.97,693,751,0
401858,385.55,693,750,0
401868,383.11,693,751,0
401879,380.25,693,750,0
401889,378.42,693,751,0
401899,376.19,693,750,0
401909,374.85,693,751,0
401920,373.39,693,750,0
401929,373.02,693,751,0
401939,372.41,693,750,0
401949,372.72,693,752,0
401959,372.63,693,750,0
401969,373.30,693,752,0
401979,373.12,693,750,0
401989,373.26,693,752,0
401999,372.79,693,750,0
402009,373.11,693,752,0
402019,373.51,693,750,0
402029,375.88,693,752,0
402039,379.48,693,751,0
402049,386.15,693,752,0
402059,394.76,693,750,0
402069,406.66,693,752,0
402079,420.48,693,751,0
402089,437.05,693,752,0
402099,454.13,693,751,0
402109,472.14,693,752,0
402119,489.20,693,751,0
402129,505.81,693,753,0
402148,519.92,702,750,0
402151,531.52,702,753,0
402160,540.36,702,751,0
402170,546.94,702,752,0
402180,550.30,702,750,0
402190,551.67,702,752,0
402200,550.14,702,750,0
402210,547.05,702,752,0
402220,542.28,702,750,0
402230,536.15,702,752,0
402240,528.26,702,750,0
402250,520.09,702,752,0
402260,510.72,702,749,0
402270,501.72,702,752,0
402280,492.37,702,750,0
402290,483.65,702,752,0
402300,474.67,702,749,0
402310,466.71,702,752,0
402320,458.70,702,750,0
402330,451.93,702,752,0
402340,445.48,702,750,0
402350,440.28,702,751,0
402360,435.57,702,750,0
402370,432.01,702,752,0
402380,428.88,702,750,0
402391,426.99,702,752,0
402401,425.28,702,750,0
402411,424.12,702,752,0
402421,422.71,702,750,0
402432,421.64,702,752,0
402441,420.12,702,750,0
402451,418.88,702,756,0
402461,417.03,702,752,0
402471,415.05,702,754,0
402481,412.55,702,752,0
402491,409.99,702,753,0
402501,407.03,702,751,0
402511,404.32,702,753,0
402521,400.84,702,751,0
402531,397.29,702,754,0
402541,393.52,702,751,0
402551,389.80,702,753,0
402561,386.01,702,751,0
402571,382.58,702,753,0
402581,379.02,702,751,0
402591,376.14,702,755,0
402601,373.57,702,752,0
402611,371.64,702,754,0
402621,370.08,702,751,0
402631,369.11,702,756,0
402641,368.26,702,750,0
402651,368.01,702,754,0
402661,367.71,702,754,0
402671,367.84,702,755,0
402681,367.97,702,746,0
402691,368.62,702,744,0
402701,369.12,702,741,0
402711,370.97,702,743,0
402721,371.75,702,743,0
402732,373.15,702,746,0
402742,373.62,702,745,0
402752,373.99,702,748,0
402762,374.64,702,747,0
402772,376.50,702,750,0
402782,378.84,702,741,0
402792,384.46,702,753,0
402802,391.99,702,753,0
402812,402.67,702,754,0
402822,416.01,702,753,0
402832,431.43,702,753,0
402842,448.19,702,753,0
402852,465.36,702,754,0
402862,481.80,702,752,0
402881,497.16,733,750,0
402884,510.82,733,754,0
402893,522.45,733,753,0
402903,531.44,733,753,0
402913,537.35,733,754,0
402923,540.38,733,753,0
402933,540.48,733,754,0
402944,538.23,733,753,0
402953,533.96,733,754,0
402963,528.02,733,752,0
402973,520.51,733,753,0
402983,512.47,733,753,0
402993,503.80,733,753,0
403003,495.42,733,752,0
403013,486.85,733,753,0
403023,478.80,733,753,0
403033,470.67,733,753,0
403043,463.23,733,753,0
403053,456.00,733,753,0
403063,449.66,733,752,0
403073,443.72,733,753,0
403083,438.87,733,752,0
403093,434.54,733,753,0
403103,431.51,733,753,0
403113,429.08,733,753,0
403123,427.69,733,752,0
403133,426.54,733,753,0
403143,426.03,733,753,0
403153,425.34,733,753,0
403163,425.02,733,752,0
403173,424.24,733,753,0
403183,423.61,733,752,0
403193,422.27,733,753,0
403203,420.99,733,752,0
403213,419.02,733,754,0
403223,417.13,733,752,0
403233,414.48,733,753,0
403244,411.98,733,751,0
403254,408.81,733,752,0
403264,406.00,733,751,0
403274,402.66,733,752,0
403284,399.59,733,751,0
403294,396.07,733,752,0
403304,393.09,733,751,0
403314,389.72,733,754,0
403324,387.10,733,752,0
403334,384.37,733,753,0
403344,382.46,733,752,0
403354,380.44,733,752,0
403364,379.32,733,752,0
403374,378.11,733,753,0
403384,377.78,733,752,0
403394,377.07,733,753,0
403404,377.09,733,752,0
403415,376.72,733,752,0
403425,377.32,733,752,0
403435,378.00,733,753,0
403445,380.27,733,752,0
403456,383.06,733,752,0
403465,388.40,733,752,0
403475,394.88,733,753,0
403485,404.04,733,752,0
403495,414.62,733,753,0
403505,427.97,733,753,0
403515,442.17,733,753,0
403525,457.97,733,753,0
403535,473.07,733,753,0
403545,488.48,733,753,0
403555,502.48,733,753,0
403565,515.49,733,752,0
403585,525.46,703,750,0
403588,533.03,703,753,0
403597,538.08,703,752,0
403607,541.27,703,752,0
403617,541.58,703,751,0
403628,540.03,703,752,0
403638,536.08,703,751,0
403648,531.00,703,752,0
403658,524.48,703,751,0
403668,517.01,703,752,0
403678,508.52,703,751,0
403688,500.01,703,752,0
403698,491.13,703,751,0
403708,482.69,703,752,0
403718,474.09,703,751,0
403728,466.65,703,752,0
403738,459.08,703,751,0
403748,452.58,703,753,0
403758,446.24,703,751,0
403768,440.94,703,752,0
403778,435.99,703,751,0
403788,432.39,703,753,0
403799,428.89,703,751,0
403809,427.08,703,752,0
403819,425.21,703,753,0
403829,424.46,703,751,0
403840,423.51,703,750,0
403849,423.53,703,752,0
403859,422.94,703,750,0
403869,422.23,703,754,0
403879,420.32,703,752,0
403889,418.34,703,753,0
403899,415.79,703,751,0
403909,413.07,703,752,0
403919,409.23,703,750,0
403929,405.52,703,751,0
403939,401.55,703,751,0
403949,398.21,703,753,0
403959,394.68,703,751,0
403969,391.52,703,752,0
403979,388.41,703,751,0
403989,386.36,703,753,0
403999,384.15,703,751,0
404009,382.56,703,752,0
404019,380.68,703,751,0
404029,379.49,703,753,0
404039,378.10,703,751,0
404049,377.26,703,752,0
404059,376.15,703,751,0
404069,375.72,703,753,0
404079,375.42,703,751,0
404089,375.55,703,753,0
404099,375.77,703,751,0
404109,376.53,703,753,0
404119,377.31,703,751,0
404129,378.89,703,753,0
404140,381.36,703,752,0
404150,385.50,703,753,0
404160,391.78,703,752,0
404170,400.20,703,753,0
404180,410.77,703,751,0
404190,423.82,703,753,0
404200,438.45,703,752,0
404210,454.69,703,753,0
404220,471.15,703,752,0
404230,487.43,703,754,0
404240,502.43,703,753,0
404259,515.89,675,751,0
404262,526.76,675,753,0
404271,535.62,675,754,0
404281,541.65,675,753,0
404291,544.97,675,753,0
404301,545.36,675,751,0
404311,543.93,675,753,0
404321,540.48,675,751,0
404331,535.53,675,753,0
404341,528.82,675,751,0
404352,520.81,675,752,0
404361,512.68,675,751,0
404371,504.21,675,753,0
404381,495.40,675,752,0
404391,486.41,675,753,0
404401,477.93,675,751,0
404411,469.89,675,753,0
404421,462.51,675,750,0
404431,455.37,675,752,0
404441,448.92,675,751,0
404451,443.24,675,752,0
404461,438.63,675,750,0
404471,434.67,675,752,0
404481,431.55,675,750,0
404491,429.29,675,752,0
404501,427.96,675,750,0
404511,427.24,675,752,0
404521,427.21,675,750,0
404531,427.36,675,752,0
404541,427.77,675,750,0
404551,428.01,675,752,0
404561,428.39,675,750,0
404571,428.15,675,752,0
404581,427.50,675,750,0
404591,426.07,675,752,0
404601,424.29,675,750,0
404611,422.36,675,752,0
404621,420.15,675,750,0
404631,417.32,675,752,0
404641,414.40,675,750,0
404652,411.32,675,752,0
404662,408.27,675,750,0
404672,404.89,675,751,0
404682,401.41,675,750,0
404692,397.90,675,751,0
404702,394.67,675,750,0
404712,391.43,675,751,0
404722,388.69,675,750,0
404732,385.91,675,751,0
404742,384.01,675,750,0
404752,382.12,675,752,0
404762,381.10,675,751,0
404772,380.04,675,752,0
404782,380.03,675,750,0
404792,380.36,675,752,0
404802,382.18,675,751,0
404812,384.91,675,752,0
404823,389.87,675,750,0
404833,396.55,675,752,0
404843,406.03,675,751,0
404853,417.38,675,752,0
404864,431.45,675,751,0
404873,447.17,675,752,0
404883,464.43,675,752,0
404893,481.62,675,752,0
404903,498.70,675,751,0
404913,514.35,675,752,0
404923,528.56,675,752,0
404933,539.66,675,752,0
404953,548.25,693,750,0
404956,553.06,693,752,0
404965,555.96,693,752,0
404975,555.76,693,751,0
404985,553.64,693,751,0
404995,549.08,693,751,0
405005,543.57,693,751,0
405015,536.16,693,751,0
405025,528.69,693,751,0
405036,519.49,693,750,0
405046,510.34,693,752,0
405056,500.25,693,751,0
405066,490.75,693,751,0
405076,480.75,693,750,0
405086,471.78,693,752,0
405096,462.63,693,750,0
405106,454.86,693,751,0
405116,447.10,693,750,0
405126,440.86,693,752,0
405136,434.86,693,750,0
405146,430.44,693,752,0
405156,426.37,693,750,0
405166,424.03,693,752,0
405176,421.75,693,751,0
405186,420.88,693,752,0
405196,419.93,693,750,0
405207,419.91,693,752,0
405217,419.38,693,750,0
405227,419.31,693,752,0
405237,418.36,693,750,0
405248,417.65,693,752,0
405257,416.00,693,750,0
405267,414.54,693,752,0
405277,412.28,693,750,0
405287,410.22,693,752,0
405297,407.46,693,751,0
405307,404.92,693,752,0
405317,401.64,693,750,0
405327,398.79,693,752,0
405337,395.17,693,750,0
405347,391.86,693,752,0
405357,388.00,693,750,0
405367,384.66,693,752,0
405377,380.95,693,750,0
405387,378.18,693,752,0
405397,375.21,693,750,0
405407,373.26,693,752,0
405417,371.13,693,750,0
405427,369.93,693,752,0
405437,368.97,693,750,0
405447,369.19,693,752,0
405457,369.82,693,750,0
405467,372.06,693,752,0
405477,375.30,693,750,0
405487,381.21,693,752,0
405497,389.03,693,751,0
405507,399.61,693,752,0
405517,412.24,693,751,0
405527,427.73,693,753,0
405537,444.56,693,751,0
405548,463.08,693,753,0
405558,481.19,693,751,0
405568,498.92,693,753,0
405578,514.67,693,751,0
405588,528.53,693,753,0
405607,539.00,655,751,0
405610,546.33,655,754,0
405619,550.51,655,750,0
405629,552.16,655,752,0
405639,551.00,655,750,0
405649,547.83,655,752,0
405659,542.56,655,750,0
405669,535.80,655,752,0
405679,527.97,655,749,0
405689,518.85,655,752,0
405699,508.82,655,750,0
405709,498.46,655,752,0
405719,488.04,655,750,0
405729,477.87,655,752,0
405739,467.92,655,750,0
405749,458.56,655,752,0
405760,449.82,655,749,0
405769,442.03,655,752,0
405779,434.95,655,750,0
405789,428.75,655,752,0
405799,423.55,655,749,0
405809,419.83,655,752,0
405819,417.22,655,750,0
405829,416.09,655,752,0
405839,415.67,655,750,0
405849,416.33,655,752,0
405859,417.17,655,750,0
405869,418.06,655,752,0
405879,418.69,655,750,0
405889,419.04,655,752,0
405899,418.60,655,750,0
405909,417.78,655,752,0
405919,416.21,655,750,0
405929,414.56,655,752,0
405939,412.34,655,750,0
405949,409.62,655,752,0
405959,406.44,655,749,0
405969,403.00,655,752,0
405979,399.27,655,750,0
405989,395.55,655,752,0
405999,391.61,655,750,0
406009,388.00,655,752,0
406019,384.79,655,750,0
406029,382.06,655,752,0
406039,379.86,655,750,0
406049,378.06,655,752,0
406060,376.54,655,750,0
406070,375.35,655,752,0
406080,374.69,655,750,0
406090,374.44,655,752,0
406100,375.29,655,750,0
406110,377.18,655,752,0
406120,381.15,655,750,0
406130,387.24,655,752,0
406140,396.12,655,751,0
406150,407.49,655,752,0
406160,421.70,655,751,0
406170,437.90,655,753,0
406180,456.10,655,751,0
406190,474.93,655,753,0
406200,493.94,655,751,0
406210,511.78,655,753,0
406230,528.09,622,751,0
406233,541.05,622,753,0
406242,551.79,622,751,0
406252,559.27,622,752,0
406262,563.73,622,751,0
406273,564.58,622,752,0
406283,562.91,622,751,0
406293,558.35,622,751,0
406303,552.85,622,751,0
406313,544.62,622,751,0
406323,535.26,622,751,0
406333,524.64,622,751,0
406343,513.95,622,751,0
406353,502.39,622,751,0
406363,491.39,622,750,0
406373,479.92,622,751,0
406383,469.53,622,751,0
406393,458.95,622,751,0
406403,449.58,622,751,0
406413,440.58,622,751,0
406423,433.29,622,751,0
406433,426.48,622,751,0
406444,421.58,622,751,0
406454,417.16,622,751,0
406464,414.71,622,751,0
406474,412.48,622,751,0
406484,411.95,622,752,0
406494,411.20,622,751,0
406504,411.52,622,751,0
406514,411.41,622,751,0
406524,411.93,622,752,0
406534,411.56,622,751,0
406544,411.74,622,751,0
406554,410.75,622,751,0
406564,410.05,622,752,0
406574,408.32,622,751,0
406584,406.85,622,752,0
406594,404.33,622,751,0
406604,402.26,622,752,0
406615,399.09,622,750,0
406625,396.32,622,752,0
406635,393.05,622,751,0
406645,390.38,622,752,0
406656,386.92,622,750,0
406665,384.20,622,752,0
406675,380.76,622,750,0
406685,378.34,622,752,0
406695,375.33,622,750,0
406705,373.04,622,752,0
406715,370.29,622,750,0
406725,368.83,622,752,0
406735,367.68,622,750,0
406745,368.33,622,752,0
406755,369.22,622,751,0
406765,372.24,622,752,0
406775,376.54,622,751,0
406785,383.71,622,752,0
406795,392.84,622,751,0
406805,405.14,622,752,0
406815,419.07,622,751,0
406825,436.11,622,753,0
406835,454.59,622,752,0
406845,475.54,622,754,0
406864,495.99,635,751,0
406867,515.58,635,753,0
406876,533.32,635,752,0
406886,549.34,635,753,0
406896,561.32,635,750,0
406906,570.14,635,752,0
406916,573.74,635,751,0
406926,574.93,635,752,0
406936,572.90,635,750,0
406946,568.04,635,752,0
406956,560.53,635,751,0
406966,551.97,635,752,0
406976,541.78,635,749,0
406986,531.43,635,752,0
406996,519.94,635,750,0
407006,508.95,635,752,0
407016,497.73,635,749,0
407026,487.10,635,752,0
407036,476.66,635,750,0
407046,467.37,635,752,0
407056,458.35,635,750,0
407066,450.53,635,752,0
407076,443.04,635,750,0
407086,436.99,635,752,0
407096,431.42,635,750,0
407106,427.31,635,752,0
407116,423.74,635,750,0
407127,421.72,635,752,0
407137,419.96,635,750,0
407147,419.24,635,752,0
407157,418.44,635,750,0
407168,418.35,635,752,0
407177,417.90,635,750,0
407187,417.72,635,752,0
407197,416.90,635,750,0
407207,416.07,635,752,0
407217,414.55,635,750,0
407227,412.84,635,752,0
407237,410.49,635,750,0
407247,407.90,635,752,0
407257,404.67,635,750,0
407267,401.30,635,752,0
407277,397.61,635,750,0
407287,393.96,635,752,0
407297,390.03,635,750,0
407307,386.46,635,752,0
407317,382.98,635,750,0
407327,380.03,635,752,0
407337,377.15,635,750,0
407347,374.79,635,752,0
407357,372.54,635,750,0
407367,370.88,635,752,0
407377,369.24,635,750,0
407387,368.14,635,752,0
407397,367.03,635,750,0
407407,366.33,635,752,0
407417,365.85,635,750,0
407427,366.06,635,752,0
407437,366.73,635,750,0
407447,368.61,635,752,0
407457,371.64,635,750,0
407468,376.85,635,752,0
407478,384.44,635,751,0
407488,394.72,635,752,0
407498,408.00,635,751,0
407508,424.33,635,752,0
407518,443.00,635,751,0
407528,463.57,635,753,0
407538,484.79,635,751,0
407548,505.68,635,753,0
407558,525.28,635,751,0
407577,542.59,713,749,0
407580,556.39,713,752,0
407589,566.90,713,752,0
407599,573.74,713,751,0
407609,576.86,713,752,0
407619,576.65,713,750,0
407629,573.15,713,751,0
407639,567.11,713,750,0
407649,559.15,713,752,0
407659,549.67,713,750,0
407669,538.67,713,751,0
407680,527.07,713,750,0
407689,514.88,713,751,0
407699,503.17,713,750,0
407709,491.25,713,751,0
407719,480.29,713,750,0
407729,469.53,713,752,0
407739,459.86,713,750,0
407749,450.94,713,751,0
407759,443.16,713,750,0
407769,436.13,713,752,0
407779,430.43,713,750,0
407789,425.29,713,751,0
407799,421.30,713,750,0
407809,418.25,713,752,0
407819,416.33,713,750,0
407829,414.99,713,751,0
407839,414.39,713,750,0
407849,413.98,713,752,0
407859,414.11,713,750,0
407869,413.95,713,751,0
407879,413.79,713,750,0
407889,412.91,713,752,0
407899,412.12,713,750,0
407909,410.63,713,752,0
407919,408.98,713,750,0
407929,406.63,713,752,0
407939,404.34,713,750,0
407949,401.50,713,751,0
407959,398.82,713,750,0
407969,395.66,713,752,0
407980,392.63,713,750,0
407990,389.19,713,751,0
408000,386.22,713,750,0
408010,383.11,713,752,0
408020,380.55,713,750,0
408030,377.90,713,751,0
408040,375.83,713,750,0
408050,373.65,713,751,0
408060,372.38,713,751,0
408070,370.98,713,751,0
408080,370.26,713,751,0
408090,369.24,713,751,0
408100,369.04,713,751,0
408110,368.51,713,751,0
408120,368.87,713,751,0
408130,369.47,713,752,0
408140,371.60,713,751,0
408151,374.81,713,752,0
408161,380.78,713,751,0
408171,388.82,713,752,0
408181,400.27,713,752,0
408192,414.38,713,752,0
408201,431.58,713,752,0
408211,450.78,713,753,0
408221,471.80,713,752,0
408231,492.43,713,752,0
408241,512.74,713,752,0
408260,530.86,683,750,0
408263,546.80,683,753,0
408272,559.42,683,752,0
408282,568.77,683,751,0
408292,573.76,683,751,0
408302,575.89,683,752,0
408312,574.12,683,751,0
408322,570.40,683,751,0
408332,563.60,683,751,0
408342,555.32,683,751,0
408352,544.64,683,750,0
408363,533.52,683,751,0
408372,520.89,683,751,0
408382,508.88,683,751,0
408392,495.89,683,750,0
408402,483.75,683,751,0
408412,470.80,683,751,0
408422,459.11,683,751,0
408432,447.42,683,750,0
408442,437.48,683,751,0
408452,427.69,683,751,0
408462,420.03,683,751,0
408472,413.16,683,751,0
408482,408.79,683,751,0
408492,405.51,683,751,0
408502,404.41,683,751,0
408512,403.77,683,751,0
408522,404.70,683,751,0
408532,405.22,683,751,0
408542,406.70,683,751,0
408552,407.34,683,751,0
408562,408.23,683,751,0
408572,407.90,683,750,0
408582,407.80,683,751,0
408592,406.32,683,751,0
408602,404.77,683,751,0
408612,401.71,683,750,0
408622,398.71,683,751,0
408632,394.64,683,751,0
408642,390.85,683,751,0
408652,386.14,683,751,0
408663,381.85,683,752,0
408673,376.93,683,750,0
408683,372.92,683,751,0
408693,368.70,683,750,0
408704,365.32,683,752,0
408713,361.92,683,751,0
408723,359.63,683,751,0
408733,357.13,683,750,0
408743,355.80,683,752,0
408753,354.28,683,750,0
408763,353.89,683,751,0
408773,353.20,683,750,0
408783,353.48,683,752,0
408793,353.17,683,751,0
408803,353.89,683,751,0
408813,354.14,683,750,0
408823,355.34,683,752,0
408833,356.05,683,751,0
408843,358.22,683,752,0
408853,360.98,683,751,0
408863,365.79,683,752,0
408873,371.85,683,751,0
408883,380.77,683,752,0
408893,391.29,683,751,0
408903,405.39,683,753,0
408913,421.35,683,751,0
408923,440.01,683,753,0
408933,459.51,683,751,0
408943,480.36,683,753,0
408953,500.35,683,752,0
408972,520.26,712,750,0
408975,537.02,712,752,0
408984,552.40,712,753,0
408994,563.64,712,751,0
409004,572.40,712,752,0
409014,576.78,712,751,0
409024,578.35,712,752,0
409034,576.10,712,750,0
409044,571.87,712,752,0
409054,564.20,712,750,0
409064,555.35,712,752,0
409074,544.40,712,750,0
409084,533.27,712,752,0
409094,521.32,712,750,0
409104,509.95,712,752,0
409114,498.18,712,750,0
409124,487.24,712,752,0
409134,476.41,712,750,0
409144,467.03,712,752,0
409154,457.76,712,750,0
409164,450.03,712,752,0
409175,442.52,712,750,0
409185,437.05,712,752,0
409195,432.24,712,750,0
409205,428.99,712,752,0
409216,426.12,712,750,0
409225,425.06,712,752,0
409235,424.23,712,750,0
409245,424.80,712,752,0
409255,425.20,712,750,0
409265,426.34,712,752,0
409275,426.88,712,750,0
409285,427.26,712,752,0
409295,426.63,712,750,0
409305,425.71,712,752,0
409315,423.70,712,750,0
409325,421.17,712,752,0
409335,417.44,712,750,0
409345,413.62,712,752,0
409355,409.10,712,750,0
409365,404.70,712,752,0
409375,399.73,712,749,0
409385,394.97,712,752,0
409395,389.92,712,750,0
409405,385.45,712,752,0
409415,380.94,712,750,0
409425,377.44,712,752,0
409435,374.18,712,750,0
409445,371.90,712,752,0
409455,369.96,712,750,0
409465,368.94,712,752,0
409475,368.23,712,750,0
409485,368.12,712,754,0
409495,367.91,712,752,0
409505,368.02,712,754,0
409516,368.15,712,753,0
409526,368.44,712,754,0
409536,369.00,712,753,0
409546,370.20,712,753,0
409556,372.67,712,752,0
409566,376.84,712,754,0
409576,382.80,712,752,0
409586,391.09,712,755,0
409596,401.78,712,753,0
409606,415.17,712,751,0
409616,430.89,712,746,0
409626,448.45,712,755,0
409636,466.96,712,755,0
409646,485.91,712,755,0
409656,504.03,712,754,0
409666,520.73,712,755,0
409676,535.13,712,753,0
409696,546.66,724,751,0
409699,554.52,724,753,0
409708,559.34,724,753,0
409718,560.95,724,752,0
409729,559.42,724,752,0
409739,555.52,724,752,0
409749,549.07,724,752,0
409759,541.12,724,752,0
409769,531.61,724,752,0
409779,521.18,724,751,0
409789,509.64,724,752,0
409799,498.56,724,751,0
409809,486.95,724,753,0
409819,476.04,724,752,0
409829,465.01,724,752,0
409839,455.24,724,752,0
409849,445.74,724,753,0
409859,437.80,724,752,0
409869,430.28,724,753,0
409879,424.49,724,752,0
409889,419.29,724,753,0
409900,415.82,724,752,0
409910,412.87,724,753,0
409920,411.50,724,753,0
409930,410.40,724,753,0
409940,410.41,724,752,0
409950,410.20,724,753,0
409960,410.74,724,752,0
409970,410.65,724,752,0
409980,410.84,724,752,0
409990,410.16,724,753,0
410000,409.51,724,752,0
410010,407.69,724,752,0
410020,405.89,724,752,0
410030,403.27,724,752,0
410040,400.92,724,752,0
410050,397.77,724,752,0
410060,395.23,724,752,0
410071,392.03,724,752,0
410081,389.75,724,753,0
410091,386.87,724,753,0
410101,384.59,724,753,0
410112,381.71,724,752,0
410121,379.61,724,753,0
410131,376.77,724,752,0
410141,374.74,724,753,0
410151,371.99,724,752,0
410161,370.11,724,753,0
410171,367.50,724,752,0
410181,365.85,724,753,0
410191,363.93,724,752,0
410201,363.35,724,752,0
410211,363.16,724,752,0
410221,365.17,724,753,0
410231,368.37,724,752,0
410241,374.65,724,753,0
410251,382.94,724,753,0
410261,394.83,724,753,0
410271,408.94,724,752,0
410281,426.61,724,753,0
410291,445.37,724,751,0
410301,465.83,724,753,0
410311,485.81,724,752,0
410331,505.67,634,751,0
410334,522.57,634,752,0
410343,537.78,634,753,0
410353,548.82,634,752,0
410363,556.97,634,754,0
410373,561.01,634,752,0
410383,562.59,634,753,0
410393,560.31,634,751,0
410403,556.58,634,753,0
410413,549.55,634,751,0
410423,541.28,634,753,0
410433,531.21,634,752,0
410443,520.86,634,752,0
410454,509.42,634,750,0
410463,498.45,634,752,0
410473,486.66,634,749,0
410483,475.66,634,751,0
410493,464.49,634,749,0
410503,454.36,634,751,0
410513,444.48,634,749,0
410523,435.76,634,752,0
410533,427.56,634,750,0
410543,421.14,634,752,0
410553,415.44,634,749,0
410563,411.62,634,752,0
410573,408.69,634,750,0
410583,407.33,634,752,0
410593,406.50,634,750,0
410603,406.65,634,752,0
410613,406.67,634,750,0
410624,407.41,634,752,0
410633,407.67,634,750,0
410643,408.16,634,752,0
410653,407.90,634,750,0
410663,407.50,634,752,0
410673,406.53,634,750,0
410683,405.47,634,752,0
410693,403.49,634,750,0
410703,401.46,634,752,0
410713,398.49,634,750,0
410723,395.69,634,752,0
410733,392.31,634,750,0
410743,389.13,634,752,0
410753,385.53,634,750,0
410763,382.67,634,752,0
410773,379.64,634,750,0
410783,377.48,634,752,0
410793,375.24,634,750,0
410803,373.96,634,752,0
410813,372.52,634,750,0
410823,371.85,634,752,0
410833,370.99,634,750,0
410843,370.70,634,752,0
410853,370.14,634,750,0
410863,370.02,634,752,0
410873,369.50,634,750,0
410883,369.86,634,752,0
410893,370.63,634,750,0
410903,372.93,634,752,0
410913,376.55,634,750,0
410924,382.77,634,752,0
410934,391.37,634,751,0
410944,403.30,634,752,0
410954,417.91,634,751,0
410964,435.55,634,753,0
410974,454.89,634,751,0
410984,475.75,634,753,0
410994,496.35,634,751,0
411014,516.22,683,749,0
411017,533.60,683,753,0
411026,548.67,683,753,0
411036,560.39,683,751,0
411046,568.46,683,752,0
411056,572.69,683,750,0
411066,573.38,683,752,0
411076,570.78,683,750,0
411086,565.62,683,752,0
411096,557.80,683,750,0
411106,548.09,683,752,0
411116,537.18,683,750,0
411126,525.04,683,751,0
411137,512.68,683,750,0
411147,499.92,683,751,0
411157,487.52,683,750,0
411167,474.89,683,751,0
411177,462.79,683,750,0
411187,450.90,683,751,0
411197,440.17,683,750,0
411207,429.92,683,751,0
411217,421.29,683,751,0
411227,413.57,683,751,0
411237,407.79,683,750,0
411247,403.05,683,751,0
411257,400.34,683,751,0
411267,398.65,683,751,0
411277,398.63,683,751,0
411287,399.00,683,751,0
411297,400.37,683,750,0
411308,401.63,683,751,0
411318,403.41,683,750,0
411328,404.62,683,751,0
411338,405.85,683,751,0
411348,406.45,683,752,0
411358,406.74,683,751,0
411368,405.71,683,751,0
411378,404.81,683,751,0
411388,402.47,683,751,0
411398,399.93,683,751,0
411408,396.13,683,751,0
411418,392.37,683,751,0
411428,387.80,683,751,0
411438,384.04,683,751,0
411448,379.70,683,751,0
411458,376.49,683,751,0
411468,373.39,683,751,0
411479,371.60,683,751,0
411489,369.71,683,751,0
411499,369.15,683,751,0
411509,368.21,683,751,0
411520,368.19,683,751,0
411529,367.96,683,751,0
411539,368.36,683,751,0
411549,368.25,683,751,0
411559,368.95,683,751,0
411569,369.43,683,751,0
411579,371.66,683,751,0
411589,374.68,683,751,0
411599,380.39,683,752,0
411609,387.90,683,751,0
411619,398.73,683,752,0
411629,411.63,683,752,0
411639,428.07,683,752,0
411649,446.00,683,751,0
411659,466.36,683,752,0
411669,486.31,683,752,0
411679,506.87,683,753,0
411699,525.17,685,750,0
411702,541.40,685,753,0
411711,554.44,685,751,0
411721,564.89,685,752,0
411731,570.63,685,750,0
411741,573.52,685,752,0
411751,572.08,685,751,0
411761,568.67,685,752,0
411771,562.73,685,750,0
411781,555.22,685,752,0
411791,545.60,685,750,0
411801,535.69,685,752,0
411811,524.94,685,750,0
411821,514.29,685,751,0
411831,503.44,685,750,0
411841,493.24,685,751,0
411851,482.71,685,750,0
411862,472.94,685,751,0
411871,463.23,685,750,0
411881,454.63,685,752,0
411891,446.21,685,750,0
411901,438.91,685,752,0
411911,432.16,685,750,0
411921,426.93,685,752,0
411931,422.54,685,750,0
411941,419.89,685,752,0
411951,417.48,685,751,0
411961,416.74,685,752,0
411971,416.39,685,750,0
411981,416.87,685,752,0
411991,416.70,685,750,0
412001,416.74,685,752,0
412011,415.62,685,750,0
412021,414.49,685,752,0
412032,412.29,685,750,0
412041,409.63,685,751,0
412051,405.93,685,750,0
412061,402.48,685,752,0
412071,398.22,685,750,0
412081,394.51,685,751,0
412091,390.24,685,750,0
412101,386.53,685,752,0
412111,382.51,685,750,0
412121,379.40,685,752,0
412131,376.02,685,750,0
412141,373.62,685,751,0
412151,370.99,685,750,0
412161,369.49,685,752,0
412171,367.84,685,750,0
412181,367.08,685,752,0
412191,366.07,685,750,0
412201,365.92,685,752,0
412211,365.86,685,751,0
412221,367.10,685,752,0
412231,368.23,685,750,0
412241,370.94,685,752,0
412251,374.65,685,750,0
412261,381.14,685,752,0
412271,389.63,685,751,0
412281,401.44,685,753,0
412291,415.36,685,751,0
412301,432.83,685,752,0
412311,452.29,685,752,0
412321,473.72,685,753,0
412332,494.93,685,751,0
412342,515.91,685,752,0
412352,534.62,685,751,0
412371,551.02,673,749,0
412375,563.31,673,751,0
412383,572.31,673,752,0
412393,577.01,673,750,0
412403,578.30,673,752,0
412413,575.94,673,750,0
412423,570.98,673,751,0
412433,563.75,673,750,0
412443,555.46,673,752,0
412453,545.73,673,750,0
412463,535.78,673,751,0
412473,525.43,673,750,0
412483,515.36,673,752,0
412493,505.01,673,750,0
412503,495.11,673,751,0
412513,485.17,673,750,0
412523,475.61,673,752,0
412533,466.25,673,750,0
412544,457.56,673,751,0
412553,449.38,673,750,0
412563,442.49,673,752,0
412573,436.39,673,750,0
412583,431.64,673,751,0
412593,427.76,673,750,0
412603,425.09,673,752,0
412613,423.39,673,750,0
412623,422.50,673,752,0
412633,422.01,673,750,0
412643,421.92,673,752,0
412653,421.60,673,750,0
412663,421.25,673,752,0
412673,420.36,673,750,0
412683,419.05,673,752,0
412693,417.19,673,750,0
412703,414.74,673,752,0
412713,411.64,673,750,0
412723,408.28,673,752,0
412733,404.34,673,750,0
412743,400.47,673,752,0
412753,396.08,673,749,0
412763,391.99,673,752,0
412773,387.83,673,750,0
412783,383.90,673,752,0
412793,380.24,673,750,0
412803,377.21,673,752,0
412813,374.41,673,750,0
412823,372.06,673,752,0
412833,369.85,673,750,0
412844,367.88,673,752,0
412854,366.08,673,750,0
412864,364.21,673,752,0
412874,362.65,673,750,0
412884,361.25,673,752,0
412894,360.92,673,750,0
412904,361.67,673,752,0
412914,364.09,673,750,0
412924,368.43,673,752,0
412934,375.46,673,751,0
412944,385.61,673,752,0
412954,398.92,673,751,0
412964,415.23,673,753,0
412974,434.11,673,752,0
412984,454.95,673,753,0
412994,477.03,673,751,0
413004,499.09,673,753,0
413015,519.85,673,752,0
413025,538.28,673,753,0
413044,553.63,673,750,0
413047,564.45,673,753,0
413057,572.12,673,751,0
413067,575.72,673,752,0
413077,575.89,673,751,0
413087,572.24,673,751,0
413097,566.34,673,751,0
413107,557.84,673,751,0
413117,548.97,673,750,0
413127,537.92,673,751,0
413137,526.67,673,751,0
413147,514.56,673,751,0
413157,503.16,673,750,0
413167,491.24,673,751,0
413177,480.41,673,751,0
413187,469.27,673,751,0
413197,459.38,673,750,0
413207,449.45,673,751,0
413217,441.04,673,751,0
413228,432.97,673,751,0
413238,426.64,673,751,0
413248,420.66,673,751,0
413258,416.82,673,751,0
413268,413.49,673,751,0
413278,411.84,673,751,0
413288,410.30,673,751,0
413298,410.00,673,751,0
413308,409.40,673,750,0
413318,409.58,673,751,0
413328,408.76,673,751,0
413338,408.58,673,751,0
413348,407.63,673,751,0
413358,407.10,673,754,0
413368,405.27,673,754,0
413378,403.86,673,754,0
413388,401.42,673,753,0
413399,399.53,673,753,0
413409,396.37,673,752,0
413419,393.60,673,753,0
413429,389.82,673,753,0
413440,386.96,673,753,0
413449,383.37,673,752,0
413459,380.95,673,753,0
413469,377.92,673,752,0
413479,375.97,673,753,0
413489,373.80,673,752,0
413499,372.66,673,753,0
413509,371.00,673,752,0
413519,370.19,673,752,0
413529,368.59,673,752,0
413539,367.60,673,752,0
413549,366.13,673,752,0
413559,365.24,673,752,0
413569,364.14,673,751,0
413579,364.61,673,752,0
413589,365.67,673,752,0
413599,369.20,673,752,0
413609,374.54,673,751,0
413619,383.51,673,753,0
413629,394.71,673,752,0
413639,409.80,673,752,0
413649,427.00,673,752,0
413659,447.49,673,754,0
413669,468.64,673,752,0
413679,490.56,673,753,0
413699,510.84,654,752,0
413702,529.61,654,755,0
413711,545.46,654,752,0
413721,558.35,654,753,0
413731,566.52,654,751,0
413741,571.29,654,753,0
413751,571.93,654,751,0
413761,569.68,654,752,0
413771,564.72,654,751,0
413782,557.60,654,752,0
413791,548.47,654,751,0
413801,538.68,654,752,0
413811,527.98,654,751,0
413821,517.36,654,752,0
413831,506.45,654,751,0
413841,495.99,654,752,0
413851,485.28,654,750,0
413861,475.29,654,752,0
413871,465.22,654,750,0
413881,456.11,654,752,0
413891,447.21,654,750,0
413901,439.30,654,752,0
413911,431.71,654,751,0
413921,425.28,654,752,0
413931,419.50,654,751,0
413941,415.11,654,753,0
413952,411.05,654,751,0
413961,408.20,654,753,0
413971,405.66,654,752,0
413981,404.09,654,753,0
413991,402.65,654,751,0
414001,401.68,654,753,0
414011,400.41,654,751,0
414021,399.34,654,753,0
414031,397.74,654,751,0
414041,396.19,654,753,0
414051,393.95,654,751,0
414061,391.82,654,753,0
414071,388.96,654,751,0
414081,386.27,654,753,0
414091,383.02,654,751,0
414101,380.23,654,753,0
414111,377.07,654,751,0
414121,374.18,654,752,0
414131,370.87,654,751,0
414141,368.04,654,753,0
414151,365.15,654,752,0
414161,362.75,654,755,0
414171,360.13,654,751,0
414181,358.20,654,752,0
414191,356.64,654,752,0
414201,355.68,654,754,0
414211,354.79,654,752,0
414221,354.25,654,753,0
414231,353.62,654,752,0
414241,353.60,654,753,0
414252,353.29,654,752,0
414262,353.08,654,754,0
414272,353.05,654,752,0
414282,354.07,654,754,0
414292,356.19,654,752,0
414302,360.55,654,753,0
414312,366.51,654,751,0
414322,375.27,654,753,0
414332,387.02,654,752,0
414342,401.88,654,754,0
414352,419.19,654,752,0
414362,438.63,654,754,0
414372,459.06,654,752,0
414382,479.95,654,754,0
414401,499.90,703,752,0
414404,517.37,703,753,0
414413,532.77,703,751,0
414423,545.06,703,753,0
414433,553.70,703,752,0
414443,558.46,703,753,0
414453,559.78,703,750,0
414464,557.87,703,752,0
414473,554.01,703,750,0
414483,547.54,703,752,0
414493,539.15,703,749,0
414503,529.55,703,752,0
414513,519.05,703,750,0
414523,508.15,703,752,0
414533,497.31,703,749,0
414543,486.11,703,752,0
414553,474.98,703,750,0
414563,464.10,703,752,0
414573,453.74,703,749,0
414583,444.00,703,751,0
414593,435.09,703,750,0
414603,426.92,703,751,0
414613,420.17,703,750,0
414623,414.38,703,752,0
414633,410.41,703,750,0
414643,407.50,703,752,0
414653,406.11,703,750,0
414663,405.43,703,752,0
414673,405.86,703,750,0
414683,406.80,703,752,0
414693,408.28,703,750,0
414703,409.14,703,752,0
414713,409.99,703,750,0
414723,410.47,703,752,0
414733,410.71,703,750,0
414743,409.94,703,752,0
414753,408.46,703,750,0
414764,406.01,703,752,0
414774,403.26,703,750,0
414784,399.63,703,751,0
414794,395.71,703,751,0
414804,391.13,703,751,0
414814,386.89,703,750,0
414824,382.42,703,751,0
414834,378.61,703,750,0
414844,374.70,703,751,0
414854,371.57,703,750,0
414864,368.40,703,751,0
414874,366.18,703,751,0
414884,363.86,703,751,0
414894,362.48,703,750,0
414904,361.14,703,751,0
414914,360.67,703,750,0
414924,360.51,703,752,0
414935,361.43,703,751,0
414945,362.84,703,751,0
414955,366.28,703,751,0
414965,371.34,703,752,0
414976,378.99,703,751,0
414985,389.15,703,752,0
414995,402.13,703,752,0
415005,416.97,703,752,0
415015,434.29,703,752,0
415025,452.59,703,752,0
415035,471.66,703,752,0
415045,489.89,703,752,0
415055,507.06,703,752,0
415065,521.83,703,752,0
415075,534.74,703,752,0
415094,544.12,693,750,0
415097,550.04,693,752,0
415106,552.26,693,752,0
415116,552.39,693,751,0
415126,549.15,693,751,0
415136,543.83,693,751,0
415147,535.65,693,750,0
415156,526.59,693,751,0
415166,516.68,693,751,0
415176,506.32,693,751,0
415186,494.31,693,750,0
415196,482.69,693,751,0
415206,470.82,693,751,0
415216,460.33,693,751,0
415226,449.43,693,751,0
415236,439.45,693,751,0
415246,429.88,693,751,0
415256,422.33,693,751,0
415266,415.38,693,750,0
415276,410.59,693,751,0
415286,406.26,693,751,0
415296,404.25,693,751,0
415306,402.93,693,750,0
415316,403.55,693,751,0
415326,403.99,693,751,0
415336,405.45,693,751,0
415346,406.21,693,751,0
415356,407.48,693,751,0
415366,407.72,693,752,0
415376,408.02,693,751,0
415386,406.64,693,750,0
415396,405.33,693,751,0
415406,403.05,693,752,0
415416,400.81,693,751,0
415426,397.31,693,750,0
415436,394.13,693,751,0
415447,390.06,693,751,0
415457,386.74,693,751,0
415467,382.75,693,750,0
415477,379.40,693,751,0
415488,375.59,693,750,0
415497,373.36,693,752,0
415507,370.64,693,750,0
415517,369.33,693,752,0
415527,367.65,693,750,0
415537,367.11,693,751,0
415547,366.43,693,750,0
415557,366.56,693,752,0
415567,366.05,693,751,0
415577,366.42,693,751,0
415587,366.25,693,750,0
415597,367.42,693,752,0
415607,368.96,693,751,0
415617,372.40,693,752,0
415627,377.25,693,751,0
415637,385.02,693,752,0
415647,394.83,693,751,0
415657,408.17,693,752,0
415667,423.29,693,751,0
415677,441.12,693,752,0
415687,459.51,693,752,0
415697,478.94,693,753,0
415707,497.00,693,752,0
415717,514.10,693,752,0
415736,528.00,642,751,0
415739,539.14,642,753,0
415748,546.60,642,751,0
415758,551.52,642,752,0
415768,552.35,642,751,0
415778,551.26,642,752,0
415788,546.81,642,750,0
415798,540.74,642,752,0
415808,532.76,642,750,0
415818,523.62,642,752,0
415828,513.19,642,750,0
415838,502.93,642,751,0
415848,491.51,642,750,0
415858,480.86,642,751,0
415868,469.89,642,750,0
415878,460.02,642,751,0
415888,450.20,642,750,0
415898,441.40,642,752,0
415908,432.83,642,750,0
415918,425.90,642,751,0
415928,419.46,642,750,0
415938,414.82,642,752,0
415948,410.76,642,750,0
415959,408.65,642,752,0
415969,406.91,642,750,0
415979,406.59,642,752,0
415989,406.16,642,750,0
416000,406.84,642,752,0
416009,407.40,642,750,0
416019,408.35,642,752,0
416029,408.38,642,750,0
416039,408.26,642,752,0
416049,407.16,642,750,0
416059,406.08,642,752,0
416069,403.91,642,750,0
416079,401.58,642,752,0
416089,398.62,642,750,0
416099,395.91,642,752,0
416109,392.68,642,750,0
416119,389.90,642,751,0
416129,386.55,642,750,0
416139,383.73,642,752,0
416149,380.42,642,750,0
416159,377.64,642,752,0
416169,374.53,642,750,0
416179,372.32,642,752,0
416189,369.86,642,750,0
416199,368.23,642,751,0
416209,366.49,642,750,0
416219,365.53,642,752,0
416229,364.64,642,750,0
416239,364.32,642,751,0
416249,364.05,642,750,0
416259,364.59,642,752,0
416269,365.53,642,750,0
416279,368.24,642,752,0
416289,372.16,642,750,0
416300,378.28,642,752,0
416310,386.55,642,751,0
416320,397.49,642,752,0
416330,410.80,642,751,0
416340,426.93,642,753,0
416350,444.09,642,751,0
416360,462.88,642,753,0
416370,481.26,642,751,0
416380,498.97,642,753,0
416399,514.62,663,751,0
416402,527.51,663,752,0
416411,537.85,663,751,0
416421,545.05,663,752,0
416431,548.47,663,750,0
416441,548.84,663,752,0
416451,546.53,663,750,0
416461,541.74,663,752,0
416471,535.43,663,750,0
416481,526.56,663,752,0
416491,516.41,663,750,0
416501,505.44,663,752,0
416512,494.25,663,750,0
416521,482.82,663,752,0
416531,471.90,663,750,0
416541,461.35,663,752,0
416551,451.81,663,750,0
416561,443.77,663,754,0
416571,436.51,663,752,0
416581,430.10,663,754,0
416591,424.76,663,753,0
416601,420.67,663,754,0
416611,417.56,663,753,0
416621,415.25,663,754,0
416631,413.46,663,753,0
416641,412.72,663,754,0
416651,412.68,663,753,0
416661,412.94,663,754,0
416671,413.13,663,752,0
416681,413.31,663,751,0
416691,413.39,663,745,0
416701,413.06,663,747,0
416711,412.27,663,743,0
416721,411.37,663,746,0
416731,410.28,663,740,0
416741,409.64,663,741,0
416751,409.27,663,739,0
416761,408.46,663,741,0
416771,407.12,663,736,0
416781,404.82,663,741,0
416791,401.44,663,736,0
416801,397.02,663,740,0
416812,391.15,663,736,0
416822,382.96,663,752,0
416832,372.99,663,750,0
416842,362.36,663,754,0
416852,352.87,663,752,0
416862,344.55,663,754,0
416872,338.34,663,752,0
416882,333.87,663,753,0
416892,333.14,663,752,0
416902,335.50,663,753,0
416912,340.36,663,752,0
416922,346.17,663,753,0
416932,353.15,663,752,0
416942,360.39,663,753,0
416952,368.54,663,753,0
416962,376.87,663,753,0
416972,386.85,663,752,0
416983,398.21,663,754,0
416993,411.60,663,753,0
417003,426.16,663,753,0
417013,442.44,663,752,0
417024,459.20,663,753,0
417033,476.62,663,753,0
417043,493.06,663,753,0
417053,508.39,663,753,0
417063,521.26,663,753,0
417073,532.02,663,753,0
417083,539.26,663,753,0
417093,543.81,663,752,0
417103,544.64,663,753,0
417113,543.12,663,752,0
417123,538.71,663,753,0
417133,532.88,663,751,0
417143,525.03,663,752,0
417153,516.97,663,752,0
417163,508.02,663,753,0
417173,499.36,663,752,0
417183,490.16,663,752,0
417193,481.50,663,752,0
417203,472.44,663,753,0
417213,464.08,663,752,0
417223,455.53,663,752,0
417233,447.74,663,751,0
417243,440.19,663,752,0
417253,433.53,663,751,0
417263,427.03,663,751,0
417273,422.05,663,751,0
417283,417.58,663,752,0
417293,414.66,663,751,0
417303,412.02,663,751,0
417313,410.81,663,751,0
417324,409.80,663,751,0
417334,410.33,663,751,0
417344,410.23,663,751,0
417354,410.93,663,751,0
417364,410.52,663,751,0
417374,410.80,663,751,0
417384,409.66,663,751,0
417394,408.65,663,751,0
417404,406.14,663,751,0
417414,404.21,663,751,0
417424,401.28,663,751,0
417434,398.62,663,751,0
417444,394.79,663,751,0
417454,391.60,663,751,0
417464,388.20,663,751,0
417474,385.70,663,751,0
417484,382.36,663,751,0
417495,379.77,663,751,0
417505,377.01,663,751,0
417515,375.33,663,751,0
417525,373.18,663,751,0
417536,371.75,663,751,0
417545,369.90,663,751,0
417555,369.16,663,751,0
417565,367.70,663,751,0
417575,367.27,663,752,0
417585,366.16,663,751,0
417595,366.24,663,751,0
417605,365.91,663,751,0
417615,366.88,663,752,0
417625,367.82,663,751,0
417635,370.53,663,752,0
417645,373.71,663,751,0
417655,379.50,663,752,0
417665,386.59,663,751,0
417675,396.74,663,752,0
417685,408.43,663,752,0
417695,423.18,663,752,0
417705,439.37,663,751,0
417715,457.47,663,752,0
417725,475.29,663,752,0
417735,493.24,663,753,0
417755,509.07,0,751,0
417757,523.11,0,753,0
417767,534.05,0,751,0
417777,542.22,0,752,0
417787,546.70,0,751,0
417797,548.72,0,752,0
417807,547.30,0,751,0
417817,544.38,0,752,0
417827,539.08,0,750,0
417837,532.67,0,752,0
417847,524.76,0,751,0
417857,517.07,0,752,0
417867,508.39,0,750,0
417878,500.26,0,752,0
417887,491.44,0,750,0
417897,483.72,0,752,0
417907,476.09,0,750,0
417917,469.59,0,752,0
417927,462.94,0,750,0
417937,457.60,0,752,0
417947,452.58,0,750,0
417957,448.89,0,752,0
417967,445.41,0,751,0
417977,442.97,0,752,0
417987,440.84,0,750,0
417997,439.86,0,752,0
418007,438.96,0,751,0
418017,438.97,0,752,0
418027,438.72,0,750,0
418037,438.98,0,752,0
418048,438.60,0,750,0
418057,438.76,0,752,0
418067,437.76,0,750,0
418077,436.63,0,752,0
418087,434.43,0,750,0
418097,432.07,0,752,0
418107,428.66,0,750,0
418117,424.95,0,752,0
418127,420.12,0,750,0
418137,415.33,0,752,0
418147,409.74,0,750,0
418157,404.42,0,752,0
418167,398.68,0,750,0
418177,393.68,0,752,0
418187,388.63,0,750,0
418197,384.54,0,752,0
418207,380.44,0,750,0
418217,377.39,0,752,0
418227,374.27,0,750,0
418237,372.09,0,752,0
418247,370.01,0,750,0
418257,368.93,0,752,0
418267,367.80,0,750,0
418277,368.33,0,752,0
418287,369.99,0,750,0
418297,373.85,0,752,0
418307,379.42,0,751,0
418317,387.61,0,752,0
418327,397.80,0,751,0
418337,410.84,0,753,0
418348,425.46,0,751,0
418358,441.70,0,753,0
418368,458.16,0,751,0
418378,474.82,0,753,0
418388,489.96,0,751,0
418398,503.77,0,753,0
418408,514.56,0,751,0
418418,522.66,0,753,0
418428,527.31,0,751,0
418438,529.61,0,752,0
418448,528.57,0,750,0
418458,525.57,0,752,0
418468,519.91,0,750,0
418478,513.00,0,752,0
418488,504.60,0,750,0
418507,495.72,753,749,0
418510,485.82,753,750,0
418519,476.66,753,752,0
418529,467.12,753,750,0
418539,457.78,753,752,0
418549,448.38,753,750,0
418560,439.35,753,752,0
418569,430.67,753,750,0
418579,422.76,753,752,0
418589,414.99,753,750,0
418599,408.26,753,752,0
418609,403.04,753,750,0
418619,399.43,753,752,0
418629,397.24,753,750,0
418639,396.36,753,752,0
418649,396.46,753,750,0
418659,397.61,753,753,0
418669,399.23,753,750,0
418679,401.13,753,752,0
418689,402.81,753,750,0
418699,404.36,753,752,0
418709,405.45,753,750,0
418719,406.05,753,752,0
418729,405.90,753,750,0
418739,405.25,753,752,0
418749,403.76,753,750,0
418759,401.69,753,752,0
418769,399.04,753,750,0
418779,396.03,753,752,0
418789,392.68,753,750,0
418799,389.04,753,752,0
418809,385.35,753,750,0
418819,381.90,753,752,0
418829,378.80,753,750,0
418839,375.99,753,752,0
418849,373.46,753,750,0
418860,371.48,753,752,0
418870,369.84,753,750,0
418880,368.39,753,751,0
418890,367.33,753,750,0
418900,366.41,753,752,0
418910,365.95,753,750,0
418920,365.79,753,752,0
418930,366.15,753,750,0
418940,367.18,753,752,0
418950,369.40,753,750,0
418960,372.71,753,752,0
418970,378.07,753,751,0
418980,385.29,753,752,0
418990,395.06,753,751,0
419000,407.08,753,752,0
419010,421.72,753,751,0
419020,438.26,753,753,0
419031,456.44,753,752,0
419041,474.82,753,752,0
419051,493.13,753,752,0
419061,509.81,753,753,0
419081,524.52,573,750,0
419084,535.25,573,751,0
419093,543.58,573,751,0
419103,547.99,573,751,0
419113,549.71,573,751,0
419123,547.69,573,751,0
419133,543.37,573,751,0
419143,536.36,573,751,0
419153,528.84,573,751,0
419163,518.99,573,751,0
419173,508.88,573,751,0
419183,497.51,573,751,0
419193,486.69,573,751,0
419203,475.55,573,751,0
419213,465.57,573,751,0
419223,455.80,573,751,0
419233,447.25,573,751,0
419244,439.03,573,751,0
419254,432.16,573,751,0
419264,425.51,573,751,0
419274,420.43,573,751,0
419284,415.54,573,750,0
419294,412.08,573,751,0
419304,409.01,573,751,0
419314,407.47,573,751,0
419324,406.30,573,751,0
419334,406.72,573,751,0
419344,407.11,573,751,0
419354,408.40,573,751,0
419364,409.01,573,750,0
419374,410.21,573,751,0
419384,410.36,573,751,0
419394,410.72,573,751,0
419404,409.86,573,751,0
419415,408.96,573,752,0
419425,406.92,573,751,0
419435,405.10,573,752,0
419445,402.11,573,750,0
419456,399.34,573,752,0
419465,395.76,573,750,0
419475,392.58,573,752,0
419485,388.80,573,750,0
419495,385.69,573,752,0
419505,382.36,573,751,0
419515,380.02,573,752,0
419525,377.31,573,750,0
419535,375.33,573,752,0
419545,373.01,573,751,0
419555,371.85,573,752,0
419565,370.18,573,750,0
419575,368.92,573,751,0
419585,367.06,573,750,0
419595,366.27,573,752,0
419605,365.42,573,751,0
419615,365.94,573,752,0
419625,366.68,573,751,0
419635,369.35,573,752,0
419645,373.53,573,751,0
419655,380.23,573,752,0
419665,388.56,573,751,0
419675,399.71,573,752,0
419685,412.52,573,751,0
419695,427.88,573,752,0
419705,444.54,573,751,0
419715,462.81,573,753,0
419725,480.82,573,751,0
419735,498.75,573,752,0
419745,514.55,573,751,0
419765,528.92,685,749,0
419768,539.53,685,752,0
419777,547.68,685,752,0
419787,551.76,685,750,0
419798,553.08,685,752,0
419807,550.87,685,750,0
419817,546.84,685,752,0
419827,539.94,685,750,0
419837,532.25,685,752,0
419847,522.61,685,750,0
419857,513.04,685,752,0
419867,502.70,685,750,0
419877,492.85,685,752,0
419887,482.78,685,750,0
419897,473.33,685,751,0
419907,464.10,685,750,0
419917,455.59,685,752,0
419927,447.05,685,750,0
419937,439.58,685,751,0
419947,432.59,685,750,0
419957,426.84,685,752,0
419968,421.96,685,750,0
419977,418.33,685,752,0
419987,415.66,685,750,0
419997,414.22,685,752,0
420007,413.47,685,750,0
420017,413.71,685,752,0
420027,414.01,685,750,0
420037,414.91,685,752,0
420047,415.71,685,750,0
420057,416.74,685,752,0
420067,417.07,685,750,0
420077,416.92,685,752,0
420087,415.92,685,750,0
420097,414.44,685,752,0
420107,411.95,685,750,0
420117,408.88,685,752,0
420127,405.23,685,750,0
420137,401.52,685,752,0
420147,397.63,685,750,0
420157,393.89,685,752,0
420167,390.02,685,750,0
420177,386.63,685,752,0
420187,383.27,685,750,0
420197,380.40,685,752,0
420207,377.62,685,750,0
420217,375.38,685,752,0
420227,373.17,685,750,0
420237,371.53,685,752,0
420247,370.09,685,750,0
420257,368.99,685,752,0
420268,367.71,685,750,0
420278,366.72,685,752,0
420288,365.99,685,750,0
420298,365.48,685,752,0
420308,365.46,685,750,0
420318,365.75,685,752,0
420328,366.51,685,750,0
420338,368.07,685,752,0
420348,370.88,685,750,0
420358,375.03,685,753,0
420368,381.24,685,750,0
420378,389.56,685,753,0
420388,400.37,685,751,0
420398,414.06,685,753,0
420408,429.94,685,751,0
420418,447.74,685,753,0
420428,466.55,685,751,0
420439,485.84,685,753,0
420449,504.10,685,751,0
420468,520.79,703,749,0
420471,534.52,703,754,0
420481,545.64,703,752,0
420491,553.29,703,751,0
420501,557.23,703,752,0
420511,557.50,703,751,0
420521,554.61,703,752,0
420531,549.16,703,751,0
420541,541.48,703,752,0
420551,532.12,703,750,0
420561,521.37,703,751,0
420571,510.55,703,750,0
420581,499.20,703,751,0
420591,488.38,703,750,0
420601,477.29,703,751,0
420611,467.22,703,750,0
420621,457.25,703,751,0
420631,448.39,703,750,0
420641,439.75,703,751,0
420652,432.67,703,751,0
420662,426.08,703,751,0
420672,421.68,703,751,0
420682,417.92,703,751,0
420692,416.23,703,751,0
420702,415.00,703,751,0
420712,415.47,703,751,0
420722,416.02,703,751,0
420732,417.73,703,751,0
420742,418.92,703,752,0
420752,420.83,703,750,0
420762,422.04,703,752,0
420772,423.48,703,751,0
420782,423.94,703,752,0
420792,424.77,703,750,0
420802,424.41,703,751,0
420812,423.99,703,751,0
420823,422.32,703,751,0
420833,420.47,703,751,0
420843,417.84,703,751,0
420853,415.40,703,752,0
420864,411.94,703,751,0
420873,409.13,703,751,0
420883,405.66,703,751,0
420893,402.98,703,752,0
420903,399.73,703,751,0
420913,397.19,703,751,0
420923,394.01,703,751,0
420933,391.56,703,751,0
420943,388.39,703,750,0
420953,385.96,703,751,0
420963,382.89,703,751,0
420973,380.56,703,751,0
420983,377.52,703,750,0
420993,375.39,703,751,0
421003,372.92,703,751,0
421013,371.79,703,752,0
421023,371.08,703,751,0
421033,372.43,703,751,0
421043,375.17,703,751,0
421053,380.90,703,752,0
421063,388.48,703,751,0
421073,399.35,703,752,0
421083,411.89,703,751,0
421093,427.52,703,753,0
421103,443.95,703,751,0
421113,461.49,703,752,0
421123,478.15,703,752,0
421133,494.43,703,752,0
421143,508.32,703,752,0
421153,520.31,703,752,0
421164,528.01,703,751,0
421183,533.20,715,749,0
421186,534.29,715,751,0
421195,533.39,715,752,0
421206,529.20,715,750,0
421215,523.36,715,752,0
421225,515.28,715,750,0
421235,506.92,715,752,0
421245,497.35,715,750,0
421255,488.29,715,751,0
421265,478.21,715,750,0
421275,468.85,715,752,0
421285,459.12,715,750,0
421295,450.47,715,752,0
421305,441.72,715,750,0
421315,434.04,715,752,0
421325,426.57,715,750,0
421335,420.74,715,752,0
421345,415.34,715,751,0
421355,411.81,715,752,0
421365,408.78,715,750,0
421376,407.56,715,752,0
421385,406.75,715,751,0
421395,407.30,715,752,0
421405,408.02,715,751,0
421415,409.77,715,752,0
421425,411.08,715,751,0
421435,412.90,715,752,0
421445,414.09,715,750,0
421455,415.48,715,752,0
421465,416.19,715,751,0
421475,416.69,715,752,0
421485,416.27,715,750,0
421495,415.97,715,752,0
421505,415.17,715,752,0
421515,414.17,715,752,0
421525,412.28,715,750,0
421535,410.22,715,752,0
421545,407.46,715,750,0
421555,405.22,715,752,0
421565,402.07,715,750,0
421575,399.00,715,752,0
421585,395.49,715,750,0
421595,392.86,715,752,0
421605,390.03,715,750,0
421615,387.96,715,752,0
421625,385.45,715,750,0
421635,383.94,715,752,0
421645,382.29,715,750,0
421655,381.34,715,752,0
421665,379.95,715,750,0
421676,379.37,715,752,0
421686,378.66,715,750,0
421696,378.93,715,752,0
421706,379.60,715,750,0
421716,381.77,715,752,0
421726,385.18,715,750,0
421736,390.83,715,752,0
421746,398.12,715,751,0
421756,408.07,715,753,0
421766,419.75,715,751,0
421776,433.93,715,753,0
421786,449.29,715,751,0
421796,465.75,715,753,0
421806,482.19,715,751,0
421816,498.21,715,753,0
421835,512.50,652,751,0
421838,524.52,652,754,0
421847,533.88,652,750,0
421857,540.82,652,753,0
421867,544.86,652,751,0
421877,546.10,652,752,0
421888,544.78,652,750,0
421897,541.42,652,752,0
421907,536.97,652,751,0
421917,530.63,652,752,0
421927,522.99,652,750,0
421937,514.46,652,752,0
421947,505.37,652,750,0
421957,496.26,652,752,0
421967,487.01,652,750,0
421977,477.71,652,752,0
421987,468.71,652,750,0
421997,460.10,652,752,0
422007,451.88,652,750,0
422017,444.55,652,752,0
422027,437.61,652,750,0
422037,431.60,652,752,0
422047,426.36,652,750,0
422057,422.10,652,752,0
422067,418.90,652,750,0
422077,416.66,652,752,0
422087,415.34,652,750,0
422097,414.60,652,752,0
422107,414.46,652,750,0
422117,414.62,652,752,0
422127,414.74,652,750,0
422137,414.43,652,752,0
422147,413.83,652,750,0
422157,412.94,652,752,0
422167,411.67,652,750,0
422177,409.93,652,752,0
422188,407.63,652,750,0
422198,405.00,652,752,0
422208,402.17,652,750,0
422218,398.95,652,752,0
422228,395.45,652,751,0
422238,391.93,652,752,0
422248,388.39,652,750,0
422258,384.98,652,752,0
422268,382.07,652,750,0
422278,379.31,652,752,0
422288,377.29,652,750,0
422298,375.19,652,752,0
422308,373.80,652,751,0
422318,372.45,652,752,0
422328,371.67,652,750,0
422338,370.74,652,752,0
422348,370.39,652,751,0
422359,369.80,652,752,0
422369,369.90,652,751,0
422379,369.80,652,752,0
422389,370.76,652,751,0
422400,372.08,652,752,0
422409,375.10,652,751,0
422419,379.35,652,752,0
422429,385.93,652,751,0
422439,394.52,652,752,0
422449,405.77,652,751,0
422459,419.12,652,752,0
422469,435.11,652,752,0
422479,452.09,652,752,0
422489,470.19,652,752,0
422499,487.92,652,752,0
422509,505.26,652,752,0
422529,520.52,693,750,0
422532,533.40,693,753,0
422541,543.31,693,752,0
422551,550.54,693,752,0
422561,553.81,693,751,0
422572,554.42,693,752,0
422582,551.34,693,751,0
422592,546.44,693,752,0
422602,539.15,693,751,0
422612,530.28,693,752,0
422622,519.74,693,751,0
422632,509.49,693,752,0
422642,498.20,693,750,0
422652,487.42,693,751,0
422662,476.20,693,750,0
422672,465.98,693,751,0
422682,455.74,693,751,0
422692,446.82,693,751,0
422702,438.00,693,750,0
422712,430.84,693,751,0
422722,424.29,693,751,0
422732,419.62,693,752,0
422743,415.66,693,750,0
422753,413.53,693,752,0
422763,411.79,693,751,0
422773,411.55,693,752,0
422784,411.81,693,750,0
422793,413.20,693,752,0
422803,414.13,693,751,0
422813,415.50,693,752,0
422823,416.47,693,750,0
422833,417.74,693,752,0
422843,417.82,693,751,0
422853,417.62,693,752,0
422863,416.15,693,750,0
422873,415.03,693,752,0
422883,412.71,693,751,0
422893,410.22,693,752,0
422903,406.64,693,750,0
422913,403.75,693,752,0
422923,400.14,693,751,0
422933,396.84,693,752,0
422943,392.60,693,750,0
422953,388.95,693,752,0
422963,384.89,693,751,0
422973,381.58,693,752,0
422983,377.64,693,750,0
422993,374.49,693,752,0
423003,371.43,693,751,0
423013,369.37,693,752,0
423023,367.20,693,750,0
423033,366.16,693,752,0
423043,365.21,693,751,0
423053,365.87,693,752,0
423063,367.20,693,751,0
423073,370.70,693,752,0
423084,375.67,693,751,0
423094,384.00,693,753,0
423104,394.11,693,751,0
423114,407.75,693,753,0
423124,423.30,693,751,0
423134,441.47,693,753,0
423144,460.40,693,751,0
423154,480.34,693,753,0
423164,498.88,693,751,0
423174,516.83,693,753,0
423184,531.67,693,751,0
423194,543.55,693,752,0
423214,551.36,685,751,0
423217,555.24,685,754,0
423226,555.68,685,750,0
423236,553.85,685,753,0
423246,548.58,685,750,0
423256,541.89,685,753,0
423266,533.39,685,750,0
423276,523.72,685,752,0
423286,513.82,685,750,0
423297,502.99,685,752,0
423307,491.42,685,750,0
423317,480.06,685,752,0
423327,468.86,685,750,0
423337,458.14,685,752,0
423347,448.54,685,750,0
423357,439.60,685,752,0
423367,431.79,685,750,0
423377,424.82,685,752,0
423387,419.43,685,750,0
423397,414.97,685,752,0
423407,411.85,685,750,0
423417,409.45,685,752,0
423427,408.20,685,750,0
423437,407.93,685,752,0
423447,408.64,685,750,0
423457,409.35,685,752,0
423468,410.36,685,750,0
423478,411.32,685,752,0
423488,412.64,685,751,0
423498,413.43,685,752,0
423508,413.90,685,751,0
423518,413.63,685,752,0
423528,413.06,685,751,0
