Time,PPG,IBI,GSR,GSR_Event
26256,656.97,703,739,0
26266,673.74,703,741,0
26276,683.03,703,739,0
26286,686.36,703,741,0
26296,686.08,703,739,0
26306,681.30,703,741,0
26316,672.34,703,739,0
26327,661.61,703,741,0
26337,650.97,703,739,0
26347,639.06,703,741,0
26357,624.86,703,739,0
26368,609.09,703,741,0
26377,591.19,703,739,0
26387,572.15,703,741,0
26397,551.79,703,739,0
26407,530.98,703,740,0
26417,510.07,703,739,0
26427,489.91,703,741,0
26437,470.78,703,739,0
26447,453.32,703,741,0
26457,437.62,703,739,0
26467,424.45,703,741,0
26477,413.77,703,739,0
26487,405.57,703,741,0
26497,399.53,703,739,0
26507,395.47,703,741,0
26517,393.10,703,739,0
26527,392.04,703,741,0
26537,391.81,703,739,0
26547,392.21,703,741,0
26557,392.66,703,738,0
26567,393.24,703,741,0
26577,393.51,703,739,0
26587,393.57,703,741,0
26597,392.97,703,738,0
26607,391.82,703,741,0
26617,390.38,703,739,0
26627,388.81,703,741,0
26637,386.64,703,738,0
26647,383.87,703,741,0
26657,380.61,703,739,0
26668,377.34,703,740,0
26678,374.33,703,739,0
26688,371.14,703,741,0
26698,367.89,703,739,0
26708,364.88,703,741,0
26718,362.73,703,739,0
26728,360.97,703,741,0
26738,359.48,703,739,0
26748,358.18,703,740,0
26758,357.10,703,739,0
26768,356.00,703,741,0
26778,355.10,703,739,0
26788,353.87,703,740,0
26798,352.96,703,739,0
26808,352.25,703,741,0
26818,351.57,703,739,0
26828,351.06,703,741,0
26839,351.90,703,739,0
26849,353.21,703,740,0
26859,356.15,703,740,0
26869,360.60,703,740,0
26880,368.05,703,739,0
26889,378.75,703,740,0
26899,393.78,703,740,0
26909,411.98,703,740,0
26919,434.61,703,739,0
26929,459.84,703,740,0
26939,487.15,703,739,0
26958,514.19,733,740,0
26961,541.99,733,742,0
26970,567.62,733,742,0
26980,589.72,733,741,0
26990,605.70,733,742,0
27000,615.78,733,741,0
27010,619.23,733,742,0
27020,617.19,733,741,0
27030,607.66,733,741,0
27040,593.06,733,741,0
27051,574.74,733,741,0
27060,555.32,733,741,0
27070,535.47,733,742,0
27080,516.77,733,741,0
27090,499.18,733,741,0
27100,483.83,733,741,0
27110,469.65,733,742,0
27120,457.58,733,741,0
27130,446.61,733,741,0
27140,437.47,733,741,0
27150,429.10,733,742,0
27160,422.34,733,741,0
27170,416.24,733,741,0
27180,411.88,733,741,0
27190,408.10,733,742,0
27200,405.97,733,741,0
27210,404.18,733,741,0
27220,403.83,733,741,0
27230,403.49,733,742,0
27240,403.99,733,741,0
27250,404.12,733,741,0
27260,404.90,733,741,0
27270,405.06,733,742,0
27280,405.47,733,741,0
27290,404.94,733,741,0
27300,404.40,733,741,0
27310,403.00,733,742,0
27320,401.80,733,741,0
27330,399.54,733,741,0
27340,397.37,733,741,0
27351,394.34,733,741,0
27361,391.58,733,741,0
27371,388.15,733,741,0
27381,385.23,733,741,0
27392,381.69,733,741,0
27401,379.04,733,741,0
27411,376.16,733,741,0
27421,373.97,733,742,0
27431,371.36,733,741,0
27441,369.45,733,741,0
27451,367.13,733,741,0
27461,365.64,733,742,0
27471,363.64,733,741,0
27481,362.34,733,741,0
27491,360.82,733,741,0
27501,360.23,733,742,0
27511,359.43,733,741,0
27521,359.69,733,741,0
27531,359.44,733,741,0
27541,359.99,733,742,0
27551,360.00,733,741,0
27561,360.60,733,742,0
27571,360.80,733,741,0
27581,362.06,733,741,0
27591,363.72,733,741,0
27601,367.53,733,742,0
27611,372.60,733,740,0
27621,380.91,733,741,0
27631,391.65,733,741,0
27641,406.11,733,741,0
27651,423.05,733,741,0
27661,442.49,733,741,0
27671,462.66,733,741,0
27681,483.68,733,742,0
27701,503.02,743,740,0
27703,520.41,743,742,0
27713,534.22,743,740,0
27723,544.69,743,742,0
27734,550.40,743,740,0
27743,552.55,743,742,0
27753,550.50,743,740,0
27763,546.06,743,742,0
27773,539.15,743,740,0
27783,531.26,743,742,0
27793,521.71,743,740,0
27803,512.15,743,742,0
27813,501.95,743,740,0
27823,492.58,743,742,0
27833,483.06,743,740,0
27843,474.39,743,742,0
27853,465.31,743,740,0
27863,457.51,743,742,0
27873,449.94,743,740,0
27883,443.70,743,742,0
27893,437.49,743,740,0
27904,432.37,743,742,0
27913,427.59,743,740,0
27923,424.28,743,742,0
27933,421.20,743,740,0
27943,419.42,743,742,0
27953,417.84,743,740,0
27963,417.67,743,742,0
27973,417.47,743,740,0
27983,418.44,743,742,0
27993,418.74,743,740,0
28003,419.12,743,742,0
28013,418.61,743,740,0
28023,418.26,743,742,0
28033,416.81,743,740,0
28043,415.45,743,742,0
28053,412.79,743,740,0
28063,410.32,743,742,0
28073,407.53,743,740,0
28083,405.05,743,742,0
28093,402.04,743,740,0
28103,399.24,743,741,0
28113,396.04,743,740,0
28123,393.24,743,741,0
28133,390.17,743,740,0
28143,387.55,743,741,0
28153,384.77,743,740,0
28163,382.65,743,741,0
28173,380.40,743,740,0
28183,378.87,743,741,0
28193,376.85,743,740,0
28204,374.84,743,742,0
28214,368.46,743,733,0
28224,362.36,743,739,0
28234,357.03,743,737,0
28244,353.20,743,738,0
28254,352.59,743,738,0
28264,355.20,743,739,0
28274,358.44,743,735,0
28284,368.33,743,740,0
28294,380.11,743,738,0
28304,391.26,743,739,0
28314,401.47,743,738,0
28324,408.01,743,738,0
28334,413.07,743,738,0
28344,419.77,743,739,0
28354,425.50,743,737,0
28364,430.15,743,738,0
28375,437.09,743,737,0
28385,447.61,743,740,0
28395,461.78,743,738,0
28405,477.28,743,740,0
28416,492.15,743,738,0
28425,506.38,743,740,0
28435,519.63,743,738,0
28454,529.43,753,736,0
28456,533.37,753,739,0
28466,532.15,753,739,0
28476,524.39,753,735,0
28486,515.53,753,739,0
28496,507.40,753,738,0
28506,499.61,753,739,0
28516,492.48,753,737,0
28526,486.98,753,739,0
28536,482.36,753,737,0
28546,480.41,753,738,0
28556,477.54,753,738,0
28566,472.41,753,739,0
28576,466.41,753,738,0
28587,459.52,753,739,0
28596,451.99,753,737,0
28606,444.15,753,739,0
28616,436.82,753,734,0
28626,429.67,753,739,0
28636,423.43,753,738,0
28646,417.86,753,739,0
28656,413.01,753,736,0
28666,409.02,753,737,0
28676,406.79,753,736,0
28686,407.02,753,740,0
28696,409.24,753,738,0
28706,410.67,753,738,0
28716,413.00,753,737,0
28726,416.08,753,736,0
28736,418.89,753,737,0
28746,420.42,753,737,0
28756,419.27,753,733,0
28766,417.13,753,739,0
28776,415.98,753,737,0
28786,413.07,753,737,0
28796,409.49,753,737,0
28806,405.32,753,737,0
28816,402.52,753,737,0
28826,402.19,753,739,0
28836,401.71,753,738,0
28846,400.47,753,739,0
28856,399.21,753,738,0
28866,396.75,753,739,0
28876,392.92,753,736,0
28887,385.02,753,737,0
28897,375.33,753,738,0
28907,364.77,753,736,0
28917,358.20,753,738,0
28928,353.00,753,737,0
28937,348.37,753,734,0
28947,348.13,753,741,0
28957,355.33,753,739,0
28967,365.22,753,742,0
28977,380.28,753,741,0
28987,386.88,753,737,0
28997,389.32,753,737,0
29007,390.81,753,739,0
29017,389.71,753,738,0
29027,387.65,753,740,0
29037,386.34,753,739,0
29047,382.85,753,740,0
29057,386.03,753,738,0
29067,394.85,753,740,0
29077,407.96,753,738,0
29087,424.22,753,740,0
29097,439.50,753,738,0
29107,451.86,753,736,0
29117,464.85,753,738,0
29127,476.98,753,736,0
29137,489.80,753,738,0
29147,504.30,753,741,0
29157,519.85,753,739,0
29167,534.60,753,741,0
29177,549.29,753,740,0
29196,559.62,742,739,0
29198,566.93,742,741,0
29208,569.35,742,741,0
29218,565.69,742,740,0
29228,555.58,742,741,0
29238,541.78,742,740,0
29248,525.47,742,741,0
29258,508.83,742,740,0
29268,492.43,742,741,0
29278,477.30,742,740,0
29288,462.94,742,741,0
29298,450.96,742,741,0
29308,440.51,742,741,0
29318,432.39,742,740,0
29328,425.54,742,741,0
29338,420.79,742,741,0
29348,416.87,742,741,0
29358,414.55,742,740,0
29368,412.76,742,741,0
29378,412.40,742,741,0
29388,412.32,742,741,0
29399,413.34,742,741,0
29409,414.10,742,741,0
29419,416.04,742,742,0
29429,417.40,742,741,0
29440,419.55,742,742,0
29449,421.96,742,742,0
29459,425.66,742,743,0
29469,428.24,742,743,0
29479,430.10,742,743,0
29489,430.58,742,744,0
29499,429.47,742,743,0
29509,425.38,742,742,0
29519,419.40,742,742,0
29529,410.75,742,743,0
29539,402.94,742,744,0
29549,394.69,742,743,0
29559,387.07,742,743,0
29569,380.15,742,743,0
29579,374.96,742,743,0
29589,371.20,742,743,0
29599,368.31,742,742,0
29609,365.95,742,743,0
29619,366.22,742,744,0
29629,364.83,742,742,0
29639,364.11,742,742,0
29649,363.47,742,742,0
29659,365.22,742,744,0
29669,368.37,742,744,0
29679,371.13,742,744,0
29689,371.78,742,744,0
29699,371.84,742,742,0
29709,370.48,742,742,0
29719,368.83,742,742,0
29729,364.04,742,742,0
29740,359.14,742,743,0
29750,354.86,742,741,0
29760,353.53,742,741,0
29770,356.71,742,741,0
29780,364.86,742,743,0
29790,376.51,742,741,0
29800,392.47,742,742,0
29810,410.89,742,741,0
29820,432.31,742,743,0
29830,455.06,742,742,0
29840,478.18,742,742,0
29850,499.64,742,741,0
29860,519.59,742,743,0
29879,535.79,683,741,0
29881,548.45,683,743,0
29891,556.24,683,740,0
29901,559.81,683,742,0
29911,559.31,683,741,0
29921,557.50,683,742,0
29931,552.90,683,741,0
29941,546.50,683,742,0
29952,538.55,683,741,0
29961,530.33,683,743,0
29971,522.90,683,742,0
29981,514.10,683,742,0
29991,502.50,683,740,0
30001,491.51,683,743,0
30011,481.50,683,742,0
30021,473.51,683,744,0
30031,467.74,683,744,0
30041,462.85,683,746,0
30051,460.24,683,744,0
30061,459.86,683,746,0
30071,458.75,683,744,0
30081,457.02,683,746,0
30091,453.03,683,744,0
30101,446.51,683,746,0
30111,437.53,683,744,0
30121,428.20,683,746,0
30131,418.45,683,744,0
30141,410.17,683,746,0
30151,402.92,683,745,0
30161,397.85,683,746,0
30171,393.99,683,744,0
30181,392.15,683,746,0
30191,390.91,683,744,0
30201,391.11,683,746,0
30211,391.25,683,744,0
30221,392.03,683,746,0
30231,392.32,683,744,0
30241,393.00,683,746,0
30252,392.74,683,744,0
30262,392.52,683,746,0
30272,391.16,683,744,0
30282,389.83,683,746,0
30292,387.82,683,744,0
30302,386.12,683,746,0
30312,383.77,683,744,0
30322,382.00,683,746,0
30332,379.73,683,743,0
30342,377.79,683,746,0
30352,375.37,683,744,0
30362,373.24,683,746,0
30372,370.94,683,743,0
30382,369.29,683,746,0
30392,367.62,683,744,0
30402,366.83,683,746,0
30412,366.37,683,743,0
30423,366.94,683,746,0
30433,367.52,683,743,0
30443,368.48,683,746,0
30453,369.19,683,743,0
30464,369.78,683,746,0
30473,370.06,683,743,0
30483,370.60,683,746,0
30493,371.32,683,743,0
30503,373.07,683,746,0
30513,375.92,683,743,0
30523,380.79,683,745,0
30533,387.71,683,742,0
30543,396.37,683,744,0
30553,405.56,683,741,0
30563,416.96,683,744,0
30573,431.54,683,741,0
30583,448.14,683,744,0
30602,467.94,723,740,0
30605,487.41,723,743,0
30614,509.23,723,742,0
30624,531.79,723,745,0
30635,550.88,723,743,0
30644,562.40,723,743,0
30654,568.50,723,741,0
30664,568.22,723,744,0
30674,562.37,723,740,0
30684,548.93,723,740,0
30694,535.58,723,742,0
30704,524.43,723,745,0
30714,516.59,723,743,0
30724,510.03,723,745,0
30734,502.90,723,743,0
30744,497.70,723,745,0
30754,494.71,723,743,0
30764,488.54,723,746,0
30774,479.16,723,743,0
30784,467.71,723,745,0
30794,455.59,723,743,0
30804,444.05,723,745,0
30814,433.75,723,743,0
30824,424.23,723,745,0
30834,415.80,723,743,0
30844,408.83,723,745,0
30854,404.43,723,743,0
30864,402.37,723,745,0
30874,402.22,723,744,0
30884,403.22,723,746,0
30894,405.00,723,743,0
30904,407.14,723,745,0
30914,409.28,723,743,0
30924,410.61,723,746,0
30935,410.64,723,743,0
30945,409.38,723,745,0
30955,407.47,723,743,0
30965,404.93,723,745,0
30976,402.72,723,744,0
30985,400.62,723,745,0
30995,399.06,723,744,0
31005,397.41,723,745,0
31015,395.88,723,744,0
31025,393.98,723,745,0
31035,392.66,723,744,0
31045,390.66,723,746,0
31055,388.79,723,744,0
31065,386.58,723,746,0
31075,384.65,723,744,0
31085,382.14,723,745,0
31095,379.66,723,744,0
31105,376.29,723,745,0
31115,373.03,723,744,0
31125,369.29,723,745,0
31135,365.65,723,744,0
31145,361.94,723,744,0
31155,359.51,723,743,0
31165,357.43,723,745,0
31175,356.32,723,743,0
31185,355.45,723,744,0
31195,356.69,723,743,0
31205,359.35,723,746,0
31215,363.92,723,744,0
31225,368.96,723,745,0
31235,375.83,723,744,0
31245,383.85,723,746,0
31255,393.92,723,744,0
31265,404.15,723,745,0
31276,415.67,723,744,0
31286,428.50,723,745,0
31296,443.61,723,744,0
31306,459.45,723,744,0
31316,476.72,723,744,0
31326,493.22,723,745,0
31345,509.35,743,744,0
31347,523.00,743,744,0
31357,534.62,743,745,0
31367,542.45,743,745,0
31377,547.54,743,745,0
31387,548.19,743,744,0
31397,546.21,743,745,0
31407,540.96,743,745,0
31417,534.16,743,744,0
31427,524.77,743,744,0
31437,514.94,743,744,0
31447,504.33,743,745,0
31457,494.80,743,745,0
31467,485.22,743,745,0
31477,476.75,743,745,0
31488,468.17,743,745,0
31497,460.58,743,745,0
31507,452.69,743,745,0
31517,445.37,743,745,0
31527,437.37,743,745,0
31537,430.45,743,745,0
31547,423.54,743,745,0
31557,418.32,743,745,0
31567,413.85,743,745,0
31577,411.33,743,745,0
31587,409.47,743,745,0
31597,409.54,743,745,0
31607,409.94,743,745,0
31617,411.71,743,745,0
31627,413.34,743,745,0
31637,415.64,743,745,0
31647,416.78,743,745,0
31657,417.79,743,745,0
31667,417.64,743,745,0
31677,417.62,743,744,0
31687,416.49,743,745,0
31697,415.61,743,745,0
31707,413.72,743,745,0
31717,412.60,743,744,0
31727,411.09,743,745,0
31737,410.21,743,745,0
31747,408.73,743,745,0
31757,407.61,743,744,0
31767,405.59,743,745,0
31777,403.78,743,745,0
31788,401.06,743,744,0
31798,398.64,743,745,0
31808,395.36,743,744,0
31818,392.85,743,746,0
31828,389.94,743,744,0
31838,388.12,743,745,0
31848,386.24,743,745,0
31858,385.35,743,746,0
31868,384.09,743,745,0
31878,383.51,743,746,0
31888,381.85,743,745,0
31898,380.65,743,746,0
31908,378.36,743,745,0
31918,376.49,743,746,0
31928,373.82,743,745,0
31938,371.69,743,746,0
31948,369.08,743,745,0
31959,367.56,743,746,0
31969,366.36,743,744,0
31979,367.41,743,746,0
31989,369.47,743,744,0
32000,374.90,743,746,0
32009,382.77,743,745,0
32019,394.58,743,746,0
32029,409.45,743,745,0
32039,428.09,743,746,0
32049,448.42,743,745,0
32059,470.79,743,746,0
32078,492.50,733,745,0
32080,513.48,733,746,0
32090,532.45,733,745,0
32100,548.69,733,747,0
32110,560.27,733,745,0
32120,567.69,733,746,0
32130,570.52,733,745,0
32140,569.77,733,746,0
32150,565.04,733,744,0
32160,557.27,733,746,0
32171,547.12,733,744,0
32180,536.62,733,746,0
32190,525.72,733,744,0
32200,515.43,733,746,0
32210,505.32,733,744,0
32220,496.87,733,746,0
32230,488.93,733,744,0
32240,482.18,733,746,0
32250,475.36,733,744,0
32260,469.12,733,746,0
32270,462.44,733,744,0
32280,456.31,733,746,0
32290,449.66,733,744,0
32300,443.50,733,746,0
32310,437.05,733,744,0
32320,431.34,733,746,0
32330,425.79,733,744,0
32340,421.36,733,747,0
32350,417.35,733,744,0
32360,414.54,733,746,0
32370,411.94,733,744,0
32380,410.37,733,747,0
32390,408.80,733,744,0
32400,407.96,733,746,0
32410,406.94,733,744,0
32420,406.28,733,747,0
32430,405.16,733,745,0
32440,404.39,733,746,0
32450,403.11,733,744,0
32460,401.88,733,747,0
32471,399.82,733,744,0
32481,397.60,733,746,0
32491,394.93,733,744,0
32501,392.38,733,747,0
32512,389.48,733,744,0
32521,386.68,733,746,0
32531,383.82,733,744,0
32541,381.39,733,746,0
32551,379.09,733,744,0
32561,377.13,733,746,0
32571,374.99,733,744,0
32581,373.19,733,746,0
32591,371.29,733,744,0
32601,370.01,733,746,0
32611,368.76,733,744,0
32621,367.98,733,746,0
32631,367.21,733,744,0
32641,366.72,733,746,0
32651,366.12,733,744,0
32661,365.87,733,746,0
32671,365.22,733,744,0
32681,365.11,733,746,0
32691,365.25,733,744,0
32701,366.03,733,746,0
32711,367.01,733,744,0
32721,368.29,733,747,0
32731,370.00,733,744,0
32741,372.66,733,746,0
32751,376.23,733,744,0
32761,381.39,733,746,0
32771,388.43,733,744,0
32781,398.72,733,746,0
32791,412.00,733,744,0
32801,428.16,733,746,0
32812,446.45,733,743,0
32822,466.07,733,746,0
32841,485.72,763,745,0
32843,504.19,763,746,0
32854,520.93,763,744,0
32863,534.75,763,746,0
32873,544.77,763,744,0
32883,550.88,763,747,0
32893,552.93,763,744,0
32903,551.07,763,746,0
32913,546.12,763,744,0
32923,537.64,763,746,0
32933,527.68,763,744,0
32943,516.50,763,746,0
32953,504.82,763,744,0
32963,493.09,763,747,0
32973,482.22,763,744,0
32983,472.08,763,746,0
32993,462.93,763,744,0
33003,453.91,763,747,0
33013,445.71,763,744,0
33024,437.91,763,746,0
33033,431.34,763,745,0
33043,425.41,763,747,0
33053,420.78,763,744,0
33063,417.08,763,746,0
33073,414.65,763,745,0
33083,413.22,763,747,0
33093,413.32,763,744,0
33103,413.87,763,747,0
33113,415.07,763,745,0
33123,416.07,763,747,0
33133,417.21,763,745,0
33143,417.87,763,747,0
33153,418.38,763,745,0
33163,418.14,763,747,0
33173,417.46,763,745,0
33183,415.99,763,747,0
33193,414.11,763,745,0
33203,411.46,763,747,0
33213,408.67,763,745,0
33223,405.17,763,747,0
33233,401.43,763,745,0
33243,397.32,763,747,0
33253,393.24,763,745,0
33263,389.01,763,747,0
33273,385.28,763,745,0
33283,381.59,763,747,0
33293,378.67,763,745,0
33303,375.94,763,747,0
33313,373.99,763,745,0
33324,372.32,763,747,0
33334,371.37,763,745,0
33344,370.36,763,747,0
33354,370.08,763,746,0
33364,369.45,763,747,0
33374,369.28,763,745,0
33384,368.72,763,746,0
33394,368.42,763,745,0
33404,367.69,763,746,0
33414,367.40,763,745,0
33424,366.64,763,746,0
33434,366.45,763,746,0
33444,365.80,763,747,0
33454,365.56,763,745,0
33464,365.09,763,746,0
33474,365.36,763,745,0
33484,365.64,763,746,0
33495,367.33,763,745,0
33505,369.89,763,746,0
33515,374.90,763,746,0
33525,381.96,763,746,0
33536,392.30,763,746,0
33545,405.02,763,746,0
33555,421.13,763,746,0
33565,438.88,763,746,0
33575,458.71,763,746,0
33594,478.56,753,744,0
33597,498.62,753,747,0
33606,516.86,753,746,0
33616,533.23,753,747,0
33626,545.46,753,746,0
33636,554.24,753,746,0
33646,558.07,753,746,0
33656,558.22,753,746,0
33666,553.78,753,745,0
33676,546.52,753,746,0
33686,536.25,753,746,0
33696,525.33,753,746,0
33707,513.27,753,745,0
33716,502.14,753,746,0
33726,490.99,753,746,0
33736,481.27,753,746,0
33746,471.76,753,745,0
33756,463.69,753,746,0
33766,455.68,753,746,0
33776,449.01,753,746,0
33786,442.36,753,745,0
33796,437.20,753,746,0
33806,432.08,753,746,0
33816,428.54,753,746,0
33826,424.95,753,745,0
33836,422.74,753,746,0
33846,420.50,753,746,0
33856,419.41,753,747,0
33866,418.21,753,745,0
33876,418.02,753,747,0
33886,417.24,753,746,0
33896,417.47,753,746,0
33906,417.16,753,745,0
33916,417.41,753,747,0
33926,416.86,753,746,0
33936,416.56,753,746,0
33946,415.32,753,745,0
33956,414.37,753,747,0
33966,412.37,753,746,0
33976,410.63,753,746,0
33986,408.00,753,745,0
33996,406.03,753,747,0
34007,403.06,753,745,0
34017,400.69,753,747,0
34027,397.52,753,745,0
34037,394.88,753,747,0
34048,391.62,753,745,0
34057,389.07,753,747,0
34067,385.92,753,745,0
34077,383.68,753,747,0
34087,380.99,753,746,0
34097,379.19,753,747,0
34107,377.12,753,745,0
34117,375.88,753,747,0
34127,374.42,753,746,0
34137,373.48,753,747,0
34147,372.09,753,745,0
34157,371.42,753,747,0
34167,370.35,753,745,0
34177,370.08,753,747,0
34187,369.32,753,746,0
34197,369.27,753,747,0
34207,369.06,753,745,0
34217,370.16,753,747,0
34227,371.61,753,746,0
34237,375.07,753,747,0
34247,379.89,753,745,0
34257,387.72,753,747,0
34267,397.49,753,745,0
34277,410.80,753,747,0
34287,426.25,753,745,0
34297,444.56,753,747,0
34307,463.72,753,746,0
34317,483.78,753,747,0
34336,502.40,742,746,0
34339,519.51,742,748,0
34348,533.46,742,746,0
34358,544.12,742,747,0
34368,550.08,742,745,0
34378,552.50,742,748,0
34388,550.47,742,745,0
34398,545.83,742,747,0
34408,538.21,742,745,0
34418,528.72,742,747,0
34428,517.53,742,745,0
34438,506.49,742,747,0
34448,494.98,742,746,0
34458,484.23,742,748,0
34468,473.36,742,746,0
34478,463.74,742,747,0
34488,454.26,742,745,0
34498,446.08,742,748,0
34508,438.04,742,746,0
34519,431.09,742,747,0
34529,424.72,742,745,0
34539,419.87,742,748,0
34549,415.71,742,745,0
34560,413.14,742,747,0
34569,411.34,742,745,0
34579,411.11,742,748,0
34589,411.63,742,745,0
34599,413.12,742,747,0
34609,414.62,742,745,0
34619,416.71,742,748,0
34629,418.55,742,745,0
34639,420.32,742,747,0
34649,421.21,742,745,0
34659,421.74,742,748,0
34669,421.26,742,745,0
34679,420.50,742,747,0
34689,418.59,742,745,0
34699,416.31,742,748,0
34709,413.35,742,745,0
34719,410.16,742,747,0
34729,406.34,742,745,0
34739,402.68,742,748,0
34749,398.45,742,746,0
34759,394.50,742,747,0
34769,390.54,742,745,0
34779,387.07,742,748,0
34789,383.67,742,745,0
34799,380.90,742,747,0
34809,378.31,742,745,0
34819,376.63,742,748,0
34829,375.29,742,745,0
34839,374.51,742,748,0
34849,373.89,742,745,0
34860,373.84,742,748,0
34870,373.67,742,745,0
34880,373.81,742,748,0
34890,373.65,742,745,0
34900,373.54,742,748,0
34910,373.04,742,745,0
34920,372.43,742,748,0
34930,371.70,742,745,0
34940,371.19,742,748,0
34950,370.92,742,746,0
34960,371.54,742,748,0
34970,373.48,742,745,0
34980,377.58,742,748,0
34990,384.26,742,746,0
35000,393.83,742,748,0
35010,406.22,742,745,0
35020,421.71,742,748,0
35031,439.76,742,746,0
35041,459.59,742,748,0
35051,480.15,742,746,0
35061,500.16,742,748,0
35081,518.67,744,747,0
35084,534.41,744,747,0
35093,547.28,744,746,0
35103,555.98,744,747,0
35113,560.70,744,746,0
35123,561.18,744,747,0
35133,558.34,744,746,0
35143,552.28,744,747,0
35153,544.70,744,746,0
35163,534.97,744,747,0
35173,524.78,744,746,0
35183,513.88,744,747,0
35193,503.63,744,747,0
35203,493.37,744,747,0
35213,484.17,744,746,0
35223,475.03,744,747,0
35233,466.80,744,746,0
35244,458.80,744,747,0
35254,452.13,744,747,0
35264,445.58,744,747,0
35274,440.26,744,747,0
35284,435.13,744,747,0
35294,431.10,744,746,0
35304,427.30,744,747,0
35314,424.98,744,747,0
35324,422.89,744,747,0
35334,422.24,744,746,0
35344,421.69,744,747,0
35354,422.17,744,747,0
35364,422.55,744,747,0
35374,423.80,744,746,0
35384,424.29,744,747,0
35394,425.06,744,747,0
35404,424.66,744,747,0
35415,424.29,744,747,0
35425,422.79,744,747,0
35435,421.39,744,747,0
35445,418.75,744,746,0
35456,416.12,744,747,0
35465,412.44,744,747,0
35475,409.05,744,747,0
35485,404.84,744,747,0
35495,401.03,744,747,0
35505,396.52,744,747,0
35515,392.85,744,747,0
35525,388.74,744,747,0
35535,385.56,744,747,0
35545,382.05,744,747,0
35555,379.55,744,747,0
35565,376.86,744,747,0
35575,375.18,744,747,0
35585,373.20,744,747,0
35595,372.45,744,747,0
35605,371.46,744,747,0
35615,371.54,744,747,0
35625,371.29,744,746,0
35635,371.89,744,747,0
35645,372.14,744,747,0
35655,373.04,744,747,0
35665,373.16,744,746,0
35675,373.75,744,747,0
35685,373.57,744,747,0
35695,374.08,744,747,0
35705,374.14,744,746,0
35715,375.34,744,747,0
35725,377.13,744,747,0
35735,381.33,744,747,0
35745,387.32,744,746,0
35756,396.82,744,748,0
35766,408.79,744,746,0
35776,424.67,744,747,0
35786,442.77,744,746,0
35796,463.62,744,748,0
35806,484.56,744,746,0
35816,505.57,744,747,0
35835,524.21,755,747,0
35837,540.43,755,749,0
35847,552.90,755,746,0
35857,562.02,755,748,0
35867,566.26,755,746,0
35877,567.16,755,748,0
35887,564.16,755,746,0
35897,558.75,755,748,0
35907,550.81,755,746,0
35917,541.35,755,748,0
35927,530.49,755,746,0
35937,519.72,755,748,0
35947,508.40,755,746,0
35957,497.95,755,748,0
35968,487.55,755,746,0
35977,478.17,755,748,0
35987,468.95,755,746,0
35997,460.61,755,748,0
36007,452.45,755,746,0
36017,445.59,755,748,0
36027,439.07,755,746,0
36037,433.91,755,748,0
36047,429.52,755,746,0
36057,426.58,755,748,0
36067,424.22,755,746,0
36077,423.21,755,748,0
36087,422.68,755,746,0
36097,423.16,755,748,0
36107,423.80,755,746,0
36117,424.93,755,748,0
36127,425.94,755,746,0
36137,427.07,755,748,0
36147,427.18,755,746,0
36157,427.00,755,748,0
36167,425.63,755,746,0
36177,423.98,755,748,0
36187,421.20,755,746,0
36197,418.18,755,748,0
36207,414.40,755,746,0
36217,411.19,755,748,0
36227,407.54,755,746,0
36237,404.20,755,748,0
36247,400.50,755,746,0
36257,397.39,755,748,0
36268,394.10,755,746,0
36278,391.33,755,748,0
36288,388.23,755,746,0
36298,385.72,755,748,0
36308,383.45,755,746,0
36318,381.86,755,748,0
36328,380.31,755,746,0
36338,379.23,755,748,0
36348,378.31,755,746,0
36358,377.91,755,748,0
36368,377.51,755,746,0
36378,377.44,755,748,0
36388,377.22,755,746,0
36398,377.37,755,748,0
36408,377.22,755,746,0
36418,377.37,755,748,0
36428,377.09,755,746,0
36439,376.97,755,748,0
36449,376.51,755,746,0
36459,376.19,755,749,0
36469,375.83,755,745,0
36480,376.52,755,748,0
36489,377.82,755,746,0
36499,380.96,755,749,0
36509,386.20,755,745,0
36519,394.33,755,748,0
36529,405.41,755,746,0
36539,419.78,755,749,0
36549,436.77,755,745,0
36559,456.21,755,748,0
36569,477.11,755,746,0
36588,498.12,753,744,0
36590,518.01,753,747,0
36600,535.84,753,748,0
36610,550.50,753,746,0
36620,561.36,753,748,0
36630,567.90,753,746,0
36640,569.81,753,748,0
36651,567.73,753,746,0
36660,562.37,753,748,0
36670,554.16,753,746,0
36680,543.82,753,748,0
36690,532.22,753,746,0
36700,520.07,753,748,0
36710,508.22,753,746,0
36720,496.71,753,748,0
36730,485.87,753,746,0
36740,475.79,753,748,0
36750,466.60,753,746,0
36760,458.06,753,748,0
36770,450.41,753,746,0
36780,443.35,753,748,0
36790,437.24,753,746,0
36800,431.73,753,748,0
36810,427.31,753,746,0
36820,423.75,753,748,0
36830,421.25,753,746,0
36840,419.59,753,748,0
36850,419.03,753,746,0
36860,419.06,753,748,0
36870,419.90,753,746,0
36880,421.09,753,748,0
36890,422.60,753,746,0
36900,423.97,753,748,0
36910,425.18,753,746,0
36920,425.64,753,748,0
36930,425.70,753,746,0
36940,424.81,753,748,0
36951,423.28,753,746,0
36961,420.75,753,748,0
36971,417.87,753,746,0
36981,414.14,753,748,0
36992,410.37,753,746,0
37001,406.06,753,748,0
37011,402.10,753,746,0
37021,397.78,753,748,0
37031,393.99,753,747,0
37041,390.09,753,748,0
37051,386.94,753,746,0
37061,383.74,753,748,0
37071,381.25,753,747,0
37081,378.69,753,748,0
37091,377.11,753,746,0
37101,375.53,753,748,0
37111,374.73,753,747,0
37121,374.04,753,748,0
37131,374.03,753,746,0
37141,373.85,753,748,0
37151,374.32,753,747,0
37161,374.40,753,747,0
37171,375.01,753,746,0
37181,375.09,753,748,0
37191,375.36,753,747,0
37201,375.21,753,747,0
37211,375.79,753,747,0
37221,375.98,753,748,0
37231,376.89,753,747,0
37241,378.16,753,747,0
37251,381.24,753,746,0
37261,386.01,753,748,0
37271,393.68,753,747,0
37281,403.59,753,747,0
37292,417.13,753,747,0
37302,433.25,753,748,0
37312,452.29,753,747,0
37322,472.47,753,747,0
37332,493.42,753,747,0
37351,513.09,763,745,0
37354,531.11,763,748,0
37363,545.99,763,747,0
37373,557.61,763,747,0
37383,564.54,763,747,0
37393,567.81,763,747,0
37403,566.36,763,747,0
37413,561.88,763,747,0
37423,554.12,763,747,0
37433,544.31,763,747,0
37443,532.48,763,747,0
37453,520.46,763,747,0
37463,507.68,763,747,0
37473,496.08,763,747,0
37483,484.65,763,747,0
37493,474.69,763,747,0
37504,465.01,763,747,0
37513,456.86,763,747,0
37523,449.06,763,747,0
37533,442.79,763,747,0
37543,436.64,763,747,0
37553,431.99,763,747,0
37563,427.71,763,747,0
37573,425.22,763,747,0
37583,423.40,763,747,0
37593,423.28,763,747,0
37603,423.41,763,747,0
37613,425.00,763,747,0
37623,426.42,763,747,0
37633,428.56,763,747,0
37643,429.76,763,747,0
37653,430.99,763,747,0
37663,430.87,763,747,0
37673,430.65,763,747,0
37683,429.13,763,747,0
37693,427.46,763,747,0
37703,424.54,763,747,0
37713,421.80,763,747,0
37723,418.18,763,747,0
37733,414.87,763,747,0
37743,410.84,763,747,0
37753,407.28,763,747,0
37763,403.30,763,747,0
37773,400.25,763,747,0
37783,396.71,763,747,0
37793,393.92,763,747,0
37804,390.86,763,747,0
37814,388.72,763,747,0
37824,386.23,763,746,0
37834,384.58,763,748,0
37844,382.52,763,746,0
37854,381.76,763,748,0
37864,380.50,763,746,0
37874,380.05,763,748,0
37884,378.88,763,746,0
37894,378.70,763,748,0
37904,377.85,763,746,0
37914,377.55,763,748,0
37924,376.36,763,746,0
37934,376.21,763,747,0
37944,376.10,763,747,0
37954,377.74,763,748,0
37964,380.05,763,746,0
37975,385.09,763,748,0
37985,392.09,763,746,0
37995,402.56,763,748,0
38005,415.42,763,746,0
38016,431.54,763,748,0
38025,449.46,763,746,0
38035,469.17,763,748,0
38045,488.45,763,746,0
38055,507.30,763,748,0
38074,523.58,723,747,0
38076,537.03,723,748,0
38086,546.67,723,746,0
38096,552.94,723,748,0
38106,554.97,723,746,0
38116,553.95,723,748,0
38126,549.29,723,746,0
38136,542.56,723,748,0
38146,533.78,723,746,0
38156,523.86,723,748,0
38166,512.63,723,746,0
38176,501.47,723,748,0
38187,490.19,723,746,0
38196,479.72,723,748,0
38206,469.43,723,746,0
38216,460.26,723,748,0
38226,451.52,723,746,0
38236,443.82,723,748,0
38246,436.46,723,746,0
38256,430.15,723,748,0
38266,424.49,723,746,0
38276,420.53,723,748,0
38286,417.29,723,746,0
38296,415.44,723,748,0
38306,414.54,723,746,0
38316,415.19,723,748,0
38326,416.29,723,746,0
38336,418.26,723,747,0
38346,419.98,723,746,0
38356,422.09,723,748,0
38366,423.60,723,746,0
38376,424.97,723,748,0
38386,425.32,723,746,0
38396,425.39,723,748,0
38406,424.68,723,746,0
38416,423.49,723,748,0
38426,421.33,723,745,0
38436,418.91,723,748,0
38446,415.64,723,746,0
38456,412.45,723,748,0
38466,408.67,723,745,0
38476,404.96,723,748,0
38487,401.03,723,746,0
38497,397.59,723,747,0
38507,394.16,723,745,0
38517,391.19,723,748,0
38528,388.22,723,746,0
38537,386.01,723,748,0
38547,383.82,723,745,0
38557,382.12,723,748,0
38567,380.41,723,746,0
38577,379.22,723,748,0
38587,378.17,723,745,0
38597,377.26,723,748,0
38607,376.24,723,746,0
38617,375.48,723,748,0
38627,374.65,723,745,0
38637,373.94,723,748,0
38647,372.97,723,746,0
38657,372.21,723,748,0
38667,371.38,723,745,0
38677,370.75,723,748,0
38687,370.40,723,746,0
38697,370.96,723,748,0
38707,372.73,723,745,0
38717,376.50,723,748,0
38727,382.52,723,746,0
38737,391.66,723,748,0
38747,403.76,723,745,0
38757,419.01,723,748,0
38767,436.79,723,745,0
38777,456.70,723,748,0
38787,477.44,723,745,0
38797,498.18,723,748,0
38816,517.46,742,747,0
38819,534.25,742,747,0
38828,548.45,742,745,0
38838,559.20,742,748,0
38848,566.12,742,746,0
38858,569.00,742,748,0
38868,568.10,742,746,0
38878,564.04,742,748,0
38888,557.69,742,746,0
38898,548.65,742,747,0
38908,538.13,742,745,0
38918,526.73,742,748,0
38928,515.37,742,746,0
38938,504.16,742,747,0
38948,493.78,742,745,0
38958,484.29,742,748,0
38968,475.67,742,746,0
38978,467.63,742,748,0
38988,460.28,742,745,0
38999,453.38,742,747,0
39009,447.78,742,746,0
39019,442.19,742,747,0
39029,437.25,742,745,0
39040,432.85,742,747,0
39049,429.72,742,746,0
39059,427.32,742,748,0
39069,426.24,742,745,0
39079,425.05,742,747,0
39089,425.12,742,746,0
39099,425.26,742,747,0
39109,426.12,742,745,0
39119,426.43,742,747,0
39129,426.73,742,746,0
39139,426.12,742,747,0
39149,425.49,742,745,0
39159,423.88,742,747,0
39169,422.16,742,746,0
39179,419.58,742,747,0
39189,417.22,742,745,0
39199,414.24,742,747,0
39209,411.56,742,746,0
39219,408.26,742,747,0
39229,405.22,742,745,0
39239,401.64,742,747,0
39249,398.45,742,746,0
39259,394.80,742,747,0
39269,391.73,742,745,0
39279,388.34,742,747,0
39289,385.80,742,746,0
39299,383.24,742,747,0
39309,381.67,742,745,0
39319,380.05,742,747,0
39329,379.31,742,746,0
39340,378.62,742,747,0
39350,378.47,742,746,0
39360,377.86,742,747,0
39370,377.90,742,746,0
39380,377.33,742,747,0
39390,377.32,742,746,0
39400,376.75,742,746,0
39410,376.78,742,746,0
39420,376.46,742,747,0
39430,377.18,742,746,0
39440,377.90,742,747,0
39450,380.54,742,746,0
39460,384.24,742,747,0
39470,390.77,742,746,0
39480,399.15,742,746,0
39490,411.41,742,746,0
39500,426.20,742,747,0
39511,444.40,742,746,0
39521,463.73,742,746,0
39531,484.90,742,746,0
39541,504.90,742,746,0
39561,524.39,744,745,0
39564,540.34,744,746,0
39573,554.08,744,747,0
39583,563.02,744,745,0
39593,568.80,744,747,0
39603,569.54,744,745,0
39613,567.67,744,747,0
39623,561.77,744,745,0
39633,554.76,744,747,0
39643,544.89,744,745,0
39653,534.77,744,747,0
39663,523.22,744,745,0
39673,512.48,744,747,0
39683,501.54,744,745,0
39693,491.95,744,747,0
39703,482.06,744,745,0
39713,473.39,744,747,0
39724,464.79,744,745,0
39734,457.61,744,747,0
39744,450.48,744,745,0
39754,444.59,744,747,0
39764,438.93,744,745,0
39774,434.75,744,747,0
39784,430.88,744,745,0
39794,428.65,744,747,0
39804,426.74,744,745,0
39814,426.35,744,747,0
39824,426.03,744,745,0
39834,426.71,744,747,0
39844,427.01,744,745,0
39854,427.99,744,747,0
39864,428.12,744,745,0
39874,428.39,744,747,0
39884,427.54,744,745,0
39895,426.69,744,747,0
39905,424.81,744,745,0
39915,422.98,744,747,0
39925,420.16,744,745,0
39936,417.41,744,747,0
39945,414.07,744,745,0
39955,411.14,744,747,0
39965,407.71,744,745,0
39975,404.54,744,747,0
39985,400.95,744,745,0
39995,397.88,744,747,0
40005,394.74,744,745,0
40015,392.29,744,747,0
40025,389.59,744,745,0
40035,387.61,744,747,0
40045,385.63,744,744,0
40055,384.37,744,747,0
40065,383.10,744,745,0
40075,382.51,744,747,0
40085,381.67,744,744,0
40095,381.47,744,747,0
40105,381.16,744,745,0
40115,381.41,744,747,0
40125,381.37,744,744,0
40135,381.60,744,747,0
40145,381.34,744,745,0
40155,381.36,744,747,0
40165,380.87,744,744,0
40175,380.82,744,747,0
40185,380.70,744,745,0
40195,381.61,744,747,0
40205,383.44,744,744,0
40215,387.55,744,747,0
40225,393.73,744,745,0
40236,403.50,744,747,0
40246,415.86,744,745,0
40256,431.80,744,747,0
40266,450.20,744,745,0
40276,470.93,744,748,0
40286,491.95,744,745,0
40305,513.14,745,744,0
40308,532.34,745,747,0
40317,549.29,745,747,0
40327,562.41,745,745,0
40337,571.58,745,748,0
40347,576.29,745,746,0
40357,577.06,745,747,0
40367,573.79,745,745,0
40377,567.25,745,747,0
40387,558.22,745,746,0
40397,547.44,745,747,0
40407,535.61,745,745,0
40417,523.25,745,747,0
40427,511.26,745,745,0
40437,499.57,745,747,0
40448,488.68,745,746,0
40457,478.41,745,748,0
40467,469.03,745,746,0
40477,460.23,745,747,0
40487,452.41,745,746,0
40497,445.34,745,748,0
40507,439.15,745,746,0
40517,433.66,745,748,0
40527,429.18,745,746,0
40537,425.61,745,748,0
40547,423.33,745,746,0
40557,421.86,745,748,0
40567,421.34,745,746,0
40577,421.45,745,748,0
40587,422.35,745,745,0
40597,423.40,745,748,0
40607,424.74,745,746,0
40617,425.59,745,747,0
40627,426.27,745,745,0
40637,426.23,745,747,0
40647,425.90,745,746,0
40657,424.73,745,747,0
40667,423.14,745,745,0
40677,420.74,745,747,0
40687,418.21,745,746,0
40697,414.97,745,747,0
40707,411.55,745,746,0
40717,407.74,745,748,0
40727,403.96,745,746,0
40737,399.86,745,747,0
40748,396.34,745,746,0
40758,392.51,745,748,0
40768,389.36,745,746,0
40778,386.08,745,747,0
40788,383.48,745,746,0
40798,381.02,745,748,0
40808,379.56,745,746,0
40818,377.76,745,747,0
40828,377.06,745,746,0
40838,376.23,745,747,0
40848,376.38,745,746,0
40858,376.22,745,747,0
40868,376.80,745,746,0
40878,376.94,745,748,0
40888,377.73,745,746,0
40898,378.24,745,747,0
40908,379.84,745,746,0
40919,381.90,745,747,0
40929,385.92,745,746,0
40939,391.34,745,747,0
40949,399.73,745,746,0
40960,410.39,745,747,0
40969,424.50,745,746,0
40979,440.72,745,747,0
40989,459.54,745,746,0
40999,478.92,745,747,0
41009,499.00,745,746,0
41019,517.43,745,747,0
41038,534.49,733,746,0
41041,547.75,733,748,0
41050,558.46,733,746,0
41060,564.62,733,746,0
41070,567.65,733,746,0
41080,566.25,733,747,0
41090,562.41,733,746,0
41100,555.21,733,746,0
41110,547.01,733,746,0
41120,536.25,733,746,0
41131,525.46,733,746,0
41140,513.58,733,746,0
41150,502.69,733,746,0
41160,491.47,733,747,0
41170,481.60,733,746,0
41180,471.69,733,746,0
41190,463.30,733,746,0
41200,454.94,733,747,0
41210,448.18,733,746,0
41220,441.61,733,747,0
41230,436.76,733,746,0
41240,432.16,733,747,0
41250,429.24,733,746,0
41260,426.73,733,747,0
41270,425.86,733,746,0
41280,425.13,733,747,0
41290,425.82,733,746,0
41300,426.22,733,746,0
41310,427.74,733,746,0
41320,428.63,733,747,0
41330,430.03,733,746,0
41340,430.28,733,746,0
41350,430.75,733,746,0
41360,429.75,733,747,0
41370,428.71,733,746,0
41380,425.97,733,746,0
41390,423.24,733,746,0
41400,419.14,733,747,0
41410,415.32,733,746,0
41420,410.47,733,746,0
41431,406.34,733,746,0
41441,401.40,733,746,0
41451,397.51,733,747,0
41461,393.11,733,746,0
41472,389.74,733,747,0
41481,386.04,733,746,0
41491,383.67,733,747,0
41501,381.03,733,746,0
41511,379.86,733,747,0
41521,378.32,733,746,0
41531,377.97,733,747,0
41541,377.29,733,746,0
41551,377.59,733,747,0
41561,377.16,733,746,0
41571,377.41,733,747,0
41581,376.86,733,746,0
41591,377.07,733,747,0
41601,376.58,733,746,0
41611,377.09,733,746,0
41621,377.41,733,746,0
41631,379.64,733,747,0
41641,382.83,733,746,0
41651,389.23,733,747,0
41661,397.56,733,746,0
41671,409.78,733,746,0
41681,424.50,733,746,0
41691,443.08,733,747,0
41701,463.07,733,746,0
41711,485.08,733,746,0
41721,506.27,733,746,0
41731,527.27,733,747,0
41750,545.49,712,745,0
41752,560.90,712,748,0
41762,572.07,712,746,0
41772,579.94,712,747,0
41782,583.04,712,746,0
41792,582.90,712,747,0
41802,578.73,712,746,0
41812,572.30,712,747,0
41822,563.55,712,746,0
41832,553.74,712,747,0
41842,542.29,712,745,0
41852,531.06,712,747,0
41862,519.30,712,745,0
41872,508.58,712,747,0
41882,497.74,712,745,0
41892,488.00,712,747,0
41902,478.14,712,745,0
41912,469.61,712,747,0
41922,461.12,712,745,0
41932,454.01,712,747,0
41943,446.85,712,746,0
41953,440.94,712,747,0
41963,435.26,712,745,0
41973,431.11,712,747,0
41984,427.30,712,745,0
41993,424.90,712,747,0
42003,422.70,712,745,0
42013,421.72,712,747,0
42023,420.99,712,745,0
42033,421.16,712,747,0
42043,420.94,712,745,0
42053,421.26,712,747,0
42063,421.31,712,746,0
42073,421.52,712,747,0
42083,420.72,712,745,0
42093,419.78,712,747,0
42103,417.83,712,746,0
42113,415.91,712,747,0
42123,413.06,712,745,0
42133,410.09,712,747,0
42143,406.33,712,746,0
42153,403.45,712,748,0
42163,399.97,712,745,0
42173,396.94,712,747,0
42183,393.53,712,746,0
42193,390.71,712,747,0
42203,387.67,712,745,0
42213,385.45,712,747,0
42223,382.83,712,746,0
42233,381.17,712,748,0
42243,379.45,712,745,0
42253,378.63,712,747,0
42263,377.62,712,746,0
42273,377.09,712,747,0
42284,376.21,712,745,0
42294,375.76,712,748,0
42304,375.02,712,745,0
42314,374.80,712,747,0
42324,374.56,712,745,0
42334,375.46,712,748,0
42344,377.21,712,746,0
42354,381.00,712,748,0
42364,386.70,712,745,0
42374,395.36,712,748,0
42384,406.65,712,745,0
42394,421.16,712,747,0
42404,438.25,712,745,0
42414,458.06,712,747,0
42424,479.04,712,745,0
42434,500.63,712,748,0
42444,521.27,712,745,0
42464,540.26,714,744,0
42467,556.34,714,747,0
42476,568.97,714,748,0
42486,577.12,714,745,0
42497,580.68,714,747,0
42507,580.14,714,746,0
42517,575.59,714,747,0
42527,568.30,714,745,0
42537,558.18,714,747,0
42547,546.56,714,746,0
42557,534.00,714,747,0
42567,521.96,714,745,0
42577,509.76,714,747,0
42587,498.86,714,746,0
42597,488.14,714,747,0
42607,478.93,714,745,0
42617,470.04,714,747,0
42627,462.35,714,746,0
42637,454.88,714,747,0
42647,448.66,714,745,0
42657,442.50,714,747,0
42668,437.77,714,746,0
42678,433.38,714,747,0
42688,430.52,714,746,0
42698,427.92,714,747,0
42708,426.75,714,746,0
42718,425.79,714,747,0
42728,426.20,714,745,0
42738,426.48,714,747,0
42748,427.54,714,746,0
42758,427.85,714,747,0
42768,428.66,714,746,0
42778,428.42,714,747,0
42788,428.25,714,746,0
42798,426.72,714,747,0
42808,424.96,714,745,0
42818,421.84,714,747,0
42828,418.93,714,746,0
42839,414.93,714,747,0
42849,411.39,714,746,0
42859,406.94,714,746,0
42869,403.23,714,746,0
42880,399.01,714,746,0
42889,395.75,714,746,0
42899,391.84,714,747,0
42909,388.76,714,746,0
42919,385.14,714,746,0
42929,382.57,714,746,0
42939,379.66,714,747,0
42949,377.92,714,746,0
42959,375.76,714,746,0
42969,374.80,714,746,0
42979,373.49,714,746,0
42989,373.13,714,746,0
42999,372.19,714,746,0
43009,371.96,714,745,0
43019,371.12,714,746,0
43029,371.12,714,746,0
43039,370.53,714,746,0
43049,371.10,714,746,0
43059,371.76,714,746,0
43069,374.44,714,746,0
43079,378.34,714,747,0
43089,385.27,714,746,0
43099,394.23,714,746,0
43109,407.06,714,746,0
43119,422.43,714,747,0
43129,441.29,714,746,0
43139,461.64,714,747,0
43149,483.69,714,746,0
43159,504.78,714,747,0
43169,525.25,714,746,0
43189,542.57,725,745,0
43191,556.97,725,748,0
43201,566.92,725,746,0
43211,573.12,725,747,0
43222,574.45,725,745,0
43231,572.86,725,747,0
43241,567.50,725,746,0
43251,560.41,725,747,0
43261,551.03,725,745,0
43271,541.12,725,747,0
43281,530.16,725,746,0
43291,519.74,725,747,0
43301,508.76,725,745,0
43311,499.19,725,747,0
43321,489.27,725,746,0
43331,480.45,725,747,0
43341,471.36,725,745,0
43351,463.41,725,747,0
43361,455.49,725,746,0
43371,448.83,725,747,0
43381,441.81,725,745,0
43392,436.29,725,747,0
43401,431.19,725,746,0
43411,427.70,725,747,0
43421,424.54,725,745,0
43431,422.88,725,747,0
43441,421.46,725,746,0
43451,421.62,725,747,0
43461,421.52,725,745,0
43471,422.05,725,747,0
43481,421.91,725,746,0
43491,422.11,725,747,0
43501,421.39,725,745,0
43511,420.71,725,747,0
43521,418.61,725,746,0
43531,416.76,725,747,0
43541,413.96,725,745,0
43551,411.36,725,747,0
43561,407.86,725,746,0
43571,404.61,725,747,0
43581,400.87,725,745,0
43591,397.61,725,747,0
43601,393.65,725,746,0
43611,390.37,725,747,0
43621,386.62,725,745,0
43631,383.73,725,747,0
43641,380.56,725,746,0
43651,378.20,725,747,0
43661,375.74,725,745,0
43671,374.23,725,747,0
43681,372.36,725,746,0
43692,371.40,725,747,0
43702,370.08,725,745,0
43712,369.50,725,747,0
43722,368.53,725,745,0
43732,368.50,725,748,0
43742,368.61,725,745,0
43752,370.31,725,748,0
43762,373.05,725,745,0
43772,378.22,725,748,0
43782,385.44,725,745,0
43792,395.98,725,747,0
43802,409.06,725,745,0
43812,425.67,725,748,0
43822,444.45,725,745,0
43832,465.66,725,747,0
43842,487.45,725,746,0
43852,509.51,725,748,0
43863,529.76,725,745,0
43882,547.87,693,744,0
43884,562.23,693,748,0
43894,572.96,693,748,0
43905,579.10,693,745,0
43915,581.13,693,748,0
43925,579.07,693,746,0
43935,573.78,693,747,0
43945,565.92,693,745,0
43955,556.17,693,747,0
43965,545.02,693,746,0
43975,533.06,693,747,0
43985,521.08,693,745,0
43995,509.14,693,747,0
44005,497.96,693,746,0
44015,487.08,693,747,0
44025,476.90,693,745,0
44035,467.42,693,748,0
44045,458.85,693,746,0
44055,450.84,693,748,0
44065,443.90,693,745,0
44076,437.59,693,747,0
44086,432.61,693,746,0
44096,428.48,693,747,0
44106,425.68,693,746,0
44116,423.55,693,747,0
44126,422.74,693,746,0
44136,422.30,693,747,0
44146,422.86,693,746,0
44156,423.11,693,747,0
44166,423.94,693,746,0
44176,424.08,693,747,0
44186,424.32,693,746,0
44196,423.45,693,747,0
44206,422.41,693,746,0
44216,420.19,693,747,0
44226,417.78,693,746,0
44236,414.20,693,747,0
44247,410.67,693,746,0
44257,406.23,693,747,0
44267,402.17,693,746,0
44277,397.49,693,747,0
44288,393.36,693,746,0
44297,388.92,693,747,0
44307,385.39,693,746,0
44317,381.50,693,747,0
44327,378.74,693,746,0
44337,375.60,693,747,0
44347,373.49,693,746,0
44357,371.16,693,747,0
44367,369.91,693,746,0
44377,368.44,693,747,0
44387,368.05,693,746,0
44397,367.22,693,747,0
44407,367.67,693,746,0
44417,367.73,693,747,0
44427,368.32,693,746,0
44437,368.53,693,747,0
44447,369.05,693,746,0
44457,368.78,693,747,0
44467,369.49,693,746,0
44477,370.11,693,747,0
44487,372.74,693,746,0
44497,377.14,693,747,0
44507,384.47,693,746,0
44517,394.40,693,747,0
44527,409.20,693,746,0
44537,426.49,693,747,0
44547,447.00,693,746,0
44557,468.73,693,747,0
44567,492.17,693,746,0
44577,514.40,693,747,0
44597,535.58,715,746,0
44599,552.25,715,746,0
44609,566.32,715,747,0
44619,575.82,715,746,0
44630,581.75,715,747,0
44639,582.47,715,746,0
44649,580.35,715,747,0
44659,574.55,715,746,0
44669,567.44,715,747,0
44679,557.84,715,746,0
44689,547.86,715,747,0
44699,536.76,715,746,0
44709,526.16,715,747,0
44719,514.97,715,745,0
44729,504.91,715,747,0
44739,494.56,715,746,0
44749,485.27,715,747,0
44759,475.67,715,746,0
44769,467.03,715,747,0
44779,458.19,715,746,0
44789,450.68,715,747,0
44800,443.19,715,745,0
44809,437.17,715,746,0
44819,430.61,715,746,0
44829,425.63,715,747,0
44839,421.32,715,745,0
44849,419.13,715,746,0
44859,418.10,715,746,0
44869,418.80,715,747,0
44879,419.33,715,745,0
44889,422.10,715,746,0
44899,425.12,715,746,0
44909,428.38,715,747,0
44919,429.77,715,745,0
44929,430.22,715,746,0
44939,429.08,715,746,0
44949,427.99,715,747,0
44959,425.03,715,745,0
44969,421.30,715,747,0
44979,416.24,715,746,0
44989,411.79,715,747,0
44999,406.33,715,745,0
45009,401.26,715,747,0
45019,395.44,715,746,0
45029,390.42,715,747,0
45039,385.11,715,745,0
45049,380.92,715,747,0
45059,376.70,715,746,0
45069,373.92,715,747,0
45079,371.24,715,745,0
45089,369.84,715,747,0
45100,368.35,715,746,0
45110,367.77,715,747,0
45120,366.90,715,745,0
45130,366.76,715,747,0
45140,366.14,715,745,0
45150,366.06,715,747,0
45160,365.31,715,745,0
45170,365.09,715,747,0
45180,364.33,715,745,0
45190,364.53,715,747,0
45200,364.20,715,745,0
45210,364.53,715,747,0
45220,364.80,715,745,0
45230,366.79,715,747,0
45240,369.81,715,745,0
45250,375.82,715,747,0
45260,383.68,715,745,0
45271,395.26,715,747,0
45281,409.80,715,745,0
45291,428.20,715,747,0
45301,449.01,715,745,0
45312,472.11,715,747,0
45321,494.92,715,745,0
45331,517.27,715,747,0
45350,537.38,753,746,0
45353,554.11,753,748,0
45362,566.72,753,745,0
45372,575.50,753,747,0
45382,579.77,753,745,0
45392,580.22,753,747,0
45402,576.73,753,745,0
45412,570.21,753,747,0
45422,561.57,753,745,0
45432,551.07,753,747,0
45442,539.35,753,746,0
45452,527.20,753,747,0
45462,514.59,753,745,0
45472,502.54,753,747,0
45483,490.81,753,745,0
45492,480.11,753,747,0
45502,470.00,753,745,0
45512,460.36,753,747,0
45522,451.17,753,745,0
45532,443.36,753,747,0
45542,436.27,753,745,0
45552,430.40,753,747,0
45562,425.35,753,745,0
45572,421.73,753,747,0
45582,419.20,753,745,0
45592,417.81,753,747,0
45602,417.40,753,745,0
45612,417.71,753,747,0
45622,418.09,753,745,0
45632,418.79,753,747,0
45642,419.16,753,745,0
45652,419.32,753,747,0
45662,418.97,753,745,0
45672,417.95,753,747,0
45682,416.29,753,745,0
45692,414.45,753,747,0
45702,411.87,753,745,0
45712,409.08,753,747,0
45722,405.50,753,745,0
45732,401.71,753,747,0
45742,397.47,753,745,0
45752,393.34,753,747,0
45762,389.00,753,745,0
45772,384.93,753,747,0
45783,381.13,753,745,0
45793,377.58,753,747,0
45803,374.28,753,745,0
45813,371.32,753,747,0
45824,368.78,753,745,0
45833,366.75,753,747,0
45843,365.11,753,745,0
45853,363.58,753,747,0
45863,362.72,753,745,0
45873,362.25,753,747,0
45883,362.13,753,745,0
45893,362.00,753,747,0
45903,362.09,753,745,0
45913,362.23,753,747,0
45923,362.42,753,745,0
45933,362.59,753,747,0
45943,362.89,753,745,0
45953,363.05,753,747,0
45963,363.21,753,745,0
45973,363.19,753,747,0
45983,363.47,753,745,0
45993,364.53,753,747,0
46003,366.86,753,745,0
46013,370.97,753,747,0
46023,378.01,753,745,0
46033,388.21,753,747,0
46043,402.07,753,745,0
46053,419.41,753,747,0
46063,439.77,753,745,0
46073,462.21,753,747,0
46083,485.42,753,745,0
46102,507.92,752,743,0
46105,528.77,752,746,0
46114,546.93,752,747,0
46124,561.48,752,746,0
46134,571.49,752,747,0
46144,576.96,752,745,0
46154,578.00,752,747,0
46164,575.17,752,745,0
46174,568.78,752,747,0
46184,559.80,752,745,0
46194,548.46,752,747,0
46204,536.32,752,745,0
46214,523.54,752,747,0
46224,511.55,752,745,0
46234,499.68,752,747,0
46244,488.94,752,745,0
46254,478.33,752,747,0
46264,468.76,752,745,0
46274,459.53,752,747,0
46284,451.36,752,745,0
46295,443.15,752,747,0
46305,436.33,752,745,0
46315,429.98,752,747,0
46325,425.44,752,746,0
46336,421.79,752,746,0
46345,419.84,752,745,0
46355,418.73,752,747,0
46365,419.11,752,746,0
46375,419.72,752,747,0
46385,421.26,752,745,0
46395,422.25,752,746,0
46405,423.72,752,746,0
46415,424.19,752,746,0
46425,424.48,752,745,0
46435,423.52,752,746,0
46445,422.59,752,746,0
46455,420.31,752,746,0
46465,417.95,752,745,0
46475,414.45,752,747,0
46485,411.14,752,746,0
46495,407.03,752,746,0
46505,403.16,752,745,0
46515,398.36,752,746,0
46525,394.35,752,746,0
46535,389.96,752,746,0
46545,386.29,752,745,0
46555,382.26,752,746,0
46565,379.01,752,746,0
46575,375.71,752,746,0
46585,373.57,752,745,0
46595,371.00,752,746,0
46605,369.45,752,746,0
46615,367.65,752,746,0
46625,366.90,752,745,0
46636,365.86,752,746,0
46646,365.73,752,746,0
46656,364.95,752,746,0
46666,365.14,752,745,0
46676,364.63,752,746,0
46686,364.99,752,746,0
46696,364.61,752,746,0
46706,365.11,752,745,0
46716,365.38,752,746,0
46726,367.19,752,746,0
46736,369.62,752,746,0
46746,374.71,752,745,0
46756,381.48,752,746,0
46766,391.92,752,745,0
46776,404.76,752,746,0
46786,421.63,752,746,0
46796,440.81,752,746,0
46807,462.73,752,746,0
46817,484.75,752,746,0
46827,507.20,752,746,0
46846,527.41,744,745,0
46849,545.59,744,749,0
46859,559.38,744,745,0
46869,569.30,744,747,0
46879,573.88,744,745,0
46889,574.73,744,747,0
46899,570.91,744,745,0
46909,564.38,744,747,0
46919,554.62,744,744,0
46929,543.38,744,747,0
46939,530.49,744,745,0
46949,517.92,744,746,0
46959,505.00,744,744,0
46969,493.13,744,747,0
46979,481.13,744,745,0
46989,470.85,744,746,0
46999,460.69,744,744,0
47009,451.83,744,747,0
47020,443.31,744,745,0
47030,436.36,744,747,0
47040,429.74,744,744,0
47050,425.14,744,747,0
47060,420.90,744,745,0
47070,418.49,744,747,0
47080,416.76,744,744,0
47090,416.31,744,747,0
47100,416.31,744,745,0
47110,417.54,744,747,0
47120,418.71,744,744,0
47130,420.34,744,747,0
47140,421.69,744,745,0
47150,423.24,744,747,0
47160,423.94,744,744,0
47170,424.17,744,747,0
47180,423.22,744,745,0
47191,421.70,744,747,0
47201,419.22,744,745,0
47211,416.24,744,747,0
47221,412.48,744,745,0
47232,408.61,744,747,0
47241,404.23,744,745,0
47251,400.17,744,747,0
47261,395.88,744,745,0
47271,391.89,744,747,0
47281,387.81,744,745,0
47291,384.18,744,747,0
47301,380.82,744,745,0
47311,377.96,744,747,0
47321,375.15,744,744,0
47331,372.92,744,747,0
47341,371.01,744,745,0
47351,369.68,744,747,0
47361,368.66,744,744,0
47371,368.03,744,747,0
47381,367.47,744,745,0
47391,367.24,744,747,0
47401,367.00,744,744,0
47411,367.17,744,747,0
47421,367.29,744,745,0
47431,367.50,744,747,0
47441,367.48,744,744,0
47451,367.38,744,747,0
47461,366.97,744,745,0
47471,366.76,744,747,0
47481,366.75,744,744,0
47491,367.85,744,747,0
47501,370.51,744,745,0
47511,375.54,744,747,0
47521,383.57,744,744,0
47532,395.18,744,747,0
47542,410.34,744,745,0
47552,428.80,744,747,0
47562,449.99,744,745,0
47572,472.58,744,747,0
47582,495.93,744,745,0
47601,518.32,755,744,0
47604,538.67,755,746,0
47613,555.95,755,747,0
47623,569.68,755,746,0
47633,578.39,755,747,0
47643,582.65,755,744,0
47653,581.98,755,747,0
47663,577.83,755,745,0
47673,570.38,755,747,0
47683,560.49,755,744,0
47693,548.43,755,747,0
47703,536.00,755,745,0
47713,523.23,755,747,0
47723,511.38,755,744,0
47733,499.69,755,746,0
47744,489.16,755,745,0
47753,479.42,755,747,0
47763,470.94,755,745,0
47773,462.81,755,747,0
47783,455.54,755,745,0
47793,448.14,755,747,0
47803,441.80,755,745,0
47813,435.69,755,747,0
47823,430.68,755,745,0
47833,426.19,755,747,0
47843,423.26,755,745,0
47853,421.25,755,747,0
47863,421.05,755,745,0
47873,421.42,755,747,0
47883,423.05,755,745,0
47893,424.71,755,747,0
47903,426.77,755,745,0
47913,428.17,755,747,0
47923,429.53,755,745,0
47933,429.54,755,747,0
47943,429.21,755,745,0
47953,427.43,755,747,0
47963,425.33,755,745,0
47973,422.19,755,747,0
47983,419.22,755,745,0
47993,415.17,755,747,0
48003,411.73,755,745,0
48013,407.65,755,747,0
48023,403.86,755,745,0
48033,399.49,755,747,0
48044,395.48,755,746,0
48054,390.80,755,746,0
48064,386.87,755,746,0
48074,382.37,755,746,0
48084,378.96,755,746,0
48094,375.80,755,746,0
48104,373.50,755,746,0
48114,371.12,755,746,0
48124,369.54,755,746,0
48134,367.67,755,746,0
48144,366.82,755,745,0
48154,365.33,755,746,0
48164,364.55,755,746,0
48174,363.40,755,746,0
48184,363.28,755,746,0
48194,362.94,755,746,0
48204,363.68,755,745,0
48215,363.87,755,746,0
48225,365.06,755,746,0
48235,365.60,755,746,0
48245,367.22,755,746,0
48256,368.57,755,746,0
48265,371.74,755,745,0
48275,375.72,755,746,0
48285,382.75,755,746,0
48295,391.78,755,746,0
48305,404.87,755,745,0
48315,420.43,755,746,0
48325,439.88,755,746,0
48335,460.79,755,745,0
48345,483.57,755,745,0
48355,505.43,755,746,0
48374,526.56,773,745,0
48376,544.22,773,745,0
48386,559.45,773,746,0
48396,569.69,773,746,0
48406,576.21,773,746,0
48416,577.39,773,745,0
48427,575.13,773,746,0
48436,568.49,773,745,0
48446,559.82,773,746,0
48456,547.96,773,745,0
48466,535.84,773,746,0
48476,522.65,773,746,0
48486,510.62,773,746,0
48496,498.35,773,745,0
48506,487.70,773,746,0
48516,477.08,773,746,0
48526,468.05,773,746,0
48536,458.74,773,745,0
48546,450.67,773,746,0
48556,442.50,773,746,0
48566,436.05,773,746,0
48576,429.95,773,745,0
48586,425.76,773,746,0
48596,422.28,773,746,0
48606,420.74,773,746,0
48616,419.10,773,745,0
48626,418.99,773,746,0
48636,418.73,773,745,0
48646,420.10,773,746,0
48656,421.05,773,745,0
48666,422.71,773,746,0
48676,423.35,773,745,0
48686,425.13,773,746,0
48696,425.69,773,745,0
48706,426.30,773,746,0
48716,424.88,773,745,0
48727,423.46,773,746,0
48737,420.58,773,745,0
48747,417.83,773,746,0
48757,413.64,773,745,0
48768,409.81,773,746,0
48777,405.24,773,745,0
48787,401.48,773,746,0
48797,397.14,773,745,0
48807,393.45,773,746,0
48817,389.42,773,745,0
48827,386.42,773,746,0
48837,383.12,773,745,0
48847,380.77,773,746,0
48857,377.88,773,745,0
48867,376.08,773,746,0
48877,373.95,773,745,0
48887,372.85,773,746,0
48897,371.18,773,745,0
48907,370.61,773,746,0
48917,369.92,773,745,0
48927,370.41,773,747,0
48937,370.20,773,745,0
48947,370.70,773,746,0
48957,370.36,773,745,0
48967,370.81,773,747,0
48977,370.78,773,745,0
48987,371.88,773,746,0
48997,373.28,773,745,0
49007,377.40,773,747,0
49017,383.49,773,745,0
49027,393.50,773,746,0
49037,406.17,773,745,0
49047,423.00,773,747,0
49057,441.86,773,745,0
49068,463.46,773,746,0
49078,485.01,773,745,0
49088,506.52,773,747,0
49098,525.43,773,745,0
49118,542.15,743,743,0
49120,554.36,743,747,0
49130,562.99,743,747,0
49140,566.64,743,745,0
49150,566.36,743,747,0
49160,562.05,743,745,0
49170,555.05,743,747,0
49180,545.18,743,745,0
49190,533.73,743,747,0
49200,520.86,743,745,0
49210,507.92,743,747,0
49220,495.17,743,745,0
49230,482.95,743,747,0
49240,471.26,743,745,0
49250,460.56,743,747,0
49260,450.62,743,745,0
49270,441.60,743,746,0
49281,433.37,743,744,0
49291,426.10,743,747,0
49301,420.15,743,745,0
49311,415.48,743,746,0
49321,412.46,743,745,0
49331,411.04,743,747,0
49341,411.16,743,745,0
49351,412.31,743,746,0
49361,414.62,743,745,0
49371,417.09,743,747,0
49381,419.80,743,745,0
49391,421.79,743,746,0
49401,423.27,743,745,0
49411,423.83,743,747,0
49421,423.84,743,745,0
49431,422.77,743,746,0
49441,421.34,743,746,0
49452,419.31,743,747,0
49462,417.12,743,745,0
49472,414.08,743,746,0
49482,410.93,743,745,0
49492,406.79,743,746,0
49502,402.74,743,745,0
49512,397.80,743,746,0
49522,392.98,743,745,0
49532,387.50,743,746,0
49542,382.89,743,745,0
49552,378.30,743,746,0
49562,375.42,743,745,0
49572,372.59,743,747,0
49582,371.04,743,745,0
49592,369.75,743,746,0
49602,369.78,743,745,0
49612,369.72,743,747,0
49623,370.57,743,745,0
49633,370.57,743,746,0
49643,371.30,743,745,0
49653,371.60,743,746,0
49664,372.32,743,745,0
49673,372.48,743,746,0
49683,373.15,743,745,0
49693,373.32,743,746,0
49703,374.59,743,745,0
49713,375.79,743,746,0
49723,379.02,743,745,0
49733,383.56,743,746,0
49743,391.58,743,745,0
49753,401.95,743,746,0
49763,416.58,743,745,0
49773,433.68,743,746,0
49783,454.39,743,745,0
49793,476.04,743,746,0
49803,499.17,743,745,0
49813,520.94,743,746,0
49832,542.17,715,745,0
49835,559.52,715,746,0
49844,574.41,715,745,0
49854,584.06,715,746,0
49864,589.95,715,746,0
49874,590.44,715,746,0
49884,587.52,715,745,0
49894,579.99,715,746,0
49904,570.48,715,746,0
49914,558.04,715,746,0
49924,545.51,715,745,0
49934,531.56,715,746,0
49944,518.66,715,745,0
49954,505.31,715,746,0
49964,493.69,715,745,0
49974,482.29,715,746,0
49984,472.73,715,745,0
49994,463.13,715,746,0
50004,455.85,715,745,0
50014,448.74,715,746,0
50024,443.54,715,745,0
50034,438.37,715,746,0
50044,435.00,715,745,0
50054,431.66,715,746,0
50064,430.30,715,745,0
50074,428.97,715,746,0
50084,429.24,715,745,0
50094,429.46,715,746,0
50104,430.91,715,745,0
50114,431.41,715,746,0
50124,432.61,715,745,0
50135,432.43,715,745,0
50145,432.52,715,746,0
50155,431.12,715,745,0
50165,429.63,715,745,0
50176,426.70,715,745,0
50185,424.52,715,746,0
50195,420.85,715,745,0
50205,417.85,715,746,0
50215,413.61,715,745,0
50225,410.17,715,746,0
50235,405.92,715,745,0
50245,402.69,715,745,0
50255,398.45,715,745,0
50265,395.44,715,746,0
50275,391.93,715,745,0
50285,390.02,715,746,0
50295,387.78,715,745,0
50305,386.78,715,746,0
50315,385.00,715,746,0
50325,384.19,715,746,0
50335,382.46,715,745,0
50345,381.59,715,746,0
50355,379.66,715,746,0
50365,378.69,715,746,0
50375,376.90,715,745,0
50385,376.16,715,746,0
50395,374.78,715,746,0
50405,374.76,715,745,0
50415,374.45,715,745,0
50425,375.86,715,746,0
50435,377.27,715,745,0
50445,381.52,715,745,0
50455,387.53,715,745,0
50465,397.66,715,746,0
50476,410.66,715,745,0
50486,427.99,715,746,0
50496,447.54,715,744,0
50506,470.56,715,746,0
50516,494.05,715,745,0
50526,518.08,715,746,0
50545,539.70,713,745,0
50547,558.86,713,747,0
50557,573.77,713,745,0
50567,585.11,713,746,0
50577,591.12,713,744,0
50587,593.23,713,746,0
50597,590.72,713,745,0
50607,585.66,713,746,0
50617,577.28,713,744,0
50627,567.38,713,746,0
50637,555.57,713,745,0
50647,543.74,713,746,0
50657,531.05,713,744,0
50667,519.03,713,746,0
50677,506.59,713,745,0
50688,495.36,713,746,0
50697,484.07,713,744,0
50707,473.93,713,746,0
50717,464.22,713,745,0
50727,456.18,713,747,0
50737,448.37,713,745,0
50747,442.00,713,747,0
50757,435.92,713,745,0
50767,431.31,713,747,0
50777,427.10,713,745,0
50787,424.03,713,747,0
50797,420.68,713,745,0
50807,418.46,713,746,0
50817,416.31,713,744,0
50827,415.57,713,746,0
50837,414.72,713,745,0
50847,414.97,713,746,0
50857,414.89,713,744,0
50867,415.87,713,746,0
50877,416.38,713,745,0
50887,417.21,713,746,0
50897,416.93,713,744,0
50907,416.82,713,746,0
50917,415.29,713,745,0
50927,413.62,713,746,0
50937,410.69,713,744,0
50947,407.78,713,746,0
50957,403.95,713,745,0
50967,400.36,713,746,0
50977,395.97,713,744,0
50988,392.16,713,746,0
50998,388.09,713,745,0
51008,384.67,713,747,0
51018,381.34,713,744,0
51028,378.80,713,746,0
51038,376.67,713,745,0
51048,375.70,713,747,0
51058,374.76,713,744,0
51068,374.19,713,747,0
51078,373.40,713,745,0
51088,372.77,713,747,0
51098,371.81,713,744,0
51108,370.58,713,747,0
51118,368.74,713,745,0
51128,367.44,713,747,0
51138,366.71,713,744,0
51148,367.48,713,747,0
51159,369.91,713,745,0
51169,374.78,713,747,0
51179,382.65,713,744,0
51189,394.02,713,747,0
51200,408.84,713,745,0
51209,427.15,713,747,0
51219,448.06,713,744,0
51229,470.84,713,747,0
51239,494.50,713,745,0
51249,517.62,713,747,0
51268,538.61,723,745,0
51270,556.17,723,748,0
51280,570.22,723,746,0
51290,579.75,723,747,0
51300,584.71,723,744,0
51310,585.14,723,747,0
51320,581.54,723,745,0
51330,574.95,723,747,0
51340,566.18,723,745,0
51350,555.28,723,747,0
51360,543.58,723,745,0
51371,531.28,723,746,0
51380,519.07,723,745,0
51390,506.88,723,746,0
51400,495.47,723,745,0
51410,484.44,723,746,0
51420,474.24,723,745,0
51430,464.65,723,746,0
51440,456.14,723,746,0
51450,448.56,723,747,0
51460,442.69,723,745,0
51470,437.77,723,747,0
51480,434.41,723,746,0
51490,431.76,723,747,0
51500,430.12,723,745,0
51510,429.14,723,747,0
51520,428.97,723,746,0
51530,428.64,723,747,0
51540,428.74,723,745,0
51550,428.44,723,747,0
51560,428.35,723,746,0
51570,427.73,723,747,0
51580,427.08,723,745,0
51590,425.43,723,747,0
51600,423.46,723,745,0
51610,420.28,723,746,0
51620,417.07,723,745,0
51630,413.10,723,747,0
51640,409.30,723,745,0
51650,404.88,723,747,0
51660,401.06,723,745,0
51671,396.97,723,746,0
51681,393.72,723,745,0
51691,390.08,723,746,0
51701,387.27,723,745,0
51712,384.19,723,746,0
51721,381.90,723,745,0
51731,379.40,723,746,0
51741,377.83,723,746,0
51751,375.86,723,746,0
51761,374.75,723,745,0
51771,373.11,723,747,0
51781,372.39,723,745,0
51791,371.07,723,746,0
51801,370.45,723,745,0
51811,369.24,723,746,0
51821,368.96,723,745,0
51831,368.33,723,746,0
51841,368.96,723,745,0
51851,369.91,723,746,0
51861,373.15,723,745,0
51871,377.52,723,746,0
51881,384.99,723,744,0
51891,394.64,723,746,0
51901,408.20,723,744,0
51911,425.46,723,746,0
51921,446.88,723,745,0
51931,470.06,723,746,0
51941,495.45,723,745,0
51951,520.47,723,746,0
51971,544.89,702,744,0
51973,565.58,702,745,0
51983,582.76,702,745,0
51993,594.28,702,745,0
52003,601.35,702,745,0
52013,602.70,702,745,0
52023,600.13,702,745,0
52033,593.07,702,745,0
52043,584.52,702,745,0
52054,572.71,702,745,0
52063,561.09,702,746,0
52073,547.99,702,745,0
52083,535.10,702,745,0
52093,521.27,702,745,0
52103,508.93,702,745,0
52113,496.09,702,745,0
52123,484.58,702,745,0
52133,472.75,702,745,0
52143,463.31,702,745,0
52153,454.77,702,745,0
52163,448.71,702,745,0
52173,442.67,702,745,0
52183,438.70,702,746,0
52193,435.02,702,745,0
52203,432.83,702,745,0
52213,430.09,702,746,0
52224,428.82,702,746,0
52233,427.16,702,746,0
52243,427.03,702,745,0
52253,426.25,702,746,0
52263,426.56,702,746,0
52273,425.66,702,745,0
52283,425.51,702,745,0
52293,423.94,702,745,0
52303,422.97,702,746,0
52313,420.45,702,745,0
52323,418.47,702,745,0
52333,414.99,702,745,0
52343,412.08,702,745,0
52353,407.85,702,746,0
52363,404.56,702,745,0
52373,400.02,702,745,0
52383,396.41,702,745,0
52393,391.83,702,745,0
52403,388.45,702,745,0
52413,384.33,702,745,0
52423,381.53,702,746,0
52433,378.12,702,745,0
52443,376.20,702,745,0
52453,373.78,702,746,0
52463,372.56,702,746,0
52473,370.46,702,745,0
52483,369.55,702,745,0
52493,367.89,702,745,0
52503,367.49,702,746,0
52513,366.10,702,745,0
52524,365.73,702,745,0
52534,364.61,702,745,0
52544,364.64,702,746,0
52554,364.02,702,744,0
52564,364.36,702,746,0
52574,363.82,702,745,0
52584,364.69,702,746,0
52594,365.43,702,744,0
52604,368.43,702,746,0
52614,372.46,702,745,0
52624,379.90,702,746,0
52634,389.70,702,744,0
52644,404.41,702,746,0
52654,421.99,702,745,0
52664,443.76,702,745,0
52674,467.19,702,745,0
52684,493.36,702,745,0
52704,518.92,734,745,0
52706,543.55,734,746,0
52716,565.11,734,745,0
52726,583.94,734,746,0
52737,597.80,734,744,0
52747,607.84,734,746,0
52757,612.09,734,744,0
52767,611.94,734,746,0
52777,607.80,734,745,0
52787,600.32,734,746,0
52797,589.12,734,744,0
52807,575.84,734,746,0
52817,560.80,734,744,0
52827,545.95,734,746,0
52837,531.86,734,744,0
52847,519.18,734,746,0
52857,506.91,734,745,0
52867,496.35,734,746,0
52877,486.90,734,745,0
52887,478.49,734,746,0
52897,470.20,734,745,0
52908,462.04,734,746,0
52918,453.71,734,745,0
52928,446.00,734,746,0
52938,439.19,734,745,0
52948,433.43,734,747,0
52958,428.80,734,745,0
52968,425.52,734,746,0
52978,423.56,734,744,0
52988,422.49,734,747,0
52998,422.26,734,745,0
53008,422.18,734,746,0
53018,422.47,734,744,0
53028,422.80,734,747,0
53038,422.77,734,745,0
53048,422.03,734,746,0
53058,420.78,734,745,0
53068,418.74,734,747,0
53079,416.16,734,745,0
53089,412.69,734,746,0
53099,408.79,734,745,0
53109,404.27,734,746,0
53120,399.86,734,745,0
53129,395.19,734,746,0
53139,390.85,734,745,0
53149,386.22,734,746,0
53159,382.43,734,745,0
53169,378.44,734,746,0
53179,375.35,734,745,0
53189,372.07,734,746,0
53199,369.78,734,745,0
53209,367.45,734,746,0
53219,365.98,734,745,0
53229,364.27,734,746,0
53239,363.46,734,745,0
53249,362.55,734,746,0
53259,362.39,734,745,0
53269,362.01,734,746,0
53279,362.52,734,745,0
53289,362.71,734,746,0
53299,363.44,734,745,0
53309,363.61,734,746,0
53319,364.24,734,745,0
53329,364.30,734,746,0
53339,364.81,734,745,0
53349,364.95,734,746,0
53359,366.72,734,745,0
53369,369.21,734,746,0
53379,374.24,734,745,0
53389,381.84,734,746,0
53399,394.02,734,745,0
53409,409.91,734,746,0
53420,431.02,734,745,0
53430,454.72,734,746,0
53440,481.80,734,745,0
53450,509.42,734,746,0
53470,537.02,765,744,0
53473,561.10,765,746,0
53482,582.20,765,746,0
53492,596.97,765,745,0
53502,607.31,765,745,0
53512,611.37,765,745,0
53522,611.39,765,745,0
53532,605.96,765,745,0
53542,598.60,765,745,0
53552,587.36,765,746,0
53562,575.42,765,745,0
53572,561.41,765,745,0
53582,547.87,765,745,0
53592,533.25,765,745,0
53602,520.15,765,745,0
53612,506.13,765,745,0
53622,493.92,765,745,0
53633,481.65,765,745,0
53643,471.04,765,745,0
53653,459.54,765,744,0
53663,449.35,765,745,0
53673,439.34,765,744,0
53683,431.78,765,745,0
53693,425.29,765,745,0
53703,421.18,765,745,0
53713,417.61,765,744,0
53723,418.07,765,745,0
53733,419.72,765,745,0
53743,423.28,765,745,0
53753,426.11,765,745,0
53763,429.33,765,746,0
53773,431.12,765,745,0
53783,433.31,765,745,0
53793,432.70,765,745,0
53804,431.68,765,746,0
53814,428.30,765,744,0
53824,424.91,765,746,0
53834,419.71,765,745,0
53844,414.78,765,746,0
53854,407.95,765,744,0
53864,401.32,765,745,0
53874,393.72,765,744,0
53884,387.38,765,745,0
53894,380.92,765,744,0
53904,376.45,765,746,0
53914,373.05,765,744,0
53924,372.14,765,746,0
53934,371.63,765,744,0
53944,372.38,765,745,0
53954,372.44,765,744,0
53964,373.55,765,745,0
53975,373.26,765,744,0
53985,373.18,765,745,0
53995,371.75,765,744,0
54005,371.40,765,746,0
54016,370.25,765,744,0
54025,370.56,765,746,0
54035,369.71,765,744,0
54045,369.37,765,746,0
54055,367.76,765,744,0
54065,366.97,765,745,0
54075,365.40,765,744,0
54085,364.72,765,746,0
54095,363.05,765,744,0
54105,362.35,765,745,0
54115,361.60,765,744,0
54125,362.02,765,746,0
54135,362.79,765,744,0
54145,365.46,765,745,0
54155,369.65,765,744,0
54165,377.21,765,746,0
54175,387.44,765,744,0
54185,402.09,765,745,0
54195,419.76,765,744,0
54205,441.48,765,746,0
54224,465.16,755,744,0
54227,490.57,755,746,0
54236,515.81,755,745,0
54246,540.30,755,746,0
54256,561.38,755,744,0
54266,578.97,755,746,0
54276,591.40,755,744,0
54286,599.08,755,746,0
54296,602.02,755,744,0
54306,600.38,755,746,0
54316,594.18,755,744,0
54326,584.57,755,746,0
54336,572.53,755,744,0
54346,558.83,755,746,0
54356,543.92,755,744,0
54366,528.90,755,746,0
54376,513.46,755,744,0
54386,498.75,755,746,0
54396,484.94,755,744,0
54406,472.23,755,746,0
54416,460.59,755,744,0
54426,450.51,755,746,0
54436,441.14,755,744,0
54446,433.56,755,746,0
54456,427.05,755,744,0
54466,422.19,755,746,0
54476,418.58,755,744,0
54487,416.56,755,746,0
54497,416.05,755,745,0
54507,416.59,755,746,0
54517,417.83,755,744,0
54528,419.51,755,746,0
54537,421.50,755,745,0
54547,422.85,755,746,0
54557,423.45,755,744,0
54567,422.67,755,746,0
54577,420.97,755,744,0
54587,418.71,755,746,0
54597,415.92,755,744,0
54607,412.35,755,746,0
54617,408.64,755,744,0
54627,404.68,755,746,0
54637,400.79,755,744,0
54647,396.95,755,746,0
54657,392.77,755,744,0
54667,388.72,755,746,0
54677,384.86,755,744,0
54687,381.18,755,746,0
54697,378.08,755,744,0
54707,375.14,755,746,0
54717,372.48,755,744,0
54727,370.11,755,746,0
54737,368.28,755,744,0
54747,366.65,755,746,0
54757,365.43,755,743,0
54767,364.36,755,746,0
54777,363.69,755,744,0
54787,363.96,755,746,0
54797,364.65,755,744,0
54807,365.06,755,746,0
54817,365.08,755,744,0
54828,364.80,755,746,0
54838,364.22,755,744,0
54848,363.47,755,746,0
54858,362.64,755,745,0
54868,362.36,755,746,0
54878,363.80,755,744,0
54888,367.50,755,746,0
54898,374.51,755,745,0
54908,384.77,755,746,0
54918,399.15,755,744,0
54928,416.94,755,746,0
54938,438.56,755,745,0
54948,462.43,755,746,0
54958,488.10,755,744,0
54977,513.40,753,743,0
54980,538.01,753,746,0
54989,559.73,753,746,0
54999,578.29,753,744,0
55009,591.74,753,746,0
55019,600.61,753,745,0
55029,603.85,753,746,0
55040,602.78,753,744,0
55049,596.98,753,746,0
55059,588.11,753,745,0
55069,575.74,753,746,0
55079,562.10,753,744,0
55089,547.46,753,746,0
55099,533.60,753,745,0
55109,519.45,753,746,0
55119,506.50,753,745,0
55129,493.07,753,746,0
55139,480.70,753,744,0
55149,468.15,753,746,0
55159,456.53,753,745,0
55169,444.93,753,746,0
55179,435.18,753,745,0
55189,425.83,753,746,0
55199,419.24,753,745,0
55209,413.98,753,745,0
55219,411.33,753,744,0
55229,409.73,753,746,0
55239,409.94,753,744,0
55249,410.30,753,745,0
55259,411.97,753,744,0
55269,413.18,753,746,0
55279,415.14,753,745,0
55289,416.04,753,745,0
55299,417.06,753,744,0
55309,416.95,753,746,0
55319,416.92,753,745,0
55329,415.62,753,745,0
55340,414.40,753,745,0
55350,411.63,753,745,0
55360,409.04,753,745,0
55370,404.96,753,745,0
55380,401.20,753,745,0
55390,396.64,753,746,0
55400,393.36,753,745,0
55410,388.97,753,745,0
55420,385.63,753,745,0
55430,381.33,753,746,0
55440,378.14,753,745,0
55450,374.42,753,746,0
55460,371.42,753,745,0
55470,366.71,753,746,0
55480,363.07,753,745,0
55490,359.15,753,746,0
55500,356.75,753,745,0
55511,354.08,753,746,0
55521,352.77,753,745,0
55531,351.60,753,745,0
55541,352.23,753,745,0
55552,352.93,753,745,0
55561,354.54,753,745,0
55571,355.41,753,745,0
55581,357.81,753,745,0
55591,359.37,753,745,0
55601,361.87,753,745,0
55611,363.11,753,745,0
55621,365.18,753,745,0
55631,366.20,753,745,0
55641,369.69,753,745,0
55651,373.17,753,745,0
55661,379.93,753,745,0
55671,388.57,753,745,0
55681,402.24,753,745,0
55691,419.40,753,745,0
55701,441.99,753,745,0
55711,466.42,753,745,0
55721,493.72,753,745,0
55740,520.55,763,743,0
55743,547.04,763,747,0
55752,570.43,763,745,0
55762,590.23,763,746,0
55772,603.66,763,745,0
55782,611.99,763,745,0
55792,613.84,763,745,0
55802,611.40,763,746,0
55812,603.91,763,744,0
55822,593.56,763,745,0
55832,580.02,763,745,0
55842,566.39,763,746,0
55852,551.66,763,744,0
55862,538.09,763,745,0
55872,524.09,763,744,0
55882,511.51,763,746,0
55892,498.58,763,744,0
55902,487.35,763,745,0
55912,475.93,763,745,0
55922,466.09,763,746,0
55932,456.17,763,744,0
55942,448.06,763,745,0
55952,440.07,763,745,0
55962,434.48,763,746,0
55972,429.23,763,744,0
55982,426.08,763,745,0
55992,422.80,763,745,0
56002,421.23,763,746,0
56012,419.66,763,744,0
56023,419.68,763,745,0
56033,419.05,763,744,0
56043,419.46,763,746,0
56053,419.15,763,744,0
56064,419.88,763,746,0
56073,419.74,763,744,0
56083,420.12,763,746,0
56093,419.10,763,744,0
56103,418.21,763,746,0
56113,415.75,763,744,0
56123,413.17,763,746,0
56133,409.13,763,744,0
56143,405.19,763,746,0
56153,400.33,763,744,0
56163,395.91,763,746,0
56173,391.01,763,744,0
56183,386.80,763,746,0
56193,382.02,763,744,0
56203,378.59,763,746,0
56213,374.90,763,744,0
56223,372.78,763,746,0
56233,370.58,763,745,0
56243,369.29,763,746,0
56253,367.06,763,744,0
56263,365.67,763,746,0
56273,363.63,763,744,0
56283,362.75,763,746,0
56293,360.64,763,745,0
56303,359.33,763,746,0
56313,357.31,763,744,0
56323,357.04,763,746,0
56333,356.69,763,744,0
56343,357.38,763,746,0
56353,357.65,763,744,0
56364,358.61,763,746,0
56374,358.99,763,744,0
56384,360.15,763,746,0
56394,361.30,763,744,0
56404,364.47,763,746,0
56414,368.83,763,745,0
56424,376.04,763,746,0
56434,385.84,763,744,0
56444,400.03,763,746,0
56454,417.98,763,745,0
56464,440.14,763,746,0
56474,464.14,763,745,0
56484,489.94,763,747,0
56503,514.99,763,745,0
56505,538.82,763,747,0
56515,559.49,763,745,0
56525,575.80,763,746,0
56535,586.40,763,744,0
56545,592.37,763,746,0
56555,593.11,763,744,0
56565,590.04,763,746,0
56576,583.30,763,744,0
56585,573.78,763,746,0
56595,562.10,763,744,0
56605,549.51,763,746,0
56615,536.16,763,744,0
56625,523.00,763,746,0
56635,510.01,763,744,0
56645,497.79,763,746,0
56655,485.90,763,745,0
56665,475.17,763,746,0
56675,464.92,763,744,0
56685,456.29,763,747,0
56695,448.44,763,745,0
56705,441.54,763,746,0
56715,435.12,763,745,0
56725,429.13,763,746,0
56735,423.47,763,745,0
56745,418.96,763,746,0
56755,414.56,763,744,0
56765,411.26,763,746,0
56775,408.83,763,745,0
56785,407.59,763,746,0
56795,407.63,763,744,0
56805,408.68,763,746,0
56815,410.28,763,745,0
56825,411.91,763,746,0
56835,412.88,763,744,0
56845,413.47,763,746,0
56855,413.07,763,745,0
56865,412.15,763,746,0
56876,410.31,763,744,0
56886,407.47,763,746,0
56896,404.07,763,744,0
56906,400.49,763,746,0
56916,396.96,763,745,0
56926,393.50,763,747,0
56936,389.88,763,745,0
56946,386.27,763,746,0
56956,382.98,763,745,0
56966,379.43,763,747,0
56976,375.70,763,744,0
56986,371.33,763,746,0
56996,367.55,763,744,0
57006,364.00,763,746,0
57016,361.55,763,744,0
57026,359.50,763,746,0
57036,358.97,763,744,0
57047,359.23,763,746,0
57057,360.58,763,745,0
57067,361.69,763,746,0
57077,363.67,763,744,0
57088,364.71,763,746,0
57097,366.47,763,745,0
57107,367.61,763,746,0
57117,369.27,763,744,0
57127,371.03,763,746,0
57137,374.28,763,745,0
57147,378.61,763,746,0
57157,386.23,763,744,0
57167,396.10,763,746,0
57177,410.13,763,745,0
57187,427.45,763,746,0
57197,448.87,763,745,0
57207,471.75,763,746,0
57217,495.83,763,745,0
57227,519.02,763,746,0
57246,541.51,743,744,0
57248,560.00,743,746,0
57259,575.65,743,745,0
57268,585.95,743,746,0
57278,592.91,743,745,0
57288,594.86,743,745,0
57298,593.53,743,745,0
57308,587.37,743,746,0
57318,579.25,743,745,0
57328,567.34,743,745,0
57338,554.47,743,745,0
57348,539.67,743,746,0
57358,525.63,743,744,0
57368,510.65,743,745,0
57378,497.17,743,745,0
57388,483.92,743,746,0
57398,472.76,743,745,0
57408,461.56,743,745,0
57418,451.88,743,745,0
57428,441.71,743,745,0
57438,433.44,743,744,0
57448,425.34,743,745,0
57458,419.28,743,745,0
57468,413.45,743,745,0
57478,410.23,743,744,0
57488,407.85,743,745,0
57498,408.24,743,745,0
57508,408.89,743,745,0
57518,411.28,743,744,0
57528,413.04,743,745,0
57538,415.77,743,745,0
57548,417.08,743,745,0
57559,418.82,743,744,0
57569,418.78,743,745,0
57579,418.94,743,745,0
57589,417.24,743,745,0
57600,415.58,743,744,0
57609,412.06,743,745,0
57619,409.09,743,745,0
57629,404.69,743,745,0
57639,401.01,743,744,0
57649,396.08,743,745,0
57659,392.28,743,745,0
57669,387.48,743,745,0
57679,384.30,743,745,0
57689,380.18,743,745,0
57699,377.60,743,745,0
57709,374.29,743,745,0
57719,372.79,743,745,0
57729,370.41,743,745,0
57739,369.64,743,745,0
57749,367.91,743,745,0
57759,367.59,743,745,0
57769,366.13,743,745,0
57779,366.00,743,745,0
57789,364.59,743,745,0
57799,364.58,743,745,0
57809,363.34,743,745,0
57819,363.49,743,745,0
57829,362.57,743,745,0
57839,363.60,743,745,0
57849,364.19,743,745,0
57859,367.56,743,745,0
57869,372.32,743,745,0
57879,381.48,743,745,0
57889,392.57,743,745,0
57900,408.55,743,745,0
57910,426.30,743,745,0
57920,448.41,743,745,0
57930,471.39,743,744,0
57940,496.21,743,745,0
57950,519.29,743,745,0
57969,542.01,723,743,0
57971,560.73,723,745,0
57981,577.36,723,745,0
57991,588.43,723,744,0
58001,596.10,723,746,0
58011,597.79,723,744,0
58021,596.22,723,745,0
58031,589.90,723,744,0
58041,581.83,723,745,0
58051,570.35,723,743,0
58061,558.55,723,745,0
58071,545.14,723,745,0
58081,532.41,723,745,0
58091,518.66,723,743,0
58101,506.42,723,745,0
58112,493.48,723,744,0
58121,482.45,723,745,0
58131,471.00,723,743,0
58141,461.10,723,745,0
58151,451.17,723,744,0
58161,443.88,723,745,0
58171,436.63,723,743,0
58181,431.77,723,745,0
58191,426.95,723,744,0
58201,424.65,723,745,0
58211,422.48,723,743,0
58221,422.55,723,745,0
58231,422.26,723,744,0
58241,423.98,723,746,0
58251,425.10,723,744,0
58261,426.74,723,745,0
58271,426.61,723,744,0
58281,426.81,723,745,0
58291,425.28,723,743,0
58301,423.95,723,745,0
58311,420.41,723,744,0
58321,417.16,723,745,0
58331,412.83,723,743,0
58341,409.53,723,745,0
58351,405.22,723,744,0
58361,401.72,723,745,0
58371,397.05,723,743,0
58381,393.52,723,745,0
58391,389.29,723,744,0
58401,386.08,723,745,0
58412,381.94,723,744,0
58422,378.83,723,745,0
58432,375.15,723,744,0
58442,372.71,723,746,0
58452,369.75,723,744,0
58462,367.81,723,745,0
58472,365.51,723,744,0
58482,364.59,723,745,0
58492,363.64,723,744,0
58502,364.13,723,745,0
58512,364.01,723,744,0
58522,364.69,723,746,0
58532,364.74,723,744,0
58542,365.76,723,745,0
58552,365.92,723,744,0
58562,366.54,723,746,0
58572,366.25,723,744,0
58583,367.25,723,745,0
58593,368.37,723,744,0
58603,372.16,723,746,0
58613,377.34,723,744,0
58624,385.64,723,746,0
58633,396.16,723,744,0
58643,410.68,723,746,0
58653,428.48,723,744,0
58663,450.24,723,746,0
58673,473.44,723,744,0
58683,498.76,723,746,0
58702,524.38,733,744,0
58705,549.04,733,746,0
58714,571.57,733,744,0
58724,590.64,733,746,0
58734,605.23,733,744,0
58744,615.06,733,746,0
58754,619.46,733,744,0
58764,619.19,733,746,0
58774,615.06,733,744,0
58784,607.42,733,746,0
58795,597.01,733,744,0
58804,585.09,733,746,0
58814,571.99,733,744,0
58824,558.62,733,746,0
58834,545.06,733,744,0
58844,532.27,733,746,0
58854,519.55,733,744,0
58864,507.30,733,745,0
58874,495.38,733,744,0
58884,484.42,733,746,0
58894,474.22,733,744,0
58904,464.94,733,745,0
58914,456.65,733,744,0
58924,449.60,733,746,0
58934,443.85,733,744,0
58944,439.22,733,745,0
58954,435.94,733,744,0
58964,433.56,733,746,0
58974,432.23,733,744,0
58984,431.43,733,745,0
58994,431.26,733,744,0
59004,431.44,733,746,0
59014,431.48,733,744,0
59024,431.16,733,745,0
59034,430.60,733,744,0
59044,429.35,733,746,0
59054,427.44,733,744,0
59064,425.21,733,745,0
59074,422.62,733,744,0
59084,418.96,733,746,0
59095,414.69,733,744,0
59105,409.51,733,745,0
59115,404.39,733,744,0
59125,398.74,733,746,0
59136,393.03,733,745,0
59145,386.85,733,745,0
59155,381.71,733,744,0
59165,376.74,733,746,0
59175,372.92,733,745,0
59185,369.21,733,745,0
59195,366.54,733,744,0
59205,363.76,733,745,0
59215,362.08,733,745,0
59225,360.34,733,745,0
59235,359.47,733,744,0
59245,358.30,733,746,0
59255,357.95,733,745,0
59265,357.24,733,745,0
59275,357.08,733,744,0
59285,356.37,733,746,0
59295,356.39,733,745,0
59305,356.19,733,745,0
59315,358.02,733,744,0
59325,360.33,733,745,0
59335,365.11,733,745,0
59345,371.89,733,745,0
59355,382.51,733,744,0
59365,396.33,733,746,0
59375,414.44,733,745,0
59385,434.88,733,745,0
59395,458.75,733,744,0
59405,484.11,733,746,0
59415,510.56,733,745,0
59425,535.68,733,746,0
59436,559.18,733,745,0
59455,578.84,753,744,0
59458,594.36,753,746,0
59467,603.98,753,745,0
59478,608.83,753,744,0
59487,607.98,753,745,0
59497,603.27,753,745,0
59507,593.76,753,745,0
59517,582.26,753,744,0
59527,568.64,753,745,0
59537,555.55,753,745,0
59547,541.24,753,745,0
59557,528.31,753,744,0
59567,514.98,753,745,0
59577,503.71,753,745,0
59587,492.14,753,745,0
59597,482.37,753,744,0
59607,472.06,753,745,0
59617,463.68,753,745,0
59627,455.12,753,745,0
59637,448.61,753,744,0
59648,442.04,753,745,0
59657,437.70,753,745,0
59667,433.25,753,745,0
59677,431.07,753,744,0
59687,428.95,753,745,0
59697,428.75,753,745,0
59707,428.18,753,745,0
59717,429.03,753,744,0
59727,428.98,753,745,0
59737,429.93,753,745,0
59747,429.48,753,745,0
59757,429.68,753,744,0
59767,428.19,753,745,0
59777,427.10,753,745,0
59787,424.24,753,745,0
59797,421.86,753,744,0
59807,417.74,753,745,0
59817,414.13,753,745,0
59827,409.04,753,745,0
59837,404.78,753,744,0
59847,399.53,753,745,0
59857,395.39,753,745,0
59867,390.39,753,745,0
59877,386.67,753,744,0
59887,382.14,753,745,0
59897,379.01,753,745,0
59907,375.24,753,745,0
59917,372.85,753,744,0
59927,369.68,753,745,0
59937,367.93,753,745,0
59948,365.77,753,745,0
59958,365.50,753,745,0
59968,364.23,753,745,0
59978,363.91,753,745,0
59988,362.22,753,745,0
59998,361.98,753,744,0
60008,361.00,753,745,0
60018,361.90,753,745,0
60028,362.92,753,745,0
60038,367.53,753,744,0
60048,374.61,753,745,0
60058,386.60,753,745,0
60068,401.51,753,745,0
60078,421.41,753,744,0
60088,443.32,753,745,0
60098,468.76,753,745,0
60108,494.08,753,745,0
60119,520.07,753,745,0
60129,543.28,753,744,0
60139,564.45,753,745,0
60158,580.77,703,744,0
60161,592.80,703,746,0
60171,598.99,703,744,0
60181,601.31,703,746,0
60191,598.17,703,744,0
60201,591.82,703,745,0
60211,581.55,703,744,0
60221,569.64,703,746,0
60231,556.08,703,744,0
60241,542.04,703,745,0
60251,527.20,703,744,0
60261,513.08,703,746,0
60271,498.61,703,744,0
60281,485.14,703,745,0
60291,471.39,703,744,0
60301,459.49,703,746,0
60311,447.98,703,744,0
60321,437.92,703,745,0
60332,428.47,703,744,0
60342,421.73,703,746,0
60352,416.24,703,744,0
60362,413.04,703,745,0
60372,410.63,703,744,0
60382,410.48,703,746,0
60392,411.11,703,744,0
60402,412.83,703,746,0
60412,414.38,703,744,0
60422,416.37,703,746,0
60432,418.10,703,744,0
60442,419.44,703,746,0
60452,419.65,703,744,0
60462,419.33,703,746,0
60472,417.86,703,744,0
60482,415.63,703,746,0
60492,412.27,703,744,0
60503,408.80,703,746,0
60513,405.09,703,745,0
60523,400.52,703,745,0
60533,395.35,703,744,0
60544,390.10,703,746,0
60553,384.76,703,745,0
60563,379.73,703,746,0
60573,374.50,703,744,0
60583,369.38,703,746,0
60593,365.23,703,745,0
60603,361.91,703,746,0
60613,359.62,703,744,0
60623,357.98,703,746,0
60633,356.96,703,745,0
60643,356.24,703,746,0
60653,356.00,703,744,0
60663,355.83,703,746,0
60673,356.05,703,745,0
60683,356.29,703,746,0
60693,356.42,703,744,0
60703,356.42,703,746,0
60713,356.55,703,744,0
60723,356.60,703,746,0
60733,357.36,703,744,0
60743,358.84,703,746,0
60753,362.19,703,744,0
60763,368.05,703,746,0
60773,377.08,703,744,0
60783,389.61,703,746,0
60793,406.57,703,744,0
60803,427.23,703,746,0
60813,451.29,703,744,0
60823,477.26,703,746,0
60833,504.57,703,744,0
60844,531.14,703,746,0
60863,556.00,705,744,0
60865,576.66,705,748,0
60875,593.99,705,745,0
60886,605.99,705,745,0
60895,613.67,705,744,0
60905,615.61,705,745,0
60915,613.93,705,745,0
60925,607.65,705,745,0
60935,599.48,705,744,0
60945,588.07,705,745,0
60955,576.17,705,745,0
60965,562.19,705,745,0
60975,548.68,705,744,0
60985,533.95,705,745,0
60995,520.68,705,745,0
61005,507.06,705,745,0
61015,494.57,705,744,0
61025,481.76,705,745,0
61035,470.77,705,745,0
61045,460.13,705,745,0
61056,451.69,705,744,0
61065,443.98,705,746,0
61075,438.93,705,745,0
61085,434.32,705,745,0
61095,431.53,705,744,0
61105,428.63,705,745,0
61115,427.62,705,745,0
61125,426.45,705,745,0
61135,426.27,705,744,0
61145,424.95,705,745,0
61155,424.62,705,744,0
61165,423.49,705,745,0
61175,423.56,705,744,0
61185,422.58,705,745,0
61195,422.15,705,744,0
61205,420.35,705,745,0
61215,418.87,705,744,0
61225,415.82,705,745,0
61235,413.39,705,744,0
61245,409.33,705,745,0
61255,405.63,705,744,0
61265,400.51,705,745,0
61275,396.20,705,744,0
61285,390.91,705,745,0
61295,386.91,705,744,0
61305,381.97,705,744,0
61315,378.76,705,745,0
61325,375.02,705,745,0
61335,372.70,705,745,0
61345,369.58,705,744,0
61356,367.95,705,745,0
61366,365.60,705,744,0
61376,364.74,705,745,0
61386,362.54,705,744,0
61396,361.44,705,744,0
61406,359.12,705,744,0
61416,357.67,705,744,0
61426,354.94,705,744,0
61436,353.37,705,744,0
61446,351.25,705,744,0
61456,351.82,705,745,0
61466,352.21,705,744,0
61476,355.62,705,745,0
61486,359.72,705,744,0
61496,367.26,705,745,0
61506,376.18,705,744,0
61516,389.16,705,745,0
61527,403.34,705,744,0
61537,422.22,705,745,0
61547,442.64,705,744,0
61557,467.18,705,745,0
61568,491.72,705,744,0
61577,517.86,705,745,0
61596,541.35,733,743,0
61598,563.31,733,746,0
61608,580.19,733,744,0
61618,594.06,733,745,0
61628,601.54,733,744,0
61638,605.75,733,745,0
61648,604.24,733,744,0
61658,600.27,733,745,0
61668,592.35,733,743,0
61678,583.03,733,745,0
61688,570.63,733,744,0
61698,558.53,733,745,0
61708,544.44,733,743,0
61718,531.54,733,745,0
61728,517.41,733,744,0
61739,504.81,733,745,0
61748,491.45,733,744,0
61758,479.96,733,745,0
61768,467.84,733,744,0
61778,457.99,733,745,0
61788,447.66,733,743,0
61798,440.01,733,745,0
61808,432.21,733,744,0
61818,427.17,733,745,0
61828,422.19,733,744,0
61838,419.31,733,745,0
61848,416.21,733,744,0
61858,415.59,733,745,0
61868,414.99,733,744,0
61878,416.96,733,745,0
61888,418.26,733,744,0
61898,421.10,733,745,0
61908,423.17,733,743,0
61918,426.33,733,745,0
61928,427.13,733,744,0
61938,427.69,733,745,0
61948,425.56,733,744,0
61958,423.67,733,746,0
61968,419.36,733,744,0
61978,414.75,733,745,0
61988,407.58,733,743,0
61998,401.49,733,745,0
62008,393.72,733,744,0
62018,386.99,733,745,0
62028,378.85,733,743,0
62039,372.55,733,745,0
62049,366.09,733,744,0
62059,362.07,733,745,0
62069,357.81,733,744,0
62080,355.77,733,745,0
62089,353.44,733,744,0
62099,353.13,733,745,0
62109,352.28,733,744,0
62119,353.14,733,745,0
62129,353.18,733,744,0
62139,354.50,733,745,0
62149,354.69,733,744,0
62159,355.64,733,745,0
62169,355.06,733,744,0
62179,355.30,733,745,0
62189,354.35,733,744,0
62199,354.63,733,745,0
62209,354.31,733,744,0
62219,356.53,733,745,0
62229,359.93,733,744,0
62239,367.19,733,745,0
62249,376.86,733,744,0
62259,391.31,733,745,0
62269,408.44,733,744,0
62279,430.17,733,745,0
62289,453.69,733,745,0
62299,479.97,733,746,0
62309,505.35,733,745,0
62319,530.19,733,745,0
62329,551.13,733,745,0
62348,568.96,752,743,0
62351,580.76,752,746,0
62360,588.20,752,745,0
62370,589.64,752,744,0
62380,587.78,752,745,0
62390,581.29,752,744,0
62400,572.89,752,745,0
62410,561.91,752,744,0
62420,551.01,752,746,0
62430,538.45,752,744,0
62440,526.06,752,745,0
62450,512.88,752,744,0
62460,500.53,752,746,0
62470,488.16,752,744,0
62480,476.88,752,745,0
62490,465.52,752,744,0
62500,455.38,752,746,0
62510,445.45,752,744,0
62520,437.04,752,745,0
62530,429.27,752,744,0
62540,423.28,752,746,0
62551,418.22,752,744,0
62561,414.90,752,745,0
62571,412.74,752,745,0
62581,412.26,752,746,0
62592,412.31,752,744,0
62601,413.33,752,745,0
62611,414.09,752,745,0
62621,414.96,752,745,0
62631,415.40,752,745,0
62641,415.67,752,745,0
62651,415.30,752,744,0
62661,414.56,752,746,0
62671,413.07,752,744,0
62681,411.25,752,746,0
62691,408.52,752,744,0
62701,404.98,752,746,0
62711,400.91,752,744,0
62721,396.39,752,745,0
62731,391.78,752,745,0
62741,387.51,752,746,0
62751,383.20,752,745,0
62761,378.94,752,745,0
62771,374.67,752,744,0
62781,370.36,752,746,0
62791,366.26,752,744,0
62801,362.07,752,745,0
62811,357.85,752,744,0
62821,353.99,752,746,0
62831,351.04,752,744,0
62841,348.88,752,745,0
62851,347.38,752,744,0
62861,346.45,752,746,0
62871,346.10,752,745,0
62881,346.07,752,745,0
62892,346.69,752,744,0
62902,347.94,752,746,0
62912,350.87,752,744,0
62922,355.54,752,745,0
62932,363.18,752,745,0
62942,373.62,752,746,0
62952,388.22,752,744,0
62962,406.24,752,745,0
62972,428.58,752,745,0
62982,453.18,752,746,0
62992,479.70,752,745,0
63002,505.85,752,746,0
63012,531.35,752,745,0
63022,553.79,752,746,0
63041,572.75,693,745,0
63043,585.55,693,745,0
63053,594.47,693,745,0
63063,598.32,693,745,0
63073,598.61,693,745,0
63083,594.44,693,746,0
63093,587.45,693,745,0
63104,576.86,693,745,0
63113,565.50,693,745,0
63123,551.64,693,746,0
63133,537.60,693,744,0
63143,522.12,693,746,0
63153,507.64,693,745,0
63163,492.88,693,746,0
63173,480.27,693,744,0
63183,467.89,693,745,0
63193,457.51,693,745,0
63203,447.41,693,746,0
63213,439.19,693,744,0
63223,430.99,693,745,0
63233,424.74,693,745,0
63243,419.20,693,746,0
63253,415.88,693,744,0
63263,413.26,693,746,0
63273,412.50,693,745,0
63283,411.83,693,746,0
63293,412.78,693,744,0
63303,413.32,693,746,0
63313,414.55,693,745,0
63323,414.90,693,746,0
63333,415.36,693,744,0
63343,414.48,693,746,0
63353,414.04,693,745,0
63363,412.14,693,746,0
63373,410.51,693,744,0
63383,407.32,693,746,0
63393,404.44,693,745,0
63404,400.06,693,745,0
63414,396.40,693,745,0
63424,391.61,693,745,0
63434,388.00,693,745,0
63444,383.58,693,745,0
63454,381.09,693,745,0
63464,378.41,693,745,0
63474,377.17,693,746,0
63484,374.55,693,745,0
63494,372.97,693,744,0
63504,370.28,693,745,0
63514,368.91,693,745,0
63524,365.98,693,745,0
63534,363.89,693,745,0
63544,361.01,693,745,0
63554,360.32,693,745,0
63564,359.02,693,745,0
63575,359.36,693,744,0
63585,358.61,693,745,0
63595,359.37,693,745,0
63605,358.92,693,745,0
63616,359.80,693,744,0
63625,359.69,693,745,0
63635,361.62,693,745,0
63645,363.49,693,745,0
63655,369.05,693,744,0
63665,376.06,693,745,0
63675,387.87,693,745,0
63685,402.52,693,745,0
63695,422.72,693,745,0
63705,445.56,693,745,0
63715,472.74,693,745,0
63725,500.16,693,745,0
63745,529.00,703,743,0
63747,555.10,703,744,0
63757,579.84,703,746,0
63767,599.22,703,745,0
63777,614.75,703,745,0
63788,623.61,703,744,0
63798,628.19,703,746,0
63808,626.54,703,745,0
63818,621.92,703,745,0
63828,612.39,703,745,0
63838,601.30,703,746,0
63848,587.63,703,745,0
63858,573.85,703,745,0
63868,558.55,703,744,0
63878,544.33,703,746,0
63888,529.23,703,745,0
63898,515.45,703,745,0
63908,501.13,703,744,0
63918,488.06,703,746,0
63928,475.06,703,745,0
63938,464.24,703,746,0
63948,453.37,703,745,0
63959,444.30,703,746,0
63969,435.21,703,745,0
63979,427.99,703,745,0
63989,421.39,703,744,0
64000,416.73,703,746,0
64009,412.36,703,745,0
64019,410.11,703,746,0
64029,408.79,703,744,0
64039,409.41,703,746,0
64049,410.40,703,745,0
64059,412.17,703,746,0
64069,413.62,703,744,0
64079,415.06,703,746,0
64089,415.51,703,745,0
64099,415.70,703,746,0
64109,414.38,703,744,0
64119,412.34,703,746,0
64129,408.85,703,745,0
64139,404.95,703,746,0
64149,400.08,703,744,0
64159,394.96,703,746,0
64169,388.93,703,744,0
64179,383.68,703,746,0
64189,378.12,703,744,0
64199,373.07,703,746,0
64209,367.73,703,744,0
64219,363.23,703,746,0
64229,358.83,703,744,0
64239,355.20,703,746,0
64249,351.41,703,744,0
64259,348.63,703,746,0
64269,346.13,703,744,0
64279,344.59,703,746,0
64289,343.21,703,744,0
64300,342.51,703,746,0
64310,342.01,703,744,0
64320,341.88,703,746,0
64330,342.39,703,745,0
64340,343.43,703,746,0
64350,344.33,703,744,0
64360,345.43,703,746,0
64370,347.10,703,744,0
64380,350.11,703,746,0
64390,355.27,703,744,0
64400,362.86,703,746,0
64410,374.17,703,745,0
64420,389.93,703,746,0
64430,410.10,703,744,0
64440,434.28,703,746,0
64450,461.45,703,745,0
64460,490.20,703,746,0
64471,518.90,703,744,0
64481,545.54,703,746,0
64500,569.00,756,745,0
64502,587.47,756,747,0
64513,601.43,756,745,0
64523,609.57,756,745,0
64533,612.91,756,745,0
64543,610.63,756,745,0
64553,604.82,756,745,0
64563,595.19,756,746,0
64573,584.20,756,745,0
64583,570.13,756,745,0
64593,555.95,756,745,0
64603,540.19,756,745,0
64613,525.73,756,745,0
64623,510.39,756,745,0
64633,496.34,756,744,0
64643,481.97,756,745,0
64653,469.55,756,745,0
64663,456.78,756,745,0
64673,446.18,756,745,0
64684,435.28,756,745,0
64694,426.93,756,745,0
64704,418.80,756,745,0
64714,413.46,756,745,0
64724,408.52,756,745,0
64734,406.44,756,745,0
64744,404.51,756,745,0
64754,405.08,756,744,0
64764,405.19,756,745,0
64774,407.06,756,745,0
64784,407.81,756,745,0
64794,410.23,756,745,0
64804,411.36,756,745,0
64814,413.44,756,745,0
64824,413.31,756,745,0
64834,413.39,756,744,0
64844,410.96,756,745,0
64855,408.83,756,745,0
64865,403.95,756,745,0
64875,399.34,756,745,0
64885,392.68,756,744,0
64896,387.25,756,745,0
64905,380.87,756,745,0
64915,376.41,756,745,0
64925,371.10,756,744,0
64935,367.69,756,746,0
64945,363.45,756,745,0
64955,361.13,756,745,0
64965,358.01,756,744,0
64975,356.63,756,745,0
64985,354.34,756,745,0
64995,353.68,756,745,0
65005,352.02,756,744,0
65015,351.89,756,746,0
65025,350.46,756,745,0
65035,350.54,756,745,0
65045,349.39,756,744,0
65055,349.87,756,746,0
65065,349.65,756,744,0
65075,351.86,756,745,0
65085,354.47,756,744,0
65095,360.93,756,745,0
65105,369.05,756,744,0
65115,382.11,756,745,0
65125,397.85,756,744,0
65135,419.02,756,745,0
65145,442.33,756,744,0
65155,469.19,756,745,0
65165,495.70,756,744,0
65175,523.09,756,746,0
65185,547.49,756,745,0
65205,570.15,705,743,0
65207,586.77,705,745,0
65217,599.44,705,746,0
65227,605.52,705,745,0
65238,606.74,705,745,0
65247,601.63,705,744,0
65257,593.30,705,745,0
65267,580.22,705,745,0
65277,566.06,705,745,0
65287,549.37,705,744,0
65297,533.27,705,746,0
65307,517.03,705,745,0
65317,502.54,705,745,0
65327,487.80,705,744,0
65337,475.01,705,745,0
65347,462.53,705,745,0
65357,452.17,705,746,0
65367,441.75,705,745,0
65377,433.30,705,746,0
65387,425.15,705,745,0
65397,418.81,705,745,0
65408,412.74,705,744,0
65417,408.61,705,745,0
65427,404.87,705,745,0
65437,403.33,705,746,0
65447,402.20,705,744,0
65457,403.00,705,745,0
65467,404.03,705,745,0
65477,406.42,705,746,0
65487,408.05,705,744,0
65497,410.61,705,746,0
65507,411.97,705,745,0
65517,413.35,705,746,0
65527,412.86,705,745,0
65537,412.22,705,746,0
65547,409.66,705,745,0
65557,406.38,705,746,0
65567,400.69,705,744,0
65577,394.70,705,746,0
65587,387.29,705,745,0
65597,380.60,705,746,0
65607,373.35,705,744,0
65617,367.20,705,746,0
65627,361.61,705,745,0
65637,357.79,705,746,0
65647,354.16,705,744,0
65657,352.14,705,746,0
65667,349.96,705,745,0
65677,349.28,705,746,0
65687,348.43,705,744,0
65697,348.56,705,746,0
65708,348.30,705,745,0
65718,348.90,705,746,0
65728,349.49,705,744,0
65738,350.93,705,746,0
65748,351.63,705,745,0
65758,352.34,705,746,0
65768,352.11,705,744,0
65778,352.64,705,746,0
65788,354.16,705,745,0
65798,357.50,705,746,0
65808,363.09,705,744,0
65818,372.54,705,746,0
65828,386.52,705,745,0
65838,405.91,705,746,0
65848,429.33,705,744,0
65858,456.40,705,746,0
65868,485.38,705,745,0
65879,515.14,705,746,0
65889,543.30,705,745,0
65908,568.62,703,743,0
65910,589.31,703,746,0
65921,605.24,703,746,0
65931,615.46,703,744,0
65941,619.48,703,746,0
65951,618.30,703,745,0
65961,612.73,703,746,0
65971,604.07,703,745,0
65981,592.26,703,746,0
65991,578.51,703,745,0
66001,562.16,703,745,0
66011,545.95,703,745,0
66021,528.87,703,746,0
66031,512.71,703,745,0
66041,496.04,703,745,0
66051,480.98,703,745,0
66061,466.55,703,746,0
66071,454.81,703,745,0
66081,443.77,703,746,0
66092,435.14,703,745,0
66102,426.74,703,745,0
66112,420.73,703,745,0
66122,415.07,703,745,0
66132,411.36,703,745,0
66142,407.87,703,745,0
66152,406.32,703,745,0
66162,404.55,703,745,0
66172,404.64,703,745,0
66182,404.02,703,745,0
66192,404.79,703,745,0
66202,404.38,703,745,0
66212,404.82,703,745,0
66222,403.76,703,745,0
66232,403.70,703,746,0
66242,402.08,703,745,0
66252,400.73,703,745,0
66263,397.12,703,745,0
66273,393.87,703,745,0
66283,388.81,703,745,0
66293,384.54,703,745,0
66304,378.42,703,744,0
66313,373.28,703,745,0
66323,367.41,703,745,0
66333,363.60,703,745,0
66343,359.31,703,744,0
66353,357.03,703,745,0
66363,354.06,703,745,0
66373,352.97,703,745,0
66383,351.01,703,744,0
66393,350.75,703,745,0
66403,349.45,703,745,0
66413,349.75,703,745,0
66423,348.75,703,744,0
66433,349.21,703,745,0
66443,348.42,703,745,0
66453,348.98,703,745,0
66463,348.26,703,744,0
66473,349.25,703,745,0
66483,349.56,703,745,0
66493,352.52,703,745,0
66503,356.22,703,744,0
66513,364.04,703,745,0
66523,373.89,703,745,0
66533,389.13,703,745,0
66543,407.39,703,744,0
66553,431.19,703,745,0
66563,457.02,703,745,0
66573,486.28,703,745,0
66583,514.78,703,744,0
66603,543.65,694,744,0
66605,568.18,694,747,0
66615,590.03,694,746,0
66625,605.32,694,744,0
66635,616.20,694,746,0
66646,619.82,694,744,0
66655,619.28,694,746,0
66665,612.64,694,743,0
66675,603.57,694,745,0
66685,590.03,694,744,0
66695,575.92,694,746,0
66705,559.44,694,743,0
66715,543.84,694,746,0
66725,527.22,694,745,0
66735,512.49,694,746,0
66745,497.65,694,743,0
66755,484.68,694,745,0
66765,471.11,694,744,0
66775,459.46,694,746,0
66785,447.49,694,743,0
66795,437.62,694,746,0
66805,427.92,694,744,0
66816,420.27,694,746,0
66825,412.90,694,744,0
66835,408.13,694,745,0
66845,404.32,694,745,0
66855,403.54,694,746,0
66865,402.86,694,744,0
66875,404.10,694,746,0
66885,404.97,694,745,0
66895,407.34,694,746,0
66905,408.65,694,745,0
66915,410.43,694,746,0
66925,410.21,694,745,0
66935,410.36,694,746,0
66945,408.45,694,744,0
66955,406.95,694,746,0
66965,403.92,694,745,0
66975,401.37,694,746,0
66985,397.19,694,744,0
66995,393.83,694,746,0
67005,389.17,694,745,0
67015,385.56,694,746,0
67025,380.72,694,745,0
67035,377.12,694,746,0
67045,372.41,694,745,0
67055,369.07,694,746,0
67065,364.68,694,745,0
67075,362.20,694,746,0
67085,358.89,694,745,0
67095,357.03,694,746,0
67105,354.37,694,745,0
67116,353.23,694,746,0
67126,351.49,694,745,0
67136,351.04,694,746,0
67146,349.57,694,745,0
67156,349.36,694,746,0
67166,348.82,694,745,0
67176,349.95,694,746,0
67186,351.93,694,745,0
67196,356.37,694,746,0
67206,363.20,694,745,0
67216,374.07,694,746,0
67226,388.11,694,745,0
67236,407.23,694,746,0
67246,429.45,694,745,0
67256,455.76,694,746,0
67266,483.56,694,745,0
67276,512.53,694,746,0
67287,539.93,694,745,0
67306,565.45,704,744,0
67308,586.36,704,748,0
67318,602.58,704,746,0
67329,612.73,704,745,0
67339,618.00,704,747,0
67349,617.49,704,745,0
67359,612.03,704,746,0
67369,602.68,704,745,0
67379,590.17,704,746,0
67389,575.98,704,745,0
67399,560.00,704,746,0
67409,543.41,704,745,0
67419,526.53,704,746,0
67429,510.90,704,745,0
67439,495.42,704,746,0
67449,481.45,704,745,0
67459,468.07,704,746,0
67469,456.31,704,745,0
67479,445.07,704,746,0
67489,435.71,704,745,0
67500,427.01,704,746,0
67510,420.71,704,745,0
67520,415.14,704,746,0
67530,412.01,704,745,0
67540,409.56,704,746,0
67550,409.40,704,745,0
67560,409.49,704,746,0
67570,411.27,704,745,0
67580,412.30,704,746,0
67590,414.27,704,745,0
67600,414.70,704,746,0
67610,415.61,704,745,0
67620,414.57,704,746,0
67630,413.58,704,745,0
67640,410.75,704,746,0
67650,408.43,704,745,0
67660,404.66,704,746,0
67671,401.59,704,746,0
67681,397.21,704,745,0
67691,393.85,704,746,0
67701,389.22,704,746,0
67712,385.73,704,746,0
67721,381.14,704,745,0
67731,377.62,704,746,0
67741,372.81,704,746,0
67751,369.48,704,746,0
67761,365.22,704,745,0
67771,363.06,704,746,0
67781,360.12,704,746,0
67791,359.02,704,746,0
67801,357.34,704,745,0
67811,357.58,704,746,0
67821,357.02,704,746,0
67831,358.09,704,746,0
67841,358.06,704,745,0
67851,359.58,704,746,0
67861,359.92,704,746,0
67871,362.05,704,746,0
67881,364.30,704,745,0
67891,369.57,704,745,0
67901,376.30,704,745,0
67911,387.95,704,746,0
67921,402.62,704,745,0
67931,423.57,704,746,0
67941,447.70,704,746,0
67951,476.84,704,746,0
67961,507.19,704,745,0
67971,539.75,704,746,0
67990,569.87,684,744,0
67993,598.32,684,747,0
68002,621.07,684,745,0
68012,639.99,684,746,0
68022,651.48,684,746,0
68032,658.24,684,746,0
68042,657.69,684,745,0
68052,653.24,684,746,0
68062,643.40,684,745,0
68072,631.54,684,746,0
68082,615.65,684,745,0
68092,599.68,684,746,0
68102,581.73,684,745,0
68112,565.10,684,746,0
68122,547.24,684,745,0
68132,531.31,684,745,0
68142,514.68,684,745,0
68152,500.37,684,746,0
68162,485.39,684,745,0
68172,472.76,684,745,0
68183,459.89,684,745,0
68193,449.89,684,746,0
68203,439.85,684,745,0
68213,432.70,684,746,0
68224,425.76,684,745,0
68233,422.02,684,746,0
68243,418.33,684,745,0
68253,417.41,684,745,0
68263,416.09,684,745,0
68273,416.71,684,746,0
68283,415.98,684,744,0
68293,416.50,684,745,0
68303,415.45,684,744,0
68313,415.49,684,745,0
68323,413.63,684,744,0
68333,412.67,684,745,0
68343,409.94,684,744,0
68353,408.41,684,746,0
68363,405.20,684,745,0
68373,402.91,684,745,0
68383,399.04,684,745,0
68393,396.71,684,746,0
68403,392.69,684,745,0
68413,389.78,684,745,0
68423,385.17,684,744,0
68433,381.86,684,746,0
68443,377.36,684,745,0
68453,373.95,684,745,0
68463,369.00,684,744,0
68473,365.70,684,746,0
68483,361.59,684,744,0
68493,359.65,684,745,0
68503,357.06,684,744,0
68513,356.36,684,746,0
68524,355.31,684,744,0
68534,356.41,684,745,0
68544,357.19,684,745,0
68554,359.53,684,746,0
68564,360.53,684,745,0
68574,362.73,684,745,0
68584,363.54,684,745,0
68594,365.86,684,746,0
68604,368.00,684,745,0
68614,373.15,684,745,0
68624,380.39,684,745,0
68634,393.56,684,746,0
68644,411.09,684,745,0
68654,435.71,684,746,0
68664,464.29,684,745,0
68674,497.72,684,746,0
68684,532.39,684,745,0
68704,568.23,714,743,0
68707,601.12,714,746,0
68716,631.00,714,747,0
68726,654.36,714,745,0
68737,671.91,714,746,0
68747,682.05,714,745,0
68757,685.98,714,746,0
68767,683.33,714,745,0
68777,675.39,714,746,0
68787,662.67,714,745,0
68797,647.00,714,746,0
68807,629.30,714,745,0
68817,610.39,714,746,0
68827,590.99,714,745,0
68837,571.58,714,746,0
68847,552.68,714,745,0
68857,534.00,714,746,0
68867,516.39,714,745,0
68877,499.64,714,746,0
68887,484.36,714,745,0
68897,470.07,714,746,0
68908,457.45,714,745,0
68918,446.21,714,746,0
68928,437.49,714,745,0
68938,430.02,714,745,0
68948,424.74,714,745,0
68958,420.58,714,746,0
68968,418.35,714,745,0
68978,416.78,714,745,0
68988,416.85,714,745,0
68998,417.28,714,747,0
69008,418.48,714,745,0
69018,418.42,714,745,0
69028,418.51,714,745,0
69038,417.29,714,746,0
69048,416.17,714,745,0
69058,413.38,714,746,0
69068,410.01,714,745,0
69079,405.25,714,746,0
69089,401.10,714,745,0
69099,395.54,714,745,0
69109,390.67,714,745,0
69120,384.55,714,745,0
69129,379.80,714,745,0
69139,374.42,714,746,0
69149,370.44,714,745,0
69159,365.85,714,746,0
69169,362.81,714,745,0
69179,359.09,714,746,0
69189,357.01,714,745,0
69199,353.96,714,746,0
69209,352.22,714,745,0
69219,349.71,714,746,0
69229,348.55,714,745,0
69239,346.63,714,746,0
69249,346.01,714,745,0
69259,344.55,714,746,0
69269,344.34,714,745,0
69279,342.61,714,745,0
69289,342.09,714,745,0
69299,340.73,714,746,0
69309,341.45,714,745,0
69319,342.82,714,745,0
69329,348.06,714,745,0
69339,355.71,714,746,0
69349,368.96,714,744,0
69359,385.98,714,745,0
69369,409.35,714,745,0
69379,436.37,714,746,0
69389,468.27,714,745,0
69399,501.36,714,746,0
69409,535.97,714,745,0
69429,568.98,725,745,0
69431,599.88,725,746,0
69441,625.08,725,745,0
69451,645.58,725,746,0
69462,657.96,725,745,0
69471,664.58,725,745,0
69481,663.50,725,745,0
69491,657.52,725,746,0
69501,645.84,725,745,0
69511,631.66,725,745,0
69521,613.46,725,745,0
69531,595.37,725,746,0
69541,575.11,725,745,0
69551,556.35,725,745,0
69561,536.57,725,745,0
69571,518.87,725,746,0
69581,500.44,725,745,0
69591,484.84,725,745,0
69601,468.94,725,745,0
69611,455.59,725,746,0
69621,441.95,725,745,0
69632,431.21,725,745,0
69641,420.69,725,745,0
69651,413.71,725,746,0
69661,406.98,725,745,0
69671,403.52,725,745,0
69681,400.58,725,745,0
69691,400.83,725,746,0
69701,400.97,725,745,0
69711,403.42,725,745,0
69721,404.88,725,745,0
69731,407.87,725,746,0
69741,409.24,725,745,0
69751,411.57,725,745,0
69761,411.70,725,745,0
69771,412.43,725,746,0
69781,410.63,725,745,0
69791,409.20,725,745,0
69801,405.24,725,745,0
69811,401.95,725,746,0
69821,396.52,725,745,0
69831,392.04,725,745,0
69841,386.03,725,745,0
69851,381.39,725,746,0
69861,375.27,725,745,0
69871,370.86,725,745,0
69881,365.25,725,745,0
69891,361.62,725,746,0
69901,356.97,725,745,0
69911,354.07,725,745,0
69921,350.15,725,745,0
69932,348.43,725,746,0
69942,345.77,725,745,0
69952,345.03,725,746,0
69962,343.13,725,744,0
69972,343.05,725,746,0
69982,341.88,725,745,0
69992,342.77,725,746,0
70002,343.01,725,744,0
70012,346.18,725,746,0
70022,350.07,725,745,0
70032,358.32,725,746,0
70042,368.94,725,744,0
70052,385.37,725,746,0
70062,404.93,725,745,0
70072,430.19,725,746,0
70082,457.35,725,744,0
70092,488.02,725,746,0
70103,517.37,725,745,0
70113,546.62,725,746,0
70123,571.20,725,744,0
70142,592.53,713,743,0
70145,607.03,713,745,0
70155,616.75,713,746,0
70165,619.74,713,744,0
70175,618.44,713,745,0
70185,611.71,713,744,0
70195,602.15,713,745,0
70205,588.95,713,744,0
70215,574.65,713,745,0
70225,558.43,713,744,0
70235,542.01,713,745,0
70245,525.08,713,744,0
70255,508.81,713,745,0
70265,492.67,713,745,0
70275,477.43,713,745,0
70285,462.64,713,744,0
70295,449.16,713,745,0
70305,436.39,713,744,0
70316,425.47,713,746,0
70326,415.86,713,744,0
70336,408.36,713,746,0
70346,403.15,713,745,0
70356,399.59,713,746,0
70366,397.79,713,744,0
70376,397.29,713,746,0
70386,397.89,713,745,0
70396,398.87,713,746,0
70406,400.15,713,744,0
70416,400.45,713,746,0
70426,400.66,713,745,0
70436,399.69,713,746,0
70446,398.37,713,744,0
70456,395.99,713,746,0
70466,393.20,713,745,0
70476,389.20,713,746,0
70487,385.33,713,745,0
70497,380.73,713,745,0
70507,376.74,713,745,0
70517,371.97,713,745,0
70528,367.74,713,745,0
70537,363.45,713,746,0
70547,360.01,713,745,0
70557,356.24,713,745,0
70567,353.59,713,745,0
70577,350.54,713,746,0
70587,348.84,713,745,0
70597,346.57,713,745,0
70607,345.29,713,744,0
70617,343.53,713,745,0
70627,342.86,713,745,0
70637,341.36,713,745,0
70647,340.99,713,744,0
70657,339.97,713,745,0
70667,340.06,713,745,0
70677,339.19,713,745,0
70687,339.26,713,744,0
70697,338.67,713,745,0
70707,339.15,713,745,0
70717,339.45,713,745,0
70727,341.63,713,744,0
70737,344.35,713,745,0
70747,350.51,713,745,0
70757,358.75,713,745,0
70767,371.94,713,744,0
70777,389.19,713,745,0
70787,412.06,713,745,0
70797,438.91,713,745,0
70807,470.95,713,744,0
70817,504.52,713,745,0
70837,540.07,695,744,0
70840,572.79,695,747,0
70849,603.67,695,744,0
70859,628.32,695,744,0
70870,647.81,695,745,0
70879,658.97,695,745,0
70889,664.38,695,744,0
70899,661.91,695,744,0
70909,655.55,695,745,0
70919,642.78,695,745,0
70929,628.71,695,745,0
70939,611.35,695,745,0
70949,594.15,695,746,0
70959,574.82,695,745,0
70969,556.83,695,745,0
70979,537.77,695,745,0
70989,520.52,695,745,0
70999,501.94,695,745,0
71009,484.81,695,745,0
71019,466.87,695,745,0
71029,451.44,695,745,0
71040,435.79,695,745,0
71049,422.87,695,745,0
71059,410.26,695,744,0
71069,401.27,695,745,0
71079,393.05,695,745,0
71089,388.70,695,745,0
71099,384.98,695,744,0
71109,384.86,695,745,0
71119,384.86,695,745,0
71129,387.60,695,745,0
71139,389.22,695,744,0
71149,392.54,695,745,0
71159,393.96,695,745,0
71169,396.29,695,745,0
71179,396.24,695,744,0
71189,396.81,695,745,0
71199,394.90,695,745,0
71209,393.60,695,745,0
71219,390.63,695,745,0
71229,389.07,695,745,0
71239,385.71,695,745,0
71249,383.52,695,745,0
71259,379.64,695,745,0
71269,377.13,695,745,0
71279,372.98,695,745,0
71289,369.86,695,745,0
71299,364.76,695,744,0
71309,361.19,695,745,0
71319,356.29,695,745,0
71329,353.33,695,745,0
71340,349.33,695,744,0
71350,347.47,695,745,0
71360,344.50,695,745,0
71370,343.62,695,746,0
71380,341.72,695,744,0
71390,341.68,695,745,0
71400,340.10,695,745,0
71410,340.11,695,745,0
71420,338.67,695,744,0
71430,338.89,695,745,0
71440,337.81,695,745,0
71450,338.77,695,746,0
71460,339.01,695,744,0
71470,342.48,695,745,0
71480,346.45,695,745,0
71490,354.97,695,746,0
71500,365.65,695,744,0
71511,382.56,695,746,0
71521,402.75,695,745,0
71531,429.57,695,746,0
71541,458.80,695,744,0
71552,492.59,695,746,0
71570,525.71,733,745,0
71573,559.10,733,747,0
71582,588.30,733,744,0
71592,614.26,733,746,0
71602,632.70,733,745,0
71612,645.95,733,746,0
71622,650.98,733,744,0
71632,650.98,733,746,0
71642,644.65,733,745,0
71652,634.59,733,746,0
71662,619.55,733,744,0
71672,603.05,733,745,0
71682,583.84,733,744,0
71692,565.24,733,746,0
71702,545.63,733,744,0
71712,527.52,733,746,0
71723,509.07,733,745,0
71732,492.80,733,746,0
71742,476.36,733,744,0
71752,461.98,733,745,0
71762,447.42,733,745,0
71772,435.46,733,746,0
71782,423.50,733,745,0
71792,414.05,733,745,0
71802,405.33,733,745,0
71812,400.09,733,746,0
71822,395.82,733,745,0
71832,394.29,733,745,0
71842,392.96,733,745,0
71852,394.17,733,746,0
71862,395.49,733,745,0
71872,398.22,733,745,0
71882,399.74,733,745,0
71892,401.79,733,746,0
71902,402.41,733,744,0
71912,403.31,733,745,0
71922,402.28,733,745,0
71932,400.99,733,746,0
71942,397.87,733,745,0
71952,394.82,733,745,0
71962,390.20,733,745,0
71972,385.99,733,746,0
71982,380.33,733,745,0
71992,375.56,733,745,0
72002,369.95,733,745,0
72012,365.25,733,745,0
72023,359.90,733,745,0
72033,355.60,733,745,0
72043,350.92,733,745,0
72053,347.30,733,746,0
72064,343.40,733,744,0
72073,340.66,733,745,0
72083,338.02,733,745,0
72093,336.26,733,746,0
72103,334.47,733,745,0
72113,333.64,733,745,0
72123,332.72,733,744,0
72133,332.50,733,746,0
72143,332.14,733,745,0
72153,332.35,733,745,0
72163,332.46,733,745,0
72173,333.22,733,746,0
72183,333.97,733,744,0
72193,336.04,733,745,0
72203,338.77,733,745,0
72213,343.81,733,746,0
72223,351.20,733,745,0
72233,362.49,733,745,0
72243,377.47,733,745,0
72253,397.69,733,746,0
72263,422.13,733,745,0
72273,451.06,733,745,0
72283,482.46,733,745,0
72293,515.53,733,746,0
72312,547.43,742,745,0
72315,576.79,742,746,0
72324,601.79,742,745,0
72334,621.53,742,746,0
72344,634.57,742,745,0
72354,640.96,742,745,0
72364,640.58,742,745,0
72374,635.05,742,745,0
72384,625.22,742,745,0
72394,611.66,742,745,0
72404,595.56,742,744,0
72414,578.29,742,746,0
72424,560.42,742,745,0
72434,542.38,742,745,0
72444,524.86,742,744,0
72454,508.11,742,746,0
72464,491.96,742,745,0
72474,476.41,742,745,0
72484,461.72,742,745,0
72494,448.00,742,746,0
72504,435.45,742,745,0
72514,423.91,742,745,0
72524,413.95,742,745,0
72535,405.70,742,746,0
72545,399.70,742,745,0
72555,395.46,742,745,0
72565,393.48,742,745,0
72576,393.21,742,746,0
72585,394.60,742,745,0
72595,396.82,742,745,0
72605,399.96,742,745,0
72615,402.63,742,745,0
72625,405.36,742,745,0
72635,407.05,742,745,0
72645,408.41,742,745,0
72655,408.33,742,745,0
72665,407.71,742,745,0
72675,405.49,742,745,0
72685,403.07,742,745,0
72695,399.02,742,745,0
72705,394.73,742,745,0
72715,389.24,742,745,0
72725,383.94,742,745,0
72735,377.66,742,746,0
72745,372.10,742,745,0
72755,366.03,742,746,0
72765,360.79,742,745,0
72775,355.07,742,745,0
72785,350.46,742,745,0
72795,345.82,742,746,0
72805,342.36,742,745,0
72815,339.00,742,746,0
72825,336.90,742,745,0
72835,335.30,742,746,0
72845,335.04,742,744,0
72855,334.30,742,745,0
72865,334.81,742,745,0
72876,335.08,742,745,0
72886,336.94,742,745,0
72896,339.19,742,746,0
72906,344.15,742,745,0
72916,351.17,742,745,0
72926,362.86,742,745,0
72936,377.69,742,745,0
72946,398.27,742,745,0
72956,422.06,742,745,0
72966,450.76,742,745,0
72976,481.04,742,746,0
72986,513.13,742,745,0
72996,543.26,742,745,0
73006,571.77,742,745,0
73025,594.85,713,744,0
73027,613.28,713,746,0
73037,624.34,713,745,0
73047,630.02,713,745,0
73057,628.90,713,745,0
73067,623.49,713,746,0
73077,612.54,713,745,0
73088,599.05,713,745,0
73097,582.06,713,745,0
73107,564.73,713,745,0
73117,545.18,713,745,0
73127,526.91,713,745,0
73137,507.95,713,745,0
73147,491.21,713,745,0
73157,474.22,713,745,0
73167,459.92,713,745,0
73177,445.50,713,745,0
73187,433.95,713,746,0
73197,422.18,713,745,0
73207,413.38,713,745,0
73217,405.08,713,745,0
73227,400.04,713,746,0
73237,395.27,713,745,0
73247,393.73,713,745,0
73257,392.27,713,745,0
73267,393.56,713,746,0
73277,394.34,713,745,0
73287,396.81,713,745,0
73297,397.98,713,745,0
73307,400.51,713,745,0
73317,401.05,713,745,0
73327,402.40,713,745,0
73337,401.30,713,745,0
73347,400.82,713,746,0
73357,397.79,713,745,0
73367,395.28,713,745,0
73377,390.48,713,745,0
73388,386.57,713,745,0
73398,380.53,713,745,0
73408,375.82,713,745,0
73418,369.32,713,745,0
73428,364.64,713,746,0
73438,358.92,713,745,0
73448,355.04,713,745,0
73458,350.19,713,745,0
73468,347.52,713,746,0
73478,343.89,713,745,0
73488,342.51,713,745,0
73498,340.04,713,745,0
73508,339.60,713,746,0
73518,338.31,713,745,0
73528,338.99,713,745,0
73538,338.52,713,745,0
73548,339.91,713,746,0
73559,339.85,713,745,0
73569,341.48,713,746,0
73579,341.72,713,745,0
73589,343.73,713,746,0
73600,345.06,713,745,0
73609,349.45,713,746,0
73619,354.89,713,745,0
73629,365.85,713,746,0
73639,379.95,713,745,0
73649,401.05,713,746,0
73659,426.45,713,745,0
73669,458.63,713,746,0
73679,493.54,713,745,0
73689,532.12,713,746,0
73708,569.16,683,744,0
73710,605.28,683,748,0
73720,636.57,683,745,0
73730,663.53,683,746,0
73740,682.23,683,745,0
73750,694.89,683,746,0
73760,698.91,683,745,0
73771,697.35,683,746,0
73780,688.97,683,744,0
73790,676.51,683,746,0
73800,658.96,683,745,0
73810,640.33,683,746,0
73820,618.93,683,744,0
73830,598.64,683,746,0
73840,577.10,683,745,0
73850,557.06,683,746,0
73860,536.38,683,745,0
73870,518.05,683,746,0
73880,499.39,683,745,0
73890,483.12,683,746,0
73900,466.58,683,745,0
73910,453.12,683,746,0
73920,440.44,683,745,0
73930,431.05,683,746,0
73940,422.81,683,745,0
73950,417.98,683,746,0
73960,414.04,683,745,0
73970,413.30,683,746,0
73980,412.91,683,744,0
73990,415.08,683,746,0
74000,416.64,683,745,0
74010,419.41,683,746,0
74020,420.66,683,744,0
74030,422.90,683,746,0
74040,422.85,683,745,0
74050,422.68,683,746,0
74060,419.99,683,744,0
74071,417.12,683,746,0
74081,411.81,683,745,0
74091,406.55,683,746,0
74101,399.36,683,744,0
74112,392.61,683,746,0
74121,384.71,683,745,0
74131,377.73,683,746,0
74141,370.27,683,744,0
74151,364.01,683,746,0
74161,357.58,683,745,0
74171,352.52,683,746,0
74181,347.52,683,744,0
74191,343.89,683,746,0
74201,340.03,683,745,0
74211,337.58,683,746,0
74221,335.05,683,744,0
74231,333.66,683,746,0
74241,331.71,683,745,0
74251,330.94,683,746,0
74261,329.71,683,744,0
74271,329.46,683,745,0
74281,328.59,683,745,0
74291,328.80,683,746,0
74301,328.73,683,745,0
74311,330.57,683,745,0
74321,333.96,683,745,0
74331,341.68,683,746,0
74341,353.65,683,745,0
74351,372.78,683,745,0
74361,399.03,683,745,0
74371,434.30,683,746,0
74381,475.69,683,745,0
74391,520.40,683,745,0
74401,564.94,683,745,0
74412,607.60,683,746,0
74431,645.18,723,744,0
74433,676.32,723,746,0
74443,699.41,723,745,0
74454,715.57,723,746,0
74463,726.89,723,745,0
74473,734.85,723,746,0
74483,740.42,723,745,0
74493,744.32,723,746,0
74503,747.06,723,745,0
74513,748.92,723,746,0
74523,748.18,723,745,0
74533,743.32,723,746,0
74543,733.67,723,745,0
74553,718.43,723,746,0
74563,697.30,723,745,0
74573,669.78,723,746,0
74583,636.55,723,745,0
74593,599.83,723,746,0
74603,562.08,723,745,0
74613,524.34,723,746,0
74624,488.75,723,745,0
74633,456.17,723,745,0
74643,428.13,723,745,0
74653,404.52,723,746,0
74663,386.19,723,745,0
74673,372.81,723,746,0
74683,364.29,723,745,0
74693,359.32,723,746,0
74703,357.90,723,745,0
74713,358.83,723,745,0
74723,361.54,723,745,0
74733,364.50,723,746,0
74743,367.48,723,745,0
74753,369.78,723,745,0
74763,371.52,723,745,0
74773,371.70,723,746,0
74783,370.98,723,745,0
74793,368.46,723,745,0
74803,365.15,723,745,0
74813,360.43,723,746,0
74823,355.20,723,745,0
74833,349.01,723,745,0
74843,342.92,723,745,0
74853,336.39,723,746,0
74863,330.70,723,745,0
74873,325.26,723,745,0
74883,320.68,723,745,0
74893,316.41,723,746,0
74903,313.50,723,745,0
74913,310.78,723,745,0
74924,309.13,723,745,0
74934,307.38,723,746,0
74944,306.62,723,745,0
74954,305.62,723,745,0
74964,305.61,723,745,0
74974,305.00,723,746,0
74984,305.47,723,745,0
74994,305.24,723,745,0
75004,306.54,723,745,0
75014,307.92,723,745,0
75024,312.19,723,745,0
75034,318.90,723,745,0
75044,331.23,723,745,0
75054,348.56,723,745,0
75064,373.94,723,745,0
75074,406.48,723,745,0
75084,447.35,723,745,0
75095,492.33,723,746,0
75105,538.90,723,745,0
75124,583.42,693,744,0
75126,624.56,693,748,0
75137,659.58,693,745,0
75147,687.52,693,746,0
75157,707.29,693,745,0
75167,721.18,693,746,0
75177,730.85,693,745,0
75187,737.71,693,746,0
75197,739.94,693,744,0
75207,738.37,693,746,0
75217,731.10,693,745,0
75227,719.42,693,746,0
75237,701.46,693,745,0
75247,678.78,693,745,0
75257,649.62,693,745,0
75267,618.75,693,745,0
75277,584.62,693,745,0
75287,551.65,693,745,0
75297,517.86,693,745,0
75308,487.60,693,746,0
75318,458.66,693,744,0
75328,435.23,693,746,0
75338,414.55,693,745,0
75348,400.24,693,746,0
75358,389.11,693,744,0
75368,384.19,693,745,0
75378,381.78,693,745,0
75388,384.37,693,746,0
75398,387.86,693,744,0
75408,394.29,693,745,0
75418,399.56,693,745,0
75428,405.91,693,746,0
75438,409.83,693,745,0
75448,413.57,693,745,0
75458,413.70,693,745,0
75468,413.23,693,746,0
75479,409.18,693,744,0
75489,404.71,693,745,0
75499,397.47,693,745,0
75509,390.17,693,746,0
75520,380.91,693,744,0
75529,372.83,693,745,0
75539,363.45,693,745,0
75549,355.78,693,746,0
75559,347.44,693,744,0
75569,341.14,693,745,0
75579,334.41,693,745,0
75589,329.96,693,746,0
75599,325.09,693,745,0
75609,322.62,693,745,0
75619,319.82,693,745,0
75629,318.59,693,746,0
75639,316.40,693,744,0
75649,315.81,693,745,0
75659,313.89,693,745,0
75669,313.37,693,746,0
75679,311.97,693,744,0
75689,312.54,693,745,0
75699,314.18,693,745,0
75709,320.64,693,746,0
75719,331.20,693,745,0
75729,350.30,693,745,0
75739,376.74,693,745,0
75749,413.72,693,746,0
75759,457.26,693,745,0
75769,505.10,693,745,0
75779,552.85,693,745,0
75789,598.84,693,746,0
75799,639.04,693,745,0
75819,672.76,694,743,0
75821,697.00,694,745,0
75831,714.02,694,746,0
75841,725.93,694,745,0
75851,734.31,694,745,0
75862,740.17,694,745,0
75871,744.32,694,746,0
75881,747.22,694,745,0
75891,749.26,694,745,0
75901,750.68,694,745,0
75911,751.68,694,746,0
75921,750.74,694,745,0
75931,745.98,694,745,0
75941,735.74,694,745,0
75951,719.32,694,746,0
75961,695.44,694,744,0
75971,664.45,694,744,0
75981,627.07,694,745,0
75991,585.82,694,746,0
76001,542.89,694,744,0
76011,501.44,694,745,0
76021,462.95,694,744,0
76032,430.26,694,745,0
76041,403.53,694,744,0
76051,383.23,694,745,0
76061,368.80,694,744,0
76071,360.80,694,746,0
76081,357.52,694,745,0
76091,358.31,694,745,0
76101,361.39,694,745,0
76111,366.11,694,745,0
76121,371.01,694,744,0
76131,375.63,694,745,0
76141,378.70,694,744,0
76151,380.16,694,745,0
76161,379.60,694,745,0
76171,377.36,694,745,0
76181,373.05,694,744,0
76191,367.17,694,746,0
76201,359.53,694,744,0
76211,351.23,694,745,0
76221,342.03,694,744,0
76231,332.72,694,745,0
76241,323.08,694,744,0
76251,314.01,694,745,0
76261,305.39,694,744,0
76271,297.60,694,745,0
76281,290.44,694,744,0
76291,284.65,694,746,0
76301,280.00,694,744,0
76311,276.53,694,745,0
76321,273.97,694,745,0
76332,272.22,694,746,0
76342,271.68,694,744,0
76352,271.44,694,745,0
76362,271.90,694,745,0
76372,272.19,694,745,0
76382,273.33,694,744,0
76392,275.33,694,746,0
76402,279.30,694,745,0
76412,285.64,694,745,0
76422,296.85,694,744,0
76432,314.12,694,745,0
76442,339.93,694,745,0
76452,374.45,694,745,0
76462,418.03,694,744,0
76472,466.75,694,746,0
76482,517.61,694,745,0
76492,567.23,694,745,0
76503,612.72,694,745,0
76513,651.59,694,745,0
76532,682.18,714,744,0
76534,703.73,714,746,0
76545,718.81,714,745,0
76555,729.37,714,745,0
76565,736.80,714,745,0
76575,741.96,714,745,0
76585,745.57,714,745,0
76595,745.27,714,745,0
76605,741.25,714,745,0
76615,730.80,714,745,0
76625,714.96,714,745,0
76635,691.96,714,745,0
76645,663.00,714,745,0
76655,626.79,714,745,0
76665,587.85,714,745,0
76675,545.51,714,745,0
76685,504.77,714,745,0
76695,463.95,714,745,0
76705,427.37,714,745,0
76716,393.36,714,745,0
76726,365.86,714,745,0
76736,342.51,714,745,0
76746,326.45,714,745,0
76756,314.62,714,745,0
76766,309.76,714,745,0
76776,307.78,714,745,0
76786,310.84,714,745,0
76796,314.92,714,744,0
76806,321.89,714,745,0
76816,327.66,714,745,0
76826,334.75,714,745,0
76836,339.15,714,744,0
76846,344.04,714,745,0
76856,345.83,714,745,0
76866,347.55,714,745,0
76876,345.88,714,745,0
76887,344.03,714,746,0
76897,338.84,714,745,0
76907,334.21,714,745,0
76917,326.65,714,744,0
76928,319.86,714,746,0
76937,310.64,714,744,0
76947,302.86,714,745,0
76957,293.65,714,744,0
76967,286.42,714,746,0
76977,278.15,714,745,0
76987,272.19,714,745,0
76997,265.66,714,744,0
77007,261.61,714,746,0
77017,256.88,714,745,0
77027,254.65,714,745,0
77037,251.71,714,744,0
77047,250.81,714,746,0
77057,249.54,714,745,0
77067,250.49,714,745,0
77077,250.47,714,744,0
77087,252.56,714,746,0
77097,253.72,714,744,0
77107,257.49,714,745,0
77117,261.37,714,744,0
77127,269.23,714,746,0
77137,279.75,714,744,0
77147,297.44,714,745,0
77157,320.58,714,744,0
77167,352.93,714,746,0
77177,391.61,714,744,0
77187,438.36,714,745,0
77197,487.71,714,744,0
77207,537.72,714,746,0
77217,584.22,714,744,0
77237,626.41,705,743,0
77239,661.13,705,745,0
77249,688.78,705,746,0
77259,706.24,705,745,0
77270,715.17,705,745,0
77279,716.11,705,744,0
77289,710.33,705,745,0
77299,697.76,705,744,0
77309,679.36,705,745,0
77319,655.42,705,744,0
77329,629.03,705,745,0
77339,600.35,705,744,0
77349,571.66,705,745,0
77359,542.45,705,744,0
77369,514.93,705,745,0
77379,487.99,705,744,0
77389,462.97,705,745,0
77399,438.55,705,744,0
77409,416.95,705,745,0
77419,397.08,705,744,0
77429,380.60,705,745,0
77440,366.45,705,744,0
77449,356.46,705,745,0
77459,349.25,705,744,0
77469,346.00,705,746,0
77479,344.97,705,744,0
77489,347.00,705,745,0
77499,350.08,705,745,0
77509,354.64,705,745,0
77519,358.78,705,744,0
77529,363.17,705,745,0
77539,365.86,705,744,0
77549,367.75,705,746,0
77559,367.27,705,744,0
77569,365.90,705,745,0
77579,362.12,705,745,0
77589,357.45,705,746,0
77599,350.63,705,744,0
77609,343.46,705,746,0
77619,334.92,705,745,0
77629,326.63,705,746,0
77639,317.53,705,744,0
77649,309.18,705,745,0
77659,300.60,705,744,0
77669,293.43,705,745,0
77679,286.96,705,744,0
77689,281.96,705,746,0
77699,277.26,705,745,0
77709,274.35,705,746,0
77719,271.76,705,744,0
77729,270.50,705,745,0
77740,269.32,705,744,0
77750,268.88,705,745,0
77760,268.58,705,744,0
77770,269.22,705,745,0
77780,270.39,705,744,0
77790,273.75,705,745,0
77800,279.57,705,744,0
77810,289.51,705,745,0
77820,304.36,705,744,0
77830,325.59,705,746,0
77840,353.32,705,744,0
77850,387.33,705,745,0
77860,426.79,705,745,0
77870,469.84,705,746,0
77880,513.86,705,744,0
77890,556.46,705,745,0
77900,594.89,705,745,0
77920,627.02,683,743,0
77922,650.93,683,745,0
77932,665.48,683,745,0
77942,671.51,683,745,0
77953,668.70,683,745,0
77963,658.93,683,744,0
77973,642.41,683,744,0
77983,622.02,683,745,0
77993,598.10,683,745,0
78003,573.47,683,744,0
78013,547.14,683,745,0
78023,522.16,683,745,0
78033,496.40,683,745,0
78043,472.88,683,744,0
78053,449.38,683,744,0
78063,428.61,683,745,0
78073,408.16,683,745,0
78083,390.84,683,744,0
78093,374.56,683,745,0
78103,362.48,683,745,0
78113,352.05,683,745,0
78124,345.95,683,745,0
78134,341.51,683,745,0
78144,341.01,683,745,0
78154,341.27,683,745,0
78164,344.36,683,745,0
78174,346.95,683,745,0
78184,351.16,683,745,0
78194,353.52,683,745,0
78204,356.66,683,745,0
78214,357.36,683,745,0
78224,358.45,683,745,0
78234,356.82,683,745,0
78244,355.67,683,745,0
78254,352.00,683,745,0
78264,348.91,683,745,0
78274,343.50,683,745,0
78284,338.93,683,745,0
78295,332.52,683,744,0
78305,327.40,683,745,0
78315,320.68,683,745,0
78325,315.63,683,745,0
78336,309.40,683,744,0
78345,305.25,683,745,0
78355,300.38,683,745,0
78365,297.43,683,745,0
78375,293.45,683,744,0
78385,291.26,683,745,0
78395,287.92,683,745,0
78405,286.66,683,745,0
78415,284.32,683,744,0
78425,283.97,683,745,0
78435,282.39,683,745,0
78445,283.00,683,745,0
78455,282.96,683,744,0
78465,285.97,683,745,0
78475,289.84,683,745,0
78485,298.46,683,745,0
78495,310.06,683,744,0
78505,329.33,683,745,0
78515,354.05,683,745,0
78525,387.42,683,745,0
78535,425.82,683,745,0
78545,470.62,683,746,0
78555,516.80,683,745,0
78574,562.89,654,743,0
78576,604.80,654,745,0
78586,642.19,654,746,0
78596,671.70,654,745,0
78606,694.25,654,746,0
78616,706.04,654,744,0
78626,709.85,654,746,0
78636,705.22,654,744,0
78646,694.61,654,746,0
78656,676.94,654,744,0
