Time,PPG,IBI,GSR,GSR_Event
4199159,308.47,704,773,0
4199169,289.99,704,777,0
4199179,275.59,704,775,0
4199189,267.44,704,776,0
4199199,264.31,704,774,0
4199209,267.05,704,776,0
4199219,273.97,704,775,0
4199229,291.04,704,776,0
4199239,313.36,704,774,0
4199249,339.52,704,777,0
4199259,365.89,704,775,0
4199269,391.94,704,776,0
4199279,414.97,704,774,0
4199289,435.04,704,776,0
4199299,450.03,704,775,0
4199309,460.69,704,776,0
4199319,465.88,704,774,0
4199329,467.12,704,776,0
4199340,463.83,704,772,0
4199350,458.13,704,776,0
4199360,449.48,704,771,0
4199370,440.16,704,776,0
4199380,429.53,704,769,0
4199390,419.73,704,776,0
4199400,409.65,704,771,0
4199410,401.49,704,776,0
4199420,393.37,704,769,0
4199430,387.51,704,776,0
4199440,382.13,704,771,0
4199450,378.75,704,776,0
4199460,375.27,704,769,0
4199470,373.73,704,776,0
4199480,371.88,704,771,0
4199490,371.53,704,777,0
4199500,370.47,704,769,0
4199511,370.50,704,776,0
4199521,370.05,704,768,0
4199531,371.02,704,776,0
4199541,371.53,704,768,0
4199552,373.90,704,776,0
4199561,376.89,704,768,0
4199571,383.01,704,776,0
4199581,391.10,704,767,0
4199591,403.63,704,776,0
4199601,419.08,704,768,0
4199611,439.33,704,776,0
4199621,462.12,704,768,0
4199631,488.44,704,776,0
4199641,515.22,704,768,0
4199651,542.37,704,776,0
4199661,566.17,704,768,0
4199671,587.04,704,776,0
4199681,601.38,704,768,0
4199691,609.97,704,777,0
4199701,610.32,704,768,0
4199711,604.01,704,776,0
4199731,589.91,722,776,0
4199734,572.45,722,778,0
4199743,551.06,722,768,0
4199753,528.58,722,778,0
4199763,504.15,722,768,0
4199773,480.66,722,778,0
4199783,457.19,722,768,0
4199793,436.39,722,778,0
4199803,415.75,722,768,0
4199813,397.31,722,778,0
4199823,380.42,722,768,0
4199833,367.61,722,778,0
4199843,357.78,722,768,0
4199853,352.88,722,778,0
4199863,351.16,722,768,0
4199873,354.07,722,778,0
4199883,359.40,722,768,0
4199894,368.15,722,778,0
4199903,377.71,722,768,0
4199913,388.81,722,778,0
4199923,399.07,722,768,0
4199933,409.46,722,778,0
4199943,417.59,722,768,0
4199953,424.70,722,778,0
4199963,428.73,722,768,0
4199973,431.34,722,778,0
4199983,430.81,722,768,0
4199993,429.07,722,778,0
4200003,424.76,722,768,0
4200013,419.78,722,778,0
4200023,412.81,722,768,0
4200033,406.10,722,778,0
4200043,398.27,722,768,0
4200053,391.42,722,778,0
4200064,384.18,722,769,0
4200073,378.38,722,778,0
4200083,372.57,722,768,0
4200093,368.50,722,778,0
4200103,364.49,722,769,0
4200113,362.20,722,778,0
4200123,359.87,722,768,0
4200133,359.09,722,778,0
4200143,358.17,722,769,0
4200153,358.67,722,778,0
4200163,358.86,722,768,0
4200173,360.19,722,778,0
4200183,361.16,722,769,0
4200193,363.38,722,778,0
4200203,365.41,722,768,0
4200213,369.32,722,778,0
4200223,373.98,722,769,0
4200233,381.61,722,778,0
4200243,391.20,722,768,0
4200253,405.07,722,778,0
4200263,422.11,722,769,0
4200273,443.97,722,778,0
4200283,468.37,722,768,0
4200293,496.11,722,778,0
4200303,524.28,722,769,0
4200313,552.87,722,778,0
4200323,578.19,722,768,0
4200333,600.08,722,778,0
4200352,615.27,622,777,0
4200355,623.33,622,778,0
4200364,623.27,622,769,0
4200374,616.38,622,778,0
4200384,601.65,622,770,0
4200394,581.57,622,778,0
4200404,556.03,622,771,0
4200414,527.86,622,778,0
4200424,498.25,622,770,0
4200434,468.60,622,778,0
4200444,439.28,622,771,0
4200454,412.75,622,777,0
4200464,388.70,622,770,0
4200474,368.99,622,778,0
4200484,353.09,622,771,0
4200494,342.52,622,778,0
4200504,336.07,622,770,0
4200514,334.72,622,778,0
4200524,337.12,622,770,0
4200535,343.72,622,777,0
4200545,352.94,622,772,0
4200555,364.74,622,777,0
4200565,377.33,622,773,0
4200576,390.78,622,777,0
4200585,403.36,622,772,0
4200595,415.12,622,777,0
4200605,424.86,622,773,0
4200615,432.53,622,777,0
4200625,437.51,622,771,0
4200635,440.27,622,778,0
4200645,440.53,622,773,0
4200655,438.79,622,777,0
4200665,434.82,622,771,0
4200675,429.48,622,778,0
4200685,422.82,622,772,0
4200695,415.50,622,777,0
4200705,407.47,622,771,0
4200715,399.70,622,778,0
4200725,392.12,622,773,0
4200735,385.57,622,777,0
4200745,379.57,622,774,0
4200755,374.73,622,778,0
4200765,370.82,622,772,0
4200775,368.22,622,778,0
4200785,366.35,622,774,0
4200795,365.60,622,778,0
4200805,365.29,622,772,0
4200815,365.81,622,778,0
4200825,366.76,622,774,0
4200835,368.29,622,778,0
4200845,370.13,622,772,0
4200855,372.15,622,778,0
4200865,374.08,622,774,0
4200876,376.11,622,778,0
4200886,378.09,622,775,0
4200896,379.95,622,777,0
4200906,381.98,622,777,0
4200916,384.34,622,777,0
4200926,387.84,622,775,0
4200936,393.12,622,777,0
4200946,400.92,622,777,0
4200956,411.92,622,777,0
4200966,426.90,622,775,0
4200976,446.04,622,777,0
4200986,469.69,622,777,0
4200996,496.70,622,778,0
4201006,525.93,622,775,0
4201016,555.82,622,778,0
4201035,584.68,683,777,0
4201038,609.33,683,772,0
4201047,629.55,683,778,0
4201057,642.97,683,777,0
4201067,649.23,683,778,0
4201077,647.36,683,776,0
4201088,637.91,683,778,0
4201097,621.14,683,777,0
4201107,599.71,683,778,0
4201117,572.84,683,776,0
4201127,543.23,683,778,0
4201137,511.70,683,777,0
4201147,480.76,683,778,0
4201157,450.71,683,776,0
4201167,423.62,683,778,0
4201177,399.48,683,777,0
4201187,379.96,683,778,0
4201197,364.85,683,776,0
4201207,354.95,683,778,0
4201217,349.31,683,777,0
4201227,348.79,683,777,0
4201237,351.89,683,776,0
4201247,359.17,683,778,0
4201257,368.67,683,774,0
4201267,380.43,683,777,0
4201277,392.73,683,776,0
4201287,405.92,683,778,0
4201297,417.95,683,774,0
4201307,429.41,683,778,0
4201317,438.46,683,776,0
4201327,445.95,683,778,0
4201337,450.29,683,774,0
4201347,452.78,683,778,0
4201357,452.24,683,776,0
4201367,450.16,683,778,0
4201377,445.31,683,774,0
4201388,439.52,683,778,0
4201398,431.82,683,773,0
4201408,424.07,683,778,0
4201418,415.14,683,771,0
4201428,406.95,683,778,0
4201438,398.57,683,773,0
4201448,391.71,683,778,0
4201458,384.90,683,771,0
4201468,380.04,683,778,0
4201478,375.53,683,773,0
4201488,373.10,683,778,0
4201498,370.67,683,771,0
4201508,369.91,683,778,0
4201518,369.12,683,773,0
4201528,369.86,683,778,0
4201538,370.29,683,771,0
4201548,372.13,683,778,0
4201559,373.29,683,770,0
4201569,375.73,683,778,0
4201579,377.40,683,769,0
4201589,379.94,683,778,0
4201600,381.54,683,768,0
4201609,383.95,683,778,0
4201619,385.21,683,769,0
4201629,387.46,683,778,0
4201639,388.86,683,769,0
4201649,391.65,683,778,0
4201659,394.41,683,769,0
4201669,399.77,683,778,0
4201679,406.40,683,768,0
4201689,417.08,683,778,0
4201699,430.56,683,769,0
4201709,449.25,683,778,0
4201719,471.16,683,769,0
4201729,497.60,683,778,0
4201739,525.62,683,770,0
4201749,555.65,683,778,0
4201768,583.65,733,777,0
4201772,608.87,733,778,0
4201780,628.28,733,768,0
4201790,642.17,733,778,0
4201800,647.52,733,768,0
4201810,645.69,733,778,0
4201820,635.03,733,768,0
4201830,618.13,733,778,0
4201840,594.86,733,767,0
4201850,567.65,733,778,0
4201860,536.43,733,768,0
4201870,504.80,733,778,0
4201880,472.29,733,767,0
4201890,442.12,733,778,0
4201900,413.58,733,768,0
4201910,389.66,733,778,0
4201920,369.02,733,767,0
4201930,354.02,733,778,0
4201940,343.04,733,768,0
4201950,338.06,733,778,0
4201960,336.84,733,767,0
4201970,341.09,733,778,0
4201980,348.13,733,768,0
4201990,359.32,733,778,0
4202000,371.74,733,767,0
4202010,386.39,733,778,0
4202020,400.37,733,768,0
4202030,414.79,733,778,0
4202040,426.72,733,768,0
4202050,437.56,733,778,0
4202060,444.89,733,768,0
4202071,450.50,733,778,0
4202081,452.32,733,767,0
4202091,452.44,733,778,0
4202101,449.26,733,768,0
4202112,445.03,733,778,0
4202121,438.20,733,767,0
4202131,431.24,733,778,0
4202141,422.56,733,768,0
4202151,414.42,733,778,0
4202161,405.38,733,767,0
4202171,397.64,733,778,0
4202181,389.73,733,768,0
4202191,383.68,733,778,0
4202201,377.69,733,767,0
4202211,373.80,733,778,0
4202221,370.22,733,768,0
4202231,368.65,733,778,0
4202241,367.08,733,767,0
4202251,367.36,733,778,0
4202261,367.55,733,768,0
4202271,369.27,733,778,0
4202281,370.56,733,768,0
4202291,373.01,733,778,0
4202301,374.76,733,768,0
4202311,377.62,733,778,0
4202321,379.75,733,768,0
4202331,382.74,733,778,0
4202341,384.83,733,768,0
4202351,387.80,733,778,0
4202361,390.17,733,768,0
4202371,393.98,733,778,0
4202381,397.97,733,768,0
4202391,404.41,733,778,0
4202401,412.51,733,768,0
4202412,424.83,733,778,0
4202422,440.31,733,769,0
4202432,460.83,733,778,0
4202442,484.67,733,769,0
4202452,512.41,733,778,0
4202462,541.09,733,769,0
4202472,570.46,733,778,0
4202491,597.07,723,776,0
4202494,619.42,723,779,0
4202503,635.88,723,770,0
4202513,646.11,723,778,0
4202523,648.27,723,771,0
4202533,643.17,723,778,0
4202543,630.18,723,770,0
4202553,611.14,723,778,0
4202563,587.23,723,771,0
4202573,559.22,723,778,0
4202583,528.12,723,770,0
4202593,496.29,723,778,0
4202603,464.53,723,771,0
4202613,434.80,723,778,0
4202624,407.64,723,772,0
4202633,384.57,723,778,0
4202643,365.67,723,771,0
4202653,352.01,723,778,0
4202663,343.31,723,772,0
4202673,340.13,723,778,0
4202683,341.50,723,771,0
4202693,347.48,723,777,0
4202703,356.89,723,772,0
4202713,369.44,723,777,0
4202723,383.49,723,771,0
4202733,398.52,723,777,0
4202743,413.15,723,772,0
4202753,427.12,723,778,0
4202763,439.00,723,771,0
4202773,448.77,723,777,0
4202783,455.44,723,772,0
4202793,459.51,723,778,0
4202803,460.51,723,771,0
4202813,459.12,723,777,0
4202823,455.14,723,772,0
4202833,449.57,723,777,0
4202843,442.20,723,771,0
4202853,434.21,723,777,0
4202863,425.58,723,772,0
4202873,417.00,723,778,0
4202883,408.34,723,771,0
4202893,400.53,723,777,0
4202903,393.30,723,772,0
4202913,387.29,723,778,0
4202924,382.28,723,773,0
4202934,378.38,723,777,0
4202944,375.65,723,776,0
4202954,374.13,723,778,0
4202964,373.58,723,777,0
4202974,373.92,723,777,0
4202984,374.88,723,776,0
4202994,376.33,723,777,0
4203004,378.38,723,778,0
4203014,380.62,723,777,0
4203024,383.18,723,776,0
4203034,385.61,723,777,0
4203044,388.30,723,778,0
4203054,391.17,723,777,0
4203064,394.42,723,776,0
4203074,398.15,723,778,0
4203084,403.33,723,777,0
4203095,410.22,723,777,0
4203105,420.14,723,778,0
4203115,433.25,723,776,0
4203125,450.66,723,778,0
4203136,471.94,723,775,0
4203145,497.20,723,778,0
4203155,524.91,723,777,0
4203165,554.47,723,778,0
4203175,583.04,723,775,0
4203185,609.60,723,778,0
4203204,631.36,713,777,0
4203207,646.94,713,778,0
4203216,654.67,713,771,0
4203226,655.24,713,778,0
4203236,647.33,713,773,0
4203246,632.70,713,778,0
4203256,610.85,713,771,0
4203266,584.49,713,778,0
4203276,554.73,713,773,0
4203286,523.78,713,778,0
4203296,491.28,713,771,0
4203307,460.42,713,778,0
4203316,431.02,713,773,0
4203326,405.82,713,778,0
4203336,383.63,713,772,0
4203346,366.85,713,778,0
4203356,354.34,713,774,0
4203366,347.98,713,778,0
4203376,345.76,713,772,0
4203386,349.00,713,778,0
4203396,355.52,713,774,0
4203406,366.29,713,778,0
4203416,378.50,713,772,0
4203426,393.05,713,778,0
4203436,407.26,713,774,0
4203446,421.89,713,778,0
4203456,434.39,713,772,0
4203466,445.76,713,778,0
4203476,453.72,713,770,0
4203486,459.89,713,778,0
4203496,462.24,713,772,0
4203506,462.64,713,778,0
4203516,459.57,713,771,0
4203526,455.20,713,778,0
4203536,448.16,713,772,0
4203546,440.78,713,778,0
4203556,431.59,713,771,0
4203566,423.06,713,778,0
4203576,413.82,713,772,0
4203586,406.08,713,777,0
4203596,398.13,713,771,0
4203607,392.13,713,778,0
4203617,386.22,713,770,0
4203627,382.60,713,778,0
4203637,379.03,713,769,0
4203648,377.39,713,778,0
4203657,375.65,713,770,0
4203667,375.67,713,778,0
4203677,375.25,713,769,0
4203687,376.46,713,778,0
4203697,376.97,713,770,0
4203707,378.82,713,778,0
4203717,379.77,713,769,0
4203727,382.11,713,778,0
4203737,383.84,713,770,0
4203747,387.40,713,778,0
4203757,391.09,713,769,0
4203767,397.71,713,778,0
4203777,405.77,713,770,0
4203787,418.35,713,778,0
4203797,433.93,713,769,0
4203807,454.95,713,778,0
4203817,479.05,713,768,0
4203827,507.54,713,778,0
4203837,537.08,713,769,0
4203847,568.30,713,778,0
4203857,596.96,713,768,0
4203867,623.16,713,778,0
4203877,642.91,713,769,0
4203896,656.87,692,768,0
4203899,661.36,692,768,0
4203908,658.90,692,778,0
4203918,647.44,692,768,0
4203928,629.78,692,778,0
4203938,604.90,692,767,0
4203948,576.56,692,778,0
4203958,544.16,692,768,0
4203968,512.19,692,778,0
4203978,479.17,692,768,0
4203988,448.74,692,778,0
4203998,420.01,692,768,0
4204008,396.14,692,778,0
4204018,375.48,692,767,0
4204028,360.85,692,778,0
4204038,350.23,692,767,0
4204048,345.91,692,778,0
4204058,345.47,692,767,0
4204068,350.56,692,778,0
4204078,358.32,692,767,0
4204088,370.14,692,778,0
4204098,382.91,692,767,0
4204108,398.02,692,778,0
4204119,412.24,692,767,0
4204129,426.87,692,778,0
4204139,439.08,692,768,0
4204149,450.24,692,778,0
4204160,457.88,692,768,0
4204169,463.75,692,778,0
4204179,465.62,692,768,0
4204189,465.65,692,778,0
4204199,462.16,692,767,0
4204209,457.39,692,778,0
4204219,449.86,692,768,0
4204229,441.97,692,778,0
4204239,432.43,692,767,0
4204249,423.60,692,778,0
4204259,413.95,692,768,0
4204269,405.73,692,778,0
4204279,397.41,692,767,0
4204289,391.20,692,778,0
4204299,385.36,692,768,0
4204309,381.74,692,778,0
4204319,378.43,692,767,0
4204329,377.27,692,778,0
4204339,376.29,692,768,0
4204349,377.10,692,778,0
4204359,377.67,692,767,0
4204369,379.61,692,778,0
4204379,380.93,692,768,0
4204389,383.35,692,778,0
4204399,384.87,692,768,0
4204409,387.23,692,778,0
4204419,388.57,692,768,0
4204429,390.84,692,778,0
4204439,392.18,692,768,0
4204449,394.52,692,778,0
4204460,396.38,692,768,0
4204470,400.04,692,778,0
4204480,404.44,692,769,0
4204490,412.02,692,778,0
4204500,421.96,692,770,0
4204510,436.54,692,778,0
4204520,454.55,692,769,0
4204530,477.53,692,778,0
4204540,503.43,692,770,0
4204550,532.57,692,778,0
4204560,561.84,692,769,0
4204570,590.60,692,778,0
4204590,615.71,693,776,0
4204593,635.21,693,778,0
4204602,648.05,693,773,0
4204612,653.69,693,778,0
4204622,650.95,693,776,0
4204632,640.85,693,777,0
4204642,623.03,693,773,0
4204652,599.32,693,777,0
4204662,571.92,693,776,0
4204673,541.05,693,777,0
4204683,508.72,693,777,0
4204693,476.23,693,778,0
4204703,445.35,693,778,0
4204713,417.17,693,776,0
4204723,392.95,693,777,0
4204733,373.08,693,777,0
4204743,358.65,693,778,0
4204753,349.16,693,776,0
4204763,345.21,693,777,0
4204773,345.88,693,777,0
4204783,351.40,693,778,0
4204793,360.19,693,776,0
4204803,372.05,693,777,0
4204813,385.41,693,777,0
4204823,400.07,693,778,0
4204833,414.36,693,777,0
4204844,428.14,693,778,0
4204854,439.71,693,775,0
4204864,449.57,693,778,0
4204874,456.21,693,773,0
4204884,460.48,693,778,0
4204894,461.32,693,775,0
4204904,459.98,693,778,0
4204914,455.36,693,773,0
4204924,449.47,693,778,0
4204934,441.44,693,775,0
4204944,433.21,693,778,0
4204954,423.72,693,773,0
4204964,414.93,693,778,0
4204974,405.78,693,775,0
4204984,398.13,693,778,0
4204994,390.55,693,773,0
4205004,384.73,693,778,0
4205015,379.28,693,771,0
4205025,375.94,693,778,0
4205035,372.83,693,770,0
4205045,371.72,693,778,0
4205056,370.69,693,769,0
4205065,371.47,693,778,0
4205075,372.10,693,770,0
4205085,374.30,693,778,0
4205095,375.84,693,769,0
4205105,378.67,693,778,0
4205115,380.48,693,770,0
4205125,383.43,693,778,0
4205135,385.23,693,769,0
4205145,387.86,693,778,0
4205155,389.32,693,770,0
4205165,391.71,693,778,0
4205175,393.08,693,769,0
4205185,395.93,693,778,0
4205195,398.73,693,771,0
4205205,404.17,693,778,0
4205215,410.89,693,769,0
4205225,421.85,693,778,0
4205235,435.61,693,771,0
4205245,454.54,693,778,0
4205255,476.41,693,769,0
4205265,502.51,693,778,0
4205275,529.66,693,771,0
4205285,558.18,693,778,0
4205304,583.84,715,776,0
4205307,606.17,715,778,0
4205316,622.58,715,769,0
4205326,633.33,715,778,0
4205336,635.29,715,768,0
4205346,630.40,715,778,0
4205356,617.00,715,768,0
4205366,598.14,715,778,0
4205376,573.63,715,768,0
4205386,545.88,715,778,0
4205396,514.59,715,768,0
4205406,483.68,715,778,0
4205416,452.28,715,768,0
4205426,423.82,715,778,0
4205436,397.22,715,768,0
4205446,375.42,715,778,0
4205456,356.87,715,768,0
4205466,344.39,715,778,0
4205476,335.88,715,768,0
4205486,333.47,715,778,0
4205496,334.66,715,768,0
4205506,341.19,715,778,0
4205516,350.18,715,768,0
4205527,362.89,715,778,0
4205537,376.13,715,767,0
4205547,391.09,715,778,0
4205557,404.69,715,767,0
4205568,418.28,715,778,0
4205577,428.91,715,767,0
4205587,438.24,715,778,0
4205597,443.74,715,767,0
4205607,447.42,715,778,0
4205617,447.33,715,767,0
4205627,445.78,715,778,0
4205637,440.96,715,767,0
4205647,435.36,715,778,0
4205657,427.36,715,767,0
4205667,419.63,715,778,0
4205677,410.57,715,767,0
4205687,402.43,715,778,0
4205697,393.68,715,767,0
4205707,386.75,715,778,0
4205717,379.71,715,767,0
4205727,374.74,715,778,0
4205737,369.93,715,768,0
4205747,367.25,715,778,0
4205757,364.73,715,767,0
4205767,364.26,715,778,0
4205777,363.71,715,768,0
4205787,365.00,715,778,0
4205797,365.94,715,767,0
4205807,368.36,715,778,0
4205817,370.22,715,768,0
4205827,373.33,715,778,0
4205837,375.63,715,767,0
4205847,378.87,715,778,0
4205857,381.01,715,767,0
4205868,383.96,715,778,0
4205878,385.82,715,768,0
4205888,388.31,715,778,0
4205898,389.98,715,768,0
4205908,392.51,715,778,0
4205918,394.50,715,768,0
4205928,398.34,715,778,0
4205938,402.99,715,768,0
4205948,410.80,715,778,0
4205958,420.71,715,768,0
4205968,434.99,715,778,0
4205978,452.39,715,768,0
4205988,474.43,715,778,0
4205998,498.60,715,768,0
4206008,525.33,715,778,0
4206027,551.46,723,776,0
4206030,576.10,723,778,0
4206039,596.68,723,769,0
4206049,612.89,723,778,0
4206059,621.97,723,770,0
4206069,624.42,723,777,0
4206080,618.55,723,771,0
4206089,606.17,723,778,0
4206099,587.48,723,770,0
4206109,563.85,723,777,0
4206119,535.74,723,771,0
4206129,505.77,723,778,0
4206139,474.56,723,770,0
4206149,444.47,723,777,0
4206159,415.87,723,771,0
4206169,390.84,723,778,0
4206179,369.16,723,770,0
4206189,352.44,723,777,0
4206199,340.14,723,771,0
4206209,333.45,723,778,0
4206219,331.35,723,770,0
4206229,334.37,723,777,0
4206239,341.12,723,770,0
4206249,351.75,723,778,0
4206259,364.38,723,769,0
4206269,378.93,723,777,0
4206279,393.35,723,770,0
4206289,407.60,723,778,0
4206299,419.85,723,769,0
4206309,430.48,723,777,0
4206319,438.22,723,770,0
4206329,443.56,723,778,0
4206339,445.57,723,769,0
4206349,445.44,723,777,0
4206359,442.57,723,770,0
4206369,438.16,723,778,0
4206380,431.68,723,771,0
4206390,424.32,723,778,0
4206400,416.04,723,773,0
4206410,407.75,723,778,0
4206420,399.39,723,776,0
4206430,391.81,723,778,0
4206440,384.63,723,773,0
4206450,378.48,723,778,0
4206460,373.24,723,776,0
4206470,369.22,723,777,0
4206480,366.24,723,773,0
4206490,364.24,723,778,0
4206500,363.23,723,775,0
4206510,363.20,723,778,0
4206520,363.87,723,773,0
4206530,365.07,723,778,0
4206540,366.67,723,775,0
4206551,368.57,723,777,0
4206561,371.10,723,778,0
4206571,373.43,723,777,0
4206581,376.08,723,778,0
4206592,378.46,723,776,0
4206601,381.11,723,778,0
4206611,383.52,723,777,0
4206621,386.19,723,778,0
4206631,388.32,723,776,0
4206641,390.88,723,778,0
4206651,393.32,723,777,0
4206661,397.12,723,778,0
4206671,402.10,723,776,0
4206681,409.48,723,777,0
4206691,419.37,723,777,0
4206701,433.31,723,778,0
4206711,451.05,723,776,0
4206721,472.98,723,777,0
4206731,497.84,723,778,0
4206741,525.10,723,778,0
4206760,552.50,733,777,0
4206764,578.45,733,779,0
4206772,600.77,733,774,0
4206782,618.20,733,778,0
4206792,628.25,733,771,0
4206802,631.13,733,778,0
4206812,625.52,733,774,0
4206822,613.19,733,778,0
4206832,593.68,733,771,0
4206842,569.18,733,778,0
4206852,540.28,733,774,0
4206862,509.85,733,778,0
4206872,478.05,733,771,0
4206882,447.44,733,778,0
4206892,417.82,733,774,0
4206902,392.42,733,778,0
4206912,370.01,733,771,0
4206922,352.99,733,778,0
4206932,340.18,733,769,0
4206942,333.48,733,778,0
4206952,331.19,733,771,0
4206962,334.69,733,778,0
4206972,341.47,733,769,0
4206982,352.47,733,778,0
4206992,365.06,733,771,0
4207002,380.43,733,778,0
4207012,395.21,733,769,0
4207022,410.79,733,778,0
4207032,424.01,733,771,0
4207042,436.01,733,778,0
4207052,444.49,733,769,0
4207063,450.86,733,778,0
4207073,453.13,733,768,0
4207083,453.43,733,778,0
4207093,449.83,733,767,0
4207104,444.91,733,778,0
4207113,437.39,733,768,0
4207123,429.65,733,778,0
4207133,420.32,733,767,0
4207143,411.66,733,778,0
4207153,402.12,733,768,0
4207163,394.07,733,778,0
4207173,385.69,733,767,0
4207183,379.44,733,778,0
4207193,373.27,733,768,0
4207203,369.41,733,778,0
4207213,365.65,733,767,0
4207223,364.12,733,778,0
4207233,362.67,733,768,0
4207243,363.37,733,778,0
4207253,363.73,733,767,0
4207263,365.83,733,778,0
4207273,367.16,733,766,0
4207283,370.11,733,778,0
4207293,372.27,733,767,0
4207303,375.66,733,778,0
4207313,377.99,733,766,0
4207323,381.34,733,778,0
4207333,383.42,733,767,0
4207343,386.42,733,778,0
4207353,388.14,733,766,0
4207363,390.80,733,778,0
4207373,392.62,733,767,0
4207383,396.16,733,778,0
4207393,399.88,733,766,0
4207404,406.86,733,778,0
4207414,415.65,733,766,0
4207424,429.38,733,778,0
4207434,446.24,733,766,0
4207444,468.28,733,778,0
4207454,492.67,733,766,0
4207464,520.45,733,778,0
4207474,548.09,733,766,0
4207494,575.49,733,765,0
4207497,598.10,733,768,0
4207506,616.67,733,778,0
4207516,627.57,733,767,0
4207526,631.94,733,778,0
4207536,627.42,733,766,0
4207546,615.76,733,778,0
4207556,596.25,733,767,0
4207566,572.09,733,778,0
4207576,542.75,733,766,0
4207586,511.58,733,778,0
4207596,478.53,733,767,0
4207606,446.70,733,778,0
4207617,416.15,733,767,0
4207627,389.45,733,778,0
4207637,366.26,733,768,0
4207647,348.39,733,778,0
4207657,335.33,733,768,0
4207667,328.29,733,778,0
4207677,326.32,733,768,0
4207687,330.04,733,778,0
4207697,337.70,733,768,0
4207707,349.53,733,778,0
4207717,363.34,733,767,0
4207727,379.01,733,778,0
4207737,394.69,733,768,0
4207747,410.26,733,778,0
4207757,423.85,733,767,0
4207767,435.81,733,777,0
4207777,444.52,733,768,0
4207788,450.88,733,778,0
4207798,453.83,733,769,0
4207808,454.18,733,777,0
4207818,451.38,733,770,0
4207828,446.51,733,778,0
4207838,439.37,733,769,0
4207848,431.20,733,777,0
4207858,421.97,733,770,0
4207868,412.47,733,778,0
4207878,402.90,733,769,0
4207888,393.97,733,777,0
4207898,385.79,733,770,0
4207908,378.78,733,778,0
4207918,372.81,733,769,0
4207928,368.32,733,778,0
4207938,365.14,733,770,0
4207948,363.30,733,778,0
4207959,362.57,733,773,0
4207969,362.78,733,777,0
4207979,363.92,733,776,0
4207989,366.00,733,777,0
4208000,368.57,733,778,0
4208009,371.31,733,777,0
4208019,374.26,733,776,0
4208029,377.06,733,777,0
4208039,380.08,733,778,0
4208049,382.67,733,777,0
4208059,384.96,733,776,0
4208069,386.60,733,778,0
4208079,388.48,733,778,0
4208089,390.13,733,777,0
4208099,392.28,733,776,0
4208109,394.68,733,777,0
4208119,398.72,733,778,0
4208129,404.42,733,777,0
4208139,413.12,733,776,0
4208149,424.96,733,777,0
4208159,441.17,733,778,0
4208169,461.26,733,777,0
4208179,485.27,733,776,0
4208189,511.76,733,778,0
4208199,539.99,733,778,0
4208219,567.68,725,777,0
4208222,592.76,725,778,0
4208231,613.02,725,770,0
4208241,627.80,725,778,0
4208251,634.80,725,768,0
4208261,634.52,725,778,0
4208271,625.66,725,770,0
4208281,609.78,725,778,0
4208291,587.22,725,768,0
4208301,560.41,725,778,0
4208311,529.26,725,770,0
4208321,497.25,725,778,0
4208331,463.92,725,768,0
4208342,432.87,725,778,0
4208351,403.55,725,770,0
4208361,379.04,725,778,0
4208371,357.77,725,768,0
4208381,342.46,725,778,0
4208391,331.52,725,770,0
4208401,327.03,725,778,0
4208411,326.77,725,768,0
4208421,332.37,725,778,0
4208431,341.04,725,770,0
4208441,354.10,725,778,0
4208451,368.68,725,768,0
4208461,385.49,725,778,0
4208471,401.72,725,770,0
4208481,417.96,725,778,0
4208491,431.43,725,768,0
4208501,443.43,725,778,0
4208512,451.49,725,767,0
4208521,457.30,725,778,0
4208531,459.01,725,769,0
4208541,458.45,725,778,0
4208551,454.20,725,767,0
4208561,449.04,725,778,0
4208571,441.18,725,769,0
4208581,433.29,725,778,0
4208591,423.51,725,767,0
4208601,414.62,725,778,0
4208611,404.92,725,769,0
4208621,396.59,725,778,0
4208631,387.58,725,767,0
4208641,380.51,725,778,0
4208651,373.58,725,769,0
4208661,369.04,725,778,0
4208671,364.61,725,768,0
4208681,362.54,725,778,0
4208691,361.14,725,769,0
4208701,362.08,725,778,0
4208711,363.00,725,768,0
4208721,365.79,725,778,0
4208731,368.16,725,769,0
4208741,371.97,725,778,0
4208751,374.94,725,768,0
4208761,378.98,725,778,0
4208771,382.16,725,769,0
4208781,386.27,725,778,0
4208791,389.15,725,768,0
4208801,392.79,725,778,0
4208812,395.59,725,767,0
4208822,399.53,725,778,0
4208832,402.76,725,766,0
4208842,407.84,725,778,0
4208852,413.93,725,766,0
4208862,423.47,725,778,0
4208872,435.33,725,766,0
4208882,451.86,725,778,0
4208892,471.49,725,766,0
4208902,495.73,725,778,0
4208912,521.52,725,766,0
4208922,549.35,725,778,0
4208932,575.65,725,766,0
4208951,600.61,733,766,0
4208954,619.33,733,766,0
4208963,633.03,733,778,0
4208973,638.46,733,766,0
4208983,637.47,733,778,0
4208993,627.64,733,766,0
4209003,611.59,733,778,0
4209013,588.19,733,766,0
4209024,561.64,733,778,0
4209033,530.72,733,766,0
4209043,499.13,733,778,0
4209053,466.01,733,766,0
4209063,435.06,733,778,0
4209073,405.56,733,766,0
4209083,380.58,733,778,0
4209093,359.23,733,766,0
4209103,343.73,733,778,0
4209113,332.46,733,766,0
4209123,327.56,733,778,0
4209133,326.88,733,766,0
4209143,332.02,733,778,0
4209153,340.11,733,766,0
4209163,352.21,733,778,0
4209173,365.73,733,766,0
4209183,381.75,733,778,0
4209193,397.00,733,766,0
4209203,412.64,733,778,0
4209213,425.65,733,766,0
4209223,437.50,733,778,0
4209233,445.66,733,766,0
4209243,451.89,733,777,0
4209253,454.15,733,766,0
4209263,454.66,733,778,0
4209273,451.72,733,766,0
4209283,447.73,733,778,0
4209293,441.13,733,766,0
4209303,434.45,733,778,0
4209313,425.91,733,766,0
4209324,417.84,733,777,0
4209334,408.89,733,766,0
4209344,401.16,733,778,0
4209354,393.27,733,766,0
4209364,387.15,733,778,0
4209374,381.06,733,766,0
4209384,377.01,733,778,0
4209394,373.28,733,766,0
4209404,371.57,733,777,0
4209414,369.94,733,766,0
4209424,370.00,733,778,0
4209434,370.04,733,766,0
4209444,371.44,733,777,0
4209454,372.60,733,766,0
4209464,374.86,733,778,0
4209474,376.49,733,766,0
4209484,379.08,733,778,0
4209495,381.12,733,767,0
4209505,383.95,733,778,0
4209515,386.62,733,767,0
4209525,390.51,733,777,0
4209536,395.11,733,768,0
4209545,402.19,733,778,0
4209555,411.61,733,767,0
4209565,424.97,733,777,0
4209575,442.25,733,768,0
4209585,464.07,733,778,0
4209595,489.25,733,767,0
4209605,518.15,733,778,0
4209615,548.36,733,768,0
4209625,578.90,733,778,0
4209635,606.74,733,767,0
4209654,630.56,703,766,0
4209657,647.49,703,778,0
4209666,658.02,703,778,0
4209676,659.85,703,769,0
4209686,653.90,703,778,0
4209696,639.57,703,770,0
4209707,618.70,703,778,0
4209716,592.13,703,769,0
4209726,562.44,703,777,0
4209736,530.03,703,770,0
4209746,496.94,703,778,0
4209756,464.26,703,769,0
4209766,433.92,703,778,0
4209776,407.07,703,770,0
4209786,384.25,703,778,0
4209796,365.92,703,769,0
4209806,352.83,703,778,0
4209816,345.17,703,770,0
4209826,343.06,703,777,0
4209836,345.66,703,768,0
4209846,352.49,703,777,0
4209856,362.93,703,769,0
4209866,376.41,703,777,0
4209876,391.41,703,772,0
4209886,407.23,703,777,0
4209896,422.51,703,769,0
4209906,436.80,703,778,0
4209916,448.94,703,772,0
4209926,458.65,703,778,0
4209936,465.22,703,769,0
4209946,468.71,703,777,0
4209956,469.14,703,772,0
4209966,467.09,703,778,0
4209976,462.47,703,769,0
4209986,456.12,703,778,0
4209996,448.15,703,771,0
4210007,439.41,703,778,0
4210017,430.29,703,775,0
4210027,421.20,703,778,0
4210037,412.44,703,778,0
4210048,404.25,703,777,0
4210057,396.98,703,774,0
4210067,390.85,703,778,0
4210077,386.14,703,778,0
4210087,382.46,703,777,0
4210097,380.00,703,774,0
4210107,378.46,703,778,0
4210117,378.41,703,777,0
4210127,378.93,703,777,0
4210137,380.41,703,774,0
4210147,382.08,703,777,0
4210157,384.67,703,777,0
4210167,387.26,703,777,0
4210177,390.27,703,774,0
4210187,393.10,703,777,0
4210197,396.46,703,777,0
4210207,399.49,703,777,0
4210217,403.16,703,778,0
4210227,407.05,703,778,0
4210237,412.44,703,777,0
4210247,419.42,703,777,0
4210257,429.45,703,778,0
4210267,442.64,703,778,0
4210277,460.37,703,777,0
4210287,482.11,703,777,0
4210297,507.96,703,778,0
4210307,536.56,703,777,0
4210317,566.78,703,777,0
4210327,595.99,703,777,0
4210337,622.73,703,778,0
4210357,644.29,703,777,0
4210360,659.03,703,779,0
4210369,665.66,703,769,0
4210379,664.31,703,778,0
4210390,653.89,703,767,0
4210399,636.39,703,778,0
4210409,611.67,703,769,0
4210419,582.76,703,778,0
4210429,550.26,703,767,0
4210439,517.05,703,778,0
4210449,483.22,703,769,0
4210459,452.26,703,778,0
4210469,423.08,703,768,0
4210479,398.80,703,778,0
4210489,377.99,703,769,0
4210499,363.29,703,778,0
4210509,352.79,703,768,0
4210519,348.44,703,778,0
4210529,348.05,703,769,0
4210539,353.35,703,778,0
4210549,361.69,703,768,0
4210560,374.21,703,778,0
4210569,387.90,703,769,0
4210579,403.70,703,778,0
4210589,418.58,703,767,0
4210599,433.58,703,778,0
4210609,446.00,703,769,0
4210619,457.02,703,778,0
4210629,464.13,703,768,0
4210639,469.23,703,778,0
4210649,470.40,703,769,0
4210659,469.85,703,778,0
4210669,465.83,703,767,0
4210679,460.65,703,778,0
4210689,453.08,703,769,0
4210699,445.60,703,778,0
4210709,436.94,703,767,0
4210719,429.11,703,778,0
4210729,420.55,703,767,0
4210739,413.61,703,778,0
4210749,406.44,703,767,0
4210759,401.21,703,778,0
4210769,395.92,703,767,0
4210779,392.64,703,778,0
4210789,389.36,703,767,0
4210799,388.27,703,778,0
4210809,386.86,703,767,0
4210819,387.42,703,778,0
4210829,387.38,703,767,0
4210839,388.85,703,778,0
4210849,389.45,703,767,0
4210860,391.37,703,778,0
4210870,392.25,703,766,0
4210880,394.44,703,778,0
4210890,395.68,703,766,0
4210900,398.22,703,778,0
4210910,400.04,703,766,0
4210920,403.33,703,778,0
4210930,406.66,703,766,0
4210940,412.68,703,778,0
4210950,419.80,703,766,0
4210960,431.13,703,778,0
4210970,445.11,703,766,0
4210980,464.40,703,778,0
4210990,486.70,703,766,0
4211000,513.44,703,778,0
4211010,541.30,703,766,0
4211020,570.95,703,778,0
4211031,597.88,703,766,0
4211050,622.43,693,765,0
4211053,639.70,693,769,0
4211062,651.11,693,778,0
4211073,653.60,693,766,0
4211083,649.09,693,778,0
4211093,635.74,693,767,0
4211103,616.32,693,778,0
4211113,590.29,693,767,0
4211123,561.96,693,778,0
4211133,530.34,693,767,0
4211143,498.66,693,778,0
4211153,466.74,693,767,0
4211163,437.68,693,778,0
4211173,411.29,693,767,0
4211183,389.56,693,778,0
4211193,371.61,693,767,0
4211203,359.55,693,778,0
4211213,352.23,693,767,0
4211223,350.70,693,778,0
4211233,353.45,693,767,0
4211244,360.81,693,778,0
4211254,371.28,693,768,0
4211264,384.70,693,778,0
4211274,399.06,693,769,0
4211284,414.21,693,778,0
4211294,428.25,693,768,0
4211304,441.29,693,778,0
4211314,451.75,693,769,0
4211324,459.79,693,778,0
4211334,464.57,693,768,0
4211344,466.67,693,777,0
4211354,465.65,693,769,0
4211364,462.50,693,778,0
4211374,456.82,693,768,0
4211384,450.06,693,778,0
4211394,441.81,693,769,0
4211404,433.38,693,778,0
4211415,424.53,693,770,0
4211425,416.18,693,778,0
4211435,408.33,693,772,0
4211445,401.67,693,778,0
4211456,395.77,693,776,0
4211465,391.21,693,777,0
4211475,387.59,693,772,0
4211485,385.10,693,778,0
4211495,383.91,693,776,0
4211505,383.64,693,777,0
4211515,384.13,693,772,0
4211525,385.38,693,778,0
4211535,387.45,693,776,0
4211545,390.10,693,778,0
4211555,393.20,693,772,0
4211565,396.18,693,778,0
4211575,399.34,693,776,0
4211585,402.41,693,778,0
4211595,405.29,693,772,0
4211605,407.69,693,778,0
4211615,409.75,693,775,0
4211625,411.37,693,777,0
4211635,412.59,693,772,0
4211645,413.31,693,778,0
4211655,413.99,693,775,0
4211665,414.59,693,778,0
4211675,415.53,693,772,0
4211685,417.38,693,777,0
4211695,421.47,693,775,0
4211705,428.14,693,777,0
4211715,438.30,693,771,0
4211725,452.57,693,778,0
4211735,471.51,693,775,0
4211745,494.84,693,778,0
4211756,521.89,693,778,0
4211775,550.51,725,777,0
4211778,579.16,725,778,0
4211787,605.64,725,770,0
4211798,628.38,725,778,0
4211807,644.76,725,773,0
4211817,654.13,725,778,0
4211827,654.61,725,770,0
4211837,647.27,725,778,0
4211847,632.23,725,772,0
4211857,611.20,725,778,0
4211867,584.14,725,770,0
4211877,554.10,725,778,0
4211887,521.63,725,773,0
4211897,489.81,725,778,0
4211907,458.62,725,770,0
4211917,430.58,725,778,0
4211927,405.29,725,773,0
4211937,385.02,725,778,0
4211947,368.68,725,771,0
4211957,358.15,725,778,0
4211968,351.81,725,768,0
4211977,351.09,725,778,0
4211987,354.19,725,771,0
4211997,362.11,725,778,0
4212007,372.32,725,768,0
4212017,385.89,725,778,0
4212027,399.68,725,771,0
4212037,414.69,725,778,0
4212047,428.03,725,768,0
4212057,440.53,725,778,0
4212067,449.97,725,771,0
4212077,457.52,725,778,0
4212087,461.22,725,768,0
4212097,462.96,725,778,0
4212107,461.04,725,771,0
4212117,457.60,725,778,0
4212127,451.12,725,769,0
4212137,443.88,725,778,0
4212147,434.88,725,771,0
4212157,426.08,725,778,0
4212167,416.24,725,769,0
4212177,407.90,725,778,0
4212187,399.62,725,771,0
4212197,393.13,725,778,0
4212207,386.79,725,769,0
4212217,382.35,725,778,0
4212227,378.35,725,771,0
4212237,376.57,725,778,0
4212247,374.77,725,769,0
4212257,374.63,725,778,0
4212268,374.61,725,768,0
4212278,376.44,725,778,0
4212288,378.24,725,767,0
4212298,381.42,725,778,0
4212308,383.91,725,766,0
4212318,387.58,725,778,0
4212328,390.41,725,767,0
4212338,394.27,725,778,0
4212348,396.97,725,766,0
4212358,400.37,725,778,0
4212368,402.44,725,767,0
4212378,405.22,725,778,0
4212388,406.49,725,767,0
4212398,408.44,725,778,0
4212408,408.82,725,767,0
4212418,409.86,725,778,0
4212428,409.69,725,766,0
4212439,410.81,725,778,0
4212449,411.77,725,766,0
4212459,415.48,725,778,0
4212469,420.61,725,766,0
4212480,430.28,725,778,0
4212489,443.05,725,766,0
4212499,461.34,725,778,0
4212509,482.97,725,766,0
4212529,509.16,753,765,0
4212532,536.41,753,768,0
4212541,565.35,753,778,0
4212551,591.60,753,767,0
4212561,614.91,753,778,0
4212571,631.65,753,766,0
4212581,642.08,753,778,0
4212591,643.56,753,767,0
4212601,637.69,753,778,0
4212611,622.87,753,766,0
4212621,602.12,753,778,0
4212631,575.26,753,766,0
4212641,545.35,753,778,0
4212652,512.67,753,767,0
4212662,480.37,753,778,0
4212672,448.63,753,768,0
4212682,420.11,753,778,0
4212692,394.41,753,768,0
4212702,373.59,753,778,0
4212712,356.91,753,767,0
4212722,346.01,753,778,0
4212732,339.83,753,768,0
4212742,339.37,753,777,0
4212752,342.99,753,767,0
4212762,351.22,753,778,0
4212772,362.38,753,768,0
4212782,376.50,753,777,0
4212792,391.22,753,767,0
4212802,406.54,753,778,0
4212812,420.56,753,768,0
4212823,433.25,753,777,0
4212833,443.16,753,769,0
4212843,450.44,753,777,0
4212853,454.42,753,770,0
4212864,455.84,753,777,0
4212873,454.39,753,769,0
4212883,450.80,753,778,0
4212893,445.20,753,770,0
4212903,438.07,753,777,0
4212913,429.69,753,769,0
4212923,420.74,753,778,0
4212933,411.39,753,770,0
4212943,402.14,753,777,0
4212953,393.19,753,769,0
4212963,385.16,753,778,0
4212973,378.38,753,770,0
4212983,373.38,753,777,0
4212993,369.58,753,769,0
4213003,367.44,753,778,0
4213013,366.58,753,770,0
4213023,367.05,753,777,0
4213033,368.40,753,772,0
4213043,370.55,753,778,0
4213053,373.00,753,770,0
4213063,376.04,753,777,0
4213073,379.37,753,772,0
4213083,382.90,753,778,0
4213093,386.23,753,770,0
4213103,389.46,753,777,0
4213113,392.32,753,772,0
4213123,394.88,753,778,0
4213133,396.89,753,770,0
4213143,398.38,753,777,0
4213153,399.29,753,772,0
4213164,399.94,753,778,0
4213174,400.25,753,776,0
4213184,400.48,753,777,0
4213194,401.11,753,778,0
4213204,402.49,753,777,0
4213214,405.38,753,775,0
4213224,410.37,753,777,0
4213234,418.70,753,778,0
4213244,430.58,753,777,0
4213254,446.99,753,775,0
4213264,467.35,753,777,0
4213274,491.72,753,778,0
4213294,518.42,765,777,0
4213297,546.11,765,778,0
4213306,572.13,765,770,0
4213316,595.79,765,778,0
4213326,613.77,765,768,0
4213336,626.05,765,778,0
4213346,630.24,765,770,0
4213356,627.38,765,778,0
4213366,616.29,765,768,0
4213377,599.11,765,778,0
4213387,575.12,765,767,0
4213397,547.91,765,778,0
4213407,516.74,765,767,0
4213417,485.44,765,778,0
4213427,453.30,765,767,0
4213437,424.11,765,778,0
4213447,396.99,765,767,0
4213457,374.79,765,778,0
4213467,356.17,765,767,0
4213477,343.52,765,778,0
4213487,334.83,765,767,0
4213497,332.27,765,778,0
4213507,333.39,765,767,0
4213517,339.83,765,778,0
4213527,348.67,765,767,0
4213537,361.15,765,778,0
4213548,374.35,765,766,0
4213558,389.24,765,778,0
4213568,402.63,765,766,0
4213578,415.90,765,778,0
4213588,426.30,765,766,0
4213598,435.42,765,778,0
4213608,440.61,765,766,0
4213618,443.90,765,778,0
4213628,443.37,765,766,0
4213638,441.59,765,778,0
4213648,436.48,765,766,0
4213658,430.64,765,778,0
4213668,422.39,765,766,0
4213678,414.34,765,778,0
4213688,404.81,765,766,0
4213698,396.30,765,778,0
4213708,386.99,765,766,0
4213719,379.45,765,778,0
4213729,371.73,765,766,0
4213739,365.98,765,778,0
4213749,360.63,765,766,0
4213760,357.53,765,778,0
4213769,354.84,765,766,0
4213779,354.46,765,778,0
4213789,354.36,765,766,0
4213799,356.14,765,777,0
4213809,358.03,765,766,0
4213819,361.23,765,778,0
4213829,363.95,765,766,0
4213839,367.74,765,777,0
4213849,370.56,765,766,0
4213859,374.16,765,778,0
4213869,376.68,765,766,0
4213879,379.74,765,778,0
4213889,381.79,765,766,0
4213899,384.47,765,778,0
4213909,386.08,765,766,0
4213919,388.20,765,778,0
4213929,389.21,765,766,0
4213939,390.91,765,778,0
4213949,391.88,765,766,0
4213959,394.01,765,778,0
4213969,396.50,765,766,0
4213979,401.32,765,778,0
4213989,407.82,765,766,0
4213999,418.46,765,778,0
4214009,432.21,765,766,0
4214019,450.96,765,778,0
4214029,472.74,765,766,0
4214048,498.41,755,765,0
4214051,524.86,755,770,0
4214060,552.54,755,778,0
4214070,577.45,755,767,0
4214080,599.43,755,778,0
4214090,614.99,755,767,0
4214100,624.46,755,778,0
4214110,625.57,755,767,0
4214120,619.95,755,778,0
4214130,605.95,755,767,0
4214140,586.25,755,778,0
4214150,560.81,755,767,0
4214160,532.49,755,778,0
4214170,501.66,755,767,0
4214180,470.78,755,778,0
4214190,440.20,755,767,0
4214200,412.54,755,778,0
4214210,387.44,755,767,0
4214220,366.82,755,778,0
4214231,350.29,755,768,0
4214241,339.23,755,778,0
4214251,333.08,755,769,0
4214261,332.50,755,778,0
4214272,336.25,755,770,0
4214281,344.74,755,778,0
4214291,356.05,755,768,0
4214301,370.05,755,778,0
4214311,385.03,755,770,0
4214321,400.58,755,778,0
4214331,414.94,755,768,0
4214341,427.90,755,778,0
4214351,438.30,755,770,0
4214361,446.48,755,777,0
4214371,451.44,755,768,0
4214381,453.79,755,777,0
4214391,453.13,755,770,0
4214401,450.39,755,778,0
4214411,445.30,755,768,0
4214421,438.78,755,778,0
4214431,430.66,755,770,0
4214441,422.02,755,778,0
4214451,412.76,755,768,0
4214461,403.74,755,778,0
4214471,394.91,755,770,0
4214481,387.05,755,778,0
4214491,379.83,755,768,0
4214501,374.10,755,778,0
4214511,369.57,755,770,0
4214521,366.40,755,778,0
4214531,364.14,755,768,0
4214541,363.28,755,778,0
4214551,363.20,755,770,0
4214561,364.21,755,778,0
4214572,365.65,755,771,0
4214582,367.51,755,778,0
4214592,369.80,755,773,0
4214602,372.35,755,777,0
4214612,375.11,755,776,0
4214622,377.91,755,778,0
4214632,380.64,755,773,0
4214642,383.32,755,778,0
4214652,386.18,755,776,0
4214662,388.74,755,778,0
4214672,391.43,755,773,0
4214682,394.13,755,777,0
4214692,397.95,755,776,0
4214702,403.24,755,778,0
4214712,410.84,755,773,0
4214722,421.21,755,777,0
4214732,435.64,755,776,0
4214743,454.09,755,778,0
4214753,476.56,755,778,0
4214763,501.76,755,777,0
4214773,528.92,755,778,0
4214784,555.77,755,775,0
4214802,581.04,754,776,0
4214805,601.17,754,768,0
4214814,616.63,754,778,0
4214824,625.06,754,770,0
4214834,627.10,754,778,0
4214844,620.94,754,772,0
4214854,608.53,754,778,0
4214864,588.87,754,770,0
4214874,565.72,754,778,0
4214884,537.69,754,772,0
4214894,508.00,754,778,0
4214904,476.03,754,770,0
4214914,445.46,754,778,0
4214924,415.80,754,772,0
4214934,390.14,754,778,0
4214944,367.51,754,770,0
4214955,350.26,754,778,0
4214964,337.15,754,773,0
4214974,330.21,754,778,0
4214984,327.53,754,770,0
4214994,330.54,754,778,0
4215004,337.11,754,773,0
4215014,348.00,754,778,0
4215024,360.56,754,770,0
4215034,375.65,754,778,0
4215044,390.54,754,773,0
4215054,405.98,754,778,0
4215064,419.27,754,770,0
4215074,431.53,754,778,0
4215084,440.46,754,773,0
4215094,447.61,754,778,0
4215104,451.07,754,770,0
4215114,452.59,754,778,0
4215124,450.53,754,769,0
4215134,447.11,754,778,0
4215144,440.74,754,770,0
4215154,433.79,754,778,0
4215164,424.72,754,769,0
4215174,415.89,754,778,0
4215184,406.02,754,770,0
4215194,397.40,754,778,0
4215204,388.32,754,769,0
4215214,381.07,754,778,0
4215224,373.89,754,770,0
4215234,369.00,754,778,0
4215244,364.41,754,769,0
4215255,362.06,754,778,0
4215265,359.81,754,767,0
4215275,359.91,754,778,0
4215285,359.90,754,767,0
4215296,361.77,754,778,0
4215305,363.17,754,767,0
4215315,366.20,754,778,0
4215325,368.54,754,767,0
4215335,372.24,754,778,0
4215345,374.61,754,767,0
4215355,377.94,754,778,0
4215365,380.40,754,767,0
4215375,384.31,754,778,0
4215385,387.95,754,767,0
4215395,393.96,754,778,0
4215405,401.13,754,767,0
4215415,412.58,754,778,0
4215425,426.76,754,768,0
4215435,445.90,754,778,0
4215445,468.13,754,767,0
4215455,494.75,754,778,0
4215465,522.68,754,766,0
4215475,552.35,754,778,0
4215485,579.89,754,767,0
4215495,605.38,754,778,0
4215515,624.76,712,776,0
4215518,637.69,712,778,0
4215527,642.11,712,766,0
4215537,639.42,712,778,0
4215547,627.77,712,766,0
4215557,609.88,712,778,0
4215567,585.14,712,766,0
4215577,557.20,712,778,0
4215587,526.24,712,766,0
4215597,494.84,712,778,0
4215607,462.75,712,766,0
4215617,433.21,712,778,0
4215627,405.42,712,766,0
4215638,382.02,712,778,0
4215647,361.83,712,766,0
4215657,347.39,712,778,0
4215667,337.55,712,766,0
4215677,333.78,712,778,0
4215687,333.98,712,766,0
4215697,339.60,712,778,0
4215707,348.20,712,766,0
4215717,360.74,712,778,0
4215727,374.41,712,766,0
4215737,389.80,712,778,0
4215747,404.39,712,766,0
4215757,419.49,712,778,0
4215767,431.85,712,766,0
4215777,442.78,712,778,0
4215787,449.96,712,766,0
4215797,455.12,712,778,0
4215808,456.24,712,766,0
4215817,455.52,712,778,0
4215827,451.12,712,766,0
4215837,445.56,712,778,0
4215847,437.59,712,766,0
4215857,429.44,712,778,0
4215867,419.80,712,766,0
4215877,410.86,712,778,0
4215887,401.26,712,766,0
4215897,393.29,712,778,0
4215907,385.32,712,766,0
4215917,379.22,712,778,0
4215927,373.46,712,766,0
4215937,369.81,712,778,0
4215947,366.61,712,766,0
4215957,365.22,712,778,0
4215967,363.79,712,766,0
4215977,364.02,712,778,0
4215987,364.10,712,766,0
4215997,365.61,712,777,0
4216007,366.80,712,766,0
4216017,369.00,712,778,0
4216027,370.85,712,766,0
4216037,373.81,712,778,0
4216047,376.56,712,766,0
4216057,381.24,712,778,0
4216067,386.39,712,766,0
4216077,394.46,712,778,0
4216087,404.65,712,766,0
4216097,419.50,712,778,0
4216108,437.95,712,766,0
4216118,461.54,712,777,0
4216128,488.08,712,767,0
4216138,518.40,712,778,0
4216148,549.35,712,768,0
4216158,580.57,712,778,0
4216168,608.30,712,767,0
4216178,632.04,712,778,0
4216198,648.66,683,776,0
4216201,657.24,683,777,0
4216210,657.39,683,771,0
4216220,649.86,683,778,0
4216230,634.13,683,772,0
4216240,612.19,683,777,0
4216250,584.58,683,771,0
4216260,553.80,683,778,0
4216270,521.93,683,772,0
4216280,489.64,683,777,0
4216290,457.99,683,771,0
4216300,428.59,683,778,0
4216310,402.27,683,772,0
4216321,379.90,683,777,0
4216331,362.40,683,776,0
4216341,349.77,683,778,0
4216351,342.51,683,778,0
4216361,340.43,683,777,0
4216371,343.51,683,775,0
4216381,350.82,683,777,0
4216391,362.49,683,778,0
4216401,376.14,683,777,0
4216411,391.53,683,775,0
4216421,406.93,683,777,0
4216431,421.99,683,778,0
4216441,435.28,683,777,0
4216451,446.64,683,775,0
4216461,454.55,683,777,0
4216471,460.00,683,778,0
4216481,462.14,683,777,0
4216492,461.80,683,778,0
4216502,458.73,683,776,0
4216512,453.97,683,778,0
4216522,446.86,683,773,0
4216532,439.23,683,778,0
4216542,430.38,683,776,0
4216552,421.95,683,778,0
4216562,412.92,683,773,0
4216572,404.72,683,778,0
4216582,396.53,683,776,0
4216592,390.33,683,778,0
4216602,384.19,683,773,0
4216612,379.89,683,778,0
4216622,375.94,683,776,0
4216632,373.98,683,778,0
4216642,372.36,683,773,0
4216652,372.51,683,778,0
4216663,372.53,683,771,0
4216673,374.21,683,778,0
4216683,375.61,683,769,0
4216693,378.25,683,778,0
4216704,380.58,683,768,0
4216713,384.18,683,778,0
4216723,387.47,683,769,0
4216733,392.68,683,778,0
4216743,398.56,683,768,0
4216753,407.57,683,778,0
4216763,418.67,683,769,0
4216773,434.67,683,779,0
4216783,453.97,683,768,0
4216793,478.58,683,778,0
4216803,505.83,683,769,0
4216813,536.61,683,779,0
4216823,567.37,683,768,0
4216833,598.20,683,778,0
4216843,624.71,683,769,0
4216853,646.96,683,778,0
4216872,661.33,675,777,0
4216876,667.96,675,778,0
4216884,665.44,675,767,0
4216894,655.84,675,778,0
4216904,637.59,675,766,0
4216914,613.88,675,778,0
4216924,584.77,675,767,0
4216934,553.60,675,778,0
4216944,520.89,675,767,0
4216954,488.91,675,778,0
4216964,457.44,675,767,0
4216974,429.79,675,778,0
4216984,404.83,675,767,0
4216994,384.99,675,778,0
4217004,368.84,675,767,0
4217014,358.69,675,777,0
4217024,352.57,675,766,0
4217034,352.31,675,778,0
4217044,355.47,675,766,0
4217054,363.60,675,778,0
4217064,373.71,675,766,0
4217074,387.17,675,778,0
4217084,400.87,675,766,0
4217094,416.08,675,778,0
4217104,429.64,675,766,0
4217114,442.82,675,778,0
4217124,453.03,675,766,0
4217134,461.68,675,778,0
4217144,466.53,675,767,0
4217154,469.42,675,778,0
4217164,468.48,675,766,0
4217175,466.02,675,778,0
4217185,460.40,675,766,0
4217195,453.94,675,778,0
4217205,445.38,675,766,0
4217216,436.87,675,778,0
4217225,427.14,675,766,0
4217235,418.44,675,778,0
4217245,409.22,675,766,0
4217255,401.74,675,778,0
4217265,394.28,675,766,0
4217275,389.05,675,778,0
4217285,384.36,675,766,0
4217295,382.07,675,778,0
4217305,380.16,675,766,0
4217315,380.41,675,778,0
4217325,380.76,675,766,0
4217335,382.89,675,778,0
4217345,384.55,675,766,0
4217355,387.64,675,778,0
4217365,390.06,675,766,0
4217375,393.60,675,778,0
4217385,396.34,675,766,0
4217395,399.96,675,778,0
4217405,402.80,675,766,0
4217415,407.23,675,778,0
4217425,411.58,675,766,0
4217435,418.52,675,778,0
4217445,426.76,675,766,0
4217455,439.26,675,778,0
4217465,454.78,675,766,0
4217475,475.55,675,778,0
4217485,499.34,675,766,0
4217495,527.22,675,778,0
4217505,555.87,675,766,0
4217516,585.52,675,778,0
4217526,612.15,675,766,0
4217536,635.46,675,778,0
4217555,651.91,683,777,0
4217559,660.85,683,778,0
4217567,661.71,683,767,0
4217577,655.63,683,778,0
4217587,641.55,683,767,0
4217597,621.59,683,778,0
4217607,596.12,683,767,0
4217617,567.84,683,778,0
4217627,537.98,683,767,0
4217637,507.51,683,778,0
4217647,477.40,683,767,0
4217657,449.68,683,778,0
4217667,424.32,683,767,0
4217677,403.01,683,778,0
4217687,385.22,683,767,0
4217697,372.64,683,778,0
4217707,364.31,683,767,0
4217717,361.17,683,778,0
4217728,362.02,683,768,0
4217737,367.54,683,778,0
4217747,375.91,683,767,0
4217757,387.38,683,778,0
4217767,400.04,683,768,0
4217777,413.87,683,778,0
4217787,426.51,683,767,0
4217797,438.53,683,778,0
4217807,448.23,683,768,0
4217817,456.22,683,778,0
4217827,461.04,683,767,0
4217837,463.51,683,778,0
4217847,462.97,683,768,0
4217857,460.79,683,778,0
4217867,455.97,683,767,0
4217877,449.98,683,778,0
4217887,442.19,683,768,0
4217897,434.20,683,778,0
4217907,425.27,683,767,0
4217917,416.87,683,778,0
4217927,408.55,683,768,0
4217937,401.66,683,778,0
4217947,395.03,683,767,0
4217957,389.71,683,778,0
4217967,385.21,683,768,0
4217977,382.19,683,778,0
4217987,379.65,683,767,0
4217997,378.51,683,778,0
4218007,377.67,683,768,0
4218017,378.33,683,778,0
4218028,379.34,683,768,0
4218038,381.04,683,778,0
4218048,382.96,683,770,0
4218058,385.63,683,777,0
4218068,388.05,683,771,0
4218078,390.69,683,778,0
4218088,392.71,683,770,0
4218098,395.07,683,778,0
4218108,397.06,683,771,0
4218118,399.02,683,778,0
4218128,400.43,683,770,0
4218138,401.84,683,778,0
4218148,403.17,683,771,0
4218158,404.96,683,778,0
4218168,406.90,683,770,0
4218178,410.02,683,778,0
4218188,414.90,683,771,0
4218199,422.39,683,778,0
4218209,433.03,683,774,0
4218219,447.59,683,778,0
4218229,466.36,683,777,0
4218240,489.01,683,778,0
4218249,514.85,683,774,0
4218268,542.15,713,774,0
4218271,569.19,713,777,0
4218280,593.78,713,775,0
4218290,614.67,713,778,0
4218300,629.60,713,777,0
4218310,638.21,713,778,0
4218320,638.79,713,774,0
4218330,632.46,713,778,0
4218340,619.25,713,777,0
4218350,600.41,713,778,0
4218360,576.03,713,775,0
4218370,548.76,713,778,0
4218380,519.22,713,777,0
4218390,489.92,713,778,0
4218400,460.72,713,775,0
4218411,433.97,713,778,0
4218420,409.98,713,777,0
4218430,390.40,713,778,0
4218440,374.38,713,775,0
4218450,363.30,713,778,0
4218460,356.31,713,777,0
4218470,354.67,713,778,0
4218480,356.57,713,775,0
4218490,362.91,713,778,0
4218500,371.64,713,777,0
4218510,383.19,713,778,0
4218520,395.22,713,775,0
4218530,408.35,713,778,0
4218540,420.38,713,777,0
4218550,431.88,713,778,0
4218560,440.79,713,775,0
4218570,448.14,713,778,0
4218580,452.34,713,772,0
4218590,454.72,713,778,0
4218600,453.78,713,775,0
4218610,451.02,713,778,0
4218620,445.61,713,773,0
4218630,439.30,713,778,0
4218640,431.15,713,775,0
4218650,423.09,713,778,0
4218660,413.98,713,772,0
4218670,405.89,713,778,0
4218680,397.69,713,775,0
4218690,391.06,713,778,0
4218700,384.52,713,773,0
4218711,379.78,713,778,0
4218721,375.13,713,770,0
4218731,372.61,713,778,0
4218741,370.24,713,768,0
4218752,369.65,713,778,0
4218761,368.94,713,770,0
4218771,369.69,713,778,0
4218781,370.30,713,768,0
4218791,372.52,713,778,0
4218801,374.21,713,770,0
4218811,377.32,713,778,0
4218821,379.79,713,768,0
4218831,383.46,713,778,0
4218841,386.40,713,770,0
4218851,390.01,713,778,0
4218861,392.24,713,768,0
4218871,395.08,713,778,0
4218881,396.26,713,770,0
4218891,397.89,713,778,0
4218901,398.05,713,768,0
4218911,398.68,713,778,0
4218921,398.09,713,768,0
4218931,398.58,713,778,0
4218941,398.15,713,769,0
4218951,399.05,713,778,0
4218961,399.72,713,767,0
4218971,402.89,713,778,0
4218981,407.42,713,769,0
4218991,416.00,713,778,0
4219001,427.05,713,768,0
4219011,442.94,713,779,0
4219021,461.73,713,769,0
4219040,484.74,772,767,0
4219043,508.52,772,766,0
4219052,534.08,772,779,0
4219062,557.54,772,767,0
4219072,579.28,772,778,0
4219082,595.52,772,767,0
4219092,607.02,772,778,0
4219102,610.96,772,767,0
4219112,609.69,772,778,0
4219122,600.22,772,766,0
4219132,585.50,772,778,0
4219142,564.69,772,767,0
4219152,541.04,772,778,0
4219162,513.77,772,766,0
4219172,486.33,772,778,0
4219182,457.81,772,767,0
4219192,431.90,772,778,0
4219202,407.76,772,766,0
4219212,387.69,772,778,0
4219223,370.68,772,766,0
4219233,359.08,772,778,0
4219243,351.00,772,766,0
4219253,348.25,772,778,0
4219264,348.74,772,766,0
4219273,353.74,772,778,0
4219283,360.89,772,766,0
4219293,371.25,772,778,0
4219303,382.15,772,766,0
4219313,394.70,772,778,0
4219323,406.02,772,766,0
4219333,417.37,772,778,0
4219343,426.30,772,766,0
4219353,434.40,772,778,0
4219363,439.12,772,766,0
4219373,442.43,772,778,0
4219383,442.43,772,766,0
4219393,441.40,772,778,0
4219403,437.47,772,766,0
4219413,432.83,772,778,0
4219423,425.85,772,766,0
4219433,419.04,772,778,0
4219443,410.80,772,766,0
4219453,403.40,772,778,0
4219463,395.31,772,766,0
4219473,388.83,772,778,0
4219483,382.15,772,766,0
4219493,377.44,772,778,0
4219503,372.76,772,766,0
4219513,370.09,772,778,0
4219523,367.49,772,766,0
4219533,366.92,772,778,0
4219543,366.30,772,766,0
4219553,367.49,772,778,0
4219564,368.72,772,766,0
4219574,371.37,772,778,0
4219584,373.53,772,766,0
4219594,376.80,772,778,0
4219604,379.13,772,766,0
4219614,382.18,772,778,0
4219624,384.10,772,766,0
4219634,386.30,772,778,0
4219644,387.66,772,767,0
4219654,389.69,772,778,0
4219664,390.81,772,766,0
4219674,392.58,772,778,0
4219684,393.52,772,766,0
4219694,395.34,772,778,0
4219704,396.56,772,766,0
4219714,399.10,772,778,0
4219724,402.07,772,767,0
4219735,407.58,772,778,0
4219745,414.82,772,767,0
4219755,425.89,772,778,0
4219765,439.72,772,767,0
4219776,457.72,772,778,0
4219785,477.82,772,767,0
4219804,500.67,764,766,0
4219807,523.36,764,774,0
4219816,546.05,764,778,0
4219826,565.88,764,768,0
4219836,582.46,764,778,0
4219846,593.59,764,769,0
4219856,599.37,764,777,0
4219866,598.19,764,768,0
4219876,591.40,764,778,0
4219886,578.17,764,769,0
4219896,560.03,764,777,0
4219906,537.48,764,768,0
4219916,512.61,764,778,0
4219926,486.02,764,769,0
4219936,459.53,764,778,0
4219947,433.87,764,770,0
4219956,410.64,764,778,0
4219966,390.13,764,769,0
4219976,373.42,764,778,0
4219986,360.44,764,770,0
4219996,352.08,764,778,0
4220006,347.85,764,769,0
4220016,347.98,764,778,0
4220026,351.76,764,770,0
4220036,359.12,764,778,0
4220046,368.81,764,769,0
4220056,380.40,764,778,0
4220066,392.66,764,770,0
4220076,405.32,764,778,0
4220086,416.97,764,769,0
4220096,427.31,764,777,0
4220106,435.61,764,769,0
4220116,441.86,764,777,0
4220126,445.42,764,769,0
4220136,446.66,764,778,0
4220146,445.35,764,770,0
4220156,442.20,764,778,0
4220166,437.17,764,769,0
4220176,430.95,764,778,0
4220186,423.59,764,770,0
4220196,415.91,764,778,0
4220206,407.93,764,769,0
4220216,400.36,764,778,0
4220226,393.05,764,770,0
4220236,386.61,764,778,0
4220247,380.85,764,771,0
4220257,376.23,764,777,0
4220267,372.64,764,774,0
4220277,370.14,764,778,0
4220288,368.68,764,777,0
4220297,368.26,764,778,0
4220307,368.66,764,773,0
4220317,369.57,764,777,0
4220327,371.20,764,777,0
4220337,373.07,764,778,0
4220347,375.28,764,773,0
4220357,377.34,764,777,0
4220367,379.72,764,777,0
4220377,381.99,764,777,0
4220387,384.39,764,773,0
4220397,386.50,764,778,0
4220407,388.88,764,777,0
4220417,391.32,764,778,0
4220427,394.48,764,773,0
4220437,398.32,764,778,0
4220447,403.92,764,777,0
4220457,411.53,764,777,0
4220467,421.96,764,773,0
4220477,435.34,764,778,0
4220487,452.43,764,776,0
4220497,472.44,764,778,0
4220507,495.02,764,773,0
4220517,518.76,764,778,0
4220527,542.70,764,777,0
4220547,564.91,742,776,0
4220550,583.71,742,778,0
4220559,597.17,742,772,0
4220569,605.34,742,778,0
4220579,606.44,742,769,0
4220589,601.51,742,778,0
4220599,589.74,742,772,0
4220609,573.19,742,778,0
4220619,551.79,742,769,0
4220630,528.07,742,778,0
4220639,501.52,742,772,0
4220649,475.13,742,778,0
4220659,448.27,742,769,0
4220669,423.67,742,778,0
4220679,400.50,742,772,0
4220689,381.58,742,778,0
4220699,365.55,742,770,0
4220709,354.71,742,778,0
4220719,347.86,742,772,0
4220729,346.27,742,778,0
4220739,348.16,742,770,0
4220749,354.84,742,778,0
4220759,363.76,742,772,0
4220769,375.96,742,778,0
4220779,388.49,742,770,0
4220789,402.31,742,778,0
4220800,414.99,742,767,0
4220809,427.42,742,778,0
4220819,437.02,742,770,0
4220829,445.25,742,778,0
4220839,449.93,742,768,0
4220849,453.04,742,778,0
4220859,452.81,742,770,0
4220869,451.02,742,778,0
4220879,446.22,742,768,0
4220889,440.67,742,778,0
4220899,432.97,742,770,0
4220909,425.35,742,778,0
4220919,416.24,742,768,0
4220929,407.81,742,778,0
4220939,398.96,742,770,0
4220949,391.77,742,778,0
4220959,384.38,742,768,0
4220969,378.95,742,778,0
4220979,373.70,742,770,0
4220989,370.62,742,778,0
4220999,367.56,742,768,0
4221009,366.32,742,778,0
4221019,365.28,742,771,0
4221029,366.05,742,778,0
4221039,366.47,742,768,0
4221049,368.34,742,778,0
4221059,369.78,742,771,0
4221069,372.72,742,778,0
4221079,374.90,742,768,0
4221089,378.10,742,778,0
4221100,380.60,742,768,0
4221110,384.96,742,778,0
4221120,389.43,742,767,0
4221130,396.63,742,778,0
4221140,405.06,742,766,0
4221150,417.68,742,778,0
4221160,432.69,742,767,0
4221170,452.80,742,778,0
4221180,475.02,742,766,0
4221190,500.85,742,778,0
4221200,526.78,742,767,0
4221210,553.42,742,778,0
4221220,576.87,742,767,0
4221230,597.69,742,778,0
4221240,611.93,742,767,0
4221259,620.91,713,765,0
4221262,621.32,713,767,0
4221271,616.30,713,778,0
4221281,603.56,713,766,0
4221291,585.91,713,778,0
4221301,562.45,713,766,0
4221312,536.52,713,778,0
4221321,507.90,713,766,0
4221331,480.25,713,778,0
4221341,451.84,713,766,0
4221351,426.31,713,778,0
4221361,402.73,713,766,0
4221371,383.87,713,778,0
4221381,368.01,713,766,0
4221391,357.38,713,778,0
4221401,350.15,713,766,0
4221411,348.22,713,778,0
4221421,349.48,713,766,0
4221431,355.42,713,778,0
4221441,363.14,713,766,0
4221451,374.37,713,778,0
4221461,386.09,713,766,0
4221471,399.52,713,778,0
4221481,411.71,713,766,0
4221491,423.79,713,778,0
4221501,433.20,713,766,0
4221511,441.62,713,778,0
4221521,446.67,713,766,0
4221531,450.07,713,778,0
4221541,449.96,713,766,0
4221551,448.64,713,778,0
4221561,444.42,713,766,0
4221571,439.54,713,778,0
4221581,432.35,713,766,0
4221591,425.22,713,778,0
4221601,416.54,713,766,0
4221612,408.79,713,778,0
4221622,400.37,713,766,0
4221632,393.44,713,778,0
4221642,386.58,713,766,0
4221652,381.82,713,778,0
4221662,377.07,713,766,0
4221672,374.22,713,778,0
4221682,371.46,713,766,0
4221692,370.33,713,777,0
4221702,369.16,713,766,0
4221712,369.33,713,778,0
4221722,369.10,713,766,0
4221732,370.27,713,778,0
4221742,371.13,713,766,0
4221752,373.19,713,778,0
4221762,374.76,713,766,0
4221772,377.45,713,778,0
4221783,379.80,713,767,0
4221793,383.63,713,778,0
4221803,387.98,713,767,0
4221813,394.85,713,777,0
4221824,403.72,713,767,0
4221833,416.66,713,778,0
4221843,432.71,713,767,0
4221853,453.54,713,777,0
4221863,477.55,713,768,0
4221873,505.28,713,778,0
4221883,534.13,713,767,0
4221893,563.57,713,778,0
4221903,590.66,713,768,0
4221913,614.85,713,778,0
4221932,633.11,673,777,0
4221935,644.13,673,777,0
4221944,647.31,673,769,0
4221954,643.57,673,778,0
4221964,632.04,673,768,0
4221974,614.24,673,778,0
4221984,590.51,673,769,0
4221995,562.97,673,778,0
4222004,533.54,673,768,0
4222014,503.21,673,778,0
4222024,472.54,673,769,0
4222034,443.50,673,778,0
4222044,416.73,673,768,0
4222054,393.67,673,778,0
4222064,374.53,673,769,0
4222074,360.40,673,778,0
4222084,350.72,673,768,0
4222094,346.48,673,778,0
4222104,346.72,673,769,0
4222114,351.60,673,778,0
4222124,359.95,673,768,0
4222134,371.37,673,777,0
4222144,384.16,673,769,0
4222154,398.08,673,778,0
4222164,411.56,673,770,0
4222174,424.46,673,777,0
4222184,435.72,673,769,0
4222194,444.85,673,778,0
4222204,451.45,673,770,0
4222214,455.77,673,778,0
4222224,457.08,673,768,0
4222234,455.94,673,778,0
4222244,452.28,673,770,0
4222254,446.84,673,778,0
4222264,439.68,673,768,0
4222274,431.81,673,778,0
4222284,423.12,673,770,0
4222295,414.47,673,778,0
4222305,405.93,673,771,0
4222315,398.07,673,778,0
4222325,390.67,673,774,0
4222336,384.26,673,778,0
4222345,378.48,673,771,0
4222355,373.84,673,777,0
4222365,370.63,673,774,0
4222375,368.55,673,777,0
4222385,367.62,673,771,0
4222395,367.77,673,778,0
4222405,369.17,673,774,0
4222415,371.31,673,778,0
4222425,374.30,673,771,0
4222435,377.64,673,778,0
4222445,381.30,673,774,0
4222455,384.77,673,777,0
4222465,388.05,673,771,0
4222475,390.95,673,778,0
4222485,393.71,673,774,0
4222495,396.02,673,777,0
4222505,398.20,673,776,0
4222515,400.41,673,778,0
4222525,403.42,673,774,0
4222535,407.54,673,777,0
4222545,413.80,673,776,0
4222555,422.52,673,778,0
4222565,434.58,673,773,0
4222575,450.43,673,777,0
4222585,470.57,673,777,0
4222595,494.23,673,778,0
4222605,520.69,673,773,0
4222615,548.17,673,778,0
4222635,575.42,702,776,0
4222638,599.34,702,770,0
4222647,619.72,702,778,0
4222657,633.56,702,771,0
4222667,640.76,702,778,0
4222678,639.72,702,769,0
4222687,631.58,702,778,0
4222697,615.76,702,771,0
4222707,595.22,702,778,0
4222717,568.71,702,769,0
4222727,540.00,702,778,0
4222737,508.93,702,772,0
4222747,478.69,702,778,0
4222757,448.96,702,769,0
4222767,422.35,702,778,0
4222777,398.08,702,772,0
4222787,378.64,702,778,0
4222797,362.59,702,769,0
4222807,352.08,702,778,0
4222817,345.59,702,772,0
4222827,344.43,702,778,0
4222837,346.78,702,770,0
4222848,353.96,702,778,0
4222857,363.45,702,772,0
4222867,376.13,702,778,0
4222877,389.25,702,769,0
4222887,403.74,702,778,0
4222897,416.93,702,772,0
4222907,429.77,702,778,0
4222917,439.70,702,769,0
4222927,448.06,702,778,0
4222937,452.88,702,772,0
4222947,455.83,702,778,0
4222957,455.07,702,769,0
4222967,452.52,702,778,0
4222977,447.01,702,773,0
4222987,440.70,702,778,0
4222997,432.18,702,770,0
4223007,423.73,702,778,0
4223017,413.91,702,768,0
4223027,405.36,702,778,0
4223037,396.64,702,770,0
4223047,389.55,702,778,0
4223057,382.48,702,768,0
4223067,377.58,702,778,0
4223077,372.91,702,770,0
4223087,370.45,702,778,0
4223097,367.91,702,768,0
4223107,367.30,702,778,0
4223117,367.04,702,770,0
4223127,368.65,702,778,0
4223137,370.43,702,769,0
4223148,373.73,702,778,0
4223158,376.42,702,767,0
4223168,380.41,702,778,0
4223178,383.59,702,767,0
4223188,387.35,702,778,0
4223198,390.03,702,767,0
4223208,393.11,702,778,0
4223218,394.75,702,767,0
4223228,397.27,702,778,0
4223238,398.22,702,767,0
4223248,399.65,702,778,0
4223258,399.63,702,767,0
4223268,400.21,702,778,0
4223278,399.42,702,767,0
4223288,399.89,702,778,0
4223298,399.67,702,767,0
4223308,401.87,702,778,0
4223319,405.04,702,766,0
4223329,412.18,702,778,0
4223339,422.03,702,766,0
4223349,437.23,702,778,0
4223360,455.89,702,766,0
4223369,479.58,702,778,0
4223388,505.16,754,777,0
4223391,532.59,754,780,0
4223400,559.07,754,766,0
4223410,584.29,754,778,0
4223420,604.43,754,766,0
4223430,619.69,754,778,0
4223440,626.98,754,766,0
4223450,627.67,754,778,0
4223460,620.31,754,766,0
4223470,606.29,754,778,0
4223480,584.99,754,766,0
4223490,559.66,754,778,0
4223500,530.06,754,766,0
4223510,499.57,754,778,0
4223520,467.86,754,766,0
4223531,438.24,754,778,0
4223540,410.14,754,766,0
4223550,386.31,754,778,0
4223560,365.69,754,766,0
4223570,350.57,754,778,0
4223580,339.51,754,766,0
4223590,334.43,754,778,0
4223600,333.40,754,766,0
4223610,337.70,754,778,0
4223620,344.99,754,766,0
4223630,356.22,754,778,0
4223640,368.80,754,766,0
4223650,383.51,754,778,0
4223660,397.46,754,766,0
4223670,411.68,754,778,0
4223680,423.60,754,766,0
4223690,434.39,754,778,0
4223700,441.82,754,766,0
4223710,447.36,754,778,0
4223720,449.18,754,766,0
4223730,449.17,754,778,0
4223740,445.73,754,766,0
4223750,441.18,754,778,0
4223760,434.10,754,766,0
4223770,426.61,754,778,0
4223780,417.56,754,766,0
4223790,409.08,754,778,0
4223800,399.97,754,766,0
4223810,392.18,754,778,0
4223820,384.24,754,766,0
4223831,378.08,754,778,0
4223841,372.36,754,766,0
4223851,368.48,754,778,0
4223861,365.21,754,767,0
4223872,363.69,754,778,0
4223881,362.54,754,766,0
4223891,363.15,754,778,0
4223901,363.88,754,767,0
4223911,365.97,754,778,0
4223921,368.04,754,767,0
4223931,371.07,754,778,0
4223941,374.05,754,767,0
4223951,377.93,754,778,0
4223961,381.25,754,766,0
4223971,385.25,754,777,0
4223981,388.52,754,767,0
4223991,392.09,754,778,0
4224001,394.63,754,767,0
4224011,397.36,754,777,0
4224021,398.97,754,767,0
4224031,400.65,754,778,0
4224041,401.22,754,767,0
4224051,401.84,754,777,0
4224061,401.55,754,767,0
4224071,401.77,754,778,0
4224081,401.62,754,767,0
4224091,402.89,754,778,0
4224101,404.94,754,767,0
4224111,409.72,754,778,0
4224121,416.87,754,767,0
4224131,428.22,754,777,0
4224141,443.03,754,767,0
4224151,462.56,754,778,0
4224171,485.19,782,776,0
4224174,510.68,782,777,0
4224183,537.48,782,771,0
4224193,564.38,782,778,0
4224203,588.86,782,773,0
4224214,609.52,782,777,0
4224223,624.02,782,771,0
4224233,631.90,782,778,0
4224243,632.53,782,772,0
4224253,625.13,782,777,0
4224263,610.43,782,770,0
4224273,589.56,782,778,0
4224283,563.98,782,772,0
4224293,534.97,782,777,0
4224303,504.16,782,770,0
4224313,473.09,782,778,0
4224323,443.23,782,772,0
4224333,415.65,782,778,0
4224343,391.33,782,770,0
4224353,371.17,782,778,0
4224363,355.95,782,772,0
4224373,345.76,782,777,0
4224384,340.82,782,775,0
4224393,340.87,782,778,0
4224403,345.54,782,772,0
4224413,353.99,782,777,0
4224423,365.52,782,775,0
4224433,379.04,782,777,0
4224443,393.51,782,771,0
4224453,407.84,782,777,0
4224463,421.39,782,775,0
4224473,433.27,782,777,0
4224483,442.79,782,771,0
4224493,449.28,782,777,0
4224503,453.01,782,774,0
4224513,453.99,782,777,0
4224523,452.54,782,771,0
4224533,448.78,782,777,0
4224543,443.27,782,773,0
4224553,436.55,782,777,0
4224563,429.14,782,770,0
4224573,421.21,782,777,0
4224583,413.26,782,773,0
4224593,405.30,782,777,0
4224603,397.79,782,770,0
4224613,390.87,782,777,0
4224623,385.04,782,772,0
4224633,380.14,782,777,0
4224643,376.37,782,770,0
4224653,373.69,782,777,0
4224663,372.28,782,772,0
4224673,371.77,782,777,0
4224684,372.40,782,776,0
4224694,373.52,782,777,0
4224704,375.64,782,777,0
4224714,377.89,782,776,0
4224724,380.84,782,778,0
4224734,383.71,782,777,0
4224744,386.93,782,778,0
4224754,389.61,782,776,0
4224764,392.55,782,778,0
4224774,394.83,782,777,0
4224784,397.32,782,777,0
4224794,398.86,782,776,0
4224804,400.74,782,778,0
4224814,402.15,782,777,0
4224824,404.12,782,777,0
4224834,406.05,782,776,0
4224844,409.68,782,778,0
4224855,414.66,782,774,0
4224865,422.95,782,777,0
4224875,433.85,782,771,0
4224885,449.41,782,778,0
4224896,468.36,782,769,0
4224905,491.65,782,777,0
4224915,517.04,782,772,0
4224934,544.54,764,768,0
4224937,570.05,764,766,0
4224946,594.46,764,777,0
4224956,614.00,764,767,0
4224966,629.17,764,778,0
4224976,636.75,764,767,0
4224986,638.07,764,777,0
4224996,631.19,764,767,0
4225006,619.13,764,778,0
4225016,599.51,764,766,0
4225026,575.83,764,778,0
4225036,547.46,764,767,0
4225046,518.01,764,778,0
4225056,486.51,764,767,0
4225067,456.48,764,777,0
4225076,427.37,764,767,0
4225086,402.49,764,778,0
4225096,380.31,764,767,0
4225106,363.68,764,778,0
4225116,351.00,764,768,0
4225126,344.66,764,778,0
4225136,342.57,764,767,0
4225146,346.43,764,778,0
4225156,353.54,764,768,0
4225166,365.25,764,778,0
4225176,378.38,764,767,0
4225186,394.12,764,777,0
4225196,409.34,764,767,0
4225206,425.10,764,778,0
4225216,438.40,764,767,0
4225226,450.62,764,777,0
4225236,459.22,764,766,0
4225246,466.01,764,778,0
4225256,468.62,764,767,0
4225266,469.42,764,778,0
4225276,466.47,764,766,0
4225286,462.38,764,778,0
4225296,455.41,764,767,0
4225306,448.05,764,778,0
4225316,438.65,764,766,0
4225326,430.01,764,778,0
4225336,420.24,764,767,0
4225346,411.85,764,778,0
4225356,402.85,764,766,0
4225367,395.78,764,778,0
4225377,388.69,764,766,0
4225387,383.85,764,778,0
4225397,379.18,764,765,0
4225408,376.69,764,778,0
4225417,374.29,764,766,0
4225427,374.08,764,778,0
4225437,373.75,764,765,0
4225447,375.29,764,778,0
4225457,376.44,764,766,0
4225467,379.05,764,778,0
4225477,380.97,764,765,0
4225487,384.19,764,778,0
4225497,386.49,764,766,0
4225507,389.90,764,778,0
4225517,392.37,764,765,0
4225527,396.12,764,778,0
4225537,399.30,764,766,0
4225547,404.61,764,778,0
4225557,410.51,764,765,0
4225567,419.79,764,778,0
4225577,431.25,764,766,0
4225587,447.46,764,778,0
4225597,466.48,764,765,0
4225607,490.34,764,778,0
4225617,516.29,764,766,0
4225627,545.00,764,778,0
4225637,572.95,764,766,0
4225647,600.18,764,778,0
4225667,622.88,732,776,0
4225670,640.36,732,778,0
4225679,650.62,732,766,0
4225689,654.34,732,778,0
4225699,649.52,732,766,0
4225709,638.18,732,777,0
4225719,619.05,732,766,0
4225729,595.12,732,778,0
4225739,567.19,732,766,0
4225750,536.87,732,777,0
4225759,504.47,732,766,0
4225769,473.00,732,778,0
4225779,442.19,732,766,0
4225789,414.92,732,777,0
4225799,390.56,732,766,0
4225809,371.36,732,778,0
4225819,356.55,732,766,0
4225829,347.73,732,777,0
4225839,343.40,732,766,0
4225849,344.91,732,778,0
4225859,350.33,732,766,0
4225869,360.52,732,777,0
4225879,372.79,732,766,0
4225889,387.85,732,778,0
4225899,403.24,732,766,0
4225909,419.54,732,777,0
4225920,434.38,732,767,0
4225929,448.15,732,778,0
4225939,458.78,732,766,0
4225949,467.42,732,777,0
4225959,472.09,732,766,0
4225969,474.33,732,777,0
4225979,472.86,732,766,0
4225989,469.30,732,777,0
4225999,462.87,732,766,0
4226009,455.41,732,777,0
4226019,446.03,732,766,0
4226029,436.72,732,777,0
4226039,426.56,732,767,0
4226049,417.26,732,777,0
4226059,407.84,732,766,0
4226069,399.88,732,778,0
4226079,392.24,732,766,0
4226089,386.47,732,777,0
4226099,381.36,732,766,0
4226109,378.21,732,777,0
4226119,375.66,732,766,0
4226129,374.90,732,777,0
4226139,374.50,732,766,0
4226149,375.72,732,777,0
4226159,377.05,732,767,0
4226169,379.52,732,777,0
4226179,381.59,732,766,0
4226189,384.59,732,777,0
4226199,387.11,732,766,0
4226209,390.42,732,777,0
4226220,393.29,732,767,0
4226230,397.15,732,777,0
4226240,401.43,732,768,0
4226250,407.86,732,777,0
4226260,416.22,732,769,0
4226270,428.24,732,777,0
4226280,443.51,732,767,0
4226290,463.46,732,777,0
4226300,487.36,732,769,0
4226310,515.28,732,777,0
4226320,545.24,732,768,0
4226330,576.15,732,777,0
4226340,605.46,732,769,0
4226350,632.11,732,777,0
4226369,653.08,703,776,0
4226372,666.68,703,777,0
4226381,672.69,703,772,0
4226391,670.86,703,777,0
4226401,660.66,703,770,0
4226411,643.10,703,777,0
4226421,618.73,703,772,0
4226432,589.50,703,777,0
4226441,557.50,703,770,0
4226451,523.41,703,777,0
4226461,488.92,703,771,0
4226471,455.73,703,777,0
4226481,425.08,703,770,0
4226491,398.27,703,777,0
4226501,376.29,703,771,0
4226511,359.49,703,777,0
4226521,348.11,703,770,0
4226531,342.55,703,777,0
4226541,342.56,703,771,0
4226551,347.66,703,777,0
4226561,356.89,703,769,0
4226571,369.52,703,777,0
4226581,384.54,703,771,0
4226591,400.92,703,777,0
4226601,417.40,703,774,0
4226611,433.09,703,777,0
4226621,447.08,703,771,0
4226631,458.89,703,777,0
4226641,467.71,703,774,0
4226651,473.54,703,777,0
4226661,475.95,703,771,0
4226671,475.15,703,777,0
4226681,471.55,703,774,0
4226691,465.68,703,777,0
4226701,457.89,703,770,0
4226711,448.75,703,777,0
4226721,438.76,703,773,0
4226732,428.54,703,777,0
4226742,418.69,703,777,0
4226752,409.19,703,777,0
4226762,400.86,703,778,0
4226772,393.44,703,776,0
4226782,387.61,703,777,0
4226792,382.88,703,777,0
4226802,379.92,703,778,0
4226812,377.80,703,776,0
4226822,377.30,703,776,0
4226832,377.38,703,777,0
4226842,378.81,703,778,0
4226852,380.45,703,776,0
4226862,382.93,703,776,0
4226872,385.31,703,777,0
4226882,388.52,703,778,0
4226892,391.28,703,776,0
4226903,394.58,703,778,0
4226913,397.28,703,773,0
4226923,400.67,703,778,0
4226933,403.68,703,771,0
4226944,407.98,703,778,0
4226953,412.74,703,774,0
4226963,420.10,703,778,0
4226973,429.42,703,771,0
4226983,443.26,703,778,0
4226993,460.63,703,774,0
4227003,483.32,703,778,0
4227013,509.28,703,771,0
4227023,539.28,703,778,0
4227033,570.31,703,774,0
4227043,601.85,703,778,0
4227053,630.09,703,771,0
4227073,654.45,703,768,0
4227076,670.73,703,767,0
4227085,680.54,703,778,0
4227095,680.81,703,766,0
4227105,673.06,703,777,0
4227116,656.07,703,766,0
4227126,632.52,703,778,0
4227136,602.62,703,766,0
4227146,570.29,703,778,0
4227156,534.33,703,766,0
4227166,498.75,703,778,0
4227176,463.17,703,766,0
4227186,431.15,703,778,0
4227196,401.92,703,765,0
4227206,377.94,703,778,0
4227216,358.29,703,766,0
4227226,345.13,703,777,0
4227236,336.95,703,765,0
4227246,335.55,703,777,0
4227256,338.47,703,766,0
4227266,347.03,703,777,0
4227276,358.46,703,765,0
4227287,373.71,703,777,0
4227297,389.57,703,766,0
4227307,406.80,703,777,0
4227317,422.50,703,766,0
4227328,437.52,703,777,0
4227337,449.15,703,766,0
4227347,458.58,703,777,0
4227357,463.68,703,766,0
4227367,466.30,703,777,0
4227377,464.71,703,766,0
4227387,460.90,703,777,0
4227397,453.99,703,766,0
4227407,445.93,703,777,0
4227417,435.97,703,766,0
4227427,426.03,703,777,0
4227437,415.01,703,766,0
4227447,405.02,703,777,0
4227457,394.90,703,766,0
4227467,386.53,703,778,0
4227477,378.74,703,766,0
4227487,373.16,703,777,0
4227497,368.27,703,766,0
4227507,365.88,703,778,0
4227517,364.03,703,766,0
4227527,364.45,703,777,0
4227537,365.17,703,766,0
4227547,367.78,703,778,0
4227557,370.11,703,766,0
4227567,373.85,703,777,0
4227577,377.02,703,766,0
4227587,381.43,703,777,0
4227597,385.03,703,766,0
4227607,389.35,703,778,0
4227617,392.67,703,766,0
4227628,396.54,703,777,0
4227638,399.25,703,766,0
4227648,402.09,703,777,0
4227658,403.65,703,767,0
4227668,405.30,703,777,0
4227678,405.68,703,766,0
4227688,406.29,703,777,0
4227698,406.16,703,767,0
4227708,406.97,703,777,0
4227718,408.18,703,766,0
4227728,411.94,703,777,0
4227738,417.91,703,767,0
4227748,428.35,703,777,0
4227758,442.61,703,766,0
4227768,462.40,703,778,0
4227778,486.53,703,767,0
4227798,515.39,725,766,0
4227801,546.34,725,777,0
4227810,578.73,725,777,0
4227820,609.15,725,772,0
4227830,636.06,725,777,0
4227841,656.62,725,776,0
4227851,669.59,725,777,0
4227861,673.61,725,778,0
4227871,668.37,725,776,0
4227881,654.16,725,778,0
4227891,632.04,725,777,0
4227901,603.91,725,777,0
4227911,570.94,725,776,0
4227921,535.69,725,778,0
4227931,499.31,725,777,0
4227941,464.29,725,777,0
4227951,431.20,725,776,0
4227961,402.17,725,778,0
4227971,377.18,725,777,0
4227981,357.84,725,777,0
4227991,343.66,725,777,0
4228001,335.79,725,778,0
4228012,333.20,725,775,0
4228022,336.61,725,778,0
4228032,344.05,725,772,0
4228042,355.95,725,778,0
4228052,370.15,725,770,0
4228062,386.86,725,778,0
4228072,403.53,725,772,0
4228082,420.22,725,778,0
4228092,434.47,725,770,0
4228102,447.14,725,778,0
4228112,456.18,725,772,0
4228122,462.81,725,777,0
4228132,465.14,725,770,0
4228142,464.97,725,778,0
4228152,461.12,725,772,0
4228162,455.60,725,777,0
4228172,447.19,725,770,0
4228183,438.13,725,778,0
4228193,427.21,725,768,0
4228203,416.95,725,778,0
4228213,405.90,725,767,0
4228224,396.55,725,778,0
4228233,387.43,725,768,0
4228243,380.57,725,777,0
4228253,374.14,725,767,0
4228263,370.41,725,778,0
4228273,367.29,725,768,0
4228283,366.52,725,777,0
4228293,365.76,725,767,0
4228303,367.08,725,778,0
4228313,368.30,725,768,0
4228323,371.29,725,777,0
4228333,373.61,725,767,0
4228343,377.02,725,778,0
4228353,379.72,725,768,0
4228363,383.66,725,777,0
4228373,386.55,725,767,0
4228383,390.45,725,778,0
4228393,393.19,725,766,0
4228403,396.86,725,777,0
4228413,399.39,725,767,0
4228423,402.70,725,778,0
4228433,404.55,725,766,0
4228443,407.04,725,778,0
4228453,407.93,725,767,0
4228463,409.36,725,778,0
4228473,409.17,725,767,0
4228483,409.50,725,778,0
4228493,408.24,725,767,0
4228503,407.65,725,778,0
4228513,405.74,725,767,0
4228524,404.92,725,777,0
4228534,403.57,725,766,0
4228544,404.64,725,778,0
4228554,406.94,725,766,0
4228564,413.64,725,777,0
4228574,423.52,725,766,0
4228584,439.56,725,778,0
4228594,459.92,725,766,0
4228604,486.43,725,778,0
4228623,515.79,826,776,0
4228626,547.87,826,778,0
4228635,579.58,826,766,0
4228645,610.09,826,778,0
4228655,634.96,826,765,0
4228665,654.09,826,778,0
4228675,663.83,826,766,0
4228685,665.38,826,777,0
4228695,657.17,826,765,0
4228705,640.49,826,778,0
4228715,615.27,826,766,0
4228725,584.89,826,777,0
4228736,549.44,826,765,0
4228745,512.83,826,778,0
4228755,475.13,826,766,0
4228765,439.82,826,778,0
4228775,406.62,826,765,0
4228785,378.44,826,778,0
4228795,354.35,826,765,0
4228805,336.85,826,777,0
4228815,324.42,826,765,0
4228825,318.94,826,778,0
4228835,318.31,826,766,0
4228845,324.18,826,778,0
4228855,333.81,826,765,0
4228865,348.10,826,777,0
4228875,364.05,826,765,0
4228885,382.29,826,777,0
4228895,399.91,826,765,0
4228905,417.63,826,778,0
4228915,432.57,826,766,0
4228925,445.81,826,777,0
4228935,454.91,826,765,0
4228945,461.37,826,778,0
4228955,463.53,826,766,0
4228965,463.33,826,777,0
4228975,459.20,826,765,0
4228985,453.35,826,778,0
4228995,444.59,826,766,0
4229005,435.67,826,778,0
4229015,425.14,826,765,0
4229025,415.07,826,778,0
4229036,404.25,826,766,0
4229046,394.96,826,777,0
4229056,385.67,826,766,0
4229066,378.40,826,778,0
4229076,371.42,826,767,0
4229086,366.84,826,778,0
4229096,362.86,826,766,0
4229106,361.02,826,777,0
4229116,359.72,826,767,0
4229126,360.54,826,777,0
4229136,361.70,826,766,0
4229146,364.32,826,777,0
4229156,366.71,826,767,0
4229166,370.31,826,777,0
4229176,373.69,826,766,0
4229186,377.85,826,777,0
4229196,381.33,826,767,0
4229207,385.34,826,777,0
4229217,388.54,826,767,0
4229227,392.02,826,777,0
4229237,394.63,826,768,0
4229248,397.10,826,777,0
4229257,398.53,826,767,0
4229267,400.08,826,778,0
4229277,400.53,826,768,0
4229287,401.10,826,777,0
4229297,400.73,826,767,0
4229307,400.64,826,777,0
4229317,400.40,826,768,0
4229327,401.40,826,777,0
4229337,403.16,826,767,0
4229347,407.74,826,777,0
4229357,415.15,826,768,0
4229367,427.23,826,777,0
4229377,443.41,826,767,0
4229387,464.88,826,778,0
4229406,490.29,783,776,0
4229409,518.53,783,778,0
4229419,548.63,783,772,0
4229428,578.74,783,778,0
4229438,606.25,783,770,0
4229448,629.36,783,777,0
4229458,645.62,783,772,0
4229468,654.26,783,778,0
4229478,654.87,783,770,0
4229488,646.55,783,777,0
4229498,629.76,783,772,0
4229508,605.92,783,777,0
4229518,576.50,783,770,0
4229528,543.31,783,777,0
4229538,507.90,783,772,0
4229548,472.62,783,777,0
4229558,438.27,783,770,0
4229568,406.65,783,777,0
4229578,378.77,783,772,0
4229588,355.61,783,777,0
4229598,337.81,783,770,0
4229608,325.83,783,777,0
4229618,319.54,783,772,0
4229628,319.07,783,777,0
4229638,323.94,783,770,0
4229648,333.56,783,777,0
4229658,346.93,783,771,0
4229668,362.94,783,777,0
4229678,380.23,783,770,0
4229688,397.99,783,777,0
4229698,415.05,783,771,0
4229708,430.51,783,777,0
4229719,443.30,783,775,0
4229729,452.98,783,777,0
4229739,459.33,783,777,0
4229749,462.19,783,777,0
4229760,461.66,783,778,0
4229769,458.20,783,777,0
4229779,452.53,783,777,0
4229789,444.53,783,776,0
4229799,435.50,783,778,0
4229809,425.32,783,777,0
4229819,415.28,783,777,0
4229829,404.83,783,777,0
4229839,395.11,783,778,0
4229849,385.77,783,777,0
4229859,378.21,783,777,0
4229869,371.34,783,777,0
4229879,366.35,783,778,0
4229889,362.39,783,777,0
4229899,360.39,783,777,0
4229909,359.24,783,777,0
4229919,359.77,783,778,0
4229929,360.70,783,775,0
4229939,363.06,783,777,0
4229949,365.65,783,777,0
4229959,369.23,783,778,0
4229969,372.72,783,776,0
4229979,376.79,783,777,0
4229989,380.32,783,777,0
4229999,384.17,783,778,0
4230009,387.20,783,776,0
4230019,390.36,783,777,0
4230029,392.69,783,777,0
4230039,395.23,783,778,0
4230049,397.09,783,776,0
4230060,399.63,783,778,0
4230070,402.06,783,773,0
4230080,406.24,783,778,0
4230090,411.53,783,770,0
4230100,420.28,783,778,0
4230110,432.03,783,773,0
4230120,448.39,783,778,0
4230130,468.42,783,771,0
4230140,493.36,783,778,0
4230150,520.68,783,774,0
4230160,550.56,783,778,0
4230179,579.54,773,776,0
4230182,606.03,773,779,0
4230191,627.88,773,769,0
4230201,644.46,773,778,0
4230211,652.85,773,768,0
4230221,653.84,773,778,0
4230231,645.96,773,769,0
4230241,630.71,773,778,0
4230251,608.34,773,767,0
4230261,580.90,773,778,0
4230272,548.14,773,767,0
4230281,513.86,773,778,0
4230291,477.86,773,768,0
4230301,443.49,773,778,0
4230311,410.38,773,767,0
4230321,381.98,773,778,0
4230331,357.26,773,768,0
4230341,338.92,773,778,0
4230351,325.36,773,767,0
4230361,318.70,773,778,0
4230371,316.82,773,768,0
4230381,321.50,773,778,0
4230391,330.05,773,767,0
4230401,343.49,773,777,0
4230411,359.07,773,768,0
4230421,377.69,773,778,0
4230431,396.17,773,767,0
4230441,415.23,773,778,0
4230451,432.01,773,768,0
4230461,447.60,773,778,0
4230471,459.04,773,767,0
4230481,468.11,773,777,0
4230491,472.15,773,768,0
4230501,473.52,773,778,0
4230511,470.62,773,767,0
4230521,465.55,773,777,0
4230531,456.81,773,768,0
4230541,447.40,773,778,0
4230551,435.62,773,767,0
4230561,424.33,773,777,0
4230572,412.15,773,766,0
4230582,401.39,773,778,0
4230592,390.69,773,766,0
4230602,382.30,773,777,0
4230612,374.62,773,766,0
4230622,369.55,773,778,0
4230632,365.36,773,766,0
4230642,363.66,773,777,0
4230652,362.52,773,766,0
4230662,363.74,773,778,0
4230672,364.89,773,766,0
4230682,367.71,773,777,0
4230692,370.07,773,766,0
4230702,373.69,773,778,0
4230712,376.61,773,766,0
4230722,380.46,773,778,0
4230732,383.19,773,766,0
4230743,386.99,773,778,0
4230753,389.78,773,765,0
4230763,393.96,773,777,0
4230773,397.91,773,766,0
4230784,404.24,773,778,0
4230793,411.80,773,765,0
4230803,423.51,773,777,0
4230813,438.45,773,765,0
4230823,458.93,773,778,0
4230833,482.95,773,766,0
4230843,511.85,773,778,0
4230853,542.62,773,766,0
4230863,575.48,773,778,0
4230873,606.41,773,766,0
4230883,634.87,773,778,0
4230902,656.94,723,776,0
4230905,671.87,723,778,0
4230914,678.04,723,766,0
4230924,676.10,723,778,0
4230934,665.31,723,767,0
4230944,646.70,723,777,0
4230955,619.79,723,766,0
4230964,588.05,723,777,0
4230974,552.47,723,766,0
4230984,515.17,723,777,0
4230994,476.80,723,766,0
4231004,439.88,723,778,0
4231014,405.54,723,766,0
4231024,376.41,723,778,0
4231034,351.81,723,766,0
4231044,333.87,723,777,0
4231054,321.39,723,766,0
4231064,316.13,723,777,0
4231074,316.22,723,766,0
4231084,322.63,723,777,0
4231094,333.20,723,766,0
4231104,348.39,723,777,0
4231114,365.68,723,766,0
4231124,385.32,723,777,0
4231134,404.46,723,766,0
4231144,423.61,723,778,0
4231154,440.14,723,766,0
4231164,454.76,723,777,0
4231174,465.20,723,766,0
4231184,472.68,723,777,0
4231194,475.74,723,766,0
4231204,475.77,723,777,0
4231214,471.60,723,766,0
4231224,465.38,723,778,0
4231234,456.35,723,766,0
4231244,446.47,723,777,0
4231255,435.02,723,767,0
4231265,423.74,723,777,0
4231275,412.25,723,768,0
4231285,402.02,723,777,0
4231296,392.58,723,768,0
4231305,384.99,723,778,0
4231315,378.52,723,768,0
4231325,374.25,723,777,0
4231335,371.26,723,768,0
4231345,370.37,723,777,0
4231355,370.39,723,768,0
4231365,371.73,723,777,0
4231375,373.52,723,768,0
4231385,376.50,723,777,0
4231395,379.43,723,768,0
4231405,382.86,723,777,0
4231415,385.86,723,768,0
4231425,389.46,723,777,0
4231435,392.79,723,768,0
4231445,396.28,723,777,0
4231455,399.37,723,768,0
4231465,403.16,723,777,0
4231475,407.65,723,767,0
4231485,414.36,723,777,0
4231495,423.59,723,768,0
4231505,436.83,723,777,0
4231515,454.45,723,768,0
4231525,477.42,723,777,0
4231535,504.76,723,768,0
4231545,536.29,723,778,0
4231555,569.55,723,768,0
4231565,603.24,723,778,0
4231575,634.33,723,769,0
4231595,661.23,692,768,0
4231598,680.40,692,778,0
4231607,691.64,692,777,0
4231617,693.55,692,777,0
4231627,686.23,692,777,0
4231638,669.70,692,778,0
4231647,645.40,692,777,0
4231657,614.85,692,777,0
4231667,580.48,692,777,0
4231677,543.70,692,778,0
4231687,506.20,692,777,0
4231697,470.06,692,777,0
4231707,435.88,692,777,0
4231717,405.66,692,778,0
4231727,379.49,692,777,0
4231737,358.94,692,777,0
4231747,343.92,692,777,0
4231757,335.24,692,778,0
4231767,332.26,692,777,0
4231777,335.44,692,777,0
4231787,343.19,692,777,0
4231797,355.56,692,778,0
4231808,370.61,692,776,0
4231817,387.83,692,777,0
4231827,405.49,692,777,0
4231837,423.04,692,778,0
4231847,438.97,692,776,0
4231857,452.91,692,777,0
4231867,463.35,692,777,0
4231877,470.70,692,778,0
4231887,473.88,692,776,0
4231897,473.87,692,776,0
4231907,470.22,692,777,0
4231917,464.33,692,778,0
4231927,455.74,692,776,0
4231937,446.14,692,776,0
4231947,435.72,692,777,0
4231957,425.69,692,778,0
4231967,415.37,692,776,0
4231977,406.13,692,778,0
4231987,397.09,692,777,0
4231997,389.86,692,778,0
4232007,383.56,692,776,0
4232017,378.89,692,778,0
4232027,375.45,692,777,0
4232037,373.77,692,778,0
4232047,372.77,692,776,0
4232057,373.48,692,778,0
4232067,374.75,692,777,0
4232077,377.31,692,778,0
4232087,379.92,692,776,0
4232097,383.46,692,778,0
4232108,386.71,692,774,0
4232118,391.08,692,778,0
4232128,394.74,692,771,0
4232138,398.93,692,778,0
4232148,402.12,692,768,0
4232158,405.69,692,778,0
4232168,407.88,692,771,0
4232178,410.36,692,778,0
4232188,411.15,692,769,0
4232198,412.35,692,778,0
4232208,412.29,692,771,0
4232218,412.76,692,778,0
4232228,412.15,692,769,0
4232238,412.53,692,778,0
4232248,412.76,692,771,0
4232258,415.44,692,778,0
4232268,419.64,692,769,0
4232279,428.40,692,778,0
4232289,440.93,692,768,0
4232299,459.81,692,778,0
4232309,483.44,692,767,0
4232329,512.92,734,765,0
4232332,544.70,734,766,0
4232341,579.12,734,778,0
4232351,611.44,734,765,0
4232361,641.05,734,778,0
4232371,663.62,734,766,0
4232381,679.08,734,778,0
4232391,684.20,734,765,0
4232401,680.97,734,778,0
4232411,667.35,734,766,0
4232421,646.24,734,777,0
4232431,617.28,734,765,0
4232441,584.11,734,778,0
4232451,546.79,734,766,0
4232461,509.40,734,778,0
4232471,471.56,734,766,0
4232481,436.94,734,778,0
4232492,404.90,734,766,0
4232502,378.40,734,778,0
4232512,356.47,734,766,0
4232522,341.28,734,778,0
4232532,331.34,734,766,0
4232542,328.32,734,778,0
4232552,330.03,734,766,0
4232562,337.69,734,778,0
4232572,348.88,734,766,0
4232582,363.88,734,777,0
4232592,380.20,734,766,0
4232602,397.92,734,778,0
4232612,414.53,734,766,0
4232622,430.57,734,778,0
4232632,443.47,734,766,0
4232642,454.13,734,778,0
4232652,460.65,734,766,0
4232663,464.48,734,777,0
4232673,464.21,734,767,0
4232683,461.66,734,778,0
4232693,455.59,734,767,0
4232704,448.09,734,777,0
4232713,438.25,734,767,0
4232723,428.36,734,778,0
4232733,417.36,734,767,0
4232743,407.44,734,777,0
4232753,397.41,734,767,0
4232763,389.06,734,778,0
4232773,381.54,734,767,0
4232783,376.06,734,777,0
4232793,371.37,734,767,0
4232803,368.69,734,778,0
4232813,366.73,734,767,0
4232823,366.55,734,777,0
4232833,366.90,734,767,0
4232843,368.82,734,777,0
4232853,371.06,734,767,0
4232863,374.51,734,777,0
4232873,377.96,734,768,0
4232883,382.17,734,777,0
4232893,385.93,734,767,0
4232903,390.20,734,777,0
4232913,393.74,734,768,0
4232923,397.50,734,777,0
4232933,400.39,734,767,0
4232943,403.19,734,777,0
4232953,404.98,734,768,0
4232963,406.83,734,777,0
4232973,407.69,734,767,0
4232983,408.43,734,777,0
4232993,408.39,734,768,0
4233004,408.23,734,777,0
4233014,407.43,734,769,0
4233024,406.62,734,777,0
4233034,405.66,734,770,0
4233044,405.16,734,777,0
4233054,405.41,734,769,0
4233064,407.43,734,777,0
4233074,411.93,734,770,0
4233084,420.09,734,777,0
4233094,432.37,734,769,0
4233104,449.70,734,777,0
4233114,472.16,734,770,0
4233134,499.24,805,769,0
4233137,529.47,805,779,0
4233146,561.13,805,776,0
4233156,592.16,805,778,0
4233166,619.84,805,774,0
4233176,641.96,805,778,0
4233186,656.46,805,776,0
4233196,662.23,805,778,0
4233206,658.31,805,774,0
4233217,645.49,805,778,0
4233227,623.74,805,771,0
4233237,596.00,805,778,0
4233247,562.57,805,768,0
4233257,526.70,805,778,0
4233267,489.21,805,771,0
4233277,453.32,805,778,0
4233287,418.98,805,769,0
4233297,389.16,805,778,0
4233307,363.18,805,772,0
4233317,343.41,805,778,0
4233327,328.50,805,769,0
4233337,320.29,805,778,0
4233347,316.95,805,772,0
4233357,320.05,805,778,0
4233367,327.06,805,769,0
4233377,338.92,805,778,0
4233388,352.91,805,768,0
4233398,369.82,805,778,0
4233408,386.42,805,766,0
4233418,403.69,805,778,0
4233428,418.61,805,766,0
4233438,432.40,805,778,0
4233448,442.57,805,767,0
4233458,450.45,805,778,0
4233468,453.87,805,766,0
4233478,455.16,805,778,0
4233488,452.24,805,767,0
4233498,447.71,805,778,0
4233508,440.00,805,766,0
4233518,431.64,805,778,0
4233528,421.12,805,767,0
4233538,411.18,805,778,0
4233548,400.11,805,767,0
4233559,390.57,805,778,0
4233569,380.80,805,766,0
4233579,373.23,805,778,0
4233589,365.79,805,766,0
4233600,361.09,805,778,0
4233609,356.91,805,766,0
4233619,355.52,805,778,0
4233629,354.47,805,766,0
4233639,355.74,805,777,0
4233649,356.85,805,766,0
4233659,359.94,805,778,0
4233669,362.57,805,766,0
4233679,366.73,805,778,0
4233689,370.07,805,766,0
4233699,374.50,805,778,0
4233709,377.78,805,766,0
4233719,381.88,805,778,0
4233729,384.66,805,766,0
4233739,388.32,805,778,0
4233749,390.45,805,766,0
4233759,393.01,805,778,0
4233769,394.08,805,765,0
4233779,395.86,805,778,0
4233789,396.11,805,766,0
4233799,397.11,805,778,0
4233809,396.35,805,766,0
4233819,396.41,805,778,0
4233829,395.52,805,766,0
4233839,396.31,805,778,0
4233849,397.37,805,765,0
4233859,401.72,805,778,0
4233869,408.02,805,766,0
4233879,419.58,805,778,0
4233889,435.14,805,766,0
4233900,456.70,805,778,0
4233919,482.07,786,776,0
4233922,511.15,786,778,0
4233931,541.36,786,767,0
4233942,572.07,786,777,0
4233951,599.26,786,766,0
4233961,622.20,786,777,0
4233971,637.57,786,767,0
4233981,645.28,786,777,0
4233991,644.08,786,766,0
4234001,634.59,786,777,0
4234011,616.33,786,766,0
4234021,591.84,786,777,0
4234031,561.42,786,766,0
4234041,527.99,786,777,0
4234051,492.17,786,767,0
4234061,456.97,786,777,0
4234071,422.57,786,766,0
4234081,391.67,786,777,0
4234091,364.00,786,766,0
4234101,341.75,786,777,0
4234112,324.51,786,767,0
4234121,313.86,786,778,0
4234131,308.76,786,767,0
4234141,310.25,786,777,0
4234151,316.64,786,767,0
4234161,328.28,786,777,0
4234171,342.98,786,766,0
4234181,360.86,786,777,0
4234191,379.46,786,767,0
4234201,398.56,786,777,0
4234211,416.01,786,767,0
4234221,432.12,786,777,0
4234231,444.94,786,767,0
4234241,455.24,786,778,0
4234251,461.21,786,767,0
4234261,464.32,786,777,0
4234271,463.32,786,767,0
4234281,460.01,786,778,0
4234291,453.15,786,766,0
4234301,444.75,786,777,0
4234311,434.20,786,767,0
4234321,423.34,786,777,0
4234331,411.66,786,766,0
4234341,400.84,786,777,0
4234351,389.91,786,767,0
4234361,380.85,786,777,0
4234371,372.67,786,767,0
4234381,366.64,786,777,0
4234391,361.65,786,767,0
4234401,358.63,786,777,0
4234412,356.59,786,767,0
4234422,356.59,786,777,0
4234432,357.31,786,768,0
4234442,359.49,786,777,0
4234452,362.00,786,770,0
4234462,365.64,786,777,0
4234472,369.18,786,769,0
4234482,373.32,786,777,0
4234492,377.21,786,770,0
4234502,381.48,786,777,0
4234512,385.32,786,768,0
4234522,388.82,786,777,0
4234532,391.58,786,770,0
4234542,394.10,786,777,0
4234552,395.70,786,768,0
4234562,396.95,786,777,0
4234572,397.35,786,770,0
4234583,397.42,786,777,0
4234593,397.46,786,771,0
4234603,397.84,786,777,0
4234613,399.04,786,775,0
4234624,401.94,786,777,0
4234633,407.23,786,771,0
4234643,416.12,786,777,0
4234653,429.28,786,775,0
4234663,447.20,786,777,0
4234673,469.68,786,771,0
4234683,496.09,786,777,0
4234702,525.42,783,776,0
4234705,554.95,783,771,0
4234714,584.15,783,777,0
4234724,609.91,783,777,0
4234734,630.38,783,778,0
4234744,643.76,783,775,0
4234754,649.23,783,776,0
4234764,645.95,783,777,0
4234774,635.29,783,778,0
4234784,615.71,783,775,0
4234795,590.38,783,777,0
4234804,559.88,783,777,0
4234814,526.96,783,778,0
4234824,492.09,783,775,0
4234834,457.90,783,777,0
4234844,424.93,783,777,0
4234854,395.98,783,778,0
4234864,370.19,783,775,0
4234874,349.77,783,778,0
4234884,333.90,783,777,0
4234894,324.29,783,778,0
4234904,319.87,783,776,0
4234914,321.67,783,778,0
4234924,327.85,783,777,0
4234934,339.00,783,778,0
4234944,352.93,783,776,0
4234954,370.09,783,777,0
4234964,388.11,783,773,0
4234974,406.59,783,778,0
4234984,423.34,783,776,0
4234994,438.54,783,778,0
4235004,450.29,783,773,0
4235014,459.33,783,778,0
4235024,464.16,783,776,0
4235034,466.26,783,778,0
4235044,464.68,783,773,0
4235054,460.88,783,778,0
4235064,453.97,783,776,0
4235074,445.84,783,778,0
4235084,435.94,783,773,0
4235095,425.93,783,778,0
4235105,414.85,783,770,0
4235115,404.74,783,778,0
4235125,394.53,783,768,0
4235136,386.06,783,778,0
4235145,378.37,783,770,0
4235155,372.86,783,778,0
4235165,367.93,783,768,0
4235175,365.29,783,778,0
4235185,363.23,783,771,0
4235195,363.51,783,778,0
4235205,363.91,783,768,0
4235215,366.17,783,778,0
4235225,368.05,783,770,0
4235235,371.55,783,778,0
4235245,374.25,783,768,0
4235255,377.99,783,778,0
4235265,380.57,783,771,0
4235275,384.12,783,778,0
4235285,386.36,783,769,0
4235295,389.38,783,778,0
4235305,391.15,783,767,0
4235315,394.02,783,778,0
4235325,396.63,783,768,0
4235335,401.15,783,778,0
4235345,406.51,783,767,0
4235355,415.23,783,778,0
4235365,426.39,783,768,0
4235375,442.69,783,778,0
4235385,462.28,783,768,0
4235395,486.54,783,778,0
4235405,513.16,783,769,0
4235415,542.47,783,778,0
4235425,571.04,783,768,0
4235445,598.67,743,766,0
4235448,620.37,743,767,0
4235457,637.36,743,778,0
4235467,646.21,743,766,0
4235478,647.78,743,778,0
4235487,640.04,743,765,0
4235497,625.24,743,778,0
4235507,602.29,743,765,0
4235517,575.33,743,778,0
4235527,543.30,743,765,0
4235537,509.78,743,778,0
4235547,474.58,743,766,0
4235557,441.06,743,778,0
4235567,408.81,743,765,0
4235577,380.93,743,778,0
4235587,356.35,743,766,0
4235597,337.64,743,777,0
4235607,323.31,743,766,0
4235617,315.67,743,778,0
4235627,312.86,743,766,0
4235637,316.41,743,777,0
4235648,323.83,743,765,0
4235657,336.35,743,778,0
4235667,350.95,743,766,0
4235677,368.58,743,777,0
4235687,385.98,743,765,0
4235697,404.03,743,778,0
4235707,419.75,743,765,0
4235717,434.31,743,777,0
4235727,445.06,743,765,0
4235737,453.48,743,778,0
4235747,457.67,743,766,0
4235757,459.57,743,778,0
4235767,457.34,743,766,0
4235777,453.38,743,778,0
4235787,446.20,743,766,0
4235797,438.34,743,778,0
4235807,428.42,743,766,0
4235817,418.69,743,778,0
4235827,408.07,743,766,0
4235837,398.88,743,778,0
4235847,389.23,743,766,0
4235857,381.58,743,778,0
4235867,373.99,743,766,0
4235877,368.63,743,777,0
4235887,363.99,743,765,0
4235897,361.46,743,778,0
4235907,359.18,743,766,0
4235917,359.17,743,778,0
4235927,359.29,743,765,0
4235937,361.35,743,778,0
4235948,363.34,743,766,0
4235958,366.45,743,777,0
4235968,369.10,743,766,0
4235978,372.76,743,778,0
4235988,375.96,743,766,0
4235998,379.74,743,777,0
4236008,382.69,743,766,0
4236018,386.26,743,778,0
4236028,389.31,743,766,0
4236038,393.59,743,778,0
4236048,398.00,743,766,0
4236058,404.68,743,778,0
4236068,413.31,743,766,0
4236078,426.11,743,778,0
4236088,442.28,743,766,0
4236098,463.50,743,778,0
4236108,487.99,743,766,0
4236119,516.62,743,778,0
4236129,546.18,743,767,0
4236139,576.34,743,778,0
4236149,603.45,743,767,0
4236169,626.76,723,767,0
4236172,642.60,723,778,0
4236181,651.46,723,778,0
4236191,651.45,723,774,0
4236201,643.05,723,777,0
4236211,626.28,723,771,0
4236221,603.05,723,777,0
4236231,574.19,723,774,0
4236241,542.46,723,777,0
4236251,508.30,723,771,0
4236261,473.66,723,777,0
4236271,440.38,723,774,0
4236281,409.28,723,777,0
4236291,381.55,723,770,0
4236301,358.03,723,777,0
4236311,339.76,723,774,0
4236321,326.81,723,777,0
4236332,319.66,723,777,0
4236342,317.71,723,777,0
4236352,321.35,723,778,0
4236362,329.09,723,776,0
4236372,340.89,723,778,0
4236382,354.68,723,777,0
4236392,370.51,723,778,0
4236402,386.68,723,776,0
4236412,402.85,723,778,0
4236422,417.17,723,776,0
4236432,429.80,723,778,0
4236442,439.42,723,776,0
4236452,446.54,723,778,0
4236462,450.36,723,777,0
4236472,451.37,723,778,0
4236482,448.90,723,776,0
4236492,444.56,723,778,0
4236503,437.53,723,773,0
4236513,429.23,723,778,0
4236523,419.22,723,771,0
4236533,409.17,723,778,0
4236544,398.49,723,768,0
4236553,389.43,723,778,0
4236563,380.39,723,771,0
4236573,373.67,723,778,0
4236583,367.47,723,768,0
4236593,363.90,723,778,0
4236603,360.93,723,771,0
4236613,360.48,723,778,0
4236623,360.04,723,768,0
4236633,361.61,723,778,0
4236643,363.06,723,771,0
4236653,366.08,723,778,0
4236663,368.20,723,768,0
4236673,371.31,723,778,0
4236683,373.66,723,771,0
4236693,377.11,723,778,0
4236703,379.56,723,768,0
4236713,382.65,723,778,0
4236723,384.81,723,771,0
4236733,387.87,723,778,0
4236743,389.79,723,768,0
4236753,392.47,723,778,0
4236763,394.69,723,771,0
4236773,399.02,723,778,0
4236783,404.33,723,769,0
4236793,413.36,723,778,0
4236803,425.21,723,771,0
4236813,442.33,723,778,0
4236823,463.02,723,769,0
4236833,488.56,723,778,0
4236844,516.25,723,768,0
4236854,546.30,723,778,0
4236873,574.92,705,776,0
4236876,600.88,705,778,0
4236886,621.23,705,766,0
4236895,636.16,705,778,0
4236905,642.67,705,766,0
4236915,641.53,705,778,0
4236925,631.21,705,766,0
4236935,614.13,705,777,0
4236945,590.91,705,766,0
4236955,563.55,705,778,0
4236965,531.63,705,766,0
4236975,498.82,705,778,0
4236985,464.85,705,766,0
4236995,433.18,705,778,0
4237005,403.04,705,766,0
4237015,377.06,705,778,0
4237025,354.50,705,766,0
4237035,338.06,705,778,0
4237045,325.96,705,766,0
4237056,320.61,705,778,0
4237065,319.57,705,766,0
4237075,324.59,705,778,0
4237085,333.02,705,766,0
4237095,345.96,705,778,0
4237105,360.54,705,766,0
4237115,377.44,705,778,0
4237125,393.63,705,766,0
4237135,410.03,705,778,0
4237145,423.91,705,766,0
4237155,436.15,705,777,0
4237165,444.42,705,766,0
4237175,450.42,705,778,0
4237185,452.22,705,766,0
4237195,451.73,705,777,0
4237205,447.48,705,765,0
4237215,441.68,705,777,0
4237225,433.20,705,765,0
4237235,424.66,705,777,0
4237245,414.30,705,766,0
4237255,404.91,705,778,0
4237265,395.04,705,766,0
4237275,387.01,705,777,0
4237285,379.08,705,766,0
4237295,373.36,705,778,0
4237305,368.02,705,766,0
4237315,364.93,705,777,0
4237325,362.08,705,765,0
4237335,361.37,705,778,0
4237345,360.79,705,766,0
4237356,362.22,705,777,0
4237366,363.57,705,766,0
4237376,366.57,705,778,0
4237386,369.31,705,766,0
4237396,373.33,705,777,0
4237406,376.62,705,766,0
4237416,380.80,705,778,0
4237426,383.86,705,766,0
4237436,387.50,705,777,0
4237446,389.80,705,766,0
4237456,392.51,705,778,0
4237466,394.07,705,766,0
4237476,396.02,705,777,0
4237486,396.83,705,766,0
4237496,398.21,705,778,0
4237506,398.75,705,766,0
4237516,400.41,705,777,0
4237527,402.30,705,766,0
4237537,406.41,705,777,0
4237547,412.24,705,767,0
4237557,421.99,705,777,0
4237568,435.28,705,767,0
4237577,453.62,705,777,0
4237587,475.59,705,767,0
4237597,501.69,705,777,0
4237617,529.85,743,776,0
4237620,558.31,743,778,0
4237629,585.69,743,771,0
4237639,609.70,743,777,0
4237649,628.00,743,774,0
4237659,639.74,743,777,0
4237669,643.34,743,771,0
4237679,638.52,743,777,0
4237689,626.24,743,774,0
4237699,606.36,743,777,0
4237709,580.67,743,770,0
4237719,550.73,743,777,0
4237729,518.07,743,774,0
4237740,484.15,743,777,0
4237750,451.06,743,777,0
4237760,419.80,743,777,0
4237770,391.79,743,778,0
4237780,367.59,743,776,0
4237790,348.43,743,777,0
4237800,334.50,743,777,0
4237810,326.59,743,778,0
4237820,324.02,743,776,0
4237830,327.23,743,776,0
4237840,334.79,743,777,0
4237850,346.72,743,778,0
4237860,361.03,743,776,0
4237870,377.40,743,776,0
4237880,393.86,743,777,0
4237890,410.23,743,778,0
4237900,424.69,743,776,0
4237911,437.34,743,777,0
4237921,446.41,743,773,0
4237931,452.97,743,778,0
4237941,455.55,743,770,0
4237952,455.52,743,777,0
4237961,451.97,743,773,0
4237971,446.50,743,778,0
4237981,438.20,743,771,0
4237991,429.44,743,778,0
4238001,419.15,743,773,0
4238011,409.42,743,778,0
4238021,399.18,743,771,0
4238031,390.34,743,778,0
4238041,381.84,743,774,0
4238051,375.46,743,778,0
4238061,369.45,743,771,0
4238071,365.63,743,778,0
4238081,362.44,743,773,0
4238091,361.49,743,778,0
4238101,360.92,743,771,0
4238111,362.61,743,778,0
4238121,364.10,743,769,0
4238131,367.50,743,778,0
4238141,370.39,743,771,0
4238151,374.43,743,777,0
4238161,377.60,743,768,0
4238171,381.71,743,777,0
4238181,384.28,743,771,0
4238191,387.80,743,778,0
4238201,389.83,743,769,0
4238211,392.49,743,777,0
4238221,394.06,743,771,0
4238231,396.23,743,778,0
4238241,397.06,743,769,0
4238252,398.37,743,777,0
4238262,398.22,743,768,0
4238272,398.67,743,778,0
4238282,398.17,743,767,0
4238292,398.72,743,778,0
4238302,399.19,743,768,0
4238312,402.09,743,778,0
4238322,406.26,743,767,0
4238332,414.75,743,777,0
4238342,426.10,743,767,0
4238352,442.96,743,778,0
4238362,463.28,743,767,0
4238382,488.18,765,765,0
4238385,514.23,765,766,0
4238394,542.53,765,778,0
4238404,568.81,765,766,0
4238414,593.13,765,777,0
4238424,611.18,765,765,0
4238434,623.64,765,778,0
4238444,627.39,765,766,0
4238454,624.31,765,777,0
4238465,612.09,765,765,0
4238475,593.72,765,778,0
4238485,568.48,765,766,0
4238495,539.58,765,777,0
4238505,506.87,765,766,0
4238515,474.04,765,778,0
4238525,440.94,765,766,0
4238535,410.49,765,777,0
4238545,382.10,765,766,0
4238555,358.41,765,778,0
4238565,338.92,765,766,0
4238575,325.27,765,777,0
4238585,316.28,765,766,0
4238595,313.32,765,778,0
4238605,314.81,765,766,0
4238615,321.68,765,777,0
4238625,331.81,765,766,0
4238636,345.45,765,777,0
4238646,360.44,765,767,0
4238656,376.94,765,777,0
4238666,392.60,765,767,0
4238676,407.81,765,777,0
4238686,420.21,765,767,0
4238696,430.56,765,777,0
4238706,437.33,765,767,0
4238716,441.56,765,777,0
4238726,442.17,765,767,0
4238736,440.40,765,777,0
4238746,435.70,765,767,0
4238756,429.66,765,777,0
4238766,421.75,765,767,0
4238776,413.38,765,777,0
4238786,404.05,765,767,0
4238796,395.16,765,777,0
4238807,386.50,765,768,0
4238817,378.81,765,777,0
4238827,371.92,765,770,0
4238837,366.42,765,777,0
4238848,362.01,765,771,0
4238857,359.09,765,777,0
4238867,357.09,765,769,0
4238877,356.42,765,777,0
4238887,356.77,765,771,0
4238897,358.08,765,777,0
4238907,359.86,765,769,0
4238917,362.08,765,777,0
4238927,364.63,765,771,0
4238937,367.66,765,777,0
4238947,370.63,765,769,0
4238957,373.74,765,777,0
4238967,376.82,765,771,0
4238977,380.09,765,777,0
4238987,383.49,765,770,0
4238997,386.73,765,777,0
4239007,389.90,765,771,0
4239017,392.58,765,777,0
4239027,394.64,765,769,0
4239037,396.37,765,777,0
4239047,397.46,765,771,0
4239057,397.62,765,777,0
4239067,397.31,765,769,0
4239077,396.66,765,777,0
4239087,396.03,765,771,0
4239097,395.89,765,777,0
4239107,396.31,765,769,0
4239117,398.79,765,777,0
4239127,404.38,765,771,0
4239137,413.40,765,777,0
4239148,426.43,765,774,0
4239158,444.09,765,777,0
4239177,466.48,796,776,0
4239180,492.05,796,768,0
4239190,520.45,796,778,0
4239199,549.07,796,776,0
4239209,576.95,796,778,0
4239219,601.26,796,773,0
4239229,620.56,796,778,0
4239239,632.69,796,776,0
4239249,638.05,796,778,0
4239259,634.10,796,773,0
4239269,622.71,796,777,0
4239279,603.38,796,776,0
4239289,578.75,796,778,0
4239299,549.04,796,773,0
4239309,517.23,796,777,0
4239319,483.56,796,776,0
4239329,451.04,796,778,0
4239339,419.52,796,773,0
4239349,391.60,796,777,0
4239360,366.69,796,770,0
4239369,347.24,796,778,0
4239379,332.00,796,773,0
4239389,323.04,796,777,0
4239399,319.00,796,770,0
4239409,321.06,796,778,0
4239419,327.13,796,773,0
4239429,337.93,796,778,0
4239439,351.02,796,770,0
4239449,367.04,796,778,0
4239459,383.27,796,773,0
4239469,400.42,796,778,0
4239479,415.55,796,770,0
4239489,429.79,796,778,0
4239499,440.91,796,773,0
4239509,449.89,796,778,0
4239519,454.81,796,770,0
4239529,457.27,796,778,0
4239539,455.94,796,773,0
4239549,452.88,796,778,0
4239559,446.78,796,771,0
4239569,439.56,796,778,0
4239579,430.61,796,773,0
4239589,421.77,796,778,0
4239599,411.81,796,770,0
4239609,402.70,796,778,0
4239619,393.40,796,774,0
4239629,385.87,796,778,0
4239639,378.54,796,770,0
4239649,373.15,796,778,0
4239660,368.09,796,769,0
4239670,365.62,796,778,0
4239680,363.33,796,767,0
4239690,363.23,796,778,0
4239700,362.95,796,767,0
4239710,364.59,796,778,0
4239720,365.91,796,767,0
4239730,368.85,796,778,0
4239740,371.00,796,767,0
4239750,374.56,796,778,0
4239760,377.26,796,767,0
4239770,381.04,796,778,0
4239780,383.64,796,767,0
4239790,387.05,796,778,0
4239800,389.13,796,767,0
4239810,391.97,796,778,0
4239820,393.30,796,767,0
4239831,395.18,796,778,0
4239841,395.51,796,766,0
4239851,396.56,796,778,0
4239861,396.31,796,766,0
4239872,397.16,796,778,0
4239881,397.28,796,766,0
4239891,399.98,796,778,0
4239901,403.37,796,766,0
4239911,410.72,796,778,0
4239921,420.40,796,766,0
4239931,435.71,796,778,0
4239941,454.44,796,766,0
4239951,478.91,796,778,0
4239970,505.25,793,776,0
4239973,534.28,793,778,0
4239982,563.04,793,766,0
4239992,591.52,793,778,0
4240002,615.28,793,765,0
4240012,634.78,793,778,0
4240022,646.21,793,766,0
4240032,650.99,793,778,0
4240043,647.22,793,765,0
4240052,636.18,793,777,0
4240062,616.93,793,765,0
4240072,592.43,793,777,0
4240082,562.35,793,765,0
4240092,530.19,793,778,0
4240102,495.80,793,766,0
4240112,462.78,793,778,0
4240122,430.49,793,765,0
4240132,402.31,793,778,0
4240142,377.19,793,766,0
4240152,357.46,793,778,0
4240162,341.89,793,765,0
4240172,332.63,793,778,0
4240182,327.64,793,766,0
4240192,328.69,793,778,0
4240202,333.41,793,766,0
4240212,343.06,793,778,0
4240222,355.17,793,765,0
4240232,370.46,793,777,0
4240242,386.18,793,766,0
4240252,403.05,793,778,0
4240262,418.47,793,766,0
4240272,433.16,793,778,0
4240282,444.68,793,766,0
4240292,454.46,793,778,0
4240302,460.24,793,766,0
4240312,463.81,793,777,0
4240322,463.52,793,765,0
4240332,461.61,793,778,0
4240343,456.37,793,766,0
4240353,449.92,793,778,0
4240363,440.94,793,766,0
4240373,431.79,793,777,0
4240384,421.35,793,767,0
4240393,411.77,793,777,0
4240403,401.90,793,766,0
4240413,393.57,793,778,0
4240423,386.03,793,767,0
4240433,380.66,793,777,0
4240443,376.18,793,766,0
4240453,373.81,793,778,0
4240463,372.20,793,767,0
4240473,372.18,793,777,0
4240483,372.55,793,766,0
4240493,374.40,793,778,0
4240503,376.30,793,767,0
4240513,379.38,793,777,0
4240523,382.09,793,766,0
4240533,385.45,793,777,0
4240543,388.27,793,767,0
4240553,391.66,793,777,0
4240563,393.95,793,766,0
4240573,396.58,793,778,0
4240583,398.38,793,767,0
4240593,400.49,793,777,0
4240603,402.10,793,766,0
4240613,404.17,793,777,0
4240623,406.39,793,767,0
4240633,410.35,793,777,0
4240643,415.51,793,766,0
4240653,423.89,793,777,0
4240663,435.32,793,767,0
4240673,451.38,793,778,0
4240684,471.50,793,767,0
4240694,496.08,793,777,0
4240704,523.48,793,769,0
4240714,553.25,793,777,0
4240734,582.58,763,776,0
4240737,609.40,763,776,0
4240746,632.17,763,777,0
4240756,648.83,763,777,0
4240766,658.05,763,778,0
4240776,659.19,763,777,0
4240786,652.02,763,777,0
4240796,636.72,763,777,0
4240806,615.37,763,778,0
4240816,587.92,763,777,0
4240826,556.96,763,777,0
4240836,523.20,763,777,0
4240846,489.15,763,778,0
4240856,455.64,763,776,0
4240866,424.89,763,777,0
4240876,397.06,763,777,0
4240886,373.90,763,778,0
4240897,355.25,763,775,0
4240907,342.70,763,778,0
4240917,335.16,763,772,0
4240927,333.83,763,778,0
4240937,337.14,763,770,0
4240947,345.67,763,778,0
4240957,357.34,763,772,0
4240967,372.58,763,777,0
4240977,388.69,763,769,0
4240987,406.31,763,778,0
4240997,422.89,763,773,0
4241007,439.12,763,778,0
4241017,452.46,763,770,0
4241027,463.98,763,778,0
4241037,471.70,763,773,0
4241047,477.02,763,778,0
4241057,478.04,763,770,0
4241068,476.70,763,778,0
4241078,471.56,763,768,0
4241088,465.09,763,778,0
4241098,455.85,763,767,0
4241108,446.21,763,778,0
4241118,435.22,763,768,0
4241128,425.30,763,778,0
4241138,414.75,763,767,0
4241148,406.04,763,778,0
4241158,397.41,763,768,0
4241168,391.16,763,778,0
4241178,385.20,763,767,0
4241188,381.58,763,778,0
4241198,378.24,763,768,0
4241208,377.14,763,778,0
4241218,376.02,763,767,0
4241228,376.92,763,778,0
4241239,377.50,763,766,0
4241249,379.79,763,778,0
4241259,381.48,763,766,0
4241269,384.60,763,778,0
4241280,386.86,763,766,0
4241289,390.29,763,778,0
4241299,392.60,763,766,0
4241309,395.85,763,778,0
4241319,397.95,763,766,0
4241329,401.01,763,778,0
4241339,403.11,763,766,0
4241349,406.67,763,778,0
4241359,410.37,763,766,0
4241369,416.86,763,778,0
4241379,425.00,763,766,0
4241389,437.86,763,778,0
4241399,453.97,763,766,0
4241409,475.58,763,778,0
4241419,500.61,763,766,0
4241429,530.12,763,778,0
4241439,560.90,763,766,0
4241449,593.12,763,778,0
4241468,622.44,735,776,0
4241471,648.02,735,778,0
4241480,666.96,735,766,0
4241490,679.48,735,778,0
4241500,682.77,735,766,0
4241510,678.21,735,778,0
4241520,664.09,735,766,0
4241530,642.98,735,777,0
4241540,615.43,735,765,0
4241550,583.97,735,778,0
4241560,548.58,735,766,0
4241570,512.66,735,778,0
4241580,476.34,735,766,0
4241590,442.89,735,778,0
4241600,412.07,735,766,0
4241610,386.29,735,778,0
4241620,364.60,735,766,0
4241630,349.29,735,777,0
4241640,338.88,735,765,0
4241650,335.19,735,777,0
4241660,336.20,735,766,0
4241670,343.04,735,777,0
4241680,353.36,735,766,0
4241690,367.95,735,778,0
4241700,384.08,735,766,0
4241710,402.44,735,777,0
4241720,419.97,735,766,0
4241730,437.50,735,778,0
4241740,452.52,735,766,0
4241751,465.74,735,777,0
4241761,474.95,735,766,0
4241771,481.39,735,777,0
4241781,483.42,735,766,0
4241792,482.78,735,777,0
4241801,478.47,735,766,0
4241811,472.37,735,777,0
4241821,463.48,735,767,0
4241831,453.73,735,777,0
4241841,442.58,735,766,0
4241851,432.12,735,778,0
4241861,421.16,735,766,0
4241871,411.17,735,777,0
4241881,401.35,735,766,0
4241891,393.53,735,777,0
4241901,386.60,735,766,0
4241911,381.92,735,777,0
4241921,377.87,735,766,0
4241931,376.11,735,777,0
4241941,375.35,735,766,0
4241951,376.40,735,777,0
4241961,377.82,735,767,0
4241971,380.62,735,777,0
4241981,383.35,735,767,0
4241991,387.10,735,777,0
4242001,390.76,735,767,0
4242011,394.90,735,777,0
4242021,398.19,735,766,0
4242031,401.95,735,777,0
4242041,404.75,735,767,0
4242051,407.87,735,778,0
4242061,409.88,735,767,0
4242071,411.80,735,777,0
4242081,412.59,735,767,0
4242092,413.70,735,777,0
4242102,414.05,735,768,0
4242112,415.40,735,777,0
4242122,417.17,735,769,0
4242132,421.49,735,777,0
4242142,427.86,735,768,0
4242152,438.49,735,777,0
4242162,453.30,735,769,0
4242172,473.48,735,777,0
4242182,497.89,735,768,0
4242192,526.60,735,777,0
4242211,557.53,743,776,0
4242214,588.96,743,778,0
4242223,619.31,743,770,0
4242233,646.48,743,777,0
4242243,667.89,743,772,0
4242253,682.24,743,777,0
4242263,688.08,743,770,0
4242273,685.14,743,777,0
4242283,674.00,743,772,0
4242293,654.16,743,777,0
4242304,627.37,743,776,0
4242313,595.37,743,777,0
4242323,560.12,743,772,0
4242333,523.14,743,777,0
4242343,486.45,743,776,0
4242353,451.69,743,777,0
4242363,420.37,743,772,0
4242373,393.17,743,777,0
4242383,371.18,743,776,0
4242393,354.75,743,777,0
4242403,344.50,743,771,0
4242413,340.15,743,777,0
4242423,341.78,743,776,0
4242433,348.61,743,777,0
4242443,360.09,743,771,0
4242453,374.85,743,777,0
4242463,392.21,743,776,0
4242473,410.57,743,777,0
4242483,428.96,743,772,0
4242493,445.94,743,777,0
4242503,460.96,743,775,0
4242513,472.89,743,777,0
4242523,481.53,743,771,0
4242533,486.26,743,777,0
4242543,487.47,743,775,0
4242553,485.10,743,777,0
4242563,479.88,743,771,0
4242573,472.12,743,777,0
4242583,462.83,743,775,0
4242593,452.16,743,777,0
4242604,441.23,743,777,0
4242614,430.02,743,776,0
4242624,419.73,743,778,0
4242634,409.87,743,774,0
4242644,401.59,743,778,0
4242654,394.34,743,777,0
4242664,389.31,743,778,0
4242674,385.32,743,774,0
4242684,383.59,743,778,0
4242694,382.60,743,777,0
4242704,383.32,743,778,0
4242714,384.51,743,775,0
4242724,386.97,743,777,0
4242734,389.25,743,777,0
4242744,392.48,743,778,0
4242754,394.95,743,775,0
4242764,398.22,743,778,0
4242775,400.73,743,771,0
4242785,403.55,743,778,0
4242795,405.66,743,769,0
4242805,408.03,743,777,0
4242816,409.31,743,768,0
4242825,411.14,743,778,0
4242835,411.74,743,769,0
4242845,413.02,743,778,0
4242855,413.14,743,768,0
4242865,413.96,743,778,0
4242875,414.14,743,769,0
4242885,415.98,743,778,0
4242895,418.13,743,767,0
4242905,423.41,743,778,0
4242915,430.96,743,769,0
4242925,443.70,743,778,0
4242935,460.37,743,768,0
4242945,482.72,743,778,0
4242955,508.82,743,769,0
4242974,539.34,763,767,0
4242977,570.27,763,766,0
4242987,602.25,763,778,0
4242996,630.80,763,767,0
4243006,655.16,763,778,0
4243016,671.78,763,766,0
4243026,680.85,763,778,0
4243036,680.25,763,767,0
4243046,672.08,763,778,0
4243056,653.80,763,766,0
4243066,629.00,763,778,0
4243076,597.50,763,767,0
4243086,563.32,763,778,0
4243096,525.90,763,766,0
4243106,488.94,763,778,0
4243116,452.14,763,767,0
4243126,419.23,763,778,0
4243136,389.33,763,766,0
4243146,365.32,763,778,0
4243156,345.85,763,766,0
4243166,333.60,763,778,0
4243176,326.43,763,766,0
4243186,326.34,763,778,0
4243196,331.04,763,766,0
4243206,341.31,763,778,0
4243216,354.46,763,766,0
4243226,371.30,763,778,0
4243236,388.74,763,766,0
4243246,407.84,763,778,0
4243256,425.29,763,766,0
4243266,442.22,763,778,0
4243276,455.70,763,766,0
4243287,467.02,763,778,0
4243297,473.65,763,765,0
4243307,477.66,763,778,0
4243317,476.82,763,765,0
4243328,473.83,763,778,0
4243337,466.72,763,765,0
4243347,458.62,763,778,0
4243357,447.98,763,766,0
4243367,437.57,763,778,0
4243377,425.83,763,765,0
4243387,415.16,763,778,0
4243397,404.23,763,766,0
4243407,395.16,763,778,0
4243417,386.33,763,766,0
4243427,379.89,763,778,0
4243437,373.83,763,766,0
4243447,370.28,763,778,0
4243457,367.46,763,766,0
4243467,366.98,763,778,0
4243477,366.85,763,766,0
4243487,368.66,763,778,0
4243497,370.43,763,766,0
4243507,374.16,763,778,0
4243517,377.41,763,766,0
4243527,381.74,763,778,0
4243537,385.21,763,766,0
4243547,389.52,763,778,0
4243557,392.53,763,766,0
4243567,396.06,763,778,0
4243577,398.18,763,766,0
4243587,400.74,763,778,0
4243597,402.23,763,766,0
4243607,404.09,763,778,0
4243617,405.01,763,766,0
4243628,406.93,763,778,0
4243638,408.67,763,766,0
4243648,412.02,763,777,0
4243658,416.69,763,766,0
4243668,424.88,763,777,0
4243678,436.06,763,766,0
4243688,452.41,763,778,0
4243698,472.69,763,766,0
4243708,498.24,763,778,0
4243718,526.71,763,766,0
4243737,558.17,763,765,0
4243740,588.68,763,770,0
4243749,618.52,763,778,0
4243759,643.60,763,767,0
4243769,663.48,763,777,0
4243779,674.99,763,767,0
4243789,678.64,763,778,0
4243799,672.70,763,767,0
4243809,659.29,763,777,0
4243819,637.18,763,767,0
4243829,609.05,763,777,0
4243840,575.69,763,768,0
4243849,539.87,763,777,0
4243859,502.45,763,767,0
4243869,465.72,763,778,0
4243879,430.70,763,768,0
4243889,399.29,763,777,0
4243899,371.82,763,767,0
4243909,349.97,763,777,0
4243919,333.57,763,768,0
4243929,323.93,763,777,0
4243939,320.00,763,767,0
4243949,322.36,763,777,0
4243959,329.71,763,768,0
4243969,342.18,763,777,0
4243979,357.64,763,767,0
4243989,375.66,763,777,0
4243999,394.28,763,768,0
4244009,413.35,763,777,0
4244019,430.78,763,767,0
4244029,446.49,763,777,0
4244039,459.03,763,768,0
4244049,468.58,763,777,0
4244059,474.15,763,767,0
4244069,476.33,763,777,0
4244079,474.77,763,768,0
4244089,470.34,763,777,0
4244099,462.91,763,767,0
4244109,453.94,763,777,0
4244119,443.20,763,768,0
4244129,432.13,763,777,0
4244140,420.47,763,769,0
4244150,409.27,763,777,0
4244160,398.65,763,771,0
4244170,389.37,763,777,0
4244180,381.16,763,774,0
4244190,374.81,763,777,0
4244200,369.98,763,771,0
4244210,367.03,763,777,0
4244220,365.69,763,773,0
4244230,365.87,763,777,0
4244240,367.28,763,771,0
4244250,369.60,763,777,0
4244260,372.72,763,773,0
4244270,376.36,763,777,0
4244280,380.28,763,771,0
4244290,384.22,763,777,0
4244300,388.14,763,774,0
4244311,391.70,763,777,0
4244321,395.13,763,777,0
4244331,397.79,763,777,0
4244341,400.30,763,778,0
4244352,402.14,763,775,0
4244361,403.90,763,777,0
4244371,405.43,763,777,0
4244381,407.87,763,778,0
4244391,411.17,763,775,0
4244401,416.99,763,777,0
4244411,425.43,763,777,0
4244421,438.33,763,778,0
4244431,455.50,763,776,0
4244441,477.64,763,777,0
4244451,503.72,763,777,0
4244461,533.63,763,778,0
4244471,564.98,763,776,0
4244490,596.45,753,776,0
4244493,624.08,753,769,0
4244502,647.97,753,778,0
4244512,665.12,753,770,0
4244523,675.03,753,778,0
4244532,675.79,753,773,0
4244542,668.31,753,778,0
4244552,651.72,753,770,0
4244562,629.17,753,778,0
4244572,599.64,753,773,0
4244582,566.36,753,778,0
4244592,529.48,753,770,0
4244602,492.22,753,778,0
4244612,454.91,753,773,0
4244622,420.78,753,778,0
4244632,389.39,753,770,0
4244642,363.34,753,778,0
4244652,341.94,753,774,0
4244662,327.43,753,778,0
4244672,318.39,753,770,0
4244682,316.47,753,778,0
4244692,319.54,753,768,0
4244702,328.81,753,778,0
4244712,341.60,753,771,0
4244722,358.56,753,777,0
4244732,376.65,753,768,0
4244742,396.55,753,778,0
4244752,415.16,753,771,0
4244762,433.24,753,777,0
4244772,448.13,753,768,0
4244782,460.82,753,778,0
4244792,469.01,753,771,0
4244802,474.45,753,777,0
4244812,475.17,753,768,0
4244823,473.32,753,778,0
4244833,467.48,753,767,0
4244843,460.09,753,777,0
4244853,449.78,753,766,0
4244864,439.22,753,778,0
4244873,427.24,753,767,0
4244883,416.37,753,777,0
4244893,405.03,753,767,0
4244903,395.68,753,778,0
4244913,386.60,753,767,0
4244923,379.99,753,777,0
4244933,373.91,753,767,0
4244943,370.42,753,778,0
4244953,367.34,753,767,0
4244963,366.72,753,777,0
4244973,366.25,753,767,0
4244983,367.89,753,778,0
4244993,369.42,753,767,0
4245003,372.68,753,778,0
4245013,375.31,753,767,0
4245023,379.20,753,778,0
4245033,382.05,753,766,0
4245043,385.94,753,778,0
4245053,388.48,753,766,0
4245063,391.85,753,778,0
4245073,393.87,753,766,0
4245083,396.74,753,778,0
4245093,398.57,753,767,0
4245103,401.96,753,778,0
4245113,405.40,753,766,0
4245123,411.75,753,778,0
4245133,419.93,753,766,0
4245143,432.89,753,778,0
4245153,449.21,753,766,0
4245164,471.52,753,778,0
4245174,497.33,753,766,0
4245184,527.75,753,778,0
4245194,559.32,753,766,0
4245204,591.93,753,778,0
4245223,621.39,733,776,0
4245226,646.52,733,778,0
4245235,664.45,733,766,0
4245245,675.41,733,778,0
4245255,676.75,733,765,0
4245265,669.97,733,778,0
4245275,653.52,733,766,0
4245285,630.01,733,777,0
4245295,600.30,733,765,0
4245305,566.53,733,778,0
4245315,528.95,733,766,0
4245325,491.17,733,777,0
4245335,453.10,733,765,0
4245345,418.19,733,778,0
4245355,386.20,733,766,0
4245365,359.74,733,778,0
4245376,338.00,733,766,0
4245385,323.17,733,778,0
4245395,313.65,733,766,0
4245405,311.31,733,777,0
4245415,314.22,733,766,0
4245425,323.37,733,778,0
4245435,336.11,733,766,0
4245445,353.14,733,777,0
4245455,371.65,733,765,0
4245465,392.24,733,778,0
4245475,411.88,733,766,0
4245485,430.99,733,777,0
4245495,446.98,733,765,0
4245505,460.66,733,777,0
4245515,469.76,733,766,0
4245525,475.70,733,777,0
4245535,476.86,733,765,0
4245545,475.15,733,777,0
4245555,469.36,733,766,0
4245565,461.84,733,777,0
4245575,451.52,733,766,0
4245585,440.77,733,778,0
4245595,428.63,733,766,0
4245605,417.17,733,777,0
4245615,405.37,733,766,0
4245625,395.32,733,777,0
4245635,385.67,733,766,0
4245645,378.31,733,778,0
4245655,371.83,733,766,0
4245665,367.72,733,777,0
4245676,364.46,733,766,0
4245686,363.34,733,777,0
4245696,363.07,733,767,0
4245706,364.46,733,777,0
4245716,366.42,733,768,0
4245726,369.64,733,777,0
4245736,372.66,733,767,0
4245746,376.71,733,778,0
4245756,380.35,733,768,0
4245766,384.49,733,777,0
4245776,387.98,733,767,0
4245786,391.63,733,777,0
4245796,395.04,733,768,0
4245806,399.74,733,777,0
4245816,405.26,733,767,0
4245826,413.46,733,778,0
4245836,424.25,733,768,0
4245847,439.77,733,777,0
4245857,459.77,733,768,0
4245867,484.87,733,778,0
4245877,513.84,733,770,0
4245888,545.94,733,777,0
4245897,578.92,733,769,0
4245907,611.13,733,778,0
4245917,639.67,733,770,0
4245937,662.62,713,770,0
4245940,677.34,713,778,0
4245949,683.37,713,777,0
4245959,680.22,713,778,0
4245969,667.47,713,774,0
4245979,646.37,713,777,0
4245989,617.84,713,777,0
4245999,584.12,713,778,0
4246009,546.88,713,774,0
4246019,508.22,713,777,0
4246029,469.28,713,777,0
4246039,432.85,713,778,0
4246049,399.13,713,774,0
4246060,370.55,713,778,0
4246070,346.55,713,771,0
4246080,329.72,713,778,0
4246090,318.40,713,769,0
4246100,314.47,713,778,0
4246110,316.17,713,772,0
4246120,324.13,713,778,0
4246130,336.05,713,769,0
4246140,352.58,713,778,0
4246150,370.45,713,772,0
4246160,390.71,713,778,0
4246170,409.78,713,769,0
4246180,428.49,713,778,0
4246190,444.37,713,771,0
4246200,458.06,713,778,0
4246210,467.17,713,769,0
4246220,473.46,713,778,0
4246231,474.74,713,767,0
4246241,473.53,713,778,0
4246251,467.97,713,767,0
4246261,460.65,713,778,0
4246272,450.17,713,766,0
4246281,439.58,713,778,0
4246291,427.27,713,767,0
4246301,416.14,713,778,0
4246311,404.09,713,766,0
4246321,394.21,713,778,0
4246331,384.42,713,767,0
4246341,377.22,713,778,0
4246351,370.38,713,766,0
4246361,366.11,713,778,0
4246371,362.18,713,767,0
4246381,360.92,713,778,0
4246391,359.79,713,766,0
4246401,360.88,713,778,0
4246411,362.07,713,767,0
4246421,365.14,713,778,0
4246431,367.84,713,766,0
4246441,372.22,713,778,0
4246451,375.84,713,767,0
4246461,380.73,713,778,0
4246471,384.50,713,766,0
4246481,389.23,713,778,0
4246491,393.02,713,767,0
4246501,398.24,713,777,0
4246511,403.27,713,766,0
4246521,411.25,713,778,0
4246531,420.82,713,767,0
4246541,435.36,713,778,0
4246551,453.72,713,766,0
4246561,478.02,713,778,0
4246572,506.13,713,766,0
4246582,538.92,713,778,0
4246592,572.71,713,766,0
4246602,607.30,713,778,0
4246612,638.45,713,766,0
4246631,665.36,695,765,0
4246634,683.51,695,766,0
4246643,693.77,695,778,0
4246653,693.67,695,766,0
4246663,684.98,695,778,0
4246673,666.43,695,765,0
4246683,640.67,695,778,0
4246693,607.64,695,766,0
4246703,571.92,695,778,0
4246713,532.82,695,765,0
4246723,494.04,695,778,0
4246733,455.24,695,766,0
4246743,420.03,695,778,0
4246753,387.79,695,766,0
4246763,361.50,695,778,0
4246773,340.00,695,766,0
4246784,325.77,695,778,0
4246793,316.89,695,766,0
4246803,314.99,695,778,0
4246813,318.42,695,766,0
4246823,327.85,695,777,0
4246833,340.58,695,766,0
4246843,357.21,695,777,0
4246853,374.59,695,766,0
4246863,393.48,695,777,0
4246873,411.30,695,766,0
4246883,428.14,695,778,0
4246893,441.89,695,766,0
4246903,453.45,695,777,0
4246913,460.60,695,765,0
4246923,465.18,695,778,0
4246933,465.43,695,766,0
4246943,463.11,695,777,0
4246953,456.99,695,766,0
4246963,449.28,695,778,0
4246973,438.87,695,766,0
4246983,428.24,695,777,0
4246993,416.29,695,766,0
4247003,405.28,695,778,0
4247013,394.18,695,766,0
4247023,384.95,695,777,0
4247033,376.35,695,766,0
4247043,370.20,695,778,0
4247053,364.96,695,766,0
4247063,362.14,695,778,0
4247073,360.13,695,766,0
4247084,360.30,695,777,0
4247094,361.16,695,767,0
4247104,363.68,695,777,0
4247114,366.35,695,767,0
4247124,370.23,695,777,0
4247134,373.80,695,767,0
4247144,378.23,695,777,0
4247154,382.06,695,767,0
4247164,386.16,695,777,0
4247174,389.50,695,767,0
4247184,393.08,695,777,0
4247194,395.75,695,767,0
4247204,398.44,695,777,0
4247214,400.24,695,767,0
4247224,402.48,695,777,0
4247234,404.87,695,767,0
4247244,408.93,695,777,0
4247255,414.74,695,768,0
4247265,424.29,695,777,0
4247275,438.00,695,769,0
4247285,457.16,695,777,0
4247296,481.37,695,771,0
4247305,510.61,695,777,0
4247315,543.17,695,770,0
4247325,577.79,695,777,0
4247345,611.63,713,776,0
4247348,641.52,713,774,0
4247357,666.35,713,778,0
