Time,PPG,IBI,GSR,GSR_Event
3365739,579.02,663,764,0
3365749,530.37,663,762,0
3365760,481.36,663,765,0
3365769,430.81,663,763,0
3365779,381.71,663,766,0
3365789,335.81,663,762,0
3365799,295.92,663,766,0
3365809,268.56,663,763,0
3365819,253.05,663,766,0
3365829,246.95,663,762,0
3365839,250.22,663,766,0
3365849,260.36,663,763,0
3365859,276.88,663,766,0
3365869,297.06,663,762,0
3365879,320.53,663,765,0
3365889,344.45,663,763,0
3365899,368.62,663,765,0
3365909,390.72,663,762,0
3365919,410.86,663,765,0
3365929,427.32,663,761,0
3365939,440.55,663,765,0
3365949,449.34,663,762,0
3365959,454.77,663,765,0
3365969,455.65,663,761,0
3365979,453.31,663,765,0
3365989,447.43,663,762,0
3365999,439.50,663,765,0
3366009,428.94,663,760,0
3366019,417.51,663,765,0
3366029,404.72,663,761,0
3366039,392.93,663,766,0
3366049,381.51,663,761,0
3366060,371.93,663,765,0
3366070,363.29,663,759,0
3366080,357.29,663,765,0
3366090,352.32,663,758,0
3366100,350.17,663,765,0
3366110,348.57,663,759,0
3366120,348.83,663,765,0
3366130,349.01,663,759,0
3366140,350.81,663,765,0
3366150,352.28,663,760,0
3366160,355.15,663,766,0
3366170,357.29,663,759,0
3366180,360.68,663,765,0
3366190,363.39,663,760,0
3366200,367.00,663,765,0
3366210,369.44,663,759,0
3366220,372.48,663,765,0
3366231,374.18,663,759,0
3366241,376.31,663,765,0
3366251,376.78,663,758,0
3366261,377.40,663,764,0
3366272,376.42,663,758,0
3366281,375.87,663,764,0
3366291,375.09,663,758,0
3366301,376.99,663,764,0
3366311,376.91,663,755,0
3366321,384.05,663,766,0
3366331,398.56,663,759,0
3366341,423.30,663,766,0
3366351,455.78,663,759,0
3366361,494.24,663,766,0
3366371,534.93,663,759,0
3366390,580.29,703,759,0
3366393,621.43,703,761,0
3366402,656.66,703,768,0
3366412,683.63,703,760,0
3366422,703.42,703,768,0
3366432,715.80,703,760,0
3366443,721.26,703,768,0
3366452,717.97,703,760,0
3366462,706.36,703,768,0
3366472,684.78,703,760,0
3366482,654.89,703,768,0
3366492,616.10,703,760,0
3366502,571.84,703,768,0
3366512,523.24,703,759,0
3366522,475.81,703,768,0
3366532,429.88,703,760,0
3366542,390.36,703,768,0
3366552,356.01,703,760,0
3366562,330.46,703,768,0
3366572,311.55,703,761,0
3366582,301.96,703,768,0
3366592,298.63,703,760,0
3366602,303.45,703,768,0
3366612,312.83,703,761,0
3366622,327.97,703,768,0
3366632,344.61,703,760,0
3366642,364.05,703,768,0
3366652,382.17,703,761,0
3366662,400.33,703,768,0
3366672,414.85,703,760,0
3366682,427.62,703,768,0
3366692,435.53,703,760,0
3366702,441.16,703,768,0
3366712,441.80,703,760,0
3366722,440.53,703,768,0
3366732,435.10,703,760,0
3366743,428.64,703,768,0
3366753,418.93,703,760,0
3366763,409.53,703,768,0
3366773,398.05,703,761,0
3366784,387.97,703,768,0
3366793,376.88,703,760,0
3366803,367.96,703,768,0
3366813,359.06,703,761,0
3366823,353.00,703,768,0
3366833,347.17,703,760,0
3366843,344.33,703,768,0
3366853,341.88,703,760,0
3366863,342.04,703,767,0
3366873,342.03,703,760,0
3366883,344.21,703,768,0
3366893,345.90,703,761,0
3366903,349.49,703,768,0
3366913,352.26,703,760,0
3366923,356.46,703,768,0
3366933,359.67,703,761,0
3366943,364.18,703,767,0
3366953,367.00,703,760,0
3366963,370.60,703,768,0
3366973,372.35,703,760,0
3366983,374.86,703,767,0
3366993,375.59,703,760,0
3367003,377.25,703,767,0
3367013,377.56,703,760,0
3367023,379.58,703,767,0
3367033,381.29,703,760,0
3367043,385.79,703,768,0
3367053,391.51,703,760,0
3367063,401.94,703,767,0
3367073,415.59,703,760,0
3367084,435.73,703,767,0
3367094,460.15,703,761,0
3367104,490.41,703,767,0
3367114,523.20,703,761,0
3367134,558.75,743,760,0
3367137,592.17,743,767,0
3367146,622.89,743,767,0
3367156,646.67,743,764,0
3367166,662.92,743,767,0
3367176,669.29,743,763,0
3367186,666.42,743,767,0
3367196,653.05,743,764,0
3367206,631.61,743,766,0
3367216,602.71,743,763,0
3367226,568.94,743,767,0
3367236,531.46,743,764,0
3367246,492.71,743,767,0
3367256,453.88,743,763,0
3367266,417.57,743,767,0
3367276,384.49,743,764,0
3367286,356.10,743,767,0
3367297,332.80,743,765,0
3367307,315.93,743,766,0
3367317,305.58,743,766,0
3367327,301.98,743,766,0
3367337,304.38,743,767,0
3367347,312.50,743,766,0
3367357,325.16,743,766,0
3367367,341.31,743,766,0
3367377,359.65,743,767,0
3367387,378.57,743,766,0
3367397,396.95,743,766,0
3367407,413.55,743,766,0
3367417,427.87,743,767,0
3367427,438.97,743,766,0
3367437,446.69,743,766,0
3367447,450.60,743,766,0
3367457,451.10,743,767,0
3367468,448.20,743,761,0
3367478,443.30,743,752,0
3367488,437.17,743,754,0
3367498,429.79,743,752,0
3367508,421.75,743,753,0
3367518,413.17,743,751,0
3367528,404.85,743,753,0
3367538,396.92,743,752,0
3367548,389.23,743,753,0
3367558,381.06,743,751,0
3367568,373.93,743,753,0
3367578,367.39,743,752,0
3367588,362.39,743,753,0
3367598,357.99,743,751,0
3367608,355.33,743,753,0
3367618,353.52,743,752,0
3367628,353.32,743,753,0
3367639,353.78,743,752,0
3367649,355.13,743,753,0
3367659,356.98,743,752,0
3367669,359.34,743,753,0
3367680,361.94,743,752,0
3367689,364.87,743,753,0
3367699,367.78,743,752,0
3367709,370.50,743,753,0
3367719,373.44,743,753,0
3367729,376.48,743,753,0
3367739,380.28,743,752,0
3367749,384.91,743,753,0
3367759,391.66,743,752,0
3367769,401.11,743,753,0
3367779,414.45,743,752,0
3367789,432.10,743,753,0
3367799,454.57,743,752,0
3367809,481.57,743,753,0
3367819,512.13,743,752,0
3367829,544.40,743,753,0
3367839,576.73,743,753,0
3367859,606.46,725,751,0
3367862,631.48,725,755,0
3367871,649.34,725,752,0
3367881,659.31,725,753,0
3367891,659.26,725,751,0
3367901,650.44,725,753,0
3367911,631.84,725,752,0
3367921,606.30,725,753,0
3367931,573.94,725,751,0
3367941,538.56,725,753,0
3367951,500.03,725,752,0
3367961,462.78,725,753,0
3367971,425.65,725,751,0
3367981,393.05,725,753,0
3367991,363.68,725,752,0
3368001,341.02,725,753,0
3368011,322.97,725,751,0
3368022,312.65,725,753,0
3368031,307.53,725,752,0
3368041,310.54,725,753,0
3368051,318.44,725,752,0
3368061,333.00,725,753,0
3368071,350.40,725,753,0
3368081,371.80,725,753,0
3368091,392.99,725,752,0
3368101,415.53,725,754,0
3368111,435.09,725,753,0
3368121,452.98,725,754,0
3368131,465.41,725,752,0
3368141,474.76,725,754,0
3368151,478.30,725,753,0
3368161,478.90,725,754,0
3368171,474.17,725,753,0
3368181,467.35,725,754,0
3368192,456.36,725,753,0
3368201,444.85,725,754,0
3368211,431.05,725,753,0
3368221,418.27,725,754,0
3368231,404.34,725,753,0
3368241,392.41,725,754,0
3368251,380.29,725,753,0
3368261,371.29,725,754,0
3368271,362.72,725,753,0
3368281,357.14,725,754,0
3368291,351.91,725,753,0
3368301,349.63,725,754,0
3368311,347.38,725,753,0
3368321,347.78,725,754,0
3368331,347.93,725,753,0
3368341,350.22,725,754,0
3368351,351.66,725,753,0
3368361,355.06,725,754,0
3368371,357.53,725,753,0
3368381,361.61,725,754,0
3368391,364.39,725,753,0
3368401,368.56,725,754,0
3368411,371.69,725,753,0
3368421,376.67,725,754,0
3368431,380.97,725,753,0
3368441,388.18,725,754,0
3368451,396.40,725,753,0
3368461,409.39,725,754,0
3368471,425.30,725,753,0
3368481,447.54,725,754,0
3368492,473.31,725,753,0
3368502,504.97,725,755,0
3368512,538.02,725,753,0
3368522,573.33,725,755,0
3368532,605.72,725,753,0
3368542,635.80,725,755,0
3368561,658.23,703,754,0
3368564,673.46,703,755,0
3368573,677.57,703,753,0
3368583,673.75,703,756,0
3368593,659.13,703,754,0
3368603,637.79,703,755,0
3368613,607.60,703,753,0
3368623,573.86,703,754,0
3368633,535.84,703,755,0
3368643,498.05,703,760,0
3368653,458.48,703,756,0
3368663,421.65,703,768,0
3368673,386.14,703,759,0
3368683,355.75,703,768,0
3368693,328.70,703,761,0
3368704,308.60,703,768,0
3368713,293.64,703,762,0
3368723,286.97,703,768,0
3368733,286.25,703,763,0
3368743,293.16,703,768,0
3368753,304.60,703,762,0
3368763,321.43,703,768,0
3368773,340.25,703,763,0
3368783,361.47,703,767,0
3368793,381.17,703,763,0
3368803,400.49,703,768,0
3368813,416.20,703,763,0
3368823,430.03,703,767,0
3368833,439.19,703,762,0
3368843,445.86,703,768,0
3368853,447.87,703,761,0
3368863,447.78,703,768,0
3368873,443.99,703,762,0
3368883,438.98,703,768,0
3368893,431.19,703,753,0
3368903,424.40,703,759,0
3368913,415.97,703,756,0
3368923,408.52,703,766,0
3368933,400.22,703,753,0
3368943,394.20,703,754,0
3368953,387.80,703,753,0
3368963,383.91,703,754,0
3368973,378.54,703,753,0
3368983,375.25,703,754,0
3368993,371.15,703,753,0
3369004,369.26,703,754,0
3369014,365.84,703,753,0
3369024,364.47,703,754,0
3369034,361.80,703,753,0
3369044,361.39,703,754,0
3369054,360.07,703,753,0
3369064,361.42,703,754,0
3369074,362.41,703,753,0
3369084,366.83,703,754,0
3369094,372.11,703,753,0
3369104,382.32,703,754,0
3369114,395.12,703,753,0
3369124,414.76,703,754,0
3369134,438.19,703,753,0
3369144,468.69,703,755,0
3369154,502.21,703,753,0
3369164,539.73,703,755,0
3369175,576.88,703,753,0
3369185,613.22,703,755,0
3369195,644.31,703,753,0
3369214,670.92,653,751,0
3369218,687.27,653,754,0
3369227,695.25,653,755,0
3369237,692.52,653,753,0
3369247,680.53,653,754,0
3369257,659.29,653,753,0
3369267,631.17,653,754,0
3369277,596.02,653,752,0
3369287,558.34,653,754,0
3369297,518.38,653,753,0
3369307,479.65,653,755,0
3369317,442.60,653,752,0
3369327,409.89,653,754,0
3369337,381.47,653,753,0
3369347,359.47,653,755,0
3369357,343.47,653,752,0
3369367,334.50,653,754,0
3369377,331.65,653,753,0
3369388,335.53,653,754,0
3369398,344.71,653,753,0
3369408,358.47,653,754,0
3369418,375.21,653,753,0
3369428,393.96,653,753,0
3369438,413.22,653,753,0
3369448,432.01,653,754,0
3369458,448.94,653,753,0
3369468,462.93,653,754,0
3369478,473.45,653,753,0
3369488,479.91,653,754,0
3369498,482.51,653,753,0
3369508,480.81,653,753,0
3369518,475.30,653,753,0
3369528,466.42,653,754,0
3369538,454.98,653,754,0
3369548,441.36,653,754,0
3369559,426.72,653,753,0
3369569,411.29,653,754,0
3369579,396.80,653,754,0
3369589,382.55,653,754,0
3369600,369.78,653,754,0
3369609,357.98,653,754,0
3369619,348.13,653,754,0
3369629,338.92,653,754,0
3369639,331.83,653,754,0
3369649,325.07,653,754,0
3369659,320.33,653,754,0
3369669,315.86,653,754,0
3369679,313.42,653,754,0
3369689,311.45,653,754,0
3369699,311.53,653,754,0
3369709,311.76,653,754,0
3369719,313.80,653,754,0
3369729,316.05,653,754,0
3369739,319.93,653,754,0
3369749,323.81,653,754,0
3369759,329.40,653,754,0
3369769,335.45,653,754,0
3369779,343.93,653,754,0
3369789,354.11,653,754,0
3369799,368.52,653,754,0
3369809,386.71,653,754,0
3369819,410.71,653,754,0
3369829,439.60,653,754,0
3369839,474.69,653,754,0
3369849,513.27,653,754,0
3369859,553.69,653,755,0
3369869,592.65,653,754,0
3369879,628.93,653,755,0
3369889,660.28,653,754,0
3369900,685.27,653,755,0
3369919,700.10,705,754,0
3369922,704.96,705,755,0
3369931,699.14,705,754,0
3369942,684.66,705,755,0
3369951,660.59,705,754,0
3369961,629.13,705,755,0
3369971,590.26,705,754,0
3369981,548.91,705,755,0
3369991,505.35,705,754,0
3370001,463.97,705,755,0
3370011,423.48,705,754,0
3370021,388.37,705,755,0
3370031,356.71,705,754,0
3370041,332.37,705,755,0
3370051,312.80,705,754,0
3370061,301.55,705,755,0
3370071,295.34,705,754,0
3370081,297.25,705,755,0
3370091,303.43,705,753,0
3370101,316.16,705,755,0
3370112,331.16,705,754,0
3370121,350.31,705,755,0
3370131,368.94,705,754,0
3370141,389.19,705,755,0
3370151,406.28,705,754,0
3370161,422.61,705,755,0
3370171,434.00,705,753,0
3370181,443.30,705,755,0
3370191,447.07,705,754,0
3370201,448.63,705,755,0
3370211,445.23,705,753,0
3370221,440.70,705,755,0
3370231,432.26,705,754,0
3370241,423.91,705,755,0
3370251,413.10,705,754,0
3370261,403.64,705,756,0
3370271,392.69,705,754,0
3370281,383.74,705,755,0
3370291,373.88,705,754,0
3370301,366.54,705,755,0
3370311,358.62,705,754,0
3370321,353.59,705,755,0
3370331,348.14,705,753,0
3370341,345.44,705,755,0
3370351,342.05,705,754,0
3370361,341.22,705,755,0
3370371,339.74,705,753,0
3370381,340.76,705,755,0
3370391,340.83,705,754,0
3370401,343.20,705,755,0
3370412,344.64,705,754,0
3370422,348.48,705,755,0
3370432,351.33,705,754,0
3370442,356.68,705,755,0
3370452,361.66,705,754,0
3370462,370.12,705,755,0
3370472,379.60,705,754,0
3370482,394.68,705,755,0
3370492,412.99,705,754,0
3370502,438.41,705,755,0
3370512,467.51,705,754,0
3370522,503.10,705,756,0
3370532,540.40,705,753,0
3370542,579.11,705,755,0
3370552,615.03,705,754,0
3370562,648.11,705,755,0
3370572,673.40,705,753,0
3370592,691.93,673,752,0
3370595,698.33,673,754,0
3370604,695.92,673,755,0
3370614,682.79,673,753,0
3370625,660.82,673,755,0
3370635,629.50,673,753,0
3370645,592.75,673,755,0
3370655,550.40,673,753,0
3370665,507.68,673,755,0
3370675,463.59,673,753,0
3370685,423.04,673,755,0
3370695,385.53,673,753,0
3370705,354.17,673,755,0
3370715,327.76,673,753,0
3370725,308.93,673,755,0
3370735,296.10,673,752,0
3370745,291.10,673,755,0
3370755,291.45,673,753,0
3370765,298.60,673,755,0
3370775,309.82,673,752,0
3370785,325.99,673,755,0
3370796,343.99,673,753,0
3370806,364.14,673,755,0
3370816,383.38,673,752,0
3370826,402.34,673,755,0
3370836,418.31,673,753,0
3370846,432.02,673,755,0
3370856,441.31,673,752,0
3370866,447.26,673,755,0
3370876,448.73,673,753,0
3370886,447.35,673,755,0
3370896,442.27,673,752,0
3370906,434.95,673,755,0
3370916,425.19,673,753,0
3370926,414.59,673,755,0
3370936,402.63,673,752,0
3370946,391.04,673,755,0
3370956,379.37,673,753,0
3370967,368.85,673,754,0
3370977,359.33,673,753,0
3370987,351.35,673,754,0
3370997,344.94,673,754,0
3371008,340.33,673,754,0
3371017,337.10,673,753,0
3371027,335.44,673,754,0
3371037,335.14,673,754,0
3371047,335.74,673,754,0
3371057,337.19,673,753,0
3371067,339.10,673,754,0
3371077,342.12,673,754,0
3371087,345.77,673,754,0
3371097,350.42,673,753,0
3371107,356.47,673,755,0
3371117,364.73,673,754,0
3371127,375.44,673,755,0
3371137,389.36,673,754,0
3371147,407.30,673,755,0
3371157,430.22,673,754,0
3371167,458.06,673,755,0
3371177,490.57,673,755,0
3371187,526.53,673,755,0
3371197,564.00,673,754,0
3371207,600.81,673,755,0
3371217,634.85,673,755,0
3371227,664.51,673,755,0
3371237,687.12,673,754,0
3371247,700.58,673,755,0
3371267,704.14,674,754,0
3371270,696.81,674,756,0
3371279,681.18,674,755,0
3371289,656.14,674,754,0
3371299,623.61,674,755,0
3371309,585.16,674,755,0
3371319,543.84,674,755,0
3371329,500.52,674,755,0
3371339,459.65,674,756,0
3371350,419.68,674,754,0
3371359,384.93,674,755,0
3371369,353.97,674,755,0
3371379,329.89,674,755,0
3371389,311.15,674,754,0
3371399,300.39,674,755,0
3371409,295.39,674,755,0
3371419,298.23,674,755,0
3371429,305.62,674,754,0
3371439,319.06,674,755,0
3371449,335.11,674,755,0
3371459,354.97,674,755,0
3371469,374.69,674,754,0
3371479,395.18,674,756,0
3371489,413.00,674,755,0
3371499,429.54,674,755,0
3371509,441.64,674,754,0
3371520,451.17,674,756,0
3371529,455.45,674,755,0
3371539,457.12,674,755,0
3371549,454.12,674,754,0
3371559,449.16,674,756,0
3371569,440.67,674,755,0
3371579,431.64,674,756,0
3371589,420.05,674,754,0
3371599,409.15,674,756,0
3371609,397.02,674,755,0
3371619,386.38,674,755,0
3371629,375.25,674,754,0
3371639,366.39,674,756,0
3371649,357.62,674,755,0
3371659,351.52,674,756,0
3371669,345.49,674,754,0
3371679,342.13,674,756,0
3371689,338.79,674,755,0
3371699,337.91,674,755,0
3371709,336.87,674,755,0
3371719,338.06,674,756,0
3371729,338.94,674,754,0
3371739,341.96,674,756,0
3371749,344.67,674,754,0
3371759,350.13,674,756,0
3371769,356.30,674,754,0
3371779,366.20,674,755,0
3371789,378.27,674,754,0
3371799,396.19,674,755,0
3371809,418.16,674,754,0
3371820,447.04,674,756,0
3371830,479.64,674,754,0
3371840,517.29,674,756,0
3371850,555.69,674,754,0
3371860,594.10,674,756,0
3371870,628.35,674,754,0
3371880,658.59,674,756,0
3371890,679.58,674,755,0
3371900,692.65,674,756,0
3371910,694.39,674,754,0
3371929,687.24,663,753,0
3371932,669.13,663,755,0
3371941,643.97,663,756,0
3371951,610.17,663,754,0
3371961,572.83,663,756,0
3371971,530.97,663,754,0
3371981,489.53,663,756,0
3371991,447.63,663,754,0
3372001,410.93,663,756,0
3372011,376.62,663,754,0
3372021,349.48,663,756,0
3372032,327.09,663,754,0
3372041,313.26,663,756,0
3372051,304.83,663,754,0
3372061,305.01,663,756,0
3372071,309.81,663,754,0
3372081,321.78,663,756,0
3372091,336.42,663,754,0
3372101,355.79,663,756,0
3372111,375.05,663,754,0
3372121,396.34,663,756,0
3372131,414.79,663,754,0
3372141,432.77,663,756,0
3372151,446.04,663,754,0
3372161,457.26,663,755,0
3372171,462.88,663,754,0
3372181,466.39,663,756,0
3372191,464.34,663,754,0
3372201,460.47,663,755,0
3372211,452.06,663,754,0
3372221,443.17,663,756,0
3372231,430.99,663,754,0
3372241,419.51,663,755,0
3372251,405.90,663,754,0
3372261,394.36,663,756,0
3372271,381.91,663,754,0
3372281,372.25,663,755,0
3372291,362.10,663,754,0
3372301,355.17,663,756,0
3372311,347.96,663,754,0
3372321,343.99,663,755,0
3372332,339.83,663,754,0
3372342,338.98,663,756,0
3372352,337.96,663,754,0
3372362,340.24,663,755,0
3372372,342.96,663,754,0
3372382,349.87,663,756,0
3372392,358.31,663,754,0
3372402,372.44,663,755,0
3372412,390.31,663,754,0
3372422,415.67,663,756,0
3372432,445.47,663,754,0
3372442,482.53,663,755,0
3372452,522.27,663,754,0
3372462,563.72,663,756,0
3372472,602.85,663,754,0
3372482,638.98,663,755,0
3372492,669.16,663,754,0
3372503,694.09,663,756,0
3372513,708.17,663,754,0
3372523,713.52,663,755,0
3372533,708.82,663,754,0
3372544,695.59,663,756,0
3372553,672.78,663,754,0
3372563,642.29,663,755,0
3372573,603.16,663,754,0
3372583,560.77,663,756,0
3372593,514.94,663,754,0
3372603,470.94,663,755,0
3372613,428.19,663,754,0
3372623,390.93,663,756,0
3372633,357.78,663,754,0
3372643,332.69,663,755,0
3372653,313.80,663,754,0
3372663,303.79,663,756,0
3372673,299.78,663,754,0
3372683,303.96,663,755,0
3372693,312.84,663,754,0
3372703,327.98,663,756,0
3372713,345.43,663,753,0
3372723,366.26,663,755,0
3372733,386.36,663,754,0
3372743,407.13,663,756,0
3372753,424.62,663,754,0
3372763,440.55,663,755,0
3372773,451.27,663,754,0
3372783,458.94,663,755,0
3372793,461.19,663,753,0
3372803,460.92,663,755,0
3372813,455.89,663,754,0
3372823,449.32,663,755,0
3372833,439.32,663,753,0
3372844,429.37,663,756,0
3372854,417.60,663,753,0
3372864,406.79,663,756,0
3372874,395.15,663,753,0
3372884,385.08,663,756,0
3372894,374.77,663,753,0
3372904,366.74,663,756,0
3372914,358.97,663,753,0
3372924,353.58,663,756,0
3372934,348.69,663,753,0
3372944,346.26,663,756,0
3372954,344.72,663,753,0
3372964,345.92,663,755,0
3372974,348.43,663,753,0
3372984,355.07,663,756,0
3372994,365.12,663,753,0
3373004,381.37,663,756,0
3373015,403.07,663,753,0
3373025,432.28,663,756,0
3373035,467.34,663,754,0
3373045,507.61,663,755,0
3373056,549.17,663,754,0
3373065,590.26,663,756,0
3373075,627.81,663,754,0
3373085,660.61,663,755,0
3373095,686.74,663,753,0
3373105,704.95,663,756,0
3373115,713.23,663,754,0
3373125,712.39,663,755,0
3373135,701.99,663,753,0
3373145,682.96,663,755,0
3373155,654.95,663,753,0
3373165,618.96,663,755,0
3373175,576.76,663,753,0
3373185,532.35,663,755,0
3373195,486.98,663,753,0
3373205,443.88,663,755,0
3373215,403.88,663,753,0
3373225,369.46,663,755,0
3373235,340.99,663,753,0
3373245,320.00,663,755,0
3373255,306.07,663,753,0
3373265,300.01,663,755,0
3373275,300.69,663,753,0
3373285,308.15,663,755,0
3373295,320.66,663,753,0
3373305,337.61,663,755,0
3373315,356.63,663,753,0
3373325,377.10,663,755,0
3373335,396.82,663,753,0
3373345,415.39,663,755,0
3373356,430.96,663,754,0
3373366,443.40,663,754,0
3373376,451.72,663,754,0
3373386,456.22,663,754,0
3373396,456.71,663,754,0
3373406,453.97,663,754,0
3373416,447.98,663,754,0
3373426,439.46,663,754,0
3373436,429.38,663,754,0
3373446,418.25,663,754,0
3373456,406.86,663,753,0
3373466,395.12,663,754,0
3373476,384.11,663,754,0
3373486,373.96,663,754,0
3373496,365.27,663,754,0
3373506,357.56,663,754,0
3373516,351.61,663,754,0
3373527,346.97,663,754,0
3373537,344.62,663,754,0
3373547,343.45,663,754,0
3373557,344.90,663,755,0
3373568,347.80,663,754,0
3373577,353.30,663,754,0
3373587,360.58,663,754,0
3373597,371.34,663,755,0
3373607,384.82,663,754,0
3373617,403.13,663,754,0
3373627,425.46,663,754,0
3373637,454.04,663,755,0
3373647,487.11,663,754,0
3373657,524.45,663,754,0
3373667,562.72,663,754,0
3373677,600.52,663,755,0
3373687,635.29,663,754,0
3373697,665.85,663,755,0
3373707,689.72,663,754,0
3373717,705.88,663,755,0
3373727,712.13,663,754,0
3373737,709.56,663,755,0
3373747,697.74,663,754,0
3373757,677.03,663,755,0
3373767,647.19,663,754,0
3373777,610.32,663,755,0
3373787,567.97,663,755,0
3373797,524.05,663,755,0
3373807,479.16,663,754,0
3373817,436.81,663,755,0
3373827,397.87,663,754,0
3373837,364.99,663,754,0
3373847,337.44,663,754,0
3373857,317.38,663,755,0
3373868,303.42,663,754,0
3373878,297.64,663,755,0
3373888,297.49,663,754,0
3373898,304.46,663,755,0
3373908,315.46,663,753,0
3373918,331.40,663,755,0
3373928,348.63,663,754,0
3373938,368.12,663,755,0
3373948,385.87,663,753,0
3373958,403.48,663,755,0
3373968,417.26,663,754,0
3373978,429.10,663,755,0
3373988,435.93,663,753,0
3373998,440.19,663,754,0
3374008,439.58,663,754,0
3374018,437.09,663,754,0
3374028,430.33,663,753,0
3374039,422.61,663,755,0
3374049,411.92,663,753,0
3374059,401.75,663,755,0
3374069,389.74,663,753,0
3374080,379.19,663,755,0
3374089,367.90,663,753,0
3374099,359.10,663,755,0
3374109,349.99,663,753,0
3374119,343.86,663,755,0
3374129,337.65,663,753,0
3374139,334.41,663,754,0
3374149,330.86,663,752,0
3374159,330.21,663,754,0
3374169,329.25,663,753,0
3374179,330.85,663,754,0
3374189,331.15,663,752,0
3374199,325.53,663,750,0
3374209,319.42,663,752,0
3374219,318.05,663,753,0
3374229,312.89,663,748,0
3374239,312.75,663,751,0
3374249,316.81,663,750,0
3374259,330.11,663,752,0
3374269,357.94,663,750,0
3374279,394.98,663,752,0
3374289,435.62,663,751,0
3374299,485.27,663,752,0
3374309,534.65,663,750,0
3374319,581.85,663,752,0
3374329,622.74,663,751,0
3374339,657.58,663,753,0
3374349,684.02,663,752,0
3374359,702.83,663,754,0
3374379,711.15,0,752,0
3374381,710.12,0,754,0
3374391,698.94,0,752,0
3374401,679.46,0,754,0
3374411,650.35,0,752,0
3374422,613.94,0,754,0
3374431,570.25,0,752,0
3374441,525.73,0,754,0
3374451,480.38,0,752,0
3374461,438.87,0,754,0
3374471,399.86,0,753,0
3374481,368.06,0,754,0
3374491,341.26,0,753,0
3374501,323.31,0,754,0
3374511,310.92,0,752,0
3374521,307.38,0,754,0
3374531,308.94,0,753,0
3374541,317.87,0,754,0
3374551,329.65,0,752,0
3374561,346.17,0,754,0
3374571,362.58,0,752,0
3374581,380.88,0,754,0
3374592,396.38,0,752,0
3374601,411.40,0,754,0
3374611,421.86,0,752,0
3374621,430.60,0,754,0
3374631,434.11,0,752,0
3374641,435.92,0,754,0
3374651,432.94,0,752,0
3374661,429.02,0,754,0
3374671,421.34,0,752,0
3374681,413.82,0,753,0
3374691,403.89,0,752,0
3374701,395.35,0,754,0
3374711,385.22,0,753,0
3374721,377.18,0,753,0
3374731,368.21,0,753,0
3374741,361.81,0,754,0
3374751,354.71,0,753,0
3374761,350.21,0,753,0
3374771,345.18,0,753,0
3374781,342.94,0,754,0
3374791,340.26,0,753,0
3374801,340.18,0,753,0
3374811,339.35,0,752,0
3374821,341.26,0,754,0
3374831,342.68,0,752,0
3374841,346.76,0,753,0
3374851,350.52,0,753,0
3374861,357.48,0,754,0
3374871,365.35,0,752,0
3374881,377.93,0,753,0
3374892,392.99,0,753,0
3374902,414.51,0,754,0
3374912,440.20,0,752,0
3374922,472.80,0,754,0
3374932,508.64,0,752,0
3374942,547.49,0,754,0
3374952,585.53,0,753,0
3374962,622.06,0,754,0
3374972,653.07,0,752,0
3374982,678.63,0,754,0
3375001,693.74,623,753,0
3375004,698.36,623,754,0
3375013,692.60,623,752,0
3375023,678.02,623,754,0
3375033,653.76,623,752,0
3375043,622.20,623,754,0
3375053,583.14,623,752,0
3375063,541.66,623,755,0
3375073,498.82,623,752,0
3375083,457.21,623,754,0
3375093,416.95,623,752,0
3375104,381.82,623,754,0
3375113,351.23,623,752,0
3375123,327.98,623,754,0
3375133,310.63,623,752,0
3375143,301.18,623,754,0
3375153,297.74,623,752,0
3375163,301.68,623,754,0
3375173,310.47,623,752,0
3375183,324.65,623,754,0
3375193,340.99,623,752,0
3375203,359.98,623,754,0
3375213,378.37,623,752,0
3375223,396.82,623,754,0
3375233,412.17,623,752,0
3375243,425.88,623,754,0
3375253,435.43,623,752,0
3375263,442.20,623,754,0
3375273,444.41,623,752,0
3375283,444.42,623,755,0
3375293,440.43,623,752,0
3375303,434.82,623,755,0
3375313,426.04,623,752,0
3375323,416.69,623,755,0
3375333,405.77,623,752,0
3375343,395.47,623,754,0
3375353,384.57,623,752,0
3375363,375.18,623,755,0
3375373,365.74,623,752,0
3375383,358.28,623,754,0
3375393,351.34,623,752,0
3375404,346.65,623,754,0
3375414,342.77,623,752,0
3375424,340.87,623,754,0
3375434,339.88,623,753,0
3375444,340.86,623,754,0
3375454,342.31,623,752,0
3375464,345.35,623,754,0
3375474,348.67,623,753,0
3375484,353.10,623,754,0
3375494,358.04,623,752,0
3375504,364.63,623,754,0
3375514,373.23,623,752,0
3375524,385.46,623,754,0
3375534,401.39,623,752,0
3375544,423.00,623,754,0
3375554,450.17,623,753,0
3375564,483.51,623,754,0
3375575,520.94,623,753,0
3375585,560.09,623,754,0
3375595,598.25,623,754,0
3375605,633.83,623,754,0
3375616,664.52,623,753,0
3375625,689.10,623,754,0
3375635,704.71,623,753,0
3375654,710.63,653,752,0
3375657,706.62,653,755,0
3375666,693.36,653,753,0
3375676,671.61,653,754,0
3375686,641.17,653,753,0
3375696,604.01,653,753,0
3375706,562.22,653,753,0
3375716,518.87,653,754,0
3375726,475.96,653,753,0
3375736,435.77,653,753,0
3375746,398.73,653,754,0
3375756,367.40,653,754,0
3375766,341.05,653,753,0
3375776,321.79,653,753,0
3375787,308.40,653,753,0
3375796,302.53,653,754,0
3375806,302.29,653,753,0
3375816,308.63,653,753,0
3375826,318.94,653,753,0
3375836,333.74,653,754,0
3375846,350.11,653,753,0
3375856,368.46,653,753,0
3375866,385.68,653,753,0
3375876,402.36,653,753,0
3375886,415.92,653,753,0
3375896,427.39,653,754,0
3375906,434.60,653,753,0
3375916,438.92,653,753,0
3375926,438.94,653,753,0
3375936,436.69,653,754,0
3375946,430.78,653,753,0
3375956,423.61,653,754,0
3375966,414.17,653,753,0
3375976,404.52,653,753,0
3375986,393.65,653,753,0
3375996,383.77,653,754,0
3376006,373.64,653,754,0
3376016,365.26,653,754,0
3376026,356.95,653,753,0
3376036,350.71,653,754,0
3376046,345.10,653,754,0
3376056,341.60,653,754,0
3376066,338.46,653,753,0
3376076,337.51,653,754,0
3376087,336.80,653,753,0
3376097,338.23,653,754,0
3376107,339.53,653,753,0
3376117,342.89,653,754,0
3376128,346.14,653,753,0
3376137,351.45,653,754,0
3376147,357.06,653,753,0
3376157,365.78,653,754,0
3376167,375.96,653,753,0
3376177,390.72,653,754,0
3376187,408.67,653,753,0
3376197,433.37,653,754,0
3376207,462.27,653,753,0
3376217,497.08,653,754,0
3376227,534.38,653,753,0
3376237,573.01,653,754,0
3376247,609.69,653,753,0
3376257,643.60,653,754,0
3376267,670.93,653,753,0
3376277,691.70,653,754,0
3376296,701.82,642,753,0
3376300,701.66,642,755,0
3376308,691.43,642,752,0
3376318,672.96,642,754,0
3376328,645.16,642,753,0
3376338,611.30,642,754,0
3376348,571.31,642,752,0
3376358,530.03,642,755,0
3376368,487.68,642,753,0
3376378,448.05,642,754,0
3376388,409.97,642,752,0
3376398,377.84,642,755,0
3376408,349.30,642,753,0
3376418,328.17,642,754,0
3376428,311.83,642,752,0
3376438,303.70,642,755,0
3376448,300.40,642,753,0
3376458,304.65,642,754,0
3376468,312.47,642,752,0
3376478,326.13,642,755,0
3376488,341.05,642,753,0
3376498,359.21,642,754,0
3376508,375.99,642,752,0
3376518,393.48,642,754,0
3376528,407.35,642,753,0
3376538,420.10,642,754,0
3376548,427.96,642,752,0
3376558,433.80,642,754,0
3376568,434.50,642,753,0
3376578,433.49,642,755,0
3376588,427.77,642,753,0
3376599,421.28,642,754,0
3376609,411.17,642,753,0
3376619,401.48,642,754,0
3376629,389.59,642,752,0
3376640,379.39,642,754,0
3376649,368.04,642,753,0
3376659,359.54,642,755,0
3376669,350.55,642,752,0
3376679,344.81,642,754,0
3376689,338.87,642,753,0
3376699,336.25,642,754,0
3376709,333.48,642,753,0
3376719,333.93,642,754,0
3376729,333.91,642,753,0
3376739,336.64,642,755,0
3376749,338.50,642,753,0
3376759,342.68,642,754,0
3376769,345.48,642,753,0
3376779,350.18,642,755,0
3376789,353.17,642,753,0
3376799,357.70,642,754,0
3376809,360.36,642,753,0
3376819,364.58,642,754,0
3376829,367.07,642,753,0
3376839,371.67,642,754,0
3376849,375.67,642,753,0
3376859,383.18,642,754,0
3376869,392.00,642,753,0
3376879,407.00,642,754,0
3376889,425.94,642,753,0
3376899,452.62,642,755,0
3376909,483.50,642,753,0
3376919,520.00,642,754,0
3376929,557.75,642,753,0
3376940,596.10,642,755,0
3376959,630.87,663,753,0
3376962,661.29,663,755,0
3376971,682.89,663,753,0
3376982,696.21,663,755,0
3376991,698.20,663,753,0
3377001,690.81,663,754,0
3377011,673.08,663,753,0
3377021,646.87,663,755,0
3377031,612.33,663,753,0
3377041,573.40,663,754,0
3377051,530.12,663,752,0
3377061,487.14,663,755,0
3377071,444.07,663,753,0
3377081,405.39,663,754,0
3377091,369.88,663,753,0
3377101,341.20,663,755,0
3377111,317.44,663,753,0
3377121,301.92,663,754,0
3377131,292.13,663,753,0
3377141,290.33,663,755,0
3377152,293.58,663,752,0
3377161,303.60,663,754,0
3377171,316.67,663,753,0
3377181,334.12,663,755,0
3377191,351.91,663,752,0
3377201,371.27,663,754,0
3377211,388.37,663,753,0
3377221,404.68,663,755,0
3377231,416.99,663,752,0
3377241,427.19,663,754,0
3377251,432.32,663,753,0
3377261,434.84,663,755,0
3377271,432.57,663,752,0
3377281,428.76,663,754,0
3377291,421.07,663,753,0
3377301,412.69,663,755,0
3377311,401.81,663,752,0
3377321,391.80,663,754,0
3377331,380.63,663,753,0
3377341,371.23,663,755,0
3377351,361.39,663,753,0
3377361,353.86,663,754,0
3377371,346.49,663,753,0
3377381,341.75,663,755,0
3377391,337.29,663,752,0
3377401,335.31,663,755,0
3377411,333.42,663,753,0
3377421,333.89,663,755,0
3377431,334.14,663,753,0
3377441,336.24,663,754,0
3377452,337.93,663,752,0
3377462,341.16,663,755,0
3377472,343.86,663,752,0
3377482,347.76,663,754,0
3377492,350.79,663,752,0
3377502,355.09,663,755,0
3377512,358.45,663,753,0
3377522,362.73,663,754,0
3377532,366.41,663,753,0
3377542,371.64,663,755,0
3377552,377.45,663,753,0
3377562,386.27,663,754,0
3377572,397.81,663,752,0
3377582,414.71,663,755,0
3377592,435.97,663,753,0
3377602,463.45,663,755,0
3377612,495.07,663,753,0
3377623,531.18,663,755,0
3377633,568.20,663,753,0
3377643,604.48,663,754,0
3377662,636.65,703,753,0
3377666,661.87,703,755,0
3377675,678.62,703,754,0
3377685,685.51,703,754,0
3377695,681.84,703,754,0
3377705,667.62,703,753,0
3377715,644.59,703,754,0
3377725,613.56,703,753,0
3377735,578.33,703,754,0
3377745,538.37,703,754,0
3377755,497.51,703,754,0
3377765,456.13,703,753,0
3377775,417.73,703,754,0
3377785,381.85,703,754,0
3377795,351.43,703,754,0
3377805,325.80,703,754,0
3377815,307.52,703,754,0
3377825,295.15,703,754,0
3377836,290.56,703,754,0
3377846,291.68,703,753,0
3377856,300.00,703,754,0
3377866,312.43,703,753,0
3377876,329.83,703,755,0
3377886,348.70,703,753,0
3377896,369.66,703,754,0
3377906,389.09,703,753,0
3377916,408.05,703,754,0
3377926,423.12,703,753,0
3377936,435.98,703,754,0
3377946,443.53,703,753,0
3377956,448.39,703,754,0
3377966,448.18,703,753,0
3377976,445.69,703,754,0
3377986,438.92,703,753,0
3377996,431.06,703,754,0
3378007,419.99,703,753,0
3378017,409.32,703,755,0
3378027,396.67,703,753,0
3378037,385.49,703,755,0
3378048,373.47,703,753,0
3378057,363.95,703,754,0
3378067,354.28,703,753,0
3378077,347.77,703,755,0
3378087,341.28,703,753,0
3378097,337.98,703,754,0
3378107,334.69,703,753,0
3378117,334.48,703,755,0
3378127,333.86,703,753,0
3378137,335.71,703,754,0
3378147,336.69,703,753,0
3378157,339.96,703,755,0
3378167,342.16,703,753,0
3378177,346.14,703,754,0
3378187,348.88,703,753,0
3378197,353.63,703,755,0
3378207,357.21,703,753,0
3378217,363.32,703,754,0
3378227,369.22,703,753,0
3378237,379.01,703,755,0
3378247,390.84,703,753,0
3378257,408.84,703,754,0
3378267,430.49,703,753,0
3378277,459.36,703,755,0
3378287,491.82,703,753,0
3378297,529.12,703,754,0
3378307,566.93,703,753,0
3378317,604.41,703,755,0
3378327,637.45,703,753,0
3378337,666.59,703,754,0
3378357,686.21,695,754,0
3378360,696.99,695,755,0
3378369,696.57,695,753,0
3378379,686.92,695,754,0
3378390,666.93,695,753,0
3378399,639.48,695,755,0
3378409,603.17,695,753,0
3378419,563.52,695,754,0
3378429,520.20,695,753,0
3378439,477.93,695,755,0
3378449,435.56,695,753,0
3378459,398.02,695,754,0
3378469,363.22,695,753,0
3378479,335.55,695,755,0
3378489,312.46,695,753,0
3378499,297.79,695,754,0
3378509,288.30,695,753,0
3378519,287.18,695,755,0
3378529,290.64,695,753,0
3378539,301.21,695,754,0
3378549,314.69,695,753,0
3378560,332.99,695,755,0
3378569,351.51,695,753,0
3378579,372.19,695,754,0
3378589,390.52,695,753,0
3378599,408.62,695,755,0
3378609,422.28,695,753,0
3378619,434.06,695,754,0
3378629,440.52,695,753,0
3378639,444.69,695,755,0
3378649,443.45,695,753,0
3378659,440.45,695,755,0
3378669,432.98,695,753,0
3378679,424.89,695,755,0
3378689,413.57,695,753,0
3378699,402.98,695,755,0
3378709,390.56,695,753,0
3378719,379.89,695,755,0
3378729,368.44,695,753,0
3378739,359.56,695,755,0
3378749,350.39,695,753,0
3378759,344.19,695,755,0
3378769,337.92,695,753,0
3378779,334.64,695,754,0
3378789,331.11,695,753,0
3378799,330.26,695,755,0
3378809,329.07,695,753,0
3378819,330.63,695,755,0
3378829,331.64,695,753,0
3378839,335.09,695,755,0
3378849,338.02,695,753,0
3378860,344.14,695,755,0
3378870,350.92,695,753,0
3378880,362.08,695,755,0
3378890,375.60,695,753,0
3378900,395.69,695,755,0
3378910,420.00,695,753,0
3378920,451.76,695,755,0
3378930,487.57,695,753,0
3378940,527.43,695,755,0
3378950,567.29,695,753,0
3378960,606.20,695,755,0
3378970,640.64,695,753,0
3378980,670.66,695,755,0
3378990,692.06,695,753,0
3379000,705.37,695,755,0
3379010,708.18,695,753,0
3379030,702.08,672,751,0
3379033,685.51,672,754,0
3379042,659.90,672,755,0
3379052,625.52,672,753,0
3379062,585.16,672,754,0
3379073,539.77,672,753,0
3379083,493.38,672,754,0
3379093,447.20,672,754,0
3379103,404.84,672,754,0
3379113,367.26,672,753,0
3379123,335.72,672,754,0
3379133,311.03,672,754,0
3379143,293.88,672,754,0
3379153,284.66,672,753,0
3379163,282.70,672,754,0
3379173,287.59,672,754,0
3379183,298.00,672,754,0
3379193,313.26,672,753,0
3379203,331.69,672,754,0
3379213,352.14,672,754,0
3379223,372.59,672,754,0
3379233,392.30,672,753,0
3379244,409.86,672,754,0
3379254,424.78,672,754,0
3379264,435.39,672,754,0
3379274,442.56,672,754,0
3379284,445.18,672,754,0
3379294,444.61,672,754,0
3379304,440.14,672,754,0
3379314,433.50,672,754,0
3379324,423.96,672,754,0
3379334,413.95,672,754,0
3379344,402.26,672,754,0
3379354,391.30,672,754,0
3379364,379.68,672,754,0
3379374,369.58,672,754,0
3379384,359.76,672,754,0
3379394,352.16,672,754,0
3379404,345.13,672,754,0
3379415,340.42,672,754,0
3379425,336.09,672,754,0
3379435,334.22,672,754,0
3379445,332.48,672,753,0
3379456,332.68,672,755,0
3379465,332.69,672,754,0
3379475,334.24,672,754,0
3379485,335.07,672,753,0
3379495,337.58,672,755,0
3379505,339.29,672,754,0
3379515,342.72,672,754,0
3379525,345.63,672,753,0
3379535,351.40,672,755,0
3379545,358.31,672,754,0
3379555,369.74,672,754,0
3379565,384.26,672,753,0
3379575,405.53,672,755,0
3379585,431.60,672,754,0
3379595,464.68,672,754,0
3379605,501.37,672,754,0
3379615,541.29,672,755,0
3379625,580.55,672,753,0
3379635,618.10,672,754,0
3379645,650.68,672,753,0
3379655,678.29,672,755,0
3379675,696.29,645,753,0
3379678,704.52,645,755,0
3379687,702.05,645,753,0
3379697,690.76,645,755,0
3379707,669.28,645,753,0
3379717,640.14,645,754,0
3379727,602.25,645,753,0
3379737,560.99,645,755,0
3379747,516.51,645,753,0
3379757,473.07,645,755,0
3379767,429.55,645,753,0
3379777,391.16,645,755,0
3379787,355.41,645,753,0
3379798,327.00,645,754,0
3379807,303.13,645,753,0
3379817,287.88,645,755,0
3379827,278.06,645,753,0
3379837,277.10,645,755,0
3379847,280.84,645,753,0
3379857,291.99,645,755,0
3379867,306.01,645,753,0
3379877,325.12,645,755,0
3379887,344.33,645,753,0
3379897,365.87,645,755,0
3379907,384.81,645,753,0
3379917,403.55,645,755,0
3379927,417.83,645,753,0
3379937,430.22,645,755,0
3379947,437.01,645,753,0
3379957,441.64,645,755,0
3379968,440.59,645,753,0
3379977,437.88,645,755,0
3379987,430.55,645,753,0
3379997,422.58,645,755,0
3380007,411.27,645,753,0
3380017,400.90,645,755,0
3380027,388.54,645,753,0
3380037,378.18,645,755,0
3380047,366.77,645,753,0
3380057,357.97,645,755,0
3380067,348.59,645,753,0
3380077,342.07,645,755,0
3380087,334.76,645,753,0
3380097,330.08,645,755,0
3380107,324.57,645,753,0
3380117,321.57,645,755,0
3380127,317.76,645,753,0
3380137,316.50,645,755,0
3380147,314.64,645,753,0
3380157,315.56,645,755,0
3380167,316.03,645,753,0
3380177,319.58,645,755,0
3380187,322.96,645,753,0
3380197,330.30,645,755,0
3380207,339.00,645,753,0
3380217,353.10,645,755,0
3380227,370.04,645,753,0
3380237,394.24,645,755,0
3380247,422.88,645,753,0
3380257,459.09,645,755,0
3380268,498.36,645,753,0
3380278,540.30,645,755,0
3380288,580.67,645,753,0
3380298,619.25,645,755,0
3380308,652.05,645,754,0
3380318,679.33,645,755,0
3380328,695.69,645,753,0
3380338,702.81,645,755,0
3380358,698.75,683,753,0
3380361,684.00,683,755,0
3380370,659.44,683,752,0
3380380,626.74,683,755,0
3380390,585.89,683,753,0
3380400,541.82,683,755,0
3380410,494.48,683,752,0
3380420,448.56,683,755,0
3380430,405.54,683,753,0
3380440,367.36,683,755,0
3380450,333.61,683,752,0
3380460,307.16,683,755,0
3380470,286.75,683,753,0
3380481,274.53,683,755,0
3380491,269.14,683,752,0
3380501,271.37,683,755,0
3380511,279.49,683,753,0
3380521,293.66,683,755,0
3380531,311.12,683,752,0
3380541,332.00,683,754,0
3380551,353.77,683,753,0
3380561,375.69,683,754,0
3380571,395.59,683,753,0
3380581,413.20,683,754,0
3380591,427.15,683,753,0
3380601,437.65,683,754,0
3380611,443.84,683,753,0
3380621,446.42,683,755,0
3380631,445.18,683,753,0
3380641,441.10,683,754,0
3380652,434.17,683,753,0
3380662,425.20,683,754,0
3380672,414.86,683,754,0
3380682,403.41,683,754,0
3380692,391.68,683,754,0
3380702,379.99,683,754,0
3380712,368.89,683,754,0
3380722,358.42,683,754,0
3380732,349.51,683,754,0
3380742,341.69,683,754,0
3380752,335.69,683,754,0
3380762,330.73,683,754,0
3380772,327.64,683,754,0
3380782,325.86,683,754,0
3380792,325.77,683,754,0
3380802,326.53,683,754,0
3380812,329.07,683,754,0
3380823,332.91,683,754,0
3380833,339.66,683,754,0
3380843,348.94,683,754,0
3380853,362.97,683,754,0
3380864,381.58,683,753,0
3380873,406.78,683,754,0
3380883,437.66,683,754,0
3380893,475.26,683,754,0
3380903,516.03,683,754,0
3380913,558.06,683,754,0
3380923,597.94,683,754,0
3380933,634.73,683,754,0
3380943,665.93,683,754,0
3380953,690.72,683,754,0
3380963,705.38,683,754,0
3380973,710.62,683,754,0
3380983,705.89,683,753,0
3380993,692.34,683,754,0
3381003,669.39,683,754,0
3381013,638.29,683,754,0
3381023,598.90,683,753,0
3381033,555.52,683,754,0
3381043,509.16,683,754,0
3381053,463.64,683,754,0
3381063,419.05,683,753,0
3381073,379.05,683,754,0
3381083,343.25,683,754,0
3381093,314.72,683,754,0
3381103,292.17,683,753,0
3381113,277.85,683,754,0
3381123,270.01,683,754,0
3381133,270.39,683,754,0
3381143,276.40,683,753,0
3381153,289.10,683,754,0
3381164,305.35,683,754,0
3381174,325.90,683,754,0
3381184,346.98,683,753,0
3381194,369.57,683,755,0
3381204,389.80,683,753,0
3381214,408.84,683,755,0
3381224,423.51,683,753,0
3381234,435.65,683,755,0
3381244,442.36,683,753,0
3381254,446.49,683,754,0
3381264,445.40,683,753,0
3381274,442.50,683,755,0
3381284,435.36,683,753,0
3381294,427.41,683,754,0
3381304,416.27,683,753,0
3381314,405.61,683,754,0
3381324,392.95,683,753,0
3381335,381.91,683,755,0
3381345,369.89,683,752,0
3381355,360.45,683,755,0
3381365,350.72,683,753,0
3381376,344.03,683,755,0
3381385,337.25,683,753,0
3381395,333.62,683,755,0
3381405,330.09,683,753,0
3381415,330.02,683,755,0
3381425,330.27,683,753,0
3381435,334.82,683,755,0
3381445,341.34,683,753,0
3381455,354.10,683,755,0
3381465,370.65,683,753,0
3381475,395.27,683,755,0
3381485,425.10,683,753,0
3381495,463.22,683,755,0
3381505,504.64,683,753,0
3381515,548.07,683,755,0
3381525,589.37,683,753,0
3381535,628.21,683,755,0
3381545,660.94,683,753,0
3381555,688.04,683,755,0
3381565,705.43,683,753,0
3381575,714.77,683,755,0
3381585,714.33,683,753,0
3381595,705.91,683,755,0
3381605,687.55,683,753,0
3381615,661.16,683,755,0
3381625,625.37,683,753,0
3381635,584.42,683,755,0
3381645,537.83,683,753,0
3381655,491.60,683,755,0
3381665,444.45,683,753,0
3381676,402.14,683,755,0
3381686,363.01,683,753,0
3381696,331.81,683,755,0
3381706,305.98,683,753,0
3381716,289.49,683,754,0
3381726,279.01,683,753,0
3381736,278.02,683,755,0
3381746,282.39,683,753,0
3381756,294.66,683,754,0
3381766,310.10,683,753,0
3381776,330.64,683,755,0
3381786,351.41,683,753,0
3381796,374.43,683,754,0
3381806,394.83,683,753,0
3381816,414.72,683,755,0
3381826,429.68,683,753,0
3381836,442.37,683,754,0
3381847,449.29,683,753,0
3381857,453.53,683,755,0
3381867,452.26,683,753,0
3381877,448.84,683,754,0
3381888,440.79,683,753,0
3381897,431.98,683,755,0
3381907,420.07,683,753,0
3381917,408.86,683,754,0
3381927,396.26,683,753,0
3381937,385.47,683,755,0
3381947,374.01,683,753,0
3381957,365.14,683,754,0
3381967,356.01,683,753,0
3381977,349.84,683,755,0
3381987,343.54,683,753,0
3381997,339.91,683,754,0
3382007,336.16,683,753,0
3382017,335.30,683,755,0
3382027,334.35,683,753,0
3382037,336.30,683,754,0
3382047,338.61,683,753,0
3382057,344.69,683,755,0
3382067,352.54,683,753,0
3382077,365.96,683,754,0
3382087,383.46,683,753,0
3382097,408.91,683,755,0
3382107,439.83,683,754,0
3382117,478.07,683,754,0
3382127,519.15,683,753,0
3382137,561.70,683,755,0
3382147,601.99,683,753,0
3382157,639.07,683,755,0
3382167,669.73,683,753,0
3382177,694.46,683,755,0
3382188,711.72,683,753,0
3382198,722.26,683,755,0
3382208,724.20,683,753,0
3382218,718.05,683,755,0
3382228,702.35,683,753,0
3382238,678.25,683,755,0
3382257,644.91,0,754,0
3382260,602.81,0,757,0
3382269,554.74,0,753,0
3382279,505.70,0,755,0
3382289,456.72,0,753,0
3382299,411.63,0,755,0
3382309,370.90,0,753,0
3382319,337.42,0,755,0
3382329,311.96,0,753,0
3382339,295.13,0,755,0
3382349,286.09,0,753,0
3382359,285.51,0,755,0
3382369,291.70,0,753,0
3382379,304.56,0,755,0
3382389,321.83,0,753,0
3382400,342.80,0,755,0
3382409,364.76,0,753,0
3382419,387.33,0,755,0
3382429,408.19,0,753,0
3382439,427.20,0,754,0
3382449,442.19,0,753,0
3382459,453.62,0,755,0
3382469,460.46,0,753,0
3382479,463.58,0,755,0
3382489,462.08,0,753,0
3382499,457.55,0,755,0
3382509,449.72,0,753,0
3382519,440.03,0,755,0
3382529,428.36,0,753,0
3382539,416.34,0,755,0
3382549,403.72,0,753,0
3382559,391.72,0,755,0
3382569,380.02,0,753,0
3382579,369.86,0,755,0
3382589,360.73,0,753,0
3382599,353.44,0,755,0
3382609,347.18,0,753,0
3382619,342.92,0,755,0
3382629,339.90,0,753,0
3382639,338.52,0,755,0
3382649,338.06,0,753,0
3382659,339.37,0,755,0
3382669,341.88,0,753,0
3382679,346.54,0,755,0
3382689,353.32,0,753,0
3382700,363.64,0,754,0
3382710,378.32,0,754,0
3382720,398.58,0,754,0
3382730,425.06,0,753,0
3382740,457.83,0,754,0
3382750,495.94,0,754,0
3382760,536.71,0,754,0
3382770,577.47,0,754,0
3382780,615.94,0,754,0
3382790,650.20,0,754,0
3382800,678.56,0,754,0
3382810,700.55,0,754,0
3382820,713.71,0,754,0
3382830,718.51,0,754,0
3382840,714.76,0,754,0
3382850,702.19,0,753,0
3382860,680.40,0,754,0
3382871,650.24,0,754,0
3382881,611.51,0,754,0
3382891,567.99,0,754,0
3382901,521.19,0,754,0
3382912,474.80,0,754,0
3382921,430.46,0,754,0
3382931,391.32,0,754,0
3382941,357.46,0,754,0
3382951,331.82,0,754,0
3382961,313.27,0,754,0
3382971,303.85,0,754,0
3382981,301.49,0,754,0
3382991,307.43,0,754,0
3383001,318.92,0,754,0
3383011,336.30,0,754,0
3383021,356.05,0,753,0
3383031,378.58,0,754,0
3383041,400.78,0,754,0
3383051,422.83,0,754,0
3383061,441.65,0,754,0
3383071,457.96,0,754,0
3383081,469.37,0,754,0
3383091,477.14,0,754,0
3383101,479.46,0,754,0
3383111,478.25,0,754,0
3383121,472.09,0,754,0
3383131,463.53,0,754,0
3383141,451.54,0,754,0
3383151,438.61,0,754,0
3383161,423.64,0,754,0
3383171,409.35,0,754,0
3383181,394.42,0,754,0
3383191,381.31,0,754,0
3383201,368.31,0,754,0
3383212,357.89,0,755,0
3383222,348.24,0,753,0
3383232,341.87,0,755,0
3383242,336.12,0,753,0
3383252,333.30,0,755,0
3383262,331.07,0,753,0
3383272,331.52,0,755,0
3383282,332.13,0,753,0
3383292,335.61,0,755,0
3383302,339.45,0,753,0
3383312,346.90,0,755,0
3383322,355.68,0,753,0
3383332,369.57,0,755,0
3383342,386.59,0,753,0
3383352,410.32,0,755,0
3383362,438.60,0,753,0
3383372,473.99,0,755,0
3383383,512.65,0,753,0
3383393,553.51,0,755,0
3383403,592.57,0,753,0
3383413,629.56,0,755,0
3383424,661.23,0,753,0
3383433,687.69,0,755,0
3383443,703.64,0,753,0
3383453,710.61,0,755,0
3383463,707.00,0,753,0
3383473,694.83,0,755,0
3383483,672.51,0,753,0
3383493,642.18,0,755,0
3383503,602.53,0,753,0
3383513,559.34,0,755,0
3383523,511.92,0,753,0
3383533,466.13,0,755,0
3383543,420.58,0,753,0
3383553,380.72,0,755,0
3383563,344.89,0,753,0
3383573,317.75,0,755,0
3383583,296.48,0,753,0
3383593,284.98,0,755,0
3383603,279.54,0,753,0
3383613,283.24,0,755,0
3383623,291.87,0,753,0
3383633,307.51,0,755,0
3383643,325.35,0,753,0
3383653,347.36,0,755,0
3383663,368.55,0,753,0
3383673,390.97,0,755,0
3383683,410.10,0,753,0
3383693,428.02,0,755,0
3383703,440.66,0,753,0
3383713,451.13,0,755,0
3383724,455.89,0,753,0
3383734,458.28,0,755,0
3383744,455.37,0,753,0
3383754,450.72,0,755,0
3383764,441.80,0,754,0
3383774,432.56,0,755,0
3383784,420.01,0,753,0
3383794,408.18,0,755,0
3383804,394.49,0,753,0
3383814,382.86,0,755,0
3383824,370.47,0,753,0
3383834,360.95,0,755,0
3383844,351.19,0,753,0
3383854,344.75,0,755,0
3383864,338.35,0,753,0
3383874,335.12,0,755,0
3383884,331.78,0,753,0
3383895,331.46,0,755,0
3383905,330.77,0,753,0
3383915,332.81,0,755,0
3383925,334.71,0,753,0
3383936,339.68,0,755,0
3383945,345.31,0,753,0
3383955,355.33,0,754,0
3383965,367.92,0,753,0
3383975,387.01,0,755,0
3383985,410.32,0,753,0
3383995,441.04,0,755,0
3384005,475.96,0,753,0
3384015,515.78,0,755,0
3384025,556.09,0,754,0
3384035,595.84,0,755,0
3384045,631.50,0,753,0
3384055,663.11,0,755,0
3384065,685.70,0,753,0
3384075,700.24,0,755,0
3384085,703.68,0,753,0
3384095,697.82,0,755,0
3384105,681.59,0,753,0
3384115,656.85,0,754,0
3384125,622.78,0,753,0
3384135,583.46,0,755,0
3384145,538.80,0,753,0
3384155,493.90,0,755,0
3384165,448.33,0,753,0
3384175,406.75,0,755,0
3384185,368.16,0,753,0
3384195,336.53,0,754,0
3384205,310.31,0,753,0
3384215,292.61,0,755,0
3384225,280.98,0,752,0
3384236,278.29,0,755,0
3384246,281.67,0,753,0
3384256,292.53,0,755,0
3384266,307.45,0,753,0
3384276,327.33,0,755,0
3384286,348.23,0,752,0
3384296,371.05,0,755,0
3384306,392.12,0,753,0
3384316,412.01,0,755,0
3384326,427.95,0,752,0
3384336,441.08,0,755,0
3384346,449.46,0,753,0
3384356,454.76,0,754,0
3384366,455.26,0,753,0
3384376,453.04,0,755,0
3384386,446.94,0,753,0
3384396,439.20,0,755,0
3384407,428.90,0,753,0
3384417,418.00,0,755,0
3384427,406.00,0,753,0
3384437,394.43,0,754,0
3384448,382.77,0,754,0
3384457,372.60,0,755,0
3384467,362.95,0,753,0
3384477,354.86,0,754,0
3384487,347.62,0,754,0
3384497,341.86,0,755,0
3384507,336.85,0,753,0
3384517,332.78,0,754,0
3384527,329.12,0,754,0
3384537,326.42,0,755,0
3384547,324.20,0,753,0
3384557,323.11,0,754,0
3384567,323.51,0,754,0
3384577,326.78,0,755,0
3384587,333.49,0,753,0
3384597,345.04,0,754,0
3384607,362.04,0,754,0
3384617,385.60,0,754,0
3384627,415.08,0,753,0
3384637,449.98,0,755,0
3384647,488.30,0,754,0
3384657,528.11,0,755,0
3384667,566.26,0,753,0
3384677,600.43,0,755,0
3384687,627.39,0,754,0
3384697,645.48,0,754,0
3384707,652.84,0,753,0
3384717,649.37,0,755,0
3384727,634.99,0,753,0
3384737,611.08,0,754,0
3384748,579.17,0,754,0
3384758,541.36,0,754,0
3384768,500.28,0,754,0
3384778,457.64,0,754,0
3384788,416.26,0,754,0
3384798,377.70,0,754,0
3384808,343.97,0,754,0
3384818,315.57,0,754,0
3384828,294.74,0,754,0
3384838,280.98,0,754,0
3384848,275.75,0,754,0
3384858,277.63,0,754,0
3384868,287.38,0,754,0
3384878,302.78,0,754,0
3384888,323.25,0,754,0
3384898,345.67,0,754,0
3384908,369.43,0,754,0
3384919,391.63,0,754,0
3384929,411.58,0,754,0
3384939,426.24,0,754,0
3384949,436.58,0,755,0
3384960,440.69,0,754,0
3384969,440.27,0,754,0
3384979,434.02,0,754,0
3384989,424.37,0,754,0
3384999,410.24,0,754,0
3385009,394.91,0,754,0
3385019,376.94,0,754,0
3385029,359.51,0,754,0
3385039,340.85,0,753,0
3385049,324.09,0,754,0
3385059,307.56,0,754,0
3385069,294.45,0,755,0
3385079,282.53,0,753,0
3385089,274.44,0,754,0
3385099,268.27,0,754,0
3385109,266.56,0,754,0
3385119,266.73,0,754,0
3385129,270.93,0,754,0
3385139,276.48,0,754,0
3385149,285.72,0,755,0
3385159,296.22,0,755,0
3385169,310.60,0,754,0
3385179,326.70,0,754,0
3385189,347.71,0,755,0
3385199,372.18,0,755,0
3385209,403.63,0,754,0
3385219,439.82,0,754,0
3385229,481.62,0,758,0
3385239,524.72,0,756,0
3385249,568.22,0,768,0
3385260,608.70,0,758,0
3385270,645.34,0,769,0
3385280,674.98,0,754,0
3385290,698.05,0,755,0
3385300,714.15,0,753,0
3385310,725.46,0,755,0
3385320,732.69,0,753,0
3385330,735.49,0,754,0
3385340,730.75,0,755,0
3385359,719.08,0,755,0
3385361,697.16,0,757,0
3385371,666.43,0,767,0
3385381,626.18,0,754,0
3385391,579.76,0,755,0
3385401,527.76,0,753,0
3385411,476.83,0,754,0
3385421,426.65,0,753,0
3385431,383.99,0,755,0
3385441,347.60,0,753,0
3385451,321.67,0,755,0
3385461,303.55,0,753,0
3385472,297.26,0,755,0
3385481,299.11,0,753,0
3385491,311.89,0,755,0
3385501,331.21,0,753,0
3385511,358.83,0,755,0
3385521,389.18,0,753,0
3385531,423.20,0,755,0
3385541,455.37,0,753,0
3385551,486.93,0,755,0
3385561,512.79,0,753,0
3385571,534.67,0,755,0
3385581,548.40,0,753,0
3385591,556.98,0,755,0
3385601,557.58,0,753,0
3385611,553.98,0,755,0
3385621,543.83,0,753,0
3385631,531.62,0,755,0
3385641,515.32,0,753,0
3385651,499.45,0,755,0
3385661,481.79,0,753,0
3385671,466.30,0,755,0
3385681,450.14,0,753,0
3385691,437.15,0,755,0
3385701,423.86,0,753,0
3385711,413.62,0,755,0
3385721,402.98,0,753,0
3385731,395.18,0,755,0
3385741,386.99,0,753,0
3385751,381.68,0,755,0
3385761,376.33,0,753,0
3385772,375.12,0,755,0
3385782,375.90,0,753,0
3385792,382.78,0,755,0
3385802,393.99,0,753,0
3385812,413.41,0,755,0
3385822,438.23,0,753,0
3385832,471.25,0,755,0
3385842,507.99,0,753,0
3385852,547.89,0,755,0
3385862,586.84,0,753,0
3385872,623.83,0,755,0
3385882,654.65,0,753,0
3385892,679.74,0,755,0
3385902,694.18,0,753,0
3385912,699.65,0,755,0
3385922,694.14,0,753,0
3385932,679.57,0,755,0
3385943,655.31,0,752,0
3385953,624.28,0,755,0
3385963,586.14,0,752,0
3385973,545.47,0,755,0
3385984,502.30,0,752,0
3385993,461.54,0,755,0
3386003,422.59,0,752,0
3386013,389.03,0,755,0
3386023,359.75,0,752,0
3386033,337.54,0,755,0
3386043,320.75,0,752,0
3386053,311.35,0,755,0
3386063,306.96,0,752,0
3386073,309.03,0,755,0
3386083,314.68,0,752,0
3386093,324.89,0,755,0
3386103,336.71,0,752,0
3386113,351.11,0,755,0
3386123,364.88,0,752,0
3386133,379.01,0,755,0
3386143,390.92,0,752,0
3386153,402.00,0,755,0
3386163,409.89,0,752,0
3386173,416.18,0,755,0
3386183,418.91,0,752,0
3386193,420.27,0,755,0
3386203,418.94,0,752,0
3386213,417.03,0,755,0
3386223,413.12,0,752,0
3386233,409.53,0,755,0
3386243,405.04,0,752,0
3386253,401.81,0,755,0
3386263,398.10,0,752,0
3386273,395.50,0,755,0
3386284,392.52,0,753,0
3386294,390.69,0,755,0
3386304,388.43,0,752,0
3386314,386.89,0,755,0
3386324,384.99,0,753,0
3386334,384.05,0,755,0
3386344,382.96,0,752,0
3386354,382.80,0,755,0
3386364,383.21,0,753,0
3386374,385.59,0,755,0
3386384,389.95,0,752,0
3386394,397.72,0,755,0
3386404,409.55,0,753,0
3386414,426.79,0,755,0
3386424,449.69,0,752,0
3386434,478.76,0,755,0
3386444,512.73,0,753,0
3386455,549.67,0,755,0
3386474,586.80,1115,753,0
3386477,622.09,1115,755,0
3386487,653.77,1115,755,0
3386497,678.83,1115,754,0
3386507,695.51,1115,754,0
3386517,701.40,1115,754,0
3386527,697.72,1115,755,0
3386537,683.58,1115,753,0
3386547,660.95,1115,754,0
3386557,629.08,1115,754,0
3386567,591.64,1115,755,0
3386577,548.50,1115,753,0
3386587,504.55,1115,754,0
3386597,459.34,1115,754,0
3386607,417.37,1115,755,0
3386617,377.23,1115,753,0
3386627,342.62,1115,755,0
3386637,312.13,1115,754,0
3386647,289.08,1115,755,0
3386657,270.97,1115,753,0
3386668,260.74,1115,755,0
3386678,255.33,1115,753,0
3386688,256.94,1115,755,0
3386698,261.85,1115,753,0
3386708,271.58,1115,755,0
3386718,282.03,1115,753,0
3386728,294.62,1115,755,0
3386738,304.94,1115,753,0
3386748,314.94,1115,755,0
3386758,320.83,1115,753,0
3386768,325.08,1115,755,0
3386778,324.29,1115,753,0
3386788,321.80,1115,755,0
3386798,315.00,1115,753,0
3386808,307.72,1115,755,0
3386818,297.34,1115,753,0
3386828,287.81,1115,755,0
3386839,276.60,1115,753,0
3386849,267.42,1115,755,0
3386859,257.56,1115,753,0
3386869,250.45,1115,755,0
3386880,242.99,1115,753,0
3386889,238.62,1115,755,0
3386899,234.06,1115,753,0
3386909,232.67,1115,755,0
3386919,231.40,1115,753,0
3386929,233.21,1115,755,0
3386939,234.95,1115,753,0
3386949,239.76,1115,755,0
3386959,244.46,1115,753,0
3386969,252.21,1115,755,0
3386979,259.90,1115,753,0
3386989,271.12,1115,755,0
3386999,283.64,1115,753,0
3387009,301.32,1115,755,0
3387019,322.27,1115,753,0
3387029,350.82,1115,755,0
3387039,384.94,1115,753,0
3387049,427.86,1115,755,0
3387059,474.36,1115,753,0
3387069,522.94,1115,755,0
3387088,569.50,614,753,0
3387091,613.23,614,757,0
3387100,650.41,614,753,0
3387110,680.89,614,755,0
3387120,702.26,614,753,0
3387130,717.27,614,755,0
3387140,727.73,614,753,0
3387150,735.14,614,755,0
3387160,738.44,614,753,0
3387170,736.85,614,755,0
3387180,727.90,614,753,0
3387190,711.77,614,755,0
3387200,686.60,614,752,0
3387210,653.80,614,755,0
3387220,612.93,614,752,0
3387230,568.42,614,755,0
3387240,521.75,614,753,0
3387250,478.41,614,755,0
3387260,438.99,614,753,0
3387270,408.09,614,755,0
3387280,384.36,614,753,0
3387290,370.54,614,755,0
3387300,363.91,614,752,0
3387310,365.91,614,755,0
3387320,373.05,614,753,0
3387330,386.15,614,755,0
3387340,401.32,614,752,0
3387351,419.39,614,756,0
3387361,436.50,614,752,0
3387371,453.24,614,755,0
3387381,466.71,614,753,0
3387392,477.77,614,755,0
3387401,484.01,614,752,0
3387411,487.22,614,756,0
3387421,485.65,614,753,0
3387431,481.43,614,755,0
3387441,473.42,614,752,0
3387451,463.95,614,756,0
3387461,452.35,614,753,0
3387471,440.59,614,756,0
3387481,427.68,614,752,0
3387491,415.73,614,755,0
3387501,403.77,614,752,0
3387511,393.43,614,755,0
3387521,383.40,614,752,0
3387531,375.48,614,755,0
3387541,368.48,614,753,0
3387551,363.71,614,755,0
3387561,359.81,614,753,0
3387571,358.07,614,755,0
3387581,357.32,614,753,0
3387591,359.15,614,755,0
3387601,362.71,614,753,0
3387611,369.95,614,755,0
3387621,380.47,614,752,0
3387631,396.61,614,755,0
3387641,418.16,614,752,0
3387651,446.74,614,755,0
3387661,480.80,614,753,0
3387671,519.39,614,756,0
3387681,559.09,614,753,0
3387692,598.32,614,755,0
3387702,634.14,614,753,0
3387712,665.38,614,755,0
3387722,690.30,614,753,0
3387732,708.04,614,755,0
3387742,717.15,614,753,0
3387752,717.66,614,755,0
3387762,709.11,614,753,0
3387772,691.25,614,754,0
3387782,664.73,614,752,0
3387792,630.10,614,755,0
3387802,588.88,614,753,0
3387812,543.66,614,754,0
3387822,497.22,614,753,0
3387832,452.20,614,755,0
3387842,410.69,614,753,0
3387852,373.71,614,754,0
3387863,342.69,614,753,0
3387873,318.01,614,754,0
3387883,301.08,614,754,0
3387893,291.28,614,754,0
3387904,289.06,614,754,0
3387913,293.20,614,754,0
3387923,303.51,614,754,0
3387933,317.84,614,753,0
3387943,336.06,614,754,0
3387953,355.37,614,754,0
3387963,375.66,614,754,0
3387973,394.32,614,753,0
3387983,411.75,614,754,0
3387993,426.01,614,754,0
3388003,437.84,614,754,0
3388013,445.51,614,753,0
3388023,450.72,614,754,0
3388033,452.34,614,754,0
3388043,452.07,614,754,0
3388053,448.96,614,753,0
3388063,444.90,614,754,0
3388073,439.02,614,755,0
3388083,433.27,614,755,0
3388093,426.55,614,754,0
3388103,420.64,614,755,0
3388113,414.32,614,753,0
3388123,409.25,614,754,0
3388133,404.08,614,754,0
3388143,400.50,614,754,0
3388153,396.66,614,754,0
3388163,394.06,614,754,0
3388173,391.26,614,754,0
3388183,390.15,614,754,0
3388193,388.99,614,753,0
3388204,389.64,614,754,0
3388214,390.26,614,753,0
3388224,393.74,614,754,0
3388234,398.70,614,753,0
3388244,408.14,614,754,0
3388254,420.52,614,755,0
3388264,439.05,614,754,0
3388274,462.22,614,753,0
3388284,492.63,614,755,0
3388294,526.90,614,753,0
3388304,563.91,614,754,0
3388314,599.90,614,753,0
3388334,634.38,0,753,0
3388337,664.35,0,753,0
3388346,689.66,0,755,0
3388356,706.39,0,754,0
3388366,715.70,0,755,0
3388376,716.05,0,753,0
3388386,709.09,0,754,0
3388396,693.08,0,752,0
3388406,669.70,0,754,0
3388417,637.60,0,752,0
3388427,600.91,0,754,0
3388437,559.11,0,755,0
3388447,517.33,0,759,0
3388457,474.89,0,757,0
3388467,435.84,0,768,0
3388477,399.76,0,754,0
3388487,371.46,0,759,0
3388497,348.74,0,753,0
3388507,334.89,0,756,0
3388517,326.86,0,755,0
3388527,327.20,0,754,0
3388537,333.23,0,753,0
3388547,345.97,0,754,0
3388557,360.47,0,755,0
3388567,378.37,0,757,0
3388577,395.10,0,753,0
3388588,412.64,0,756,0
3388598,426.81,0,749,0
3388608,439.59,0,759,0
3388618,447.73,0,754,0
3388628,453.81,0,755,0
3388638,455.07,0,755,0
3388648,454.58,0,758,0
3388658,449.95,0,754,0
3388668,444.22,0,759,0
3388678,435.37,0,760,0
3388688,426.56,0,756,0
3388698,416.28,0,753,0
3388708,407.28,0,755,0
3388718,397.55,0,753,0
3388728,389.84,0,754,0
3388738,381.83,0,753,0
3388748,376.14,0,755,0
3388759,370.23,0,753,0
3388769,366.00,0,755,0
3388779,361.29,0,754,0
3388789,358.16,0,755,0
3388800,354.85,0,753,0
3388809,353.65,0,755,0
3388819,352.39,0,753,0
3388829,353.04,0,754,0
3388839,353.97,0,753,0
3388849,356.98,0,755,0
3388859,360.42,0,753,0
3388869,366.08,0,755,0
3388879,373.12,0,754,0
3388889,383.76,0,756,0
3388899,397.20,0,753,0
3388909,415.70,0,754,0
3388919,438.33,0,753,0
3388929,466.39,0,755,0
3388939,497.43,0,753,0
3388949,531.46,0,754,0
3388959,565.31,0,753,0
3388969,597.87,0,754,0
3388979,625.38,0,753,0
3388989,646.87,0,754,0
3388999,659.34,0,753,0
3389009,662.88,0,754,0
3389028,655.71,695,753,0
3389031,638.36,695,754,0
3389040,612.54,695,754,0
3389050,580.19,695,754,0
3389060,542.63,695,754,0
3389070,502.80,695,754,0
3389080,462.27,695,755,0
3389090,423.19,695,755,0
3389100,387.95,695,755,0
3389110,356.64,695,754,0
3389120,330.64,695,755,0
3389130,310.44,695,754,0
3389140,296.98,695,755,0
3389150,290.04,695,754,0
3389160,289.94,695,754,0
3389170,295.96,695,754,0
3389180,307.76,695,756,0
3389190,323.82,695,755,0
3389200,343.29,695,758,0
3389210,364.16,695,757,0
3389220,385.75,695,755,0
3389230,406.74,695,754,0
3389240,425.55,695,756,0
3389250,440.90,695,754,0
3389260,452.63,695,754,0
3389271,459.73,695,753,0
3389281,463.07,695,754,0
3389291,461.85,695,753,0
3389301,457.22,695,754,0
3389312,449.10,695,754,0
3389321,439.21,695,754,0
3389331,426.93,695,753,0
3389341,414.31,695,755,0
3389351,399.82,695,753,0
3389361,385.77,695,754,0
3389371,370.84,695,753,0
3389381,357.47,695,755,0
3389391,343.66,695,753,0
3389401,331.85,695,754,0
3389411,320.54,695,755,0
3389421,312.19,695,756,0
3389431,304.93,695,755,0
3389441,300.71,695,756,0
3389451,298.01,695,756,0
3389461,298.99,695,755,0
3389471,301.44,695,753,0
3389481,307.14,695,755,0
3389491,313.78,695,754,0
3389501,323.15,695,755,0
3389511,333.13,695,753,0
3389521,345.82,695,754,0
3389531,359.37,695,755,0
3389541,376.23,695,757,0
3389551,394.81,695,754,0
3389561,417.66,695,754,0
3389571,442.71,695,754,0
3389581,471.47,695,756,0
3389591,500.86,695,755,0
3389601,531.80,695,755,0
3389612,560.57,695,752,0
3389622,587.44,695,757,0
3389632,608.10,695,754,0
3389642,623.58,695,754,0
3389652,630.48,695,753,0
3389662,630.85,695,757,0
3389672,622.07,695,755,0
3389682,607.09,695,762,0
3389692,584.35,695,757,0
3389702,557.46,695,768,0
3389712,525.39,695,760,0
3389722,493.22,695,758,0
3389732,459.64,695,754,0
3389742,429.32,695,757,0
3389752,400.55,695,753,0
3389762,377.20,695,756,0
3389772,357.43,695,754,0
3389783,344.74,695,756,0
3389793,335.65,695,753,0
3389803,333.10,695,754,0
3389813,333.45,695,752,0
3389824,339.62,695,755,0
3389833,347.75,695,752,0
3389843,360.51,695,754,0
3389853,373.56,695,754,0
3389863,389.59,695,754,0
3389873,404.33,695,754,0
3389883,420.30,695,754,0
3389893,433.41,695,753,0
3389903,446.19,695,756,0
3389913,454.70,695,754,0
3389923,461.86,695,756,0
3389933,463.96,695,753,0
3389943,464.19,695,756,0
3389953,459.46,695,753,0
3389963,453.41,695,754,0
3389973,443.34,695,753,0
3389983,433.30,695,755,0
3389993,420.65,695,753,0
3390003,409.57,695,755,0
3390013,397.36,695,753,0
3390023,387.69,695,755,0
3390033,377.67,695,754,0
3390043,370.74,695,755,0
3390053,363.62,695,753,0
3390063,359.40,695,755,0
3390073,354.70,695,753,0
3390083,352.52,695,755,0
3390093,349.49,695,753,0
3390103,348.83,695,755,0
3390113,347.47,695,753,0
3390124,348.95,695,755,0
3390134,350.81,695,753,0
3390144,356.74,695,755,0
3390154,364.66,695,753,0
3390164,378.26,695,755,0
3390174,394.98,695,754,0
3390184,418.22,695,755,0
3390194,444.64,695,753,0
3390204,476.03,695,755,0
3390214,507.95,695,753,0
3390224,541.35,695,755,0
3390234,571.50,695,753,0
3390244,599.00,695,755,0
3390254,619.14,695,754,0
3390264,633.15,695,755,0
3390274,637.52,695,753,0
3390284,634.67,695,755,0
3390295,622.08,695,752,0
3390305,602.90,695,755,0
3390315,576.32,695,753,0
3390325,545.71,695,755,0
3390336,510.48,695,753,0
3390345,474.51,695,755,0
3390355,437.11,695,752,0
3390365,401.76,695,755,0
3390375,368.06,695,752,0
3390385,338.43,695,755,0
3390395,312.12,695,752,0
3390405,291.55,695,755,0
3390415,275.74,695,752,0
3390425,266.73,695,755,0
3390435,262.87,695,753,0
3390445,265.44,695,755,0
3390455,272.64,695,753,0
3390465,285.52,695,756,0
3390475,301.43,695,753,0
3390485,320.76,695,755,0
3390495,341.19,695,753,0
3390505,363.16,695,755,0
3390515,384.24,695,754,0
3390525,405.04,695,755,0
3390535,423.16,695,752,0
3390545,439.44,695,755,0
3390555,452.04,695,753,0
3390565,461.80,695,755,0
3390575,467.26,695,752,0
3390585,469.71,695,755,0
3390595,468.00,695,753,0
3390605,464.10,695,756,0
3390615,457.08,695,753,0
3390625,448.57,695,755,0
3390636,437.99,695,753,0
3390646,427.06,695,755,0
3390656,415.47,695,755,0
3390666,404.27,695,755,0
3390676,393.18,695,755,0
3390686,383.35,695,755,0
3390696,374.50,695,754,0
3390706,367.32,695,755,0
3390716,361.91,695,754,0
3390726,358.77,695,755,0
3390736,358.32,695,754,0
3390746,361.31,695,755,0
3390756,368.59,695,755,0
3390766,381.06,695,755,0
3390776,399.04,695,755,0
3390786,422.94,695,755,0
3390796,452.40,695,757,0
3390807,486.65,695,756,0
3390817,523.79,695,756,0
3390827,561.35,695,754,0
3390837,597.24,695,756,0
3390848,628.89,695,754,0
3390857,654.12,695,755,0
3390867,671.23,695,754,0
3390877,679.22,695,755,0
3390887,677.35,695,753,0
3390897,666.62,695,754,0
3390907,647.23,695,755,0
3390917,621.36,695,755,0
3390927,589.37,695,754,0
3390937,553.86,695,756,0
3390947,515.80,695,755,0
3390957,477.85,695,756,0
3390967,440.26,695,755,0
3390977,405.43,695,756,0
3390987,373.67,695,754,0
3390997,347.07,695,756,0
3391007,324.81,695,755,0
3391017,308.66,695,754,0
3391027,297.54,695,754,0
3391037,292.49,695,755,0
3391047,291.79,695,753,0
3391057,295.88,695,755,0
3391067,302.86,695,753,0
3391077,313.06,695,755,0
3391087,324.05,695,753,0
3391097,336.68,695,755,0
3391107,348.86,695,753,0
3391117,361.08,695,754,0
3391127,371.25,695,753,0
3391137,380.61,695,754,0
3391148,387.32,695,753,0
3391158,393.10,695,756,0
3391168,395.60,695,754,0
3391178,397.09,695,755,0
3391188,395.69,695,753,0
3391198,393.98,695,756,0
3391208,389.87,695,753,0
3391218,386.18,695,755,0
3391228,380.30,695,752,0
3391238,375.37,695,755,0
3391248,368.87,695,753,0
3391258,363.81,695,756,0
3391268,357.27,695,753,0
3391278,352.17,695,755,0
3391288,345.78,695,753,0
3391298,341.56,695,755,0
3391308,336.51,695,753,0
3391319,333.78,695,755,0
3391329,330.72,695,753,0
3391339,331.06,695,755,0
3391349,332.33,695,753,0
3391360,338.44,695,755,0
3391369,346.80,695,753,0
3391379,361.60,695,755,0
3391389,380.32,695,752,0
3391399,406.84,695,755,0
3391409,437.14,695,753,0
3391419,473.79,695,755,0
3391429,511.69,695,753,0
3391439,551.94,695,755,0
3391458,589.07,0,754,0
3391460,623.21,0,755,0
3391470,649.16,0,753,0
3391480,668.74,0,755,0
3391490,677.39,0,753,0
3391500,678.17,0,755,0
3391510,668.14,0,753,0
3391520,650.99,0,755,0
3391531,625.50,0,753,0
3391540,596.08,0,755,0
3391550,561.04,0,753,0
3391560,525.50,0,755,0
3391570,487.72,0,753,0
3391580,452.70,0,756,0
3391590,418.34,0,755,0
3391600,388.96,0,760,0
3391610,361.85,0,758,0
3391620,340.16,0,767,0
3391630,321.56,0,762,0
3391640,308.70,0,768,0
3391650,299.32,0,765,0
3391660,295.88,0,768,0
3391670,295.49,0,765,0
3391680,300.36,0,768,0
3391690,308.95,0,754,0
3391700,323.15,0,755,0
3391710,339.43,0,753,0
3391720,358.98,0,754,0
3391730,378.35,0,753,0
3391740,398.90,0,754,0
3391750,417.28,0,754,0
3391760,434.51,0,754,0
3391770,446.70,0,755,0
3391780,456.82,0,758,0
3391790,461.67,0,753,0
3391800,464.60,0,756,0
3391810,462.79,0,754,0
3391820,459.68,0,755,0
3391831,452.49,0,753,0
3391841,444.89,0,755,0
3391851,434.51,0,752,0
3391861,424.67,0,755,0
3391872,413.15,0,753,0
3391881,403.29,0,754,0
3391891,392.49,0,753,0
3391901,383.64,0,755,0
3391911,374.45,0,753,0
3391921,367.59,0,756,0
3391931,360.68,0,752,0
3391941,356.06,0,755,0
3391951,351.63,0,752,0
3391961,350.20,0,755,0
3391971,350.27,0,752,0
3391981,354.90,0,755,0
3391991,362.73,0,752,0
3392001,376.78,0,755,0
3392011,395.49,0,752,0
3392021,421.32,0,756,0
3392031,451.78,0,752,0
3392041,487.80,0,755,0
3392051,525.32,0,752,0
3392061,564.18,0,756,0
3392071,600.00,0,751,0
3392081,632.23,0,756,0
3392091,656.72,0,752,0
3392101,673.73,0,756,0
3392111,680.58,0,752,0
3392121,679.16,0,755,0
3392131,668.44,0,756,0
3392141,651.38,0,757,0
3392151,627.65,0,760,0
3392161,599.26,0,761,0
3392172,567.89,0,767,0
3392182,536.13,0,756,0
3392192,504.20,0,753,0
3392202,473.84,0,755,0
3392212,444.66,0,753,0
3392222,418.19,0,756,0
3392232,394.65,0,753,0
3392242,373.97,0,755,0
3392252,356.02,0,753,0
3392262,341.40,0,756,0
3392272,329.62,0,752,0
3392282,321.21,0,754,0
3392292,315.83,0,756,0
3392302,314.12,0,756,0
3392312,314.86,0,756,0
3392322,317.94,0,756,0
3392332,322.72,0,753,0
3392343,328.85,0,755,0
3392353,335.53,0,754,0
3392363,341.93,0,754,0
3392373,347.57,0,754,0
3392384,351.64,0,754,0
3392393,353.98,0,754,0
3392403,353.81,0,754,0
3392413,351.73,0,754,0
3392423,347.22,0,754,0
3392433,341.67,0,754,0
3392443,334.83,0,754,0
3392453,328.28,0,754,0
3392463,321.68,0,754,0
3392473,316.50,0,754,0
3392483,312.45,0,755,0
3392493,310.86,0,754,0
3392503,310.86,0,754,0
3392513,313.17,0,757,0
3392523,316.94,0,755,0
3392533,322.83,0,768,0
3392543,328.71,0,756,0
3392553,335.95,0,769,0
3392563,343.42,0,754,0
3392573,353.11,0,754,0
3392583,364.43,0,755,0
3392593,379.13,0,754,0
3392603,396.88,0,754,0
3392613,420.27,0,754,0
3392623,448.13,0,755,0
3392643,481.56,1184,753,0
3392646,517.87,1184,754,0
3392656,556.01,1184,755,0
3392666,593.03,1184,753,0
3392676,627.87,1184,758,0
3392686,658.46,1184,756,0
3392696,684.21,1184,767,0
3392706,702.70,1184,753,0
3392716,714.71,1184,755,0
3392727,718.01,1184,753,0
3392737,714.36,1184,755,0
3392747,702.17,1184,754,0
3392757,683.05,1184,755,0
3392768,655.73,1184,753,0
3392777,623.88,1184,755,0
3392787,586.33,1184,753,0
3392797,548.26,1184,755,0
3392807,508.50,1184,753,0
3392817,471.79,1184,755,0
3392827,436.41,1184,753,0
3392837,406.29,1184,755,0
3392847,378.94,1184,753,0
3392857,357.75,1184,755,0
3392867,340.04,1184,753,0
3392877,328.80,1184,755,0
3392887,321.02,1184,753,0
3392897,319.42,1184,755,0
3392907,320.63,1184,753,0
3392917,326.82,1184,755,0
3392927,334.42,1184,753,0
3392937,345.39,1184,755,0
3392947,356.08,1184,753,0
3392957,368.44,1184,755,0
3392967,378.94,1184,753,0
3392977,389.71,1184,755,0
3392987,397.47,1184,753,0
3392997,404.70,1184,755,0
3393007,408.60,1184,753,0
3393017,411.77,1184,754,0
3393027,411.54,1184,753,0
3393037,410.90,1184,755,0
3393047,407.25,1184,753,0
3393057,403.32,1184,754,0
3393068,396.96,1184,753,0
3393078,390.97,1184,755,0
3393088,383.35,1184,753,0
3393098,376.78,1184,755,0
3393108,369.60,1184,753,0
3393118,364.02,1184,755,0
3393128,357.89,1184,753,0
3393138,353.72,1184,755,0
3393148,349.48,1184,752,0
3393158,347.53,1184,755,0
3393168,345.92,1184,753,0
3393178,346.76,1184,755,0
3393188,349.36,1184,752,0
3393198,356.66,1184,755,0
3393208,366.97,1184,753,0
3393218,383.09,1184,755,0
3393228,403.72,1184,752,0
3393239,431.02,1184,756,0
3393249,462.30,1184,752,0
3393259,497.99,1184,755,0
3393269,534.60,1184,752,0
3393280,571.62,1184,756,0
3393298,604.95,656,754,0
3393301,632.48,656,755,0
3393310,652.31,656,753,0
3393320,663.91,656,755,0
3393330,665.95,656,752,0
3393340,659.32,656,754,0
3393350,644.10,656,753,0
3393360,621.87,656,754,0
3393370,595.04,656,752,0
3393380,564.38,656,755,0
3393390,531.40,656,753,0
3393400,497.59,656,755,0
3393410,464.11,656,752,0
3393420,432.58,656,755,0
3393430,404.08,656,753,0
3393440,378.94,656,755,0
3393451,357.62,656,753,0
3393460,340.72,656,755,0
3393470,328.46,656,753,0
3393480,320.86,656,755,0
3393490,317.78,656,754,0
3393500,318.79,656,755,0
3393510,323.44,656,753,0
3393520,331.11,656,755,0
3393530,341.32,656,754,0
3393540,353.05,656,755,0
3393550,365.68,656,753,0
3393560,378.12,656,755,0
3393570,390.00,656,754,0
3393580,400.67,656,755,0
3393590,409.55,656,753,0
3393600,416.07,656,755,0
3393610,420.34,656,753,0
3393620,421.99,656,754,0
3393630,421.52,656,753,0
3393640,418.97,656,755,0
3393650,414.78,656,754,0
3393660,409.14,656,754,0
3393670,402.67,656,753,0
3393680,395.48,656,755,0
3393690,388.40,656,754,0
3393700,380.95,656,754,0
3393710,373.85,656,753,0
3393720,367.00,656,755,0
3393730,361.04,656,754,0
3393740,355.37,656,754,0
3393751,350.76,656,754,0
3393761,346.33,656,754,0
3393771,343.32,656,754,0
3393781,340.57,656,754,0
3393792,339.32,656,754,0
3393801,339.01,656,754,0
3393811,341.45,656,754,0
3393821,346.24,656,754,0
3393831,355.81,656,754,0
3393841,369.33,656,754,0
3393851,389.03,656,754,0
3393861,413.62,656,754,0
3393871,444.29,656,754,0
3393881,478.45,656,754,0
3393891,515.77,656,754,0
3393901,552.44,656,754,0
3393921,587.79,622,753,0
3393924,617.04,622,754,0
3393933,640.69,622,755,0
3393943,655.01,622,753,0
3393953,661.22,622,754,0
3393964,657.00,622,753,0
3393974,644.96,622,755,0
3393984,623.97,622,753,0
3393994,598.56,622,755,0
3394004,567.19,622,753,0
3394014,534.39,622,755,0
3394024,499.00,622,753,0
3394034,465.45,622,755,0
3394044,432.23,622,753,0
3394054,403.27,622,755,0
3394064,376.45,622,753,0
3394074,355.14,622,755,0
3394084,336.80,622,753,0
3394094,324.69,622,755,0
3394104,315.87,622,753,0
3394114,313.12,622,754,0
3394124,313.26,622,753,0
3394135,318.62,622,755,0
3394145,325.76,622,753,0
3394155,336.68,622,754,0
3394165,347.79,622,753,0
3394176,360.88,622,755,0
3394185,372.57,622,753,0
3394195,384.79,622,754,0
3394205,394.41,622,753,0
3394215,403.46,622,755,0
3394225,409.28,622,753,0
3394235,414.12,622,754,0
3394245,415.63,622,753,0
3394255,416.43,622,755,0
3394265,414.20,622,753,0
3394275,411.70,622,754,0
3394285,406.90,622,753,0
3394295,402.52,622,755,0
3394305,396.32,622,753,0
3394315,391.17,622,755,0
3394325,384.73,622,753,0
3394335,379.58,622,755,0
3394345,373.58,622,753,0
3394355,369.08,622,755,0
3394365,363.70,622,753,0
3394375,359.97,622,755,0
3394385,355.65,622,753,0
3394395,353.10,622,755,0
3394405,350.16,622,753,0
3394415,349.17,622,755,0
3394425,348.43,622,753,0
3394435,350.87,622,755,0
3394445,354.94,622,753,0
3394455,363.66,622,755,0
3394465,375.50,622,752,0
3394476,393.48,622,755,0
3394486,415.67,622,752,0
3394496,443.75,622,756,0
3394506,474.73,622,752,0
3394516,508.97,622,756,0
3394526,542.36,622,752,0
3394545,574.87,625,751,0
3394548,601.74,625,754,0
3394557,622.94,625,755,0
3394567,635.69,625,752,0
3394577,640.71,625,756,0
3394587,636.55,625,752,0
3394597,624.77,625,755,0
3394607,605.17,625,752,0
3394617,580.82,625,755,0
3394627,552.12,625,752,0
3394637,521.05,625,755,0
3394647,488.34,625,752,0
3394657,456.31,625,755,0
3394667,425.70,625,752,0
3394677,397.72,625,755,0
3394688,372.65,625,753,0
3394697,351.62,625,755,0
3394707,334.72,625,752,0
3394717,322.63,625,755,0
3394727,314.90,625,753,0
3394737,311.85,625,756,0
3394747,312.92,625,752,0
3394757,317.87,625,755,0
3394767,325.67,625,753,0
3394777,336.01,625,756,0
3394787,347.49,625,752,0
3394797,359.65,625,755,0
3394807,371.45,625,753,0
3394817,382.63,625,755,0
3394827,392.26,625,753,0
3394837,400.11,625,755,0
3394847,405.73,625,753,0
3394857,409.11,625,755,0
3394867,410.19,625,752,0
3394877,409.41,625,755,0
3394887,406.84,625,752,0
3394897,402.99,625,755,0
3394907,398.06,625,753,0
3394917,392.64,625,755,0
3394927,387.09,625,753,0
3394937,381.54,625,755,0
3394947,375.85,625,753,0
3394957,370.28,625,755,0
3394967,365.01,625,753,0
3394977,359.99,625,755,0
3394988,355.28,625,754,0
3394998,350.70,625,754,0
3395008,346.67,625,753,0
3395018,342.91,625,754,0
3395028,340.24,625,754,0
3395038,338.15,625,754,0
3395048,337.64,625,754,0
3395058,338.52,625,754,0
3395068,342.65,625,754,0
3395078,349.78,625,754,0
3395088,361.63,625,753,0
3395098,377.56,625,754,0
3395108,399.03,625,754,0
3395118,424.74,625,754,0
3395128,454.64,625,753,0
3395138,486.42,625,754,0
3395148,519.64,625,754,0
3395168,551.12,623,753,0
3395171,579.54,623,756,0
3395180,601.92,623,753,0
3395190,618.44,623,755,0
3395201,626.54,623,753,0
3395211,627.32,623,755,0
3395221,618.82,623,753,0
3395231,603.83,623,755,0
3395241,581.73,623,754,0
3395251,556.09,623,755,0
3395261,525.89,623,753,0
3395271,495.37,623,755,0
3395281,463.29,623,753,0
3395291,433.67,623,754,0
3395301,404.84,623,754,0
3395311,380.50,623,755,0
3395321,358.32,623,753,0
3395331,341.68,623,755,0
3395341,328.02,623,753,0
3395351,320.09,623,755,0
3395361,315.09,623,753,0
3395372,315.66,623,755,0
3395382,318.55,623,753,0
3395392,325.97,623,755,0
3395402,334.68,623,753,0
3395412,346.65,623,755,0
3395422,358.32,623,753,0
3395432,371.77,623,755,0
3395442,383.28,623,753,0
3395452,394.94,623,755,0
3395462,403.44,623,753,0
3395472,410.85,623,755,0
3395482,414.50,623,753,0
3395492,416.96,623,755,0
3395502,415.86,623,753,0
3395512,414.06,623,755,0
3395522,409.28,623,753,0
3395532,404.31,623,755,0
3395543,397.19,623,753,0
3395553,390.66,623,755,0
3395563,383.18,623,753,0
3395573,376.87,623,755,0
3395584,369.88,623,752,0
3395593,364.51,623,755,0
3395603,358.96,623,753,0
3395613,355.33,623,756,0
3395623,351.54,623,752,0
3395633,349.41,623,755,0
3395643,347.36,623,753,0
3395653,347.51,623,756,0
3395663,348.64,623,752,0
3395673,353.03,623,755,0
3395683,359.41,623,753,0
3395693,370.17,623,756,0
3395703,383.96,623,752,0
3395713,402.92,623,755,0
3395723,424.89,623,753,0
3395733,450.93,623,756,0
3395743,478.25,623,752,0
3395753,506.93,623,756,0
3395763,533.61,623,753,0
3395773,558.33,623,756,0
3395792,577.56,624,754,0
3395795,590.89,624,756,0
3395804,597.18,624,752,0
3395814,596.96,624,756,0
3395824,588.95,624,752,0
3395834,575.04,624,756,0
3395844,554.97,624,752,0
3395854,531.41,624,756,0
3395864,505.19,624,752,0
3395874,477.23,624,756,0
3395884,448.40,624,752,0
3395894,421.07,624,756,0
3395904,395.20,624,752,0
3395914,372.34,624,756,0
3395924,352.18,624,752,0
3395934,336.06,624,756,0
3395944,323.70,624,752,0
3395954,315.73,624,756,0
3395964,311.48,624,752,0
3395974,311.47,624,756,0
3395984,314.41,624,751,0
3395994,320.63,624,756,0
3396004,328.93,624,752,0
3396014,339.24,624,756,0
3396024,350.18,624,751,0
3396034,361.65,624,755,0
3396044,372.51,624,752,0
3396055,382.90,624,755,0
3396065,391.93,624,752,0
3396075,399.32,624,756,0
3396085,404.80,624,754,0
3396096,408.46,624,754,0
3396105,410.12,624,752,0
3396115,410.34,624,755,0
3396125,409.13,624,754,0
3396135,406.30,624,754,0
3396145,402.70,624,753,0
3396155,398.12,624,755,0
3396165,393.32,624,754,0
3396175,387.96,624,754,0
3396185,382.40,624,752,0
3396195,376.66,624,755,0
3396205,371.58,624,754,0
3396215,366.78,624,754,0
3396225,362.99,624,753,0
3396235,360.12,624,755,0
3396245,359.23,624,754,0
3396255,360.49,624,754,0
3396265,365.10,624,754,0
3396275,373.00,624,755,0
3396285,385.13,624,754,0
3396295,401.29,624,755,0
3396305,421.99,624,754,0
3396315,446.25,624,755,0
3396325,473.26,624,754,0
3396335,500.95,624,755,0
3396345,528.52,624,754,0
3396355,553.74,624,755,0
3396365,575.46,624,754,0
3396384,591.52,592,753,0
3396387,600.97,592,755,0
3396396,603.42,592,754,0
3396406,599.44,592,754,0
3396416,588.29,592,754,0
3396426,571.96,592,754,0
3396436,550.16,592,754,0
3396446,525.55,592,754,0
3396456,498.77,592,754,0
3396466,471.80,592,754,0
3396476,444.52,592,754,0
3396486,419.63,592,754,0
3396496,396.43,592,754,0
3396506,377.49,592,754,0
3396516,361.40,592,754,0
3396526,350.09,592,754,0
3396536,341.96,592,754,0
3396546,338.80,592,754,0
3396556,338.56,592,754,0
3396567,342.85,592,754,0
3396577,349.02,592,754,0
3396587,358.57,592,755,0
3396597,368.94,592,753,0
3396608,381.43,592,755,0
3396617,393.09,592,754,0
3396627,405.45,592,755,0
3396637,415.30,592,753,0
3396647,424.90,592,755,0
3396657,431.31,592,754,0
3396667,436.75,592,755,0
3396677,438.67,592,753,0
3396687,439.71,592,755,0
3396697,437.70,592,754,0
3396707,435.26,592,755,0
3396717,430.12,592,753,0
3396727,425.16,592,755,0
3396737,418.21,592,754,0
3396747,412.10,592,755,0
3396757,404.53,592,753,0
3396767,398.24,592,755,0
3396777,391.14,592,753,0
3396787,385.96,592,755,0
3396797,380.61,592,753,0
3396807,378.29,592,755,0
3396817,377.26,592,753,0
3396827,380.74,592,755,0
3396837,386.82,592,753,0
3396847,398.70,592,755,0
3396857,414.13,592,753,0
3396867,435.35,592,755,0
3396877,459.12,592,753,0
3396887,486.60,592,755,0
3396897,513.93,592,753,0
3396908,541.68,592,755,0
3396918,565.43,592,753,0
3396928,586.13,592,755,0
3396938,599.94,592,753,0
3396958,608.40,573,752,0
3396961,608.28,573,752,0
3396970,602.58,573,755,0
3396980,589.25,573,753,0
3396990,571.52,573,756,0
3397000,548.30,573,753,0
3397010,523.23,573,755,0
3397020,495.30,573,753,0
3397030,468.43,573,756,0
3397040,441.21,573,753,0
3397050,417.15,573,755,0
3397060,394.95,573,753,0
3397070,377.09,573,755,0
3397080,362.15,573,753,0
3397090,352.42,573,755,0
3397100,346.16,573,753,0
3397110,345.13,573,755,0
3397121,346.85,573,751,0
3397131,352.81,573,756,0
3397141,360.67,573,752,0
3397151,371.31,573,756,0
3397161,382.49,573,752,0
3397171,394.60,573,756,0
3397181,405.30,573,752,0
3397191,415.71,573,756,0
3397201,424.07,573,752,0
3397211,431.42,573,756,0
3397221,436.14,573,752,0
3397231,439.14,573,756,0
3397241,439.61,573,752,0
3397251,438.87,573,756,0
3397261,436.00,573,752,0
3397271,432.14,573,756,0
3397281,426.31,573,752,0
3397292,420.00,573,755,0
3397302,412.89,573,752,0
3397312,405.98,573,755,0
3397322,399.21,573,752,0
3397332,393.58,573,755,0
3397342,389.20,573,752,0
3397352,387.69,573,755,0
3397362,389.67,573,752,0
3397372,396.24,573,755,0
3397382,407.99,573,752,0
3397392,425.61,573,755,0
3397402,449.38,573,752,0
3397412,479.05,573,755,0
3397422,513.07,573,752,0
3397432,549.78,573,755,0
3397442,586.53,573,753,0
3397452,621.38,573,755,0
3397463,652.47,573,754,0
3397473,677.27,573,755,0
3397492,694.33,535,753,0
3397495,701.56,535,754,0
3397505,700.11,535,755,0
3397515,689.70,535,754,0
3397525,671.84,535,755,0
3397535,645.91,535,753,0
3397545,615.08,535,755,0
3397555,579.79,535,754,0
3397565,544.28,535,754,0
3397575,507.42,535,753,0
3397585,473.10,535,755,0
3397595,440.50,535,754,0
3397605,413.05,535,755,0
3397615,389.03,535,753,0
3397625,371.28,535,755,0
3397635,357.74,535,754,0
3397645,350.79,535,755,0
3397655,347.77,535,753,0
3397665,350.58,535,755,0
3397676,356.15,535,753,0
3397686,366.09,535,755,0
3397696,376.99,535,753,0
3397706,390.41,535,755,0
3397716,402.80,535,753,0
3397726,415.85,535,755,0
3397736,426.18,535,753,0
3397746,435.77,535,755,0
3397756,441.75,535,753,0
3397766,446.50,535,755,0
3397776,447.59,535,753,0
3397786,447.67,535,755,0
3397796,444.30,535,753,0
3397806,440.52,535,755,0
3397816,433.89,535,753,0
3397826,427.54,535,755,0
3397836,418.94,535,753,0
3397847,410.94,535,755,0
3397857,401.36,535,753,0
3397867,393.11,535,755,0
3397877,383.99,535,753,0
3397888,377.22,535,755,0
3397897,370.73,535,753,0
3397907,368.15,535,755,0
3397917,367.76,535,753,0
3397927,373.23,535,755,0
3397937,382.76,535,753,0
3397947,399.76,535,755,0
3397957,421.99,535,753,0
3397967,451.52,535,755,0
3397977,484.58,535,753,0
3397987,521.95,535,755,0
3397997,558.95,535,753,0
3398007,595.56,535,755,0
3398017,626.72,535,753,0
3398027,652.74,535,755,0
3398046,669.40,554,754,0
3398049,677.42,554,756,0
3398059,675.32,554,752,0
3398068,665.46,554,755,0
3398078,646.38,554,753,0
3398088,621.66,554,755,0
3398098,590.82,554,752,0
3398108,558.05,554,755,0
3398118,523.36,554,753,0
3398128,489.18,554,755,0
3398138,454.97,554,752,0
3398148,424.29,554,755,0
3398158,395.96,554,753,0
3398168,372.27,554,756,0
3398178,351.71,554,752,0
3398188,336.67,554,755,0
3398198,325.37,554,753,0
3398208,319.68,554,755,0
3398218,317.34,554,752,0
3398228,319.68,554,756,0
3398238,324.53,554,753,0
3398248,332.82,554,755,0
3398258,341.91,554,752,0
3398268,353.00,554,756,0
3398278,363.58,554,753,0
3398288,374.72,554,756,0
3398298,384.11,554,752,0
3398308,392.86,554,756,0
3398318,399.07,554,753,0
3398328,404.32,554,756,0
3398338,406.58,554,752,0
3398348,407.44,554,756,0
3398359,405.55,554,752,0
3398369,402.56,554,756,0
3398379,397.55,554,752,0
3398389,391.94,554,756,0
3398400,384.89,554,752,0
3398409,377.98,554,756,0
3398419,370.14,554,752,0
3398429,362.51,554,755,0
3398439,354.60,554,752,0
3398449,347.56,554,756,0
3398459,340.58,554,752,0
3398469,334.79,554,755,0
3398479,330.05,554,752,0
3398489,328.02,554,756,0
3398499,328.49,554,752,0
3398509,332.76,554,756,0
3398519,340.59,554,752,0
3398529,353.48,554,756,0
3398539,370.65,554,752,0
3398549,392.53,554,755,0
3398559,417.57,554,752,0
3398569,445.43,554,755,0
3398579,473.71,554,752,0
3398589,501.31,554,755,0
3398599,525.82,554,752,0
3398609,546.23,554,755,0
3398628,560.56,582,754,0
3398631,567.42,582,755,0
3398640,567.51,582,753,0
3398650,560.71,582,754,0
3398660,547.77,582,752,0
3398670,529.93,582,755,0
3398680,508.31,582,753,0
3398690,483.96,582,755,0
3398700,459.33,582,753,0
3398710,434.24,582,754,0
3398720,410.43,582,754,0
3398730,388.06,582,755,0
3398740,368.11,582,754,0
3398750,350.63,582,755,0
3398760,336.56,582,753,0
3398770,325.33,582,754,0
3398780,317.56,582,754,0
3398790,312.81,582,754,0
3398800,311.24,582,753,0
3398810,311.98,582,755,0
3398820,315.33,582,754,0
3398830,320.16,582,754,0
3398840,326.54,582,753,0
3398850,333.02,582,754,0
3398860,339.96,582,754,0
3398871,346.10,582,754,0
3398881,351.98,582,754,0
3398891,356.15,582,754,0
3398901,359.53,582,754,0
3398912,360.96,582,754,0
3398921,361.74,582,754,0
3398931,360.58,582,754,0
3398941,358.95,582,754,0
3398951,355.45,582,754,0
3398961,351.89,582,754,0
3398971,347.08,582,754,0
3398981,342.90,582,754,0
3398991,337.66,582,753,0
3399001,333.22,582,754,0
3399011,328.31,582,754,0
3399021,324.79,582,754,0
3399031,320.87,582,753,0
3399041,318.29,582,754,0
3399051,315.38,582,754,0
3399061,314.06,582,754,0
3399071,312.37,582,754,0
3399081,312.09,582,754,0
3399091,311.42,582,754,0
3399101,312.41,582,754,0
3399111,313.40,582,754,0
3399121,316.54,582,754,0
3399131,320.28,582,754,0
3399141,326.96,582,754,0
3399151,334.90,582,754,0
3399161,346.12,582,754,0
3399171,358.68,582,754,0
3399181,373.95,582,754,0
3399191,389.48,582,754,0
3399201,406.39,582,754,0
3399212,421.87,582,754,0
3399222,436.87,582,755,0
3399232,448.35,582,753,0
3399242,457.80,582,755,0
3399252,462.62,582,753,0
3399262,464.92,582,755,0
3399272,462.33,582,753,0
3399282,457.39,582,755,0
3399292,448.14,582,753,0
3399302,437.77,582,755,0
3399312,424.43,582,753,0
3399322,411.18,582,755,0
3399332,396.00,582,753,0
3399342,382.11,582,755,0
3399352,367.47,582,753,0
3399362,355.20,582,755,0
3399372,343.27,582,753,0
3399383,334.40,582,755,0
3399393,326.31,582,753,0
3399403,321.63,582,755,0
3399413,317.76,582,753,0
3399424,317.06,582,755,0
3399433,316.61,582,753,0
3399443,318.61,582,755,0
3399453,320.19,582,753,0
3399463,323.73,582,755,0
3399473,326.43,582,753,0
3399483,330.63,582,755,0
3399493,333.44,582,753,0
3399503,337.51,582,755,0
3399513,339.93,582,753,0
3399523,343.42,582,755,0
3399533,344.97,582,753,0
3399543,347.03,582,755,0
3399553,346.89,582,753,0
3399563,347.48,582,754,0
3399573,346.10,582,753,0
3399583,345.42,582,755,0
3399593,342.77,582,753,0
3399603,341.25,582,754,0
3399613,338.39,582,753,0
3399623,336.99,582,755,0
3399633,334.38,582,753,0
3399643,333.49,582,754,0
3399653,331.46,582,753,0
3399663,331.11,582,755,0
3399673,329.45,582,753,0
3399683,329.36,582,755,0
3399693,328.05,582,753,0
3399703,328.16,582,755,0
3399713,326.74,582,753,0
3399724,327.03,582,755,0
3399734,326.12,582,753,0
3399744,326.94,582,755,0
3399754,326.79,582,755,0
3399764,328.35,582,754,0
3399774,329.45,582,753,0
3399784,332.83,582,755,0
3399794,336.05,582,753,0
3399804,341.82,582,754,0
3399814,347.70,582,753,0
3399824,355.98,582,755,0
3399834,364.08,582,753,0
3399844,373.79,582,754,0
3399854,382.34,582,753,0
3399864,391.45,582,755,0
3399874,398.22,582,753,0
3399894,404.58,0,751,0
3399896,408.05,0,753,0
3399906,410.52,0,756,0
3399916,410.28,0,753,0
3399926,408.91,0,755,0
3399937,405.16,0,752,0
3399947,400.74,0,755,0
3399957,394.69,0,753,0
3399967,388.31,0,754,0
3399977,381.36,0,753,0
3399987,374.52,0,755,0
3399997,367.72,0,753,0
3400007,361.29,0,754,0
3400017,355.63,0,753,0
3400027,350.99,0,755,0
3400037,347.43,0,753,0
3400047,344.86,0,755,0
3400057,343.49,0,753,0
3400067,343.08,0,755,0
3400077,343.74,0,753,0
3400087,344.98,0,754,0
3400097,346.87,0,753,0
3400108,348.97,0,755,0
3400118,351.46,0,754,0
3400128,353.60,0,754,0
3400138,356.03,0,754,0
3400148,357.74,0,754,0
3400158,359.32,0,754,0
3400168,359.73,0,754,0
3400178,360.16,0,754,0
3400188,359.12,0,754,0
3400198,358.27,0,754,0
3400208,356.43,0,754,0
3400218,355.02,0,754,0
3400228,352.74,0,754,0
3400238,351.10,0,754,0
3400248,348.80,0,754,0
3400258,347.53,0,754,0
3400268,345.66,0,754,0
3400279,344.69,0,754,0
3400289,343.11,0,754,0
3400299,342.74,0,754,0
3400309,341.61,0,754,0
3400320,341.34,0,754,0
3400329,340.38,0,754,0
3400339,340.31,0,754,0
3400349,339.19,0,754,0
3400359,339.26,0,755,0
3400369,338.33,0,754,0
3400379,338.70,0,754,0
3400389,338.15,0,754,0
3400399,338.83,0,755,0
3400409,338.80,0,754,0
3400419,340.23,0,754,0
3400429,340.97,0,754,0
3400439,343.30,0,755,0
3400449,344.88,0,754,0
3400459,348.13,0,754,0
3400469,350.83,0,754,0
3400479,355.17,0,755,0
3400489,358.68,0,754,0
3400499,363.40,0,754,0
3400509,367.01,0,754,0
3400519,371.64,0,755,0
3400529,374.70,0,753,0
3400539,378.13,0,754,0
3400549,379.42,0,754,0
3400559,381.05,0,755,0
3400569,380.57,0,754,0
3400579,380.31,0,754,0
3400598,378.07,705,753,0
3400601,376.08,705,755,0
3400610,372.63,705,753,0
3400620,370.34,705,755,0
3400630,366.64,705,753,0
3400640,364.30,705,755,0
3400650,360.66,705,753,0
3400660,358.57,705,755,0
3400670,355.83,705,753,0
3400680,354.60,705,755,0
3400690,352.36,705,753,0
3400700,351.82,705,754,0
3400710,350.42,705,753,0
3400720,350.89,705,755,0
3400730,350.28,705,753,0
3400740,351.31,705,754,0
3400750,351.18,705,753,0
3400760,352.58,705,755,0
3400770,352.88,705,754,0
3400780,354.67,705,754,0
3400791,355.24,705,753,0
3400801,357.14,705,755,0
3400811,357.57,705,753,0
3400821,359.07,705,755,0
3400832,358.83,705,753,0
3400841,359.57,705,755,0
3400851,358.41,705,753,0
3400861,358.20,705,755,0
3400871,356.47,705,753,0
3400881,355.99,705,755,0
3400891,354.23,705,753,0
3400901,353.95,705,755,0
3400911,352.55,705,753,0
3400921,352.81,705,755,0
3400931,352.01,705,753,0
3400941,352.69,705,754,0
3400951,352.31,705,753,0
3400961,353.51,705,755,0
3400971,353.53,705,754,0
3400981,354.91,705,755,0
3400991,355.02,705,753,0
3401001,356.43,705,755,0
3401011,356.56,705,753,0
3401021,357.89,705,755,0
3401031,357.88,705,753,0
3401041,359.20,705,755,0
3401051,359.23,705,753,0
3401061,360.74,705,755,0
3401071,361.16,705,753,0
3401081,363.04,705,755,0
3401091,363.84,705,753,0
3401101,366.03,705,755,0
3401111,367.14,705,753,0
3401121,369.63,705,755,0
3401132,370.94,705,753,0
3401142,373.53,705,755,0
3401152,375.08,705,753,0
3401162,377.72,705,755,0
3401182,379.30,583,754,0
3401185,381.27,583,756,0
3401194,382.69,583,752,0
3401204,384.54,583,756,0
3401214,385.45,583,753,0
3401224,386.56,583,756,0
3401234,386.60,583,752,0
3401244,386.47,583,756,0
3401254,385.85,583,753,0
3401264,384.66,583,756,0
3401274,382.79,583,752,0
3401284,380.71,583,755,0
3401294,378.52,583,753,0
3401304,376.70,583,756,0
3401314,375.03,583,752,0
3401324,373.78,583,756,0
3401334,372.73,583,753,0
3401345,372.13,583,755,0
3401355,371.92,583,753,0
3401365,371.60,583,755,0
3401375,371.72,583,754,0
3401385,371.97,583,754,0
3401395,372.75,583,753,0
3401405,373.64,583,754,0
3401415,374.91,583,754,0
3401425,375.83,583,754,0
3401435,377.30,583,753,0
3401445,378.19,583,754,0
3401455,379.42,583,754,0
3401465,379.68,583,754,0
3401475,380.03,583,753,0
3401485,379.85,583,755,0
3401495,380.24,583,754,0
3401505,379.91,583,754,0
3401516,380.07,583,754,0
3401526,379.57,583,754,0
3401536,380.09,583,754,0
3401546,379.93,583,754,0
3401556,380.55,583,754,0
3401566,380.30,583,754,0
3401576,380.85,583,754,0
3401586,380.43,583,754,0
3401596,380.98,583,754,0
3401606,380.47,583,754,0
3401616,380.85,583,754,0
3401626,380.12,583,754,0
3401636,380.56,583,754,0
3401646,380.22,583,754,0
3401656,381.01,583,754,0
3401666,380.66,583,754,0
3401676,381.45,583,754,0
3401687,381.36,583,754,0
3401697,382.41,583,755,0
3401707,382.29,583,754,0
3401717,383.27,583,755,0
3401728,383.23,583,753,0
3401737,384.66,583,755,0
3401747,385.11,583,753,0
3401757,387.09,583,754,0
3401767,388.09,583,753,0
3401777,390.68,583,755,0
3401796,392.27,615,753,0
3401799,395.49,615,755,0
3401808,397.92,615,753,0
3401818,401.76,615,755,0
3401828,404.19,615,753,0
3401838,407.77,615,754,0
3401848,409.73,615,753,0
3401858,412.59,615,755,0
3401868,413.70,615,753,0
3401878,415.21,615,754,0
3401888,414.80,615,753,0
3401899,415.12,615,755,0
3401908,413.63,615,753,0
3401918,413.01,615,754,0
3401928,410.65,615,753,0
3401938,409.30,615,755,0
3401948,406.47,615,753,0
3401958,404.87,615,754,0
3401968,401.99,615,753,0
3401978,400.67,615,755,0
3401988,398.28,615,753,0
3401998,397.64,615,755,0
3402008,395.90,615,753,0
3402018,395.85,615,755,0
3402028,394.91,615,753,0
3402038,395.79,615,755,0
3402048,395.60,615,753,0
3402058,397.00,615,755,0
3402068,397.22,615,753,0
3402078,398.95,615,755,0
3402088,399.48,615,753,0
3402098,401.22,615,755,0
3402108,401.50,615,753,0
3402118,402.98,615,755,0
3402128,402.90,615,753,0
3402138,403.91,615,755,0
3402148,403.47,615,753,0
3402158,404.19,615,755,0
3402168,403.40,615,753,0
3402178,403.84,615,755,0
3402188,402.86,615,753,0
3402199,403.11,615,755,0
3402209,402.01,615,753,0
3402219,402.09,615,755,0
3402229,400.78,615,753,0
3402240,400.72,615,755,0
3402249,399.30,615,753,0
3402259,399.13,615,755,0
3402269,397.97,615,753,0
3402279,398.15,615,755,0
3402289,397.34,615,753,0
3402299,397.83,615,755,0
3402309,397.33,615,753,0
3402319,398.00,615,755,0
3402329,397.61,615,753,0
3402339,398.29,615,755,0
3402349,397.82,615,753,0
3402359,398.43,615,755,0
3402369,398.00,615,753,0
3402379,399.03,615,755,0
3402389,399.45,615,753,0
3402399,401.54,615,755,0
3402409,403.22,615,753,0
3402419,406.88,615,755,0
3402429,410.22,615,753,0
3402439,415.34,615,755,0
3402459,419.91,662,753,0
3402462,425.72,662,756,0
3402471,431.16,662,752,0
3402481,437.29,662,756,0
3402491,442.39,662,752,0
3402501,447.88,662,756,0
3402511,451.90,662,752,0
3402521,455.66,662,755,0
3402531,457.95,662,751,0
3402541,459.42,662,756,0
3402551,459.38,662,752,0
3402561,458.41,662,756,0
3402571,456.06,662,752,0
3402582,453.17,662,756,0
3402591,449.39,662,752,0
3402601,445.50,662,755,0
3402611,441.07,662,752,0
3402621,436.89,662,756,0
3402631,432.72,662,752,0
3402641,429.29,662,756,0
3402651,426.33,662,751,0
3402661,424.18,662,756,0
3402671,422.41,662,752,0
3402681,421.56,662,756,0
3402691,421.26,662,752,0
3402701,421.78,662,755,0
3402711,422.45,662,752,0
3402721,423.73,662,756,0
3402731,425.10,662,751,0
3402741,426.74,662,755,0
3402752,428.32,662,752,0
3402761,429.94,662,755,0
3402771,431.24,662,752,0
3402781,432.45,662,755,0
3402791,433.35,662,753,0
3402801,434.19,662,756,0
3402811,434.56,662,752,0
3402821,434.52,662,756,0
3402831,434.06,662,752,0
3402841,433.49,662,756,0
3402851,432.44,662,752,0
3402861,431.15,662,755,0
3402871,429.65,662,753,0
3402881,428.38,662,756,0
3402891,427.11,662,752,0
3402901,425.79,662,755,0
3402911,424.48,662,753,0
3402921,423.35,662,755,0
3402931,422.35,662,752,0
3402941,421.60,662,755,0
3402951,420.99,662,753,0
3402961,420.48,662,755,0
3402971,420.29,662,752,0
3402981,420.20,662,755,0
3402991,420.27,662,753,0
3403001,420.19,662,755,0
3403011,419.75,662,752,0
3403021,419.31,662,755,0
3403031,419.17,662,753,0
3403041,419.25,662,755,0
3403052,420.25,662,753,0
3403062,422.06,662,754,0
3403072,425.38,662,754,0
3403082,429.94,662,754,0
3403092,436.09,662,754,0
3403102,443.26,662,754,0
3403112,451.93,662,754,0
3403122,460.90,662,754,0
3403132,470.88,662,754,0
3403151,480.38,693,752,0
3403154,490.13,693,755,0
3403163,498.45,693,754,0
3403173,506.24,693,754,0
3403183,511.57,693,754,0
3403193,515.73,693,754,0
3403203,516.88,693,754,0
3403213,516.74,693,754,0
3403223,513.91,693,754,0
3403233,510.08,693,754,0
3403243,503.93,693,754,0
3403253,497.99,693,754,0
3403264,490.37,693,754,0
3403273,483.70,693,754,0
3403283,476.20,693,754,0
3403293,470.14,693,754,0
3403303,463.76,693,753,0
3403313,459.07,693,754,0
3403323,454.25,693,754,0
3403333,451.82,693,754,0
3403343,449.30,693,753,0
3403353,448.95,693,754,0
3403363,448.41,693,754,0
3403373,449.96,693,754,0
3403383,451.21,693,753,0
3403393,454.24,693,754,0
3403403,456.61,693,754,0
3403413,460.20,693,754,0
3403423,462.54,693,753,0
3403433,465.80,693,755,0
3403443,467.49,693,754,0
3403453,469.70,693,754,0
3403463,469.96,693,753,0
3403473,470.57,693,755,0
3403483,469.50,693,754,0
3403493,468.79,693,754,0
3403503,466.20,693,753,0
3403513,464.25,693,754,0
3403523,460.92,693,754,0
3403533,458.54,693,754,0
3403543,454.95,693,753,0
3403553,452.61,693,755,0
3403564,449.34,693,754,0
3403574,447.74,693,755,0
3403584,445.12,693,753,0
3403594,444.05,693,755,0
3403604,441.98,693,753,0
3403614,441.21,693,755,0
3403624,439.18,693,753,0
3403634,438.44,693,755,0
3403644,436.38,693,753,0
3403654,435.88,693,755,0
3403664,434.24,693,753,0
3403674,434.17,693,755,0
3403684,433.22,693,753,0
3403694,434.44,693,755,0
3403704,435.46,693,753,0
3403714,439.23,693,755,0
3403724,443.36,693,753,0
3403735,450.88,693,755,0
3403745,459.32,693,753,0
3403755,471.14,693,755,0
3403765,483.18,693,753,0
3403776,497.57,693,755,0
3403785,511.03,693,753,0
3403795,525.25,693,755,0
3403805,536.74,693,753,0
3403815,547.66,693,755,0
3403825,554.71,693,753,0
3403844,560.41,693,752,0
3403847,562.00,693,753,0
3403856,562.17,693,755,0
3403866,558.48,693,753,0
3403876,553.92,693,755,0
3403886,546.19,693,753,0
3403896,538.16,693,755,0
3403906,527.65,693,753,0
3403916,517.90,693,755,0
3403926,506.74,693,753,0
3403936,497.09,693,755,0
3403947,486.87,693,753,0
3403956,478.68,693,755,0
3403966,470.67,693,753,0
3403976,465.29,693,755,0
3403986,460.27,693,753,0
3403996,457.88,693,755,0
3404006,455.68,693,753,0
3404016,455.86,693,755,0
3404026,456.08,693,753,0
3404036,458.41,693,755,0
3404046,460.39,693,753,0
3404056,463.74,693,755,0
3404066,466.13,693,753,0
3404076,469.95,693,755,0
3404086,472.32,693,753,0
3404096,475.23,693,755,0
3404106,476.27,693,753,0
3404116,477.56,693,755,0
3404126,477.05,693,753,0
3404136,476.91,693,755,0
3404146,474.88,693,753,0
3404156,473.46,693,755,0
3404166,470.58,693,753,0
3404176,468.43,693,755,0
3404186,465.13,693,753,0
3404196,462.69,693,755,0
3404206,459.23,693,753,0
3404216,456.72,693,755,0
3404226,453.16,693,753,0
3404236,450.63,693,755,0
3404247,447.22,693,752,0
3404257,444.67,693,756,0
3404267,441.43,693,752,0
3404277,439.07,693,755,0
3404288,436.22,693,752,0
3404297,434.53,693,756,0
3404307,432.40,693,752,0
3404317,431.33,693,755,0
3404327,430.46,693,752,0
3404337,431.10,693,756,0
3404347,432.40,693,752,0
3404357,435.83,693,755,0
3404367,440.81,693,752,0
3404377,448.93,693,756,0
3404387,459.28,693,752,0
3404397,472.82,693,756,0
3404407,488.35,693,752,0
3404417,506.29,693,756,0
3404427,524.50,693,752,0
3404437,543.12,693,756,0
3404447,559.93,693,752,0
3404457,575.08,693,756,0
3404476,586.67,632,755,0
3404479,594.57,632,755,0
3404488,598.60,632,752,0
3404498,599.19,632,755,0
3404508,595.62,632,752,0
3404518,589.13,632,755,0
3404528,579.49,632,752,0
3404538,567.73,632,755,0
3404548,554.40,632,752,0
3404558,539.75,632,756,0
3404568,524.65,632,752,0
3404578,509.84,632,755,0
3404588,495.70,632,752,0
3404598,482.98,632,755,0
3404608,472.06,632,752,0
3404618,463.13,632,755,0
3404628,456.36,632,753,0
3404638,451.71,632,756,0
3404648,449.14,632,752,0
3404658,448.33,632,755,0
3404668,449.30,632,753,0
3404678,451.74,632,755,0
3404688,455.42,632,752,0
3404698,459.75,632,755,0
3404708,464.62,632,753,0
3404718,469.71,632,756,0
3404728,474.64,632,752,0
3404738,478.69,632,755,0
3404748,481.87,632,753,0
3404759,483.75,632,755,0
3404769,484.73,632,754,0
3404779,484.08,632,754,0
3404789,482.56,632,754,0
3404800,479.60,632,754,0
3404809,476.34,632,754,0
3404819,472.04,632,754,0
3404829,467.91,632,754,0
3404839,462.88,632,754,0
3404849,458.33,632,754,0
3404859,453.13,632,755,0
3404869,448.81,632,754,0
3404879,443.89,632,754,0
3404889,439.85,632,753,0
3404899,435.57,632,755,0
3404909,432.48,632,754,0
3404919,429.21,632,754,0
3404929,427.00,632,753,0
3404939,424.65,632,754,0
3404949,423.72,632,754,0
3404959,422.69,632,754,0
3404969,423.21,632,754,0
3404979,424.13,632,754,0
3404989,427.52,632,754,0
3404999,432.38,632,754,0
3405009,440.97,632,754,0
3405019,452.03,632,755,0
3405029,467.45,632,754,0
3405039,485.53,632,754,0
3405049,507.23,632,754,0
3405059,530.17,632,754,0
3405069,554.72,632,754,0
3405079,577.78,632,754,0
3405089,599.57,632,754,0
3405100,617.31,632,754,0
3405110,631.49,632,755,0
3405120,639.79,632,754,0
3405139,643.45,663,752,0
3405143,640.40,663,754,0
3405151,633.72,663,755,0
3405161,621.38,663,753,0
3405171,606.35,663,755,0
3405181,587.43,663,753,0
3405191,568.06,663,755,0
3405201,546.74,663,753,0
3405211,527.36,663,755,0
3405221,507.20,663,753,0
3405231,490.25,663,755,0
3405241,474.23,663,753,0
3405251,462.25,663,755,0
3405261,451.59,663,753,0
3405271,445.24,663,755,0
3405281,440.20,663,753,0
3405291,439.32,663,755,0
3405301,439.53,663,753,0
3405312,443.57,663,755,0
3405321,448.07,663,753,0
3405331,455.29,663,755,0
3405341,462.02,663,753,0
3405351,470.54,663,755,0
3405361,477.41,663,753,0
3405371,484.87,663,755,0
3405381,489.58,663,753,0
3405391,493.82,663,755,0
3405401,495.12,663,753,0
3405411,496.03,663,755,0
3405421,493.83,663,753,0
3405431,491.57,663,755,0
3405441,486.68,663,753,0
3405451,482.15,663,755,0
3405461,475.63,663,753,0
3405471,470.09,663,755,0
3405481,462.99,663,753,0
3405491,457.34,663,755,0
3405501,450.46,663,753,0
3405511,445.35,663,755,0
3405521,439.38,663,753,0
3405531,435.41,663,755,0
3405541,430.44,663,753,0
3405551,427.31,663,755,0
3405561,423.32,663,753,0
3405571,421.12,663,755,0
3405581,417.91,663,753,0
3405591,416.70,663,755,0
3405601,414.94,663,753,0
3405612,415.95,663,755,0
3405622,417.51,663,753,0
3405632,423.05,663,755,0
3405642,430.71,663,753,0
3405652,443.91,663,755,0
3405662,460.01,663,753,0
3405672,481.95,663,755,0
3405682,506.26,663,753,0
3405692,534.69,663,755,0
3405702,563.02,663,753,0
3405712,592.33,663,755,0
3405722,618.25,663,754,0
3405732,641.83,663,755,0
3405742,659.07,663,753,0
3405752,671.65,663,755,0
3405762,676.21,663,753,0
3405772,675.38,663,755,0
3405783,666.91,663,753,0
3405793,653.95,663,755,0
3405803,635.19,663,753,0
3405822,613.71,683,751,0
3405826,588.47,683,752,0
3405835,563.17,683,756,0
3405845,537.19,683,752,0
3405855,512.83,683,756,0
3405865,489.70,683,752,0
3405875,469.69,683,756,0
3405885,452.21,683,752,0
3405895,438.90,683,756,0
3405905,428.82,683,752,0
3405915,422.62,683,756,0
3405925,419.82,683,752,0
3405935,420.51,683,756,0
3405945,423.83,683,752,0
3405955,429.97,683,756,0
3405965,437.61,683,752,0
3405975,446.55,683,756,0
3405985,455.77,683,752,0
3405996,464.93,683,755,0
3406006,473.01,683,753,0
3406016,479.73,683,755,0
3406026,484.53,683,753,0
3406036,487.37,683,755,0
3406046,488.07,683,753,0
3406056,486.64,683,755,0
3406066,483.66,683,753,0
3406076,478.88,683,754,0
3406086,473.30,683,753,0
3406096,466.61,683,755,0
3406106,459.78,683,753,0
3406116,452.48,683,754,0
3406126,445.73,683,753,0
3406136,438.79,683,755,0
3406146,432.81,683,753,0
3406156,426.82,683,754,0
3406167,421.95,683,754,0
3406177,417.12,683,754,0
3406187,413.57,683,754,0
3406197,409.88,683,754,0
3406208,407.52,683,755,0
3406217,405.22,683,754,0
3406227,404.38,683,754,0
3406237,403.93,683,754,0
3406247,406.05,683,755,0
3406257,409.50,683,754,0
3406267,416.64,683,754,0
3406277,426.56,683,754,0
3406287,441.82,683,754,0
3406297,461.03,683,754,0
3406307,485.37,683,754,0
3406317,512.38,683,754,0
3406327,543.04,683,755,0
3406337,574.01,683,754,0
3406347,605.04,683,754,0
3406357,632.28,683,754,0
3406367,655.81,683,755,0
3406377,672.54,683,754,0
3406387,683.26,683,754,0
3406397,685.54,683,754,0
3406407,681.22,683,755,0
3406417,668.77,683,754,0
3406427,650.92,683,754,0
3406437,627.03,683,754,0
3406447,600.54,683,755,0
3406457,570.76,683,754,0
3406467,540.96,683,754,0
3406477,510.63,683,754,0
3406487,483.01,683,755,0
3406497,456.99,683,754,0
3406508,435.52,683,755,0
3406518,416.94,683,753,0
3406528,403.89,683,757,0
3406538,394.32,683,755,0
3406548,390.37,683,765,0
3406558,389.36,683,756,0
3406568,392.55,683,769,0
3406578,397.31,683,756,0
3406588,405.19,683,769,0
3406598,413.28,683,756,0
3406608,423.05,683,769,0
3406618,431.78,683,757,0
3406628,441.02,683,769,0
3406638,448.85,683,757,0
3406648,456.44,683,769,0
3406658,461.58,683,758,0
3406668,465.78,683,769,0
3406679,467.17,683,758,0
3406689,467.46,683,769,0
3406699,465.35,683,760,0
3406709,462.29,683,769,0
3406720,457.23,683,760,0
3406729,451.89,683,769,0
3406739,445.19,683,759,0
3406749,438.75,683,769,0
3406759,431.37,683,760,0
3406769,424.61,683,769,0
3406779,417.53,683,760,0
3406789,411.37,683,769,0
3406799,405.22,683,760,0
3406809,400.35,683,769,0
3406819,395.57,683,759,0
3406829,392.10,683,768,0
3406839,388.81,683,760,0
3406849,387.16,683,769,0
3406859,386.21,683,759,0
3406869,387.39,683,769,0
3406879,390.14,683,760,0
3406889,396.19,683,769,0
3406899,405.13,683,760,0
3406909,418.81,683,769,0
3406919,436.56,683,760,0
3406929,459.67,683,769,0
3406939,486.51,683,760,0
3406949,517.21,683,769,0
3406959,549.34,683,760,0
3406969,582.15,683,769,0
3406979,612.23,683,760,0
3406989,638.82,683,769,0
3406999,658.93,683,760,0
3407009,672.32,683,769,0
3407020,677.33,683,761,0
3407030,674.74,683,769,0
3407040,664.02,683,762,0
3407050,646.83,683,769,0
3407060,623.44,683,764,0
3407070,596.09,683,768,0
3407080,565.64,683,762,0
3407090,534.03,683,768,0
3407100,502.48,683,764,0
3407110,472.76,683,769,0
3407120,445.71,683,762,0
3407130,422.27,683,769,0
3407140,402.94,683,764,0
3407150,388.39,683,769,0
3407160,378.41,683,763,0
3407170,373.02,683,769,0
3407180,371.86,683,764,0
3407191,374.47,683,768,0
3407201,380.50,683,766,0
3407211,388.88,683,768,0
3407221,399.24,683,768,0
3407232,410.49,683,768,0
3407241,422.04,683,766,0
3407251,432.83,683,768,0
3407261,442.78,683,768,0
3407271,450.65,683,768,0
3407281,456.58,683,766,0
3407291,459.53,683,768,0
3407301,460.83,683,768,0
3407311,459.64,683,768,0
3407321,457.05,683,766,0
3407331,452.40,683,769,0
3407341,447.10,683,768,0
3407351,440.60,683,768,0
3407361,434.25,683,766,0
3407371,427.10,683,769,0
3407381,420.30,683,768,0
3407391,412.92,683,768,0
3407401,406.35,683,769,0
3407411,399.73,683,769,0
3407421,394.11,683,768,0
3407431,388.59,683,768,0
3407441,384.34,683,769,0
3407451,380.68,683,768,0
3407461,378.59,683,768,0
3407471,376.74,683,768,0
3407481,376.43,683,769,0
3407491,376.95,683,768,0
3407501,379.66,683,768,0
3407511,383.75,683,768,0
3407521,391.02,683,769,0
3407532,401.13,683,767,0
3407542,416.31,683,769,0
3407552,435.33,683,765,0
3407562,459.79,683,769,0
3407572,487.62,683,763,0
3407582,519.32,683,769,0
3407592,551.75,683,765,0
3407602,584.27,683,769,0
3407612,612.86,683,763,0
3407622,637.55,683,769,0
3407632,654.91,683,765,0
3407642,665.48,683,769,0
3407652,666.92,683,763,0
3407662,661.07,683,769,0
3407672,646.78,683,765,0
3407682,627.05,683,769,0
3407692,601.06,683,762,0
3407703,572.33,683,769,0
3407713,540.39,683,761,0
3407723,508.64,683,769,0
3407733,476.22,683,760,0
3407744,446.71,683,769,0
3407753,418.90,683,762,0
3407763,395.79,683,769,0
3407773,375.49,683,760,0
3407783,361.07,683,769,0
3407793,350.34,683,761,0
3407803,345.69,683,769,0
3407813,344.33,683,760,0
3407823,348.47,683,769,0
3407833,355.10,683,761,0
3407843,365.70,683,769,0
3407853,376.93,683,760,0
3407863,390.28,683,769,0
3407873,402.50,683,761,0
3407883,415.42,683,769,0
3407893,425.58,683,760,0
3407903,435.01,683,769,0
3407913,441.09,683,759,0
3407923,445.99,683,769,0
3407933,447.28,683,760,0
3407943,447.45,683,769,0
3407953,444.23,683,760,0
3407963,440.60,683,769,0
3407973,434.34,683,760,0
3407983,428.28,683,769,0
3407993,420.31,683,760,0
3408003,413.45,683,769,0
3408013,405.47,683,760,0
3408023,398.99,683,769,0
3408033,391.70,683,759,0
3408044,386.26,683,769,0
3408054,380.57,683,759,0
3408064,376.93,683,769,0
3408074,373.01,683,759,0
3408084,371.08,683,769,0
3408094,368.74,683,759,0
3408104,368.17,683,769,0
3408114,367.35,683,759,0
3408124,368.53,683,769,0
3408134,370.09,683,759,0
3408144,374.52,683,769,0
3408154,380.49,683,759,0
3408164,391.10,683,769,0
3408174,404.66,683,759,0
3408184,423.96,683,769,0
3408194,447.11,683,759,0
3408204,475.75,683,769,0
3408215,506.94,683,759,0
3408225,541.03,683,770,0
3408235,573.85,683,759,0
3408245,605.44,683,769,0
3408256,631.32,683,759,0
3408265,651.58,683,769,0
3408275,662.72,683,759,0
3408294,665.89,0,758,0
3408296,659.11,0,763,0
3408306,645.53,0,769,0
3408316,624.24,0,760,0
3408326,598.20,0,769,0
3408336,567.50,0,760,0
3408346,535.46,0,769,0
3408356,502.11,0,760,0
3408366,470.53,0,769,0
3408376,439.86,0,761,0
3408386,412.86,0,769,0
3408396,389.12,0,760,0
3408406,370.35,0,769,0
3408416,355.76,0,761,0
3408427,346.62,0,769,0
3408436,341.68,0,760,0
3408446,341.99,0,769,0
3408456,345.89,0,761,0
3408466,353.77,0,769,0
3408476,363.65,0,760,0
3408486,375.84,0,769,0
3408496,388.53,0,760,0
3408506,401.74,0,768,0
3408516,413.26,0,760,0
3408526,423.90,0,769,0
3408536,432.24,0,761,0
3408546,438.86,0,769,0
3408556,442.58,0,760,0
3408566,444.47,0,769,0
3408576,443.73,0,761,0
3408586,441.71,0,768,0
3408596,437.42,0,762,0
3408606,432.20,0,769,0
3408616,425.45,0,761,0
3408626,418.42,0,769,0
3408636,410.53,0,762,0
3408646,403.22,0,769,0
3408656,395.74,0,761,0
3408666,389.13,0,768,0
3408676,382.83,0,762,0
3408686,377.78,0,769,0
3408696,373.13,0,761,0
3408706,369.62,0,769,0
3408716,366.78,0,762,0
3408727,365.17,0,769,0
3408737,364.05,0,763,0
3408747,363.78,0,768,0
3408757,364.40,0,764,0
3408768,366.38,0,769,0
3408777,369.65,0,763,0
3408787,374.60,0,768,0
3408797,381.79,0,764,0
3408807,391.80,0,768,0
3408817,405.06,0,763,0
3408827,421.80,0,768,0
3408837,442.17,0,765,0
3408847,465.82,0,769,0
3408857,491.76,0,763,0
3408867,518.92,0,769,0
3408877,546.07,0,764,0
3408887,571.42,0,769,0
3408897,593.15,0,763,0
3408907,609.86,0,769,0
3408917,620.23,0,764,0
3408927,623.51,0,769,0
3408937,619.33,0,766,0
3408947,607.96,0,768,0
3408966,590.27,672,767,0
3408969,566.15,672,766,0
3408978,538.50,672,769,0
3408988,508.31,672,769,0
3408998,477.62,672,769,0
3409008,446.96,672,768,0
3409018,418.26,672,769,0
3409028,391.61,672,769,0
3409038,369.40,672,769,0
3409048,349.91,672,768,0
3409058,334.46,672,769,0
3409068,322.28,672,768,0
3409078,314.61,672,768,0
3409088,310.27,672,769,0
3409098,310.40,672,769,0
3409108,313.50,672,767,0
3409118,320.33,672,768,0
3409128,329.53,672,769,0
3409138,341.63,672,769,0
3409148,354.47,672,767,0
3409158,368.47,672,768,0
3409168,381.53,672,768,0
3409178,394.36,672,769,0
3409188,404.66,672,767,0
3409198,413.25,672,768,0
3409208,418.36,672,768,0
3409218,421.42,672,769,0
3409228,421.04,672,767,0
3409239,419.23,672,769,0
3409249,414.83,672,765,0
3409259,410.21,672,769,0
3409269,403.89,672,763,0
3409280,398.14,672,769,0
3409289,391.71,672,766,0
3409299,386.57,672,769,0
3409309,380.78,672,763,0
3409319,376.39,672,769,0
3409329,371.60,672,765,0
3409339,368.42,672,769,0
3409349,364.70,672,763,0
3409359,362.60,672,769,0
3409369,360.11,672,765,0
3409379,359.35,672,769,0
3409389,358.13,672,763,0
3409399,358.39,672,769,0
3409409,358.32,672,765,0
3409419,360.54,672,769,0
3409429,363.37,672,763,0
3409439,369.65,672,769,0
3409449,377.72,672,762,0
3409459,390.58,672,770,0
3409469,406.78,672,763,0
3409479,428.79,672,769,0
3409489,454.09,672,762,0
3409499,483.72,672,769,0
3409509,514.36,672,763,0
3409519,546.61,672,769,0
3409539,576.26,572,768,0
3409542,602.28,572,770,0
3409551,621.74,572,759,0
3409561,635.15,572,769,0
3409571,639.73,572,759,0
3409581,637.20,572,769,0
3409591,625.57,572,759,0
3409601,607.74,572,769,0
3409611,584.12,572,759,0
3409622,557.04,572,769,0
3409631,526.17,572,759,0
3409641,494.88,572,769,0
3409651,462.34,572,759,0
3409661,432.24,572,769,0
3409671,403.58,572,759,0
3409681,379.32,572,769,0
3409691,358.10,572,759,0
3409701,342.38,572,769,0
3409711,330.44,572,759,0
3409721,324.48,572,769,0
3409731,322.23,572,758,0
3409741,325.42,572,769,0
3409751,331.21,572,759,0
3409761,340.96,572,769,0
3409771,351.90,572,758,0
3409781,365.30,572,769,0
3409792,378.33,572,759,0
3409801,391.90,572,769,0
3409811,403.33,572,758,0
3409821,414.03,572,769,0
3409831,421.56,572,759,0
3409841,427.65,572,769,0
3409851,430.29,572,759,0
3409861,431.36,572,769,0
3409871,429.41,572,759,0
3409881,426.50,572,769,0
3409891,421.08,572,758,0
3409901,415.53,572,769,0
3409911,408.43,572,758,0
3409921,402.00,572,769,0
3409931,394.76,572,758,0
3409941,388.70,572,769,0
3409951,382.36,572,758,0
3409961,377.54,572,769,0
3409971,372.53,572,758,0
3409981,369.16,572,769,0
3409991,365.55,572,758,0
3410001,363.46,572,769,0
3410011,361.01,572,758,0
3410021,360.11,572,769,0
3410031,358.92,572,759,0
3410041,359.20,572,769,0
3410051,358.84,572,758,0
3410061,360.00,572,769,0
3410071,361.42,572,758,0
3410081,365.45,572,769,0
3410092,371.01,572,758,0
3410102,380.65,572,769,0
3410112,393.36,572,759,0
3410122,411.64,572,769,0
3410132,434.07,572,759,0
3410142,461.44,572,769,0
3410152,491.22,572,759,0
3410162,523.21,572,769,0
3410172,554.18,572,759,0
3410182,583.44,572,770,0
3410192,607.48,572,760,0
3410202,625.81,572,769,0
3410222,635.94,683,767,0
3410225,637.63,683,769,0
3410234,630.97,683,762,0
3410244,616.88,683,769,0
3410254,595.96,683,763,0
3410264,570.30,683,769,0
3410274,540.47,683,763,0
3410284,508.87,683,769,0
3410294,477.41,683,763,0
3410305,446.60,683,769,0
3410315,418.18,683,766,0
3410325,392.41,683,769,0
3410335,370.64,683,768,0
3410345,352.97,683,768,0
3410355,340.29,683,766,0
3410365,332.19,683,769,0
3410375,329.17,683,768,0
3410385,330.11,683,769,0
3410395,335.43,683,766,0
3410405,343.66,683,768,0
3410415,355.16,683,768,0
3410425,367.97,683,769,0
3410435,382.12,683,766,0
3410445,395.80,683,768,0
3410455,409.32,683,768,0
3410465,420.88,683,769,0
3410476,430.99,683,769,0
3410486,437.81,683,767,0
3410496,442.62,683,769,0
3410506,443.89,683,766,0
3410516,443.28,683,769,0
3410526,439.60,683,767,0
3410536,434.79,683,769,0
3410546,427.31,683,766,0
3410556,419.80,683,769,0
3410566,410.78,683,767,0
3410576,402.57,683,769,0
3410586,393.53,683,766,0
3410596,385.83,683,769,0
3410606,377.95,683,767,0
3410616,372.27,683,769,0
3410626,366.57,683,766,0
3410636,362.97,683,770,0
3410647,359.38,683,763,0
3410657,357.89,683,769,0
3410667,356.38,683,762,0
3410677,356.78,683,769,0
3410688,356.72,683,761,0
3410697,358.77,683,769,0
3410707,361.07,683,761,0
3410717,366.62,683,769,0
3410727,373.76,683,760,0
3410737,385.49,683,769,0
3410747,400.22,683,762,0
3410757,421.02,683,769,0
3410767,445.40,683,760,0
3410777,475.11,683,769,0
3410787,506.53,683,762,0
3410797,540.32,683,770,0
3410807,572.15,683,760,0
3410817,602.28,683,769,0
3410827,626.28,683,761,0
3410837,644.62,683,769,0
3410847,653.78,683,760,0
3410857,655.30,683,769,0
3410867,647.33,683,761,0
3410877,632.66,683,769,0
3410887,609.87,683,760,0
3410897,582.74,683,769,0
3410916,550.76,695,768,0
3410919,517.40,695,771,0
3410928,483.08,695,759,0
3410938,450.53,695,769,0
3410948,418.91,695,759,0
3410958,391.81,695,769,0
3410968,367.65,695,759,0
3410978,349.24,695,769,0
3410988,335.11,695,759,0
3410998,326.68,695,770,0
3411008,322.32,695,759,0
3411018,323.85,695,769,0
3411028,328.57,695,758,0
3411038,337.78,695,769,0
3411048,348.61,695,759,0
3411058,362.31,695,769,0
3411068,375.97,695,758,0
3411078,390.64,695,769,0
3411088,403.30,695,759,0
3411098,415.38,695,769,0
3411108,424.27,695,758,0
3411118,431.73,695,769,0
3411128,435.41,695,759,0
3411138,437.26,695,769,0
3411148,435.42,695,758,0
3411159,432.47,695,769,0
3411169,426.46,695,759,0
3411179,420.02,695,769,0
3411189,411.36,695,758,0
3411200,403.11,695,769,0
3411209,393.86,695,759,0
3411219,386.10,695,769,0
3411229,378.01,695,758,0
3411239,371.67,695,769,0
3411249,365.34,695,759,0
3411259,361.08,695,769,0
3411269,357.03,695,759,0
3411279,354.70,695,769,0
3411289,352.26,695,759,0
3411299,351.41,695,769,0
3411309,350.52,695,759,0
3411319,351.09,695,769,0
3411329,351.36,695,759,0
3411339,352.84,695,769,0
3411349,353.96,695,758,0
3411359,356.76,695,769,0
3411369,360.26,695,759,0
3411379,366.52,695,769,0
3411389,374.85,695,758,0
3411399,387.97,695,769,0
3411409,405.29,695,759,0
3411419,428.65,695,769,0
3411429,455.97,695,758,0
3411439,487.86,695,769,0
3411449,521.55,695,759,0
3411459,556.57,695,769,0
3411469,588.93,695,759,0
3411479,617.75,695,770,0
3411489,639.55,695,759,0
3411509,654.34,593,758,0
3411512,659.00,593,762,0
3411521,654.97,593,769,0
3411531,641.78,593,762,0
3411542,621.32,593,769,0
3411551,594.48,593,761,0
3411561,563.82,593,769,0
3411571,530.32,593,762,0
3411581,496.92,593,769,0
3411591,464.12,593,761,0
3411601,433.48,593,769,0
3411611,405.65,593,762,0
3411621,381.16,593,769,0
3411631,360.32,593,761,0
3411641,344.03,593,769,0
3411651,332.40,593,762,0
3411661,325.43,593,769,0
3411671,322.60,593,761,0
3411681,324.22,593,769,0
3411691,329.94,593,762,0
3411701,339.21,593,769,0
3411712,351.11,593,764,0
3411721,364.70,593,769,0
3411731,379.24,593,763,0
3411741,393.86,593,769,0
3411751,407.62,593,764,0
3411761,419.48,593,769,0
3411771,429.02,593,763,0
3411781,435.70,593,769,0
3411791,439.60,593,764,0
3411801,440.88,593,769,0
3411811,439.84,593,763,0
3411821,436.51,593,769,0
3411831,431.55,593,764,0
3411841,425.34,593,769,0
3411851,418.21,593,762,0
3411861,410.52,593,769,0
3411871,402.69,593,763,0
3411881,394.77,593,769,0
3411891,387.30,593,763,0
3411901,380.31,593,769,0
3411911,374.22,593,764,0
3411921,368.84,593,769,0
3411931,364.39,593,763,0
3411941,360.67,593,769,0
3411951,357.98,593,764,0
3411961,355.76,593,769,0
3411971,354.37,593,763,0
3411981,353.62,593,769,0
3411991,353.78,593,764,0
3412001,354.49,593,769,0
3412012,356.18,593,766,0
3412022,358.66,593,769,0
3412032,363.22,593,768,0
3412042,369.58,593,768,0
3412052,379.22,593,770,0
3412062,392.27,593,769,0
3412072,410.15,593,769,0
3412082,432.47,593,768,0
3412092,460.27,593,770,0
3412102,491.56,593,769,0
3412112,525.85,593,769,0
3412122,559.84,593,769,0
3412132,592.63,593,770,0
3412142,620.86,593,769,0
3412152,643.40,593,769,0
3412162,657.34,593,769,0
3412182,663.02,672,767,0
3412185,657.83,672,762,0
3412194,645.07,672,769,0
3412204,623.75,672,761,0
3412214,597.17,672,770,0
3412225,565.19,672,760,0
3412235,531.49,672,770,0
3412245,495.86,672,759,0
3412255,462.98,672,770,0
3412265,430.55,672,759,0
3412275,402.23,672,769,0
3412285,376.27,672,760,0
3412295,355.92,672,770,0
3412305,339.06,672,759,0
3412315,328.37,672,770,0
3412325,321.44,672,760,0
3412335,320.58,672,770,0
3412345,323.06,672,759,0
3412355,330.63,672,770,0
3412365,340.17,672,760,0
3412375,353.19,672,770,0
3412385,366.46,672,759,0
3412396,381.32,672,769,0
3412406,394.68,672,758,0
3412416,407.81,672,769,0
3412426,418.15,672,759,0
3412436,427.06,672,769,0
3412446,432.23,672,759,0
3412456,435.67,672,769,0
3412466,435.39,672,758,0
3412476,433.73,672,769,0
3412486,429.05,672,759,0
3412496,423.68,672,770,0
3412506,416.19,672,759,0
3412516,408.89,672,769,0
3412526,400.22,672,759,0
3412536,392.61,672,770,0
3412546,384.46,672,759,0
3412556,377.89,672,769,0
3412567,371.20,672,759,0
3412577,366.34,672,769,0
3412587,361.61,672,759,0
3412597,358.51,672,769,0
3412608,355.40,672,759,0
3412617,353.74,672,770,0
3412627,351.97,672,759,0
3412637,351.34,672,769,0
3412647,350.55,672,759,0
3412657,350.99,672,770,0
3412667,351.46,672,759,0
3412677,353.42,672,769,0
3412687,355.91,672,759,0
3412697,360.65,672,770,0
3412707,367.18,672,759,0
3412717,377.41,672,769,0
3412727,390.92,672,759,0
3412737,409.59,672,770,0
3412747,432.42,672,759,0
3412757,460.45,672,769,0
3412767,491.52,672,760,0
3412777,525.31,672,769,0
3412787,558.60,672,759,0
3412797,590.43,672,769,0
3412807,617.35,672,760,0
3412817,638.33,672,769,0
3412836,650.74,655,768,0
3412839,653.86,655,769,0
3412848,648.12,655,761,0
3412858,634.58,655,769,0
3412868,613.45,655,760,0
3412878,587.22,655,769,0
3412888,556.85,655,761,0
3412898,524.58,655,769,0
3412908,492.26,655,760,0
3412918,460.43,655,769,0
3412928,429.91,655,761,0
3412938,402.08,655,769,0
3412948,377.07,655,761,0
3412958,355.92,655,769,0
3412968,338.80,655,761,0
3412978,326.60,655,768,0
3412988,318.92,655,762,0
3412998,316.33,655,769,0
3413008,318.16,655,761,0
3413018,324.46,655,768,0
3413028,334.35,655,762,0
3413038,347.27,655,769,0
3413048,361.80,655,761,0
3413058,377.51,655,769,0
3413068,392.95,655,762,0
3413079,407.54,655,769,0
3413089,420.23,655,763,0
3413099,430.24,655,768,0
3413109,437.49,655,765,0
3413120,441.63,655,769,0
3413129,442.94,655,763,0
3413139,441.54,655,768,0
3413149,438.00,655,765,0
3413159,432.43,655,768,0
3413169,425.66,655,763,0
3413179,417.57,655,769,0
3413189,409.34,655,765,0
3413199,400.63,655,769,0
3413209,392.42,655,763,0
3413219,384.54,655,768,0
3413229,377.74,655,765,0
3413239,371.60,655,769,0
3413249,366.83,655,764,0
3413259,362.77,655,769,0
3413269,359.97,655,766,0
3413279,357.58,655,769,0
3413289,356.20,655,768,0
3413299,355.03,655,769,0
3413309,354.63,655,766,0
3413319,354.23,655,769,0
3413329,354.80,655,768,0
3413339,355.68,655,768,0
3413349,358.00,655,766,0
3413359,361.60,655,769,0
3413369,368.15,655,768,0
3413379,377.79,655,768,0
3413389,392.08,655,766,0
3413399,410.66,655,769,0
3413409,434.63,655,768,0
3413420,462.81,655,768,0
3413430,495.18,655,770,0
3413440,528.86,655,767,0
3413450,563.06,655,769,0
3413460,593.98,655,765,0
3413470,620.73,655,770,0
3413480,639.93,655,767,0
3413490,651.52,655,769,0
3413510,653.08,673,768,0
3413513,645.77,673,770,0
3413522,629.25,673,760,0
3413532,606.68,673,769,0
3413542,577.42,673,760,0
3413552,545.58,673,770,0
3413562,510.65,673,761,0
3413572,476.38,673,769,0
3413582,442.54,673,760,0
3413592,411.91,673,770,0
3413602,383.31,673,761,0
3413612,359.86,673,769,0
3413622,339.59,673,760,0
3413633,325.31,673,770,0
3413643,315.06,673,759,0
3413653,311.44,673,769,0
3413663,311.82,673,759,0
3413673,318.09,673,770,0
3413683,327.15,673,759,0
3413693,340.22,673,769,0
3413703,354.34,673,758,0
3413713,370.57,673,769,0
3413723,385.52,673,759,0
3413733,400.32,673,769,0
3413743,412.01,673,758,0
3413753,422.42,673,769,0
3413763,429.50,673,759,0
3413773,435.09,673,769,0
3413783,436.91,673,758,0
3413793,437.28,673,769,0
3413804,434.41,673,758,0
3413814,430.73,673,769,0
3413824,424.60,673,758,0
3413834,418.16,673,769,0
3413844,409.88,673,759,0
3413854,402.33,673,769,0
3413864,393.75,673,759,0
3413874,386.24,673,769,0
3413884,378.49,673,759,0
3413894,372.56,673,769,0
3413904,366.82,673,759,0
3413914,363.06,673,769,0
3413924,359.61,673,759,0
3413934,358.19,673,769,0
3413944,357.19,673,759,0
3413954,358.03,673,769,0
3413964,358.84,673,759,0
3413975,361.07,673,769,0
3413985,363.28,673,759,0
3413995,366.97,673,769,0
3414005,371.30,673,760,0
3414016,378.11,673,769,0
3414025,386.57,673,759,0
3414035,398.91,673,769,0
3414045,414.71,673,760,0
3414055,435.67,673,769,0
3414065,460.28,673,760,0
3414075,489.21,673,769,0
3414085,520.26,673,760,0
3414095,552.97,673,769,0
3414105,583.92,673,760,0
3414115,612.06,673,769,0
3414125,634.20,673,760,0
3414135,650.08,673,769,0
3414154,657.39,645,768,0
3414157,655.51,645,769,0
3414166,645.03,645,761,0
3414176,627.19,645,768,0
3414187,602.58,645,762,0
3414196,573.35,645,768,0
3414206,540.63,645,761,0
3414216,506.45,645,769,0
3414226,473.15,645,763,0
3414236,441.00,645,769,0
3414246,411.17,645,761,0
3414256,384.64,645,769,0
3414266,361.90,645,763,0
3414276,343.50,645,768,0
3414286,329.68,645,761,0
3414296,320.78,645,769,0
3414306,317.03,645,763,0
3414316,318.39,645,769,0
3414326,324.27,645,761,0
3414336,334.13,645,769,0
3414346,347.25,645,762,0
3414356,362.65,645,769,0
3414366,379.00,645,761,0
3414376,395.24,645,769,0
3414386,410.51,645,763,0
3414396,423.90,645,768,0
3414406,434.90,645,761,0
3414416,442.95,645,769,0
3414426,447.98,645,763,0
3414436,449.95,645,768,0
3414446,449.15,645,761,0
3414456,445.98,645,769,0
3414466,440.97,645,763,0
3414476,434.34,645,769,0
3414487,426.78,645,765,0
3414497,418.40,645,769,0
3414507,410.05,645,767,0
3414517,401.29,645,768,0
3414528,392.98,645,769,0
3414537,385.10,645,768,0
3414547,378.21,645,767,0
