Time,PPG,IBI,GSR,GSR_Event
3693574,401.15,552,761,0
3693584,386.23,552,762,0
3693594,364.61,552,760,0
3693604,341.20,552,762,0
3693614,316.62,552,761,0
3693624,293.21,552,761,0
3693634,271.20,552,761,0
3693644,255.97,552,763,0
3693655,249.81,552,760,0
3693665,254.58,552,762,0
3693675,265.08,552,758,0
3693685,282.15,552,763,0
3693696,302.81,552,756,0
3693705,326.87,552,763,0
3693715,351.21,552,759,0
3693725,377.12,552,763,0
3693735,402.88,552,757,0
3693745,430.26,552,763,0
3693755,456.32,552,759,0
3693765,482.93,552,763,0
3693775,507.89,552,757,0
3693785,532.05,552,763,0
3693795,552.48,552,759,0
3693805,569.91,552,763,0
3693815,581.64,552,757,0
3693825,588.64,552,763,0
3693835,588.88,552,759,0
3693845,583.94,552,763,0
3693855,572.35,552,757,0
3693865,556.77,552,763,0
3693875,536.70,552,760,0
3693885,514.85,552,763,0
3693895,490.25,552,757,0
3693905,465.79,552,763,0
3693915,440.69,552,760,0
3693925,417.77,552,763,0
3693935,395.43,552,757,0
3693945,375.80,552,763,0
3693955,357.86,552,760,0
3693965,343.89,552,763,0
3693975,332.09,552,757,0
3693985,324.26,552,763,0
3693996,318.70,552,755,0
3694006,317.29,552,763,0
3694016,317.67,552,754,0
3694026,321.20,552,763,0
3694036,325.30,552,753,0
3694046,331.51,552,763,0
3694056,336.97,552,753,0
3694066,343.28,552,763,0
3694076,347.87,552,753,0
3694086,352.54,552,763,0
3694096,354.90,552,754,0
3694106,357.08,552,762,0
3694116,356.80,552,753,0
3694126,356.94,552,763,0
3694136,355.03,552,754,0
3694146,353.44,552,762,0
3694156,350.18,552,753,0
3694167,347.55,552,763,0
3694177,343.74,552,752,0
3694187,341.33,552,763,0
3694197,338.02,552,752,0
3694208,336.21,552,763,0
3694217,334.31,552,753,0
3694227,334.60,552,764,0
3694237,334.59,552,752,0
3694247,336.00,552,763,0
3694257,336.04,552,753,0
3694267,336.89,552,763,0
3694277,336.11,552,752,0
3694287,335.39,552,763,0
3694297,332.36,552,753,0
3694307,329.72,552,763,0
3694317,325.56,552,752,0
3694327,322.91,552,763,0
3694337,319.89,552,753,0
3694347,319.62,552,763,0
3694357,320.42,552,752,0
3694367,325.70,552,763,0
3694377,333.42,552,752,0
3694387,345.89,552,763,0
3694397,360.20,552,752,0
3694407,378.05,552,763,0
3694417,396.04,552,752,0
3694427,415.31,552,763,0
3694446,431.89,0,764,0
3694448,449.28,0,766,0
3694458,464.58,0,754,0
3694468,478.51,0,765,0
3694478,487.65,0,753,0
3694488,493.76,0,765,0
3694498,494.60,0,754,0
3694508,492.84,0,765,0
3694518,484.10,0,753,0
3694528,471.26,0,765,0
3694538,453.82,0,754,0
3694548,435.62,0,765,0
3694558,415.68,0,754,0
3694568,397.17,0,765,0
3694578,378.56,0,754,0
3694588,362.84,0,765,0
3694598,348.19,0,754,0
3694608,337.16,0,765,0
3694618,327.43,0,754,0
3694628,321.26,0,765,0
3694638,316.34,0,754,0
3694648,314.73,0,765,0
3694658,314.09,0,754,0
3694668,315.95,0,765,0
3694679,317.85,0,754,0
3694689,321.88,0,765,0
3694699,325.99,0,755,0
3694709,331.43,0,765,0
3694720,335.67,0,755,0
3694729,340.32,0,765,0
3694739,343.48,0,754,0
3694749,346.85,0,765,0
3694759,348.39,0,755,0
3694769,349.65,0,765,0
3694779,349.11,0,754,0
3694789,348.52,0,765,0
3694799,346.56,0,755,0
3694809,345.02,0,765,0
3694819,342.32,0,754,0
3694829,340.25,0,765,0
3694839,337.18,0,754,0
3694849,335.11,0,765,0
3694859,332.59,0,754,0
3694869,331.17,0,765,0
3694879,329.28,0,755,0
3694889,328.64,0,765,0
3694899,327.59,0,754,0
3694909,327.67,0,765,0
3694919,327.17,0,755,0
3694929,327.59,0,765,0
3694939,327.16,0,754,0
3694949,327.67,0,765,0
3694959,327.25,0,755,0
3694969,327.39,0,765,0
3694979,326.54,0,754,0
3694989,326.47,0,765,0
3694999,325.90,0,755,0
3695009,326.57,0,765,0
3695020,326.96,0,755,0
3695030,328.81,0,765,0
3695040,331.05,0,756,0
3695050,335.20,0,765,0
3695060,340.24,0,757,0
3695070,347.24,0,765,0
3695080,354.75,0,756,0
3695090,363.40,0,765,0
3695100,371.89,0,757,0
3695110,380.67,0,765,0
3695120,388.14,0,755,0
3695130,394.53,0,765,0
3695140,398.61,0,756,0
3695159,401.73,713,754,0
3695162,402.67,713,762,0
3695171,402.25,713,765,0
3695181,401.11,713,762,0
3695191,404.03,713,769,0
3695201,408.78,713,761,0
3695211,414.67,713,769,0
3695221,419.57,713,762,0
3695232,423.56,713,769,0
3695241,425.92,713,761,0
3695251,425.69,713,769,0
3695261,418.97,713,762,0
3695271,407.58,713,768,0
3695281,391.80,713,758,0
3695291,371.03,713,765,0
3695301,348.40,713,758,0
3695311,326.21,713,765,0
3695321,305.96,713,757,0
3695331,289.04,713,765,0
3695341,276.09,713,758,0
3695351,268.73,713,765,0
3695361,269.07,713,757,0
3695371,275.35,713,764,0
3695381,285.36,713,758,0
3695391,297.68,713,765,0
3695401,310.76,713,759,0
3695411,323.82,713,764,0
3695421,335.96,713,758,0
3695431,346.90,713,765,0
3695441,355.72,713,759,0
3695451,362.57,713,764,0
3695461,367.33,713,757,0
3695471,370.06,713,765,0
3695481,371.11,713,759,0
3695491,370.86,713,764,0
3695501,369.41,713,757,0
3695511,367.36,713,765,0
3695521,364.85,713,759,0
3695532,362.37,713,764,0
3695542,360.11,713,761,0
3695552,357.76,713,764,0
3695562,355.69,713,763,0
3695572,353.51,713,764,0
3695582,351.77,713,760,0
3695592,350.26,713,764,0
3695602,349.24,713,763,0
3695612,348.22,713,764,0
3695622,347.81,713,760,0
3695632,347.48,713,764,0
3695642,348.15,713,762,0
3695652,348.84,713,764,0
3695662,350.17,713,759,0
3695672,351.32,713,764,0
3695682,353.15,713,762,0
3695692,354.91,713,764,0
3695703,357.33,713,764,0
3695713,359.38,713,763,0
3695723,362.26,713,765,0
3695733,364.71,713,761,0
3695744,368.14,713,765,0
3695753,371.23,713,764,0
3695763,375.27,713,765,0
3695773,378.71,713,762,0
3695783,383.17,713,765,0
3695793,386.76,713,764,0
3695803,390.86,713,765,0
3695813,393.47,713,762,0
3695823,396.16,713,765,0
3695833,397.44,713,764,0
3695843,398.72,713,765,0
3695853,398.21,713,762,0
3695863,397.59,713,765,0
3695873,396.51,713,765,0
3695892,396.83,733,763,0
3695895,395.85,733,756,0
3695904,395.64,733,766,0
3695915,394.25,733,758,0
3695924,393.57,733,766,0
3695934,391.69,733,760,0
3695944,389.64,733,766,0
3695954,385.33,733,758,0
3695964,382.02,733,766,0
3695974,377.21,733,760,0
3695984,373.72,733,766,0
3695994,369.26,733,758,0
3696004,366.53,733,766,0
3696014,363.50,733,760,0
3696024,362.36,733,766,0
3696034,360.71,733,758,0
3696044,361.05,733,766,0
3696054,361.21,733,760,0
3696064,363.33,733,766,0
3696074,364.73,733,759,0
3696084,367.43,733,766,0
3696094,369.23,733,760,0
3696104,372.12,733,766,0
3696114,373.50,733,758,0
3696124,375.58,733,766,0
3696134,376.13,733,760,0
3696144,377.59,733,766,0
3696154,377.59,733,759,0
3696164,378.40,733,766,0
3696174,378.02,733,761,0
3696184,378.44,733,765,0
3696194,377.41,733,759,0
3696204,377.42,733,766,0
3696215,376.09,733,757,0
3696225,375.85,733,766,0
3696235,374.57,733,756,0
3696245,374.57,733,766,0
3696256,373.75,733,755,0
3696265,374.39,733,766,0
3696275,373.93,733,756,0
3696285,374.68,733,765,0
3696295,374.30,733,755,0
3696305,375.15,733,765,0
3696315,374.77,733,756,0
3696325,375.61,733,766,0
3696335,375.17,733,755,0
3696345,376.02,733,765,0
3696355,375.84,733,756,0
3696365,377.05,733,765,0
3696375,377.20,733,755,0
3696385,378.90,733,765,0
3696395,379.74,733,756,0
3696405,382.48,733,766,0
3696415,384.48,733,755,0
3696425,388.02,733,765,0
3696435,390.54,733,756,0
3696445,394.15,733,766,0
3696464,396.21,572,764,0
3696467,398.93,572,766,0
3696476,400.02,572,755,0
3696486,401.82,572,765,0
3696496,402.00,572,754,0
3696506,402.81,572,765,0
3696516,402.10,572,755,0
3696526,402.15,572,765,0
3696536,400.69,572,754,0
3696546,399.76,572,765,0
3696556,397.39,572,754,0
3696566,396.07,572,766,0
3696576,393.48,572,754,0
3696586,392.01,572,765,0
3696596,389.52,572,754,0
3696606,388.46,572,766,0
3696616,386.57,572,755,0
3696626,386.31,572,766,0
3696636,385.23,572,755,0
3696646,385.76,572,766,0
3696656,385.49,572,755,0
3696666,386.54,572,766,0
3696676,386.68,572,755,0
3696686,388.32,572,766,0
3696696,388.69,572,755,0
3696706,389.73,572,766,0
3696716,389.34,572,755,0
3696727,389.71,572,766,0
3696737,388.77,572,755,0
3696747,388.67,572,766,0
3696757,387.22,572,755,0
3696768,386.73,572,766,0
3696777,385.61,572,755,0
3696787,385.73,572,766,0
3696797,385.25,572,755,0
3696807,386.20,572,766,0
3696817,386.23,572,754,0
3696827,387.23,572,765,0
3696837,387.29,572,754,0
3696847,388.32,572,766,0
3696857,388.31,572,754,0
3696867,389.12,572,765,0
3696877,388.87,572,754,0
3696887,389.72,572,765,0
3696897,389.68,572,754,0
3696907,390.67,572,765,0
3696917,390.69,572,754,0
3696927,391.72,572,765,0
3696937,391.85,572,754,0
3696947,392.92,572,765,0
3696957,393.16,572,754,0
3696967,394.31,572,765,0
3696977,394.48,572,754,0
3696987,395.53,572,765,0
3696997,395.50,572,753,0
3697007,396.47,572,765,0
3697017,396.45,572,754,0
3697027,397.69,572,765,0
3697037,398.17,572,754,0
3697047,399.75,572,765,0
3697057,400.55,572,754,0
3697077,402.79,613,753,0
3697080,404.78,613,759,0
3697089,408.15,613,765,0
3697099,410.89,613,756,0
3697110,414.39,613,765,0
3697119,417.10,613,755,0
3697129,420.37,613,765,0
3697139,422.57,613,756,0
3697149,424.50,613,765,0
3697159,425.04,613,755,0
3697169,425.20,613,765,0
3697179,424.50,613,756,0
3697189,423.75,613,765,0
3697199,422.07,613,754,0
3697209,420.55,613,765,0
3697219,418.67,613,756,0
3697229,417.27,613,765,0
3697239,415.56,613,755,0
3697249,414.28,613,765,0
3697259,412.78,613,756,0
3697269,411.86,613,765,0
3697280,410.66,613,756,0
3697289,409.90,613,765,0
3697299,408.90,613,756,0
3697309,408.50,613,764,0
3697319,407.97,613,756,0
3697329,408.11,613,764,0
3697339,408.07,613,755,0
3697349,408.44,613,764,0
3697359,408.52,613,756,0
3697369,409.09,613,764,0
3697379,409.41,613,755,0
3697389,410.10,613,764,0
3697399,410.50,613,756,0
3697409,411.51,613,764,0
3697419,412.21,613,755,0
3697429,413.22,613,764,0
3697439,413.67,613,755,0
3697449,414.24,613,764,0
3697459,414.17,613,755,0
3697469,414.07,613,764,0
3697479,413.19,613,755,0
3697489,412.75,613,764,0
3697499,411.93,613,755,0
3697509,411.65,613,763,0
3697519,411.15,613,755,0
3697529,410.98,613,763,0
3697539,410.60,613,754,0
3697549,410.85,613,763,0
3697559,410.68,613,755,0
3697569,410.65,613,763,0
3697580,411.14,613,756,0
3697590,412.13,613,763,0
3697600,412.77,613,757,0
3697610,413.87,613,764,0
3697620,415.58,613,760,0
3697630,417.51,613,764,0
3697640,419.24,613,757,0
3697650,419.90,613,764,0
3697660,420.10,613,759,0
3697670,420.71,613,764,0
3697680,421.01,613,757,0
3697690,420.19,613,764,0
3697700,419.41,613,759,0
3697710,419.07,613,764,0
3697720,419.31,613,757,0
3697730,420.46,613,764,0
3697740,421.99,613,758,0
3697760,424.05,683,758,0
3697763,428.54,683,765,0
3697772,434.46,683,762,0
3697782,442.47,683,764,0
3697793,451.63,683,761,0
3697803,462.50,683,765,0
3697813,473.79,683,759,0
3697823,485.77,683,766,0
3697833,494.58,683,757,0
3697843,501.48,683,766,0
3697853,504.08,683,760,0
3697863,504.27,683,766,0
3697873,499.77,683,757,0
3697883,493.58,683,766,0
3697893,484.32,683,759,0
3697903,475.44,683,766,0
3697913,465.45,683,758,0
3697923,457.34,683,766,0
3697933,449.14,683,759,0
3697943,443.44,683,765,0
3697953,438.17,683,758,0
3697964,435.67,683,765,0
3697974,433.50,683,756,0
3697984,433.78,683,765,0
3697994,433.97,683,755,0
3698004,436.30,683,765,0
3698014,438.05,683,756,0
3698024,441.08,683,765,0
3698034,442.81,683,755,0
3698044,445.70,683,765,0
3698054,447.29,683,755,0
3698064,450.03,683,765,0
3698074,451.35,683,755,0
3698084,453.77,683,764,0
3698094,455.04,683,755,0
3698104,457.26,683,764,0
3698114,457.74,683,755,0
3698124,459.06,683,764,0
3698135,458.53,683,753,0
3698145,458.84,683,764,0
3698155,458.07,683,754,0
3698165,458.61,683,765,0
3698176,458.00,683,753,0
3698185,458.60,683,765,0
3698195,457.73,683,754,0
3698205,457.94,683,765,0
3698215,456.54,683,753,0
3698225,455.35,683,765,0
3698235,451.99,683,754,0
3698245,449.42,683,765,0
3698255,445.61,683,753,0
3698265,443.11,683,765,0
3698275,439.91,683,754,0
3698285,438.61,683,765,0
3698295,437.05,683,753,0
3698305,437.29,683,765,0
3698315,437.12,683,754,0
3698325,439.01,683,765,0
3698335,440.77,683,754,0
3698345,444.86,683,765,0
3698355,448.93,683,754,0
3698365,455.60,683,765,0
3698375,462.83,683,754,0
3698385,472.83,683,765,0
3698395,483.46,683,755,0
3698414,496.61,654,753,0
3698417,509.33,654,755,0
3698426,523.46,654,766,0
3698436,535.53,654,754,0
3698446,547.16,654,765,0
3698456,555.47,654,754,0
3698466,561.84,654,766,0
3698476,564.25,654,754,0
3698486,564.73,654,765,0
3698496,561.38,654,754,0
3698506,556.85,654,766,0
3698516,549.61,654,754,0
3698526,542.27,654,766,0
3698536,533.06,654,754,0
3698546,524.39,654,766,0
3698556,514.71,654,754,0
3698566,506.36,654,765,0
3698576,497.68,654,754,0
3698586,491.09,654,766,0
3698596,484.68,654,754,0
3698606,480.92,654,766,0
3698616,477.43,654,754,0
3698626,476.27,654,766,0
3698636,475.42,654,754,0
3698647,476.79,654,765,0
3698657,478.10,654,754,0
3698667,480.98,654,765,0
3698677,483.30,654,755,0
3698688,486.85,654,765,0
3698697,489.56,654,754,0
3698707,492.95,654,765,0
3698717,495.10,654,755,0
3698727,497.47,654,765,0
3698737,498.36,654,754,0
3698747,499.19,654,765,0
3698757,498.41,654,754,0
3698767,497.64,654,765,0
3698777,495.31,654,754,0
3698787,493.11,654,765,0
3698797,489.82,654,754,0
3698807,487.13,654,765,0
3698817,483.58,654,754,0
3698827,480.96,654,765,0
3698837,477.50,654,754,0
3698847,475.04,654,765,0
3698857,471.85,654,755,0
3698867,469.54,654,765,0
3698877,466.46,654,754,0
3698887,464.23,654,765,0
3698897,461.20,654,755,0
3698907,458.95,654,764,0
3698917,456.10,654,754,0
3698927,454.35,654,765,0
3698937,452.45,654,754,0
3698947,452.01,654,764,0
3698957,451.71,654,754,0
3698967,453.68,654,765,0
3698977,457.03,654,755,0
3698988,463.37,654,765,0
3698998,471.36,654,756,0
3699008,482.35,654,765,0
3699018,495.02,654,756,0
3699028,510.35,654,765,0
3699038,526.19,654,755,0
3699048,543.19,654,765,0
3699058,559.16,654,756,0
3699068,574.50,654,764,0
3699078,587.34,654,755,0
3699088,597.99,654,765,0
3699098,605.07,654,756,0
3699118,609.16,703,754,0
3699121,609.24,703,765,0
3699130,606.17,703,764,0
3699140,599.56,703,762,0
3699150,589.96,703,764,0
3699160,577.85,703,760,0
3699170,564.22,703,764,0
3699180,549.54,703,762,0
3699190,534.51,703,764,0
3699201,520.13,703,764,0
3699211,506.67,703,764,0
3699221,495.50,703,765,0
3699231,485.92,703,763,0
3699241,479.13,703,765,0
3699251,474.33,703,764,0
3699261,472.35,703,765,0
3699271,471.90,703,763,0
3699281,473.73,703,765,0
3699291,476.38,703,764,0
3699301,480.43,703,765,0
3699311,484.03,703,764,0
3699321,488.13,703,765,0
3699331,491.31,703,764,0
3699341,494.09,703,765,0
3699351,495.26,703,763,0
3699361,495.78,703,765,0
3699372,495.03,703,763,0
3699382,494.12,703,765,0
3699392,491.60,703,760,0
3699402,488.98,703,765,0
3699412,485.17,703,758,0
3699422,481.78,703,765,0
3699432,477.21,703,760,0
3699442,473.34,703,765,0
3699452,468.35,703,758,0
3699462,464.64,703,765,0
3699472,460.08,703,760,0
3699482,456.71,703,765,0
3699492,452.38,703,758,0
3699502,449.53,703,765,0
3699512,445.81,703,760,0
3699522,443.64,703,765,0
3699532,440.45,703,757,0
3699543,438.47,703,765,0
3699553,435.54,703,756,0
3699563,434.22,703,765,0
3699573,432.01,703,755,0
3699584,431.15,703,765,0
3699593,429.61,703,756,0
3699603,430.20,703,765,0
3699613,431.08,703,755,0
3699623,435.13,703,765,0
3699633,440.36,703,757,0
3699643,449.60,703,765,0
3699653,460.39,703,755,0
3699663,474.80,703,765,0
3699673,489.95,703,756,0
3699683,507.58,703,765,0
3699693,524.07,703,755,0
3699703,540.81,703,765,0
3699713,554.28,703,756,0
3699723,566.37,703,765,0
3699733,574.10,703,756,0
3699743,579.73,703,765,0
3699753,580.32,703,755,0
3699763,578.56,703,766,0
3699773,571.87,703,756,0
3699783,563.13,703,766,0
3699793,550.36,703,755,0
3699803,536.79,703,766,0
3699813,520.14,703,756,0
3699823,503.56,703,766,0
3699833,485.22,703,756,0
3699843,468.61,703,766,0
3699853,451.88,703,757,0
3699863,437.99,703,766,0
3699873,424.79,703,756,0
3699884,415.34,703,766,0
3699894,407.70,703,756,0
3699904,404.36,703,766,0
3699914,402.54,703,755,0
3699924,404.26,703,766,0
3699934,406.45,703,756,0
3699944,411.20,703,766,0
3699954,415.34,703,755,0
3699964,420.85,703,766,0
3699974,424.88,703,756,0
3699984,429.63,703,766,0
3699994,432.66,703,755,0
3700004,436.32,703,766,0
3700014,438.02,703,756,0
3700024,440.16,703,766,0
3700034,439.98,703,755,0
3700044,439.90,703,765,0
3700055,437.79,703,755,0
3700065,436.05,703,766,0
3700075,432.74,703,755,0
3700085,430.24,703,766,0
3700096,426.87,703,755,0
3700105,424.94,703,766,0
3700115,422.34,703,755,0
3700125,421.25,703,765,0
3700135,419.59,703,755,0
3700145,419.50,703,766,0
3700155,418.45,703,755,0
3700165,418.23,703,765,0
3700175,417.05,703,755,0
3700185,417.08,703,766,0
3700195,416.11,703,755,0
3700205,415.91,703,765,0
3700215,414.52,703,755,0
3700225,414.54,703,766,0
3700235,414.29,703,755,0
3700245,416.26,703,765,0
3700255,418.75,703,755,0
3700265,424.14,703,765,0
3700275,431.04,703,755,0
3700285,441.53,703,765,0
3700295,453.71,703,755,0
3700305,469.19,703,766,0
3700315,485.03,703,754,0
3700334,502.63,0,753,0
3700337,519.16,0,757,0
3700346,535.87,0,765,0
3700356,549.62,0,755,0
3700366,561.35,0,765,0
3700376,568.49,0,755,0
3700386,572.84,0,765,0
3700396,572.16,0,755,0
3700406,568.43,0,765,0
3700416,559.81,0,755,0
3700426,548.81,0,765,0
3700436,534.51,0,755,0
3700446,519.57,0,765,0
3700456,502.99,0,755,0
3700466,487.05,0,765,0
3700476,470.96,0,755,0
3700486,457.13,0,765,0
3700496,444.45,0,755,0
3700506,434.80,0,765,0
3700516,426.80,0,755,0
3700526,422.32,0,765,0
3700536,419.95,0,754,0
3700546,421.25,0,765,0
3700556,423.92,0,755,0
3700567,429.34,0,765,0
3700577,435.58,0,755,0
3700587,443.51,0,765,0
3700597,451.07,0,756,0
3700608,458.85,0,765,0
3700617,464.81,0,755,0
3700627,470.69,0,765,0
3700637,474.51,0,756,0
3700647,477.40,0,765,0
3700657,477.97,0,756,0
3700667,477.46,0,765,0
3700677,475.22,0,756,0
3700687,472.67,0,765,0
3700697,468.48,0,755,0
3700707,464.22,0,765,0
3700717,458.89,0,756,0
3700727,453.86,0,765,0
3700737,448.20,0,755,0
3700747,443.43,0,765,0
3700757,438.41,0,756,0
3700767,434.48,0,765,0
3700777,430.82,0,756,0
3700787,428.47,0,765,0
3700797,426.10,0,756,0
3700807,424.83,0,765,0
3700817,423.47,0,756,0
3700827,422.98,0,765,0
3700837,422.26,0,756,0
3700847,422.22,0,765,0
3700857,422.16,0,756,0
3700867,423.57,0,765,0
3700877,425.88,0,756,0
3700887,430.55,0,765,0
3700897,437.24,0,756,0
3700908,447.54,0,765,0
3700918,460.75,0,757,0
3700928,477.62,0,765,0
3700938,497.15,0,758,0
3700948,518.96,0,765,0
3700958,541.26,0,757,0
3700968,563.51,0,765,0
3700978,583.16,0,758,0
3700988,599.48,0,765,0
3700998,610.78,0,757,0
3701008,616.97,0,764,0
3701018,617.37,0,758,0
3701038,612.54,703,757,0
3701041,602.14,703,766,0
3701050,587.61,703,764,0
3701060,569.98,703,764,0
3701070,550.02,703,762,0
3701080,529.36,703,764,0
3701090,508.72,703,764,0
3701100,489.09,703,764,0
3701110,471.23,703,763,0
3701121,456.21,703,764,0
3701131,443.42,703,761,0
3701141,434.33,703,764,0
3701151,427.63,703,759,0
3701161,425.30,703,765,0
3701171,425.47,703,761,0
3701181,428.88,703,764,0
3701191,433.25,703,759,0
3701201,439.86,703,765,0
3701211,446.63,703,761,0
3701221,454.46,703,765,0
3701231,460.36,703,759,0
3701241,466.00,703,765,0
3701251,469.51,703,761,0
3701261,472.62,703,764,0
3701271,473.16,703,759,0
3701281,473.15,703,765,0
3701292,470.49,703,757,0
3701302,467.86,703,765,0
3701312,463.40,703,756,0
3701322,459.21,703,765,0
3701332,453.53,703,755,0
3701342,448.92,703,765,0
3701352,443.11,703,756,0
3701362,438.62,703,765,0
3701372,432.86,703,755,0
3701382,428.36,703,765,0
3701392,423.15,703,756,0
3701402,419.42,703,765,0
3701412,414.71,703,755,0
3701422,411.80,703,765,0
3701432,408.26,703,756,0
3701442,406.68,703,765,0
3701452,404.38,703,755,0
3701463,403.75,703,765,0
3701473,402.75,703,754,0
3701483,404.07,703,765,0
3701493,405.51,703,754,0
3701504,409.90,703,764,0
3701513,415.29,703,754,0
3701523,424.93,703,765,0
3701533,436.86,703,754,0
3701543,453.88,703,765,0
3701553,473.03,703,755,0
3701563,496.16,703,765,0
3701573,520.16,703,754,0
3701583,546.04,703,765,0
3701593,569.64,703,755,0
3701603,591.61,703,765,0
3701613,608.10,703,754,0
3701623,620.58,703,765,0
3701633,625.98,703,754,0
3701643,626.16,703,765,0
3701653,619.08,703,754,0
3701663,607.66,703,765,0
3701683,590.57,645,764,0
3701686,570.64,645,766,0
3701695,547.69,645,754,0
3701705,524.51,645,765,0
3701715,500.49,645,754,0
3701725,478.57,645,765,0
3701735,457.44,645,754,0
3701745,439.91,645,765,0
3701755,424.89,645,754,0
3701765,413.78,645,765,0
3701775,405.15,645,753,0
3701785,400.65,645,764,0
3701795,398.44,645,754,0
3701805,400.28,645,764,0
3701815,403.71,645,753,0
3701825,409.37,645,764,0
3701835,415.51,645,753,0
3701846,423.20,645,764,0
3701855,430.69,645,754,0
3701865,439.18,645,765,0
3701875,446.11,645,754,0
3701885,452.64,645,765,0
3701895,457.33,645,754,0
3701905,461.35,645,765,0
3701915,462.87,645,754,0
3701925,462.87,645,765,0
3701935,459.48,645,754,0
3701945,455.26,645,765,0
3701955,448.84,645,754,0
3701965,442.37,645,765,0
3701975,434.38,645,754,0
3701985,427.96,645,765,0
3701995,420.99,645,754,0
3702005,415.51,645,765,0
3702016,409.74,645,755,0
3702025,405.79,645,765,0
3702035,402.08,645,754,0
3702045,400.30,645,765,0
3702055,397.90,645,755,0
3702065,397.63,645,766,0
3702075,397.57,645,754,0
3702085,399.07,645,766,0
3702095,400.03,645,755,0
3702105,401.40,645,765,0
3702115,401.32,645,754,0
3702125,402.90,645,766,0
3702135,404.13,645,754,0
3702145,407.09,645,765,0
3702155,411.90,645,754,0
3702165,421.53,645,766,0
3702175,435.00,645,756,0
3702185,454.37,645,765,0
3702195,475.69,645,754,0
3702205,500.64,645,766,0
3702215,527.06,645,755,0
3702225,554.21,645,766,0
3702235,578.58,645,755,0
3702245,600.61,645,766,0
3702255,616.97,645,756,0
3702265,628.89,645,766,0
3702284,633.85,602,764,0
3702287,632.10,602,767,0
3702296,623.84,602,757,0
3702306,610.52,602,766,0
3702316,591.42,602,756,0
3702326,569.39,602,766,0
3702336,544.29,602,756,0
3702346,519.00,602,766,0
3702356,494.23,602,758,0
3702366,470.68,602,766,0
3702376,448.57,602,757,0
3702386,429.93,602,766,0
3702396,414.14,602,757,0
3702406,402.70,602,766,0
3702416,394.43,602,757,0
3702426,390.02,602,766,0
3702436,387.87,602,757,0
3702446,388.72,602,766,0
3702456,391.38,602,756,0
3702466,396.45,602,766,0
3702476,403.09,602,757,0
3702487,410.99,602,766,0
3702497,418.96,602,759,0
3702507,427.67,602,766,0
3702517,435.74,602,760,0
3702528,442.68,602,766,0
3702537,447.36,602,758,0
3702547,449.61,602,766,0
3702557,448.78,602,759,0
3702567,445.68,602,766,0
3702577,441.53,602,759,0
3702587,438.97,602,768,0
3702597,436.45,602,760,0
3702607,434.00,602,768,0
3702617,430.10,602,759,0
3702627,426.26,602,766,0
3702637,422.49,602,760,0
3702647,418.36,602,766,0
3702657,412.12,602,760,0
3702667,407.46,602,768,0
3702677,404.41,602,761,0
3702687,404.07,602,768,0
3702697,408.59,602,765,0
3702707,417.33,602,771,0
3702717,429.62,602,765,0
3702727,444.26,602,772,0
3702737,458.28,602,766,0
3702747,471.10,602,772,0
3702757,482.13,602,765,0
3702767,488.13,602,771,0
3702777,489.63,602,766,0
3702787,487.00,602,772,0
3702797,481.86,602,765,0
3702807,476.46,602,772,0
3702817,472.63,602,766,0
3702828,472.40,602,772,0
3702838,477.00,602,768,0
3702848,486.51,602,771,0
3702858,500.67,602,771,0
3702868,518.17,602,772,0
3702878,537.75,602,768,0
3702888,557.32,602,772,0
3702907,575.27,623,770,0
3702910,587.87,623,766,0
3702919,595.88,623,772,0
3702929,597.20,623,770,0
3702939,592.17,623,772,0
3702949,579.82,623,769,0
3702959,562.47,623,771,0
3702969,540.52,623,771,0
3702979,517.48,623,772,0
3702989,492.09,623,770,0
3702999,467.21,623,771,0
3703009,442.84,623,771,0
3703019,421.63,623,772,0
3703029,402.20,623,770,0
3703040,386.45,623,772,0
3703049,373.68,623,771,0
3703059,365.24,623,772,0
3703069,359.60,623,770,0
3703079,358.56,623,772,0
3703089,360.84,623,771,0
3703099,367.36,623,772,0
3703109,375.56,623,770,0
3703119,386.15,623,772,0
3703129,396.95,623,771,0
3703139,409.09,623,772,0
3703149,419.95,623,770,0
3703159,430.12,623,772,0
3703169,437.76,623,771,0
3703179,443.96,623,772,0
3703189,447.06,623,770,0
3703199,448.63,623,772,0
3703209,447.41,623,769,0
3703219,445.27,623,773,0
3703229,440.65,623,771,0
3703239,435.27,623,772,0
3703249,428.20,623,769,0
3703259,421.37,623,772,0
3703269,413.67,623,771,0
3703279,406.83,623,772,0
3703289,399.21,623,769,0
3703299,392.72,623,772,0
3703309,386.63,623,771,0
3703319,383.01,623,772,0
3703329,379.84,623,769,0
3703340,378.43,623,772,0
3703350,376.84,623,767,0
3703360,377.36,623,772,0
3703370,377.68,623,765,0
3703380,379.06,623,772,0
3703390,379.34,623,767,0
3703400,380.61,623,772,0
3703410,381.07,623,765,0
3703420,382.64,623,772,0
3703430,383.47,623,767,0
3703440,386.42,623,772,0
3703450,389.68,623,765,0
3703460,395.56,623,772,0
3703470,403.32,623,767,0
3703480,415.31,623,772,0
3703490,430.26,623,765,0
3703500,449.64,623,772,0
3703511,470.96,623,764,0
3703521,495.49,623,772,0
3703531,519.34,623,762,0
3703541,541.70,623,771,0
3703552,557.64,623,760,0
3703561,568.04,623,770,0
3703571,570.08,623,760,0
3703581,565.99,623,770,0
3703591,553.99,623,760,0
3703610,537.96,703,760,0
3703613,516.50,703,759,0
3703622,495.61,703,770,0
3703632,473.57,703,759,0
3703642,453.73,703,770,0
3703652,434.18,703,759,0
3703662,417.37,703,770,0
3703672,401.19,703,759,0
3703682,389.00,703,770,0
3703692,377.99,703,760,0
3703702,370.75,703,770,0
3703712,364.87,703,759,0
3703723,362.59,703,770,0
3703732,361.90,703,760,0
3703742,364.97,703,770,0
3703752,369.44,703,760,0
3703762,376.85,703,770,0
3703772,384.57,703,760,0
3703782,394.04,703,770,0
3703792,402.60,703,760,0
3703802,411.76,703,770,0
3703812,418.48,703,760,0
3703822,424.63,703,770,0
3703832,427.74,703,759,0
3703842,429.75,703,770,0
3703852,428.71,703,760,0
3703862,426.61,703,770,0
3703872,421.54,703,759,0
3703882,416.11,703,770,0
3703892,408.32,703,759,0
3703902,400.59,703,770,0
3703912,391.07,703,759,0
3703922,379.44,703,766,0
3703932,361.91,703,755,0
3703942,342.61,703,766,0
3703952,321.30,703,755,0
3703962,301.49,703,766,0
3703972,282.19,703,754,0
3703982,266.40,703,766,0
3703992,255.35,703,755,0
3704002,253.66,703,766,0
3704012,257.45,703,754,0
3704023,267.21,703,766,0
3704033,279.32,703,754,0
3704043,294.74,703,766,0
3704053,310.20,703,754,0
3704064,326.64,703,765,0
3704073,341.06,703,754,0
3704083,355.14,703,766,0
3704093,366.59,703,754,0
3704103,377.68,703,765,0
3704113,386.82,703,754,0
3704123,396.82,703,765,0
3704133,406.73,703,754,0
3704143,419.41,703,765,0
3704153,433.13,703,754,0
3704163,450.23,703,765,0
3704173,468.59,703,754,0
3704183,489.67,703,765,0
3704193,510.21,703,754,0
3704203,530.81,703,766,0
3704213,548.01,703,755,0
3704223,562.58,703,766,0
3704233,571.10,703,754,0
3704243,574.72,703,766,0
3704253,571.20,703,754,0
3704263,562.70,703,765,0
3704273,548.09,703,754,0
3704283,530.28,703,766,0
3704293,508.42,703,754,0
3704303,485.88,703,766,0
3704313,461.96,703,754,0
3704323,439.43,703,766,0
3704333,417.61,703,755,0
3704343,399.09,703,766,0
3704353,382.43,703,754,0
3704364,370.13,703,766,0
3704374,360.53,703,755,0
3704384,355.53,703,765,0
3704394,353.23,703,755,0
3704404,354.83,703,766,0
3704414,357.97,703,755,0
3704424,364.32,703,766,0
3704434,371.34,703,754,0
3704444,379.85,703,765,0
3704454,387.61,703,755,0
3704464,395.78,703,766,0
3704474,402.58,703,756,0
3704484,409.09,703,766,0
3704494,413.01,703,757,0
3704504,416.26,703,766,0
3704514,417.43,703,756,0
3704524,417.73,703,765,0
3704535,415.67,703,756,0
3704545,412.64,703,765,0
3704555,408.07,703,757,0
3704565,403.64,703,766,0
3704576,398.52,703,758,0
3704585,393.86,703,765,0
3704595,388.89,703,757,0
3704605,385.11,703,765,0
3704615,381.60,703,758,0
3704625,379.02,703,765,0
3704635,376.62,703,757,0
3704645,374.76,703,765,0
3704655,373.03,703,758,0
3704665,372.34,703,765,0
3704675,371.42,703,756,0
3704685,371.34,703,765,0
3704695,371.15,703,757,0
3704705,371.49,703,765,0
3704715,371.64,703,756,0
3704725,372.35,703,765,0
3704735,373.06,703,757,0
3704745,374.58,703,765,0
3704755,376.21,703,756,0
3704765,379.28,703,765,0
3704775,383.52,703,757,0
3704785,390.09,703,765,0
3704795,398.51,703,756,0
3704805,409.80,703,765,0
3704815,423.79,703,757,0
3704825,441.17,703,765,0
3704835,460.53,703,756,0
3704845,482.19,703,766,0
3704855,503.69,703,757,0
3704865,524.48,703,765,0
3704885,542.34,0,764,0
3704887,555.61,0,765,0
3704897,564.12,0,763,0
3704907,567.04,0,765,0
3704918,563.65,0,765,0
3704927,554.92,0,765,0
3704937,541.62,0,763,0
3704947,524.50,0,765,0
3704957,505.80,0,765,0
3704967,484.69,0,765,0
3704977,463.22,0,763,0
3704987,441.64,0,765,0
3704997,421.52,0,765,0
3705007,402.94,0,766,0
3705017,387.31,0,763,0
3705027,374.40,0,766,0
3705037,365.28,0,765,0
3705047,359.03,0,765,0
3705057,356.40,0,763,0
3705067,356.37,0,765,0
3705077,359.39,0,765,0
3705088,364.41,0,765,0
3705097,371.62,0,763,0
3705107,379.83,0,765,0
3705117,389.53,0,765,0
3705127,398.97,0,766,0
3705137,408.32,0,763,0
3705147,416.24,0,766,0
3705157,422.90,0,765,0
3705167,426.96,0,765,0
3705177,429.33,0,763,0
3705187,429.23,0,766,0
3705197,427.83,0,765,0
3705207,424.50,0,765,0
3705217,420.28,0,762,0
3705227,414.84,0,766,0
3705237,409.49,0,765,0
3705247,403.30,0,765,0
3705257,397.94,0,767,0
3705267,392.51,0,765,0
3705277,388.03,0,764,0
3705287,383.65,0,765,0
3705297,380.54,0,766,0
3705307,377.98,0,766,0
3705317,376.74,0,764,0
3705327,375.11,0,765,0
3705337,374.39,0,766,0
3705347,373.59,0,766,0
3705357,374.01,0,764,0
3705367,374.18,0,765,0
3705377,374.90,0,766,0
3705388,375.18,0,765,0
3705398,376.67,0,767,0
3705408,378.18,0,763,0
3705418,381.56,0,767,0
3705428,385.08,0,762,0
3705438,390.84,0,766,0
3705448,397.92,0,764,0
3705458,408.40,0,766,0
3705468,420.88,0,762,0
3705478,436.99,0,766,0
3705488,454.69,0,764,0
3705498,475.27,0,767,0
3705508,495.85,0,762,0
3705518,517.02,0,766,0
3705528,535.74,0,764,0
3705538,552.45,0,767,0
3705558,564.14,672,765,0
3705561,570.44,672,767,0
3705570,570.05,672,756,0
3705580,565.02,672,766,0
3705590,553.70,672,756,0
3705601,539.01,672,766,0
3705611,519.68,672,755,0
3705621,499.03,672,767,0
3705631,477.29,672,755,0
3705641,456.63,672,766,0
3705651,435.70,672,755,0
3705661,417.58,672,767,0
3705671,400.47,672,755,0
3705681,387.00,672,766,0
3705691,375.26,672,756,0
3705701,368.02,672,767,0
3705711,363.00,672,755,0
3705721,362.40,672,766,0
3705731,363.44,672,756,0
3705741,368.06,672,766,0
3705751,373.87,672,756,0
3705761,382.31,672,766,0
3705772,390.28,672,755,0
3705782,399.49,672,766,0
3705792,407.19,672,755,0
3705802,415.19,672,766,0
3705812,420.70,672,755,0
3705822,425.46,672,766,0
3705832,427.42,672,755,0
3705842,428.54,672,766,0
3705852,427.01,672,755,0
3705862,424.99,672,766,0
3705872,420.96,672,755,0
3705882,417.08,672,766,0
3705892,411.74,672,755,0
3705902,406.93,672,766,0
3705912,400.99,672,755,0
3705922,396.37,672,766,0
3705932,391.24,672,755,0
3705943,387.61,672,766,0
3705953,383.83,672,756,0
3705963,381.87,672,766,0
3705973,379.89,672,756,0
3705984,379.58,672,766,0
3705993,378.89,672,755,0
3706003,379.57,672,766,0
3706013,379.61,672,756,0
3706023,380.63,672,766,0
3706033,380.83,672,756,0
3706043,381.95,672,766,0
3706053,382.74,672,756,0
3706063,384.83,672,766,0
3706073,387.11,672,755,0
3706083,391.49,672,766,0
3706093,397.26,672,756,0
3706103,406.31,672,766,0
3706113,417.66,672,755,0
3706123,433.23,672,766,0
3706133,451.42,672,756,0
3706143,473.19,672,766,0
3706153,496.19,672,757,0
3706163,520.31,672,766,0
3706173,542.63,672,756,0
3706183,563.10,672,766,0
3706203,578.28,645,765,0
3706206,587.88,645,767,0
3706215,591.30,645,759,0
3706225,589.03,645,766,0
3706235,580.40,645,760,0
3706245,567.04,645,766,0
3706255,548.99,645,759,0
3706265,528.46,645,766,0
3706275,506.38,645,760,0
3706285,483.21,645,766,0
3706295,460.05,645,758,0
3706305,438.05,645,766,0
3706315,417.76,645,760,0
3706326,399.92,645,766,0
3706335,385.03,645,758,0
3706345,373.66,645,766,0
3706355,365.88,645,759,0
3706365,361.84,645,766,0
3706375,361.63,645,758,0
3706385,365.13,645,765,0
3706395,371.69,645,760,0
3706405,380.31,645,766,0
3706415,390.25,645,758,0
3706425,400.84,645,765,0
3706435,411.22,645,759,0
3706445,420.63,645,766,0
3706455,428.37,645,758,0
3706465,434.43,645,766,0
3706475,438.76,645,759,0
3706485,441.19,645,766,0
3706496,441.73,645,760,0
3706505,440.74,645,765,0
3706515,438.25,645,759,0
3706525,434.53,645,766,0
3706535,429.96,645,760,0
3706545,424.61,645,765,0
3706555,418.94,645,759,0
3706565,413.13,645,766,0
3706575,407.61,645,760,0
3706585,402.62,645,765,0
3706595,398.41,645,759,0
3706605,394.77,645,766,0
3706615,391.97,645,760,0
3706625,390.18,645,766,0
3706635,389.35,645,759,0
3706645,388.95,645,766,0
3706655,388.88,645,760,0
3706665,389.04,645,766,0
3706675,389.24,645,759,0
3706685,389.64,645,766,0
3706695,390.52,645,760,0
3706705,392.16,645,766,0
3706715,395.16,645,759,0
3706725,400.00,645,766,0
3706735,407.45,645,760,0
3706745,418.20,645,766,0
3706755,432.50,645,759,0
3706765,450.09,645,766,0
3706775,470.46,645,760,0
3706785,493.17,645,766,0
3706796,517.38,645,762,0
3706806,541.22,645,766,0
3706816,563.48,645,764,0
3706826,582.11,645,765,0
3706846,596.13,643,764,0
3706849,603.12,643,758,0
3706858,604.46,643,766,0
3706868,598.96,643,759,0
3706878,588.22,643,766,0
3706888,571.57,643,761,0
3706898,551.47,643,766,0
3706908,527.63,643,759,0
3706918,504.34,643,766,0
3706928,479.64,643,762,0
3706938,456.17,643,766,0
3706948,432.94,643,759,0
3706958,413.16,643,766,0
3706968,395.71,643,762,0
3706978,383.28,643,766,0
3706988,373.47,643,759,0
3706998,368.49,643,767,0
3707009,366.33,643,758,0
3707019,369.14,643,766,0
3707029,373.81,643,757,0
3707039,382.06,643,766,0
3707049,390.91,643,756,0
3707059,401.91,643,766,0
3707069,411.58,643,757,0
3707079,421.91,643,767,0
3707089,429.82,643,756,0
3707099,437.46,643,766,0
3707109,441.69,643,757,0
3707119,444.66,643,766,0
3707129,444.03,643,756,0
3707139,443.04,643,766,0
3707149,439.17,643,757,0
3707159,434.92,643,766,0
3707169,428.17,643,756,0
3707180,422.03,643,766,0
3707190,414.57,643,755,0
3707200,408.48,643,766,0
3707210,401.31,643,755,0
3707220,396.03,643,766,0
3707230,390.54,643,755,0
3707240,387.33,643,766,0
3707250,383.68,643,755,0
3707260,381.89,643,766,0
3707270,379.86,643,756,0
3707280,380.03,643,766,0
3707290,379.38,643,755,0
3707300,380.34,643,766,0
3707310,380.41,643,756,0
3707320,382.30,643,766,0
3707330,383.67,643,756,0
3707340,387.07,643,766,0
3707351,390.30,643,755,0
3707361,396.73,643,766,0
3707371,404.39,643,755,0
3707381,416.49,643,766,0
3707392,431.26,643,755,0
3707401,450.85,643,766,0
3707411,472.62,643,755,0
3707421,498.07,643,766,0
3707431,523.46,643,755,0
3707441,549.25,643,766,0
3707451,571.42,643,755,0
3707461,590.28,643,766,0
3707471,602.88,643,755,0
3707481,610.25,643,766,0
3707500,609.70,655,765,0
3707503,602.50,655,767,0
3707512,588.72,655,756,0
3707522,570.81,655,766,0
3707532,548.15,655,755,0
3707542,523.51,655,766,0
3707552,496.48,655,756,0
3707563,470.15,655,766,0
3707572,444.91,655,755,0
3707582,422.31,655,766,0
3707592,401.86,655,756,0
3707602,385.66,655,766,0
3707612,372.77,655,755,0
3707622,365.00,655,766,0
3707632,361.06,655,756,0
3707642,361.94,655,766,0
3707652,365.64,655,755,0
3707662,373.21,655,766,0
3707672,382.45,655,755,0
3707682,393.67,655,765,0
3707692,404.35,655,755,0
3707702,415.35,655,766,0
3707712,424.54,655,755,0
3707722,433.04,655,765,0
3707732,438.85,655,756,0
3707742,443.40,655,766,0
3707752,445.16,655,755,0
3707762,445.67,655,766,0
3707772,443.76,655,756,0
3707782,441.39,655,766,0
3707792,437.07,655,755,0
3707802,432.46,655,766,0
3707812,426.24,655,756,0
3707822,420.55,655,766,0
3707832,414.17,655,755,0
3707842,408.59,655,766,0
3707852,402.71,655,756,0
3707863,397.91,655,766,0
3707873,393.05,655,756,0
3707883,389.27,655,766,0
3707893,385.46,655,757,0
3707904,382.96,655,766,0
3707913,380.66,655,756,0
3707923,379.56,655,766,0
3707933,379.01,655,757,0
3707943,379.86,655,766,0
3707953,381.36,655,756,0
3707963,384.72,655,766,0
3707973,389.56,655,757,0
3707983,397.19,655,766,0
3707993,406.95,655,756,0
3708003,420.38,655,766,0
3708013,436.89,655,756,0
3708023,457.45,655,766,0
3708033,480.25,655,756,0
3708043,505.42,655,766,0
3708053,530.45,655,757,0
3708063,554.70,655,766,0
3708073,575.36,655,758,0
3708083,591.88,655,766,0
3708093,602.03,655,756,0
3708103,606.14,655,766,0
3708113,602.92,655,758,0
3708123,593.99,655,766,0
3708133,578.95,655,756,0
3708143,559.85,655,766,0
3708153,537.10,655,757,0
3708163,512.81,655,766,0
3708173,487.37,655,756,0
3708183,462.83,655,766,0
3708193,438.92,655,757,0
3708204,417.65,655,766,0
3708214,398.85,655,758,0
3708224,383.68,655,766,0
3708234,372.33,655,760,0
3708244,365.33,655,765,0
3708254,361.93,655,758,0
3708264,362.68,655,766,0
3708274,366.81,655,759,0
3708284,373.72,655,765,0
3708294,382.72,655,757,0
3708304,393.26,655,765,0
3708314,404.54,655,758,0
3708324,415.61,655,765,0
3708334,425.84,655,757,0
3708344,434.59,655,766,0
3708354,441.61,655,758,0
3708364,446.44,655,765,0
3708375,448.75,655,759,0
3708385,448.48,655,766,0
3708395,446.67,655,763,0
3708405,442.91,655,765,0
3708416,438.09,655,765,0
3708425,432.19,655,766,0
3708435,426.09,655,762,0
3708445,419.59,655,765,0
3708455,413.54,655,765,0
3708465,407.34,655,766,0
3708475,402.01,655,762,0
3708485,396.86,655,765,0
3708495,393.09,655,764,0
3708505,389.72,655,766,0
3708515,387.58,655,761,0
3708525,385.82,655,765,0
3708535,385.23,655,764,0
3708545,384.99,655,766,0
3708555,385.89,655,762,0
3708565,386.70,655,765,0
3708575,388.67,655,765,0
3708585,391.04,655,765,0
3708595,395.23,655,762,0
3708605,401.12,655,765,0
3708615,410.25,655,765,0
3708625,422.39,655,765,0
3708635,438.39,655,762,0
3708645,457.43,655,765,0
3708655,480.23,655,765,0
3708665,504.76,655,766,0
3708675,530.16,655,762,0
3708685,553.98,655,765,0
3708695,575.25,655,764,0
3708705,591.84,655,766,0
3708716,603.42,655,766,0
3708726,607.92,655,764,0
3708736,606.27,655,766,0
3708746,597.32,655,763,0
3708766,582.95,0,760,0
3708769,562.14,0,756,0
3708778,538.78,0,766,0
3708788,512.19,0,756,0
3708798,485.60,0,766,0
3708808,458.42,0,757,0
3708818,434.21,0,766,0
3708828,411.65,0,756,0
3708838,394.48,0,766,0
3708848,379.72,0,757,0
3708858,370.21,0,766,0
3708868,363.93,0,756,0
3708878,362.84,0,766,0
3708888,363.91,0,757,0
3708898,369.30,0,766,0
3708908,375.72,0,756,0
3708918,385.02,0,766,0
3708929,394.01,0,755,0
3708939,404.30,0,766,0
3708949,413.12,0,755,0
3708959,422.26,0,766,0
3708969,428.78,0,755,0
3708979,434.89,0,766,0
3708989,438.05,0,755,0
3708999,440.65,0,766,0
3709009,440.11,0,755,0
3709019,438.96,0,766,0
3709029,435.03,0,755,0
3709039,430.95,0,766,0
3709049,424.62,0,755,0
3709059,418.78,0,766,0
3709069,411.35,0,755,0
3709079,405.03,0,766,0
3709089,397.78,0,755,0
3709100,392.61,0,766,0
3709110,387.20,0,754,0
3709120,384.01,0,766,0
3709130,380.92,0,755,0
3709140,379.92,0,766,0
3709150,378.61,0,754,0
3709160,378.90,0,766,0
3709170,378.33,0,755,0
3709180,379.09,0,766,0
3709190,379.02,0,754,0
3709200,380.43,0,766,0
3709210,381.63,0,755,0
3709220,385.13,0,766,0
3709230,389.54,0,754,0
3709240,397.35,0,766,0
3709250,407.32,0,755,0
3709260,422.01,0,766,0
3709271,439.62,0,755,0
3709281,461.85,0,766,0
3709291,485.85,0,755,0
3709301,512.34,0,766,0
3709312,537.87,0,755,0
3709321,562.51,0,766,0
3709331,582.37,0,755,0
3709341,597.22,0,766,0
3709351,604.48,0,755,0
3709361,605.88,0,766,0
3709380,599.61,615,764,0
3709383,587.09,615,766,0
3709392,568.63,615,756,0
3709402,547.06,615,765,0
3709412,522.53,615,756,0
3709422,497.43,615,765,0
3709432,471.33,615,757,0
3709442,446.97,615,766,0
3709452,424.91,615,756,0
3709462,406.04,615,765,0
3709472,389.91,615,757,0
3709483,377.89,615,766,0
3709492,369.35,615,756,0
3709502,365.26,615,765,0
3709512,364.07,615,756,0
3709522,366.83,615,766,0
3709532,371.77,615,756,0
3709542,379.21,615,765,0
3709552,387.63,615,756,0
3709562,397.30,615,765,0
3709572,406.72,615,756,0
3709582,416.54,615,765,0
3709592,424.60,615,756,0
3709602,431.71,615,766,0
3709612,436.47,615,756,0
3709622,439.58,615,765,0
3709632,440.31,615,756,0
3709642,439.70,615,766,0
3709652,437.01,615,757,0
3709662,433.40,615,765,0
3709672,428.44,615,757,0
3709682,423.21,615,765,0
3709692,417.23,615,757,0
3709702,411.42,615,765,0
3709712,404.99,615,756,0
3709722,399.12,615,766,0
3709732,393.43,615,757,0
3709742,388.84,615,766,0
3709752,384.60,615,756,0
3709762,381.68,615,766,0
3709772,379.29,615,757,0
3709783,378.30,615,765,0
3709793,377.83,615,758,0
3709803,378.09,615,765,0
3709813,378.62,615,759,0
3709824,379.94,615,765,0
3709833,381.63,615,758,0
3709843,384.31,615,765,0
3709853,388.07,615,760,0
3709863,393.62,615,765,0
3709873,401.45,615,758,0
3709883,412.16,615,765,0
3709893,426.64,615,759,0
3709903,445.00,615,765,0
3709913,466.26,615,758,0
3709923,489.93,615,766,0
3709933,514.76,615,759,0
3709943,539.43,615,765,0
3709953,562.10,615,758,0
3709963,581.27,615,765,0
3709973,595.46,615,759,0
3709983,604.45,615,765,0
3710003,607.02,622,764,0
3710006,601.95,622,762,0
3710015,591.25,622,766,0
3710025,574.93,622,764,0
3710035,554.60,622,766,0
3710045,530.76,622,765,0
3710055,505.16,622,766,0
3710065,478.67,622,764,0
3710075,454.77,622,766,0
3710085,432.08,622,765,0
3710095,412.90,622,766,0
3710105,395.96,622,764,0
3710115,383.46,622,766,0
3710125,374.45,622,765,0
3710135,370.24,622,766,0
3710145,368.76,622,764,0
3710155,370.84,622,766,0
3710166,374.70,622,762,0
3710175,381.44,622,766,0
3710185,388.85,622,764,0
3710195,397.68,622,766,0
3710205,405.66,622,762,0
3710215,413.78,622,766,0
3710225,420.40,622,764,0
3710235,426.67,622,766,0
3710245,430.50,622,762,0
3710255,433.00,622,766,0
3710265,432.75,622,765,0
3710275,431.45,622,766,0
3710285,427.84,622,763,0
3710295,423.78,622,766,0
3710305,418.06,622,765,0
3710315,412.94,622,766,0
3710325,407.09,622,763,0
3710336,402.22,622,766,0
3710345,397.14,622,765,0
3710355,393.54,622,766,0
3710365,389.61,622,763,0
3710375,386.94,622,766,0
3710385,383.91,622,765,0
3710395,382.18,622,766,0
3710405,380.20,622,763,0
3710415,379.54,622,766,0
3710425,378.69,622,765,0
3710435,378.87,622,766,0
3710445,378.48,622,763,0
3710455,379.19,622,766,0
3710465,379.82,622,765,0
3710475,381.55,622,766,0
3710485,383.05,622,763,0
3710495,386.17,622,766,0
3710505,390.40,622,762,0
3710515,397.91,622,766,0
3710525,407.54,622,764,0
3710535,421.13,622,766,0
3710545,437.59,622,762,0
3710555,458.03,622,766,0
3710565,480.13,622,764,0
3710575,504.52,622,766,0
3710585,528.11,622,762,0
3710595,550.70,622,766,0
3710605,569.26,622,764,0
3710624,583.93,622,762,0
3710627,590.72,622,756,0
3710636,592.56,622,766,0
3710646,587.25,622,760,0
3710656,576.85,622,766,0
3710666,560.26,622,758,0
3710676,540.21,622,766,0
3710686,516.28,622,760,0
3710696,492.79,622,766,0
3710706,467.10,622,758,0
3710716,442.60,622,766,0
3710726,418.29,622,760,0
3710736,397.55,622,766,0
3710746,378.65,622,758,0
3710756,364.27,622,766,0
3710766,352.96,622,760,0
3710776,347.14,622,766,0
3710786,344.62,622,759,0
3710796,347.39,622,766,0
3710807,352.50,622,757,0
3710817,361.65,622,766,0
3710827,371.70,622,756,0
3710837,383.87,622,766,0
3710848,394.97,622,755,0
3710857,406.59,622,766,0
3710867,415.76,622,756,0
3710877,424.14,622,766,0
3710887,428.99,622,755,0
3710897,432.68,622,765,0
3710907,432.77,622,756,0
3710917,432.11,622,766,0
3710927,428.31,622,756,0
3710937,424.27,622,765,0
3710947,417.89,622,756,0
3710957,412.05,622,765,0
3710967,404.41,622,755,0
3710977,398.03,622,765,0
3710987,390.78,622,756,0
3710997,385.44,622,766,0
3711007,379.57,622,756,0
3711017,375.84,622,765,0
3711027,371.90,622,756,0
3711037,370.77,622,766,0
3711047,369.56,622,756,0
3711057,370.33,622,765,0
3711067,370.53,622,757,0
3711077,372.47,622,766,0
3711087,373.32,622,756,0
3711097,375.62,622,765,0
3711107,376.76,622,757,0
3711117,379.71,622,766,0
3711127,382.32,622,756,0
3711137,387.54,622,765,0
3711148,393.38,622,755,0
3711158,403.34,622,765,0
3711168,415.36,622,755,0
3711178,431.97,622,765,0
3711188,450.79,622,755,0
3711198,473.87,622,765,0
3711208,497.69,622,755,0
3711218,523.59,622,765,0
3711228,547.67,622,755,0
3711238,570.82,622,766,0
3711248,589.01,622,755,0
3711258,602.80,622,766,0
3711278,609.03,653,764,0
3711281,608.68,653,766,0
3711290,600.81,653,755,0
3711300,587.71,653,765,0
3711310,568.17,653,755,0
3711320,545.62,653,766,0
3711330,519.37,653,755,0
3711340,492.86,653,765,0
3711350,466.42,653,756,0
3711361,441.48,653,765,0
3711371,417.89,653,756,0
3711381,397.74,653,765,0
3711391,380.20,653,757,0
3711401,367.20,653,765,0
3711411,357.50,653,756,0
3711421,352.55,653,765,0
3711431,351.35,653,757,0
3711441,354.16,653,765,0
3711451,359.69,653,756,0
3711461,367.97,653,765,0
3711471,377.45,653,756,0
3711481,388.33,653,765,0
3711491,399.11,653,756,0
3711501,409.54,653,765,0
3711511,417.86,653,756,0
3711521,424.46,653,765,0
3711532,428.52,653,757,0
3711542,430.47,653,765,0
3711552,429.77,653,758,0
3711562,426.80,653,765,0
3711572,421.93,653,760,0
3711582,416.59,653,765,0
3711592,410.24,653,758,0
3711602,403.70,653,765,0
3711612,397.23,653,759,0
3711622,391.16,653,765,0
3711632,385.46,653,758,0
3711642,380.26,653,765,0
3711652,375.64,653,759,0
3711662,371.98,653,764,0
3711672,369.03,653,758,0
3711682,366.96,653,765,0
3711692,365.82,653,759,0
3711703,365.66,653,765,0
3711713,366.45,653,761,0
3711723,368.03,653,765,0
3711733,370.46,653,764,0
3711744,373.19,653,764,0
3711753,376.39,653,761,0
3711763,380.26,653,765,0
3711773,385.67,653,764,0
3711783,392.58,653,764,0
3711793,401.96,653,761,0
3711803,414.49,653,765,0
3711813,431.40,653,764,0
3711823,451.98,653,764,0
3711833,476.11,653,761,0
3711843,502.27,653,765,0
3711853,529.70,653,764,0
3711863,555.98,653,765,0
3711873,579.30,653,760,0
3711883,597.64,653,765,0
3711902,610.39,625,763,0
3711905,614.99,625,759,0
3711915,613.36,625,765,0
3711924,604.34,625,764,0
3711934,589.49,625,765,0
3711944,569.07,625,763,0
3711954,545.61,625,765,0
3711964,519.41,625,765,0
3711974,493.70,625,766,0
3711984,466.96,625,763,0
3711994,441.90,625,765,0
3712004,418.70,625,765,0
3712014,399.34,625,766,0
3712024,382.43,625,763,0
3712034,370.09,625,766,0
3712044,361.28,625,765,0
3712054,357.21,625,766,0
3712064,356.55,625,763,0
3712074,360.15,625,765,0
3712084,365.94,625,762,0
3712094,374.66,625,765,0
3712104,383.76,625,763,0
3712114,394.12,625,765,0
3712124,403.77,625,762,0
3712134,413.52,625,765,0
3712144,421.17,625,763,0
3712154,427.89,625,765,0
3712164,431.95,625,762,0
3712174,435.05,625,766,0
3712184,435.64,625,763,0
3712194,435.14,625,765,0
3712204,432.27,625,762,0
3712215,428.81,625,765,0
3712225,423.51,625,760,0
3712235,418.60,625,765,0
3712245,412.46,625,758,0
3712256,407.14,625,765,0
3712265,401.31,625,760,0
3712275,396.80,625,765,0
3712285,391.76,625,758,0
3712295,388.62,625,765,0
3712305,387.83,625,761,0
3712315,388.05,625,765,0
3712325,387.01,625,758,0
3712335,386.71,625,766,0
3712345,385.29,625,760,0
3712355,385.25,625,766,0
3712365,384.15,625,758,0
3712375,381.70,625,765,0
3712385,379.52,625,761,0
3712395,380.26,625,765,0
3712405,382.58,625,759,0
3712415,389.10,625,765,0
3712425,397.94,625,757,0
3712435,411.67,625,765,0
3712445,428.36,625,759,0
3712455,450.02,625,766,0
3712465,473.76,625,757,0
3712475,500.57,625,766,0
3712485,526.72,625,759,0
3712495,552.69,625,766,0
3712505,574.47,625,758,0
3712524,592.97,622,759,0
3712527,603.35,622,756,0
3712536,608.69,622,766,0
3712546,605.91,622,756,0
3712556,597.75,622,766,0
3712566,582.44,622,756,0
3712576,563.58,622,766,0
3712586,539.75,622,756,0
3712596,515.61,622,766,0
3712606,488.68,622,756,0
3712616,462.76,622,766,0
3712626,436.65,622,756,0
3712636,413.83,622,766,0
3712646,392.62,622,756,0
3712656,376.11,622,766,0
3712666,362.75,622,756,0
3712676,354.98,622,766,0
3712686,350.36,622,756,0
3712696,350.89,622,766,0
3712706,354.01,622,756,0
3712716,361.38,622,766,0
3712727,369.88,622,755,0
3712737,380.84,622,766,0
3712747,391.13,622,755,0
3712757,402.75,622,766,0
3712768,412.21,622,754,0
3712777,421.19,622,766,0
3712787,427.35,622,755,0
3712797,432.43,622,765,0
3712807,433.84,622,754,0
3712817,434.02,622,765,0
3712827,430.76,622,755,0
3712837,427.10,622,765,0
3712847,421.28,622,754,0
3712857,415.67,622,766,0
3712867,408.74,622,755,0
3712877,403.29,622,766,0
3712887,397.50,622,754,0
3712897,393.67,622,766,0
3712907,389.57,622,754,0
3712917,387.38,622,766,0
3712927,384.87,622,754,0
3712937,383.88,622,766,0
3712947,382.20,622,755,0
3712957,382.01,622,766,0
3712967,380.98,622,754,0
3712977,381.50,622,766,0
3712987,381.31,622,755,0
3712997,382.20,622,766,0
3713007,382.14,622,755,0
3713017,383.08,622,766,0
3713027,383.02,622,755,0
3713037,384.90,622,766,0
3713047,386.56,622,755,0
3713057,390.93,622,766,0
3713068,396.95,622,755,0
3713078,407.47,622,766,0
3713088,421.21,622,755,0
3713098,440.35,622,766,0
3713108,462.32,622,755,0
3713118,488.36,622,766,0
3713128,514.87,622,755,0
3713138,542.29,622,766,0
3713148,567.11,622,756,0
3713167,589.19,643,754,0
3713170,604.17,643,757,0
3713179,613.38,643,766,0
3713189,614.59,643,756,0
3713199,609.57,643,766,0
3713209,596.76,643,755,0
3713219,578.83,643,766,0
3713229,555.82,643,756,0
3713239,531.53,643,766,0
3713249,504.67,643,756,0
3713259,478.03,643,766,0
3713269,451.28,643,756,0
3713280,426.94,643,766,0
3713289,404.54,643,756,0
3713299,385.86,643,766,0
3713309,370.05,643,756,0
3713319,359.06,643,766,0
3713329,351.84,643,756,0
3713339,349.49,643,766,0
3713349,350.54,643,756,0
3713359,355.52,643,766,0
3713369,362.39,643,755,0
3713379,371.79,643,766,0
3713389,381.84,643,756,0
3713399,393.03,643,766,0
3713409,403.26,643,755,0
3713419,413.43,643,766,0
3713429,421.53,643,756,0
3713439,428.48,643,766,0
3713449,432.71,643,756,0
3713459,435.07,643,766,0
3713469,434.36,643,756,0
3713479,432.50,643,766,0
3713489,428.02,643,756,0
3713499,422.70,643,766,0
3713509,415.72,643,756,0
3713519,408.77,643,766,0
3713529,401.00,643,756,0
3713539,394.14,643,766,0
3713549,386.73,643,756,0
3713559,380.51,643,766,0
3713569,374.36,643,756,0
3713580,369.75,643,766,0
3713590,365.50,643,757,0
3713600,362.73,643,765,0
3713610,360.28,643,757,0
3713620,359.56,643,766,0
3713630,359.35,643,757,0
3713640,360.49,643,766,0
3713650,361.63,643,757,0
3713660,363.54,643,766,0
3713670,365.52,643,756,0
3713680,368.28,643,766,0
3713690,371.45,643,757,0
3713700,375.99,643,766,0
3713710,381.95,643,756,0
3713720,390.88,643,766,0
3713730,402.70,643,757,0
3713740,418.69,643,765,0
3713751,438.41,643,759,0
3713761,461.77,643,766,0
3713771,487.64,643,760,0
3713781,514.71,643,765,0
3713792,540.68,643,761,0
3713801,564.00,643,766,0
3713811,582.35,643,758,0
3713821,594.59,643,765,0
3713831,599.68,643,760,0
3713850,597.59,683,757,0
3713853,588.16,683,766,0
3713862,572.55,683,765,0
3713872,552.54,683,765,0
3713882,529.37,683,766,0
3713892,505.13,683,764,0
3713902,480.45,683,765,0
3713912,456.36,683,766,0
3713922,433.79,683,766,0
3713932,413.50,683,763,0
3713942,395.05,683,765,0
3713952,379.73,683,766,0
3713963,366.31,683,765,0
3713972,356.32,683,763,0
3713982,349.45,683,765,0
3713992,346.70,683,765,0
3714002,347.01,683,765,0
3714012,351.08,683,762,0
3714022,357.40,683,765,0
3714032,366.45,683,765,0
3714042,376.34,683,765,0
3714052,387.17,683,762,0
3714062,397.49,683,765,0
3714072,407.59,683,765,0
3714082,415.72,683,765,0
3714092,422.28,683,762,0
3714102,426.27,683,765,0
3714112,428.67,683,765,0
3714122,428.34,683,765,0
3714132,426.35,683,766,0
3714142,422.05,683,765,0
3714152,416.80,683,764,0
3714162,410.13,683,765,0
3714172,403.58,683,766,0
3714182,396.29,683,765,0
3714192,389.86,683,764,0
3714202,383.35,683,765,0
3714212,378.23,683,766,0
3714222,373.75,683,765,0
3714232,370.65,683,764,0
3714242,367.84,683,766,0
3714252,366.56,683,766,0
3714263,365.36,683,765,0
3714273,365.60,683,767,0
3714283,365.63,683,763,0
3714293,366.64,683,766,0
3714304,367.18,683,761,0
3714313,368.58,683,766,0
3714323,369.39,683,763,0
3714333,371.55,683,766,0
3714343,373.40,683,761,0
3714353,377.18,683,766,0
3714363,381.80,683,763,0
3714373,390.13,683,766,0
3714383,400.76,683,761,0
3714393,415.79,683,766,0
3714403,433.60,683,764,0
3714413,455.87,683,766,0
3714423,479.95,683,762,0
3714433,506.28,683,766,0
3714443,531.57,683,764,0
3714453,555.66,683,766,0
3714463,575.26,683,762,0
3714473,590.40,683,766,0
3714492,598.42,642,764,0
3714495,599.24,642,767,0
3714504,592.44,642,758,0
3714514,579.83,642,766,0
3714524,561.11,642,760,0
3714534,539.31,642,766,0
3714544,514.02,642,758,0
3714554,488.25,642,766,0
3714564,462.81,642,760,0
3714574,439.29,642,766,0
3714584,416.70,642,758,0
3714594,397.68,642,766,0
3714604,380.42,642,761,0
3714614,367.52,642,766,0
3714624,357.04,642,758,0
3714634,351.24,642,766,0
3714644,347.95,642,757,0
3714654,349.64,642,766,0
3714664,353.43,642,758,0
3714674,361.15,642,766,0
3714684,369.63,642,757,0
3714694,380.63,642,766,0
3714704,391.07,642,759,0
3714714,402.45,642,766,0
3714724,411.53,642,757,0
3714734,420.03,642,766,0
3714744,425.29,642,759,0
3714754,429.57,642,766,0
3714764,430.26,642,757,0
3714775,429.92,642,766,0
3714785,426.39,642,756,0
3714795,422.42,642,766,0
3714805,416.03,642,755,0
3714816,410.07,642,766,0
3714825,402.46,642,756,0
3714835,396.28,642,766,0
3714845,389.12,642,756,0
3714855,383.73,642,766,0
3714865,377.77,642,756,0
3714875,373.77,642,766,0
3714885,369.29,642,756,0
3714895,366.93,642,766,0
3714905,364.08,642,757,0
3714915,363.07,642,766,0
3714925,361.59,642,756,0
3714935,361.93,642,766,0
3714945,361.65,642,757,0
3714955,363.26,642,766,0
3714965,364.12,642,756,0
3714975,366.79,642,766,0
3714985,369.25,642,755,0
3714995,374.27,642,766,0
3715005,380.06,642,756,0
3715015,389.77,642,766,0
3715025,401.33,642,755,0
3715035,417.60,642,766,0
3715045,435.93,642,756,0
3715055,458.50,642,766,0
3715065,482.05,642,756,0
3715075,507.79,642,766,0
3715085,531.68,642,756,0
3715095,554.45,642,766,0
3715105,572.23,642,756,0
3715116,586.22,642,766,0
3715126,592.79,642,755,0
3715145,593.67,653,753,0
3715148,585.93,653,756,0
3715158,573.22,653,766,0
3715167,554.47,653,754,0
3715177,532.64,653,766,0
3715187,507.04,653,755,0
3715197,481.10,653,766,0
3715207,454.28,653,754,0
3715217,430.41,653,766,0
3715227,407.53,653,755,0
3715237,388.26,653,766,0
3715247,371.29,653,754,0
3715257,359.03,653,766,0
3715267,350.07,653,755,0
3715277,346.23,653,766,0
3715287,345.26,653,754,0
3715297,348.83,653,766,0
3715307,354.71,653,755,0
3715317,364.05,653,766,0
3715328,374.19,653,755,0
3715337,386.09,653,766,0
3715347,396.99,653,755,0
3715357,408.14,653,765,0
3715367,416.84,653,754,0
3715377,424.34,653,766,0
3715387,428.91,653,755,0
3715397,432.07,653,766,0
3715407,432.13,653,754,0
3715417,431.15,653,766,0
3715427,427.51,653,755,0
3715437,423.67,653,766,0
3715447,418.11,653,754,0
3715457,412.85,653,766,0
3715467,406.42,653,755,0
3715477,400.90,653,766,0
3715487,394.63,653,755,0
3715497,389.72,653,766,0
3715507,384.45,653,755,0
3715517,380.63,653,766,0
3715527,376.50,653,754,0
3715537,373.99,653,766,0
3715547,371.34,653,755,0
3715557,370.34,653,766,0
3715567,369.03,653,755,0
3715577,368.98,653,766,0
3715587,368.52,653,755,0
3715597,369.73,653,766,0
3715607,370.76,653,755,0
3715617,373.61,653,766,0
3715628,377.03,653,755,0
3715638,383.36,653,766,0
3715648,391.57,653,755,0
3715658,403.91,653,766,0
3715668,419.02,653,756,0
3715678,438.56,653,766,0
3715688,460.51,653,755,0
3715698,485.68,653,766,0
3715708,511.28,653,756,0
3715718,537.21,653,766,0
3715728,559.95,653,755,0
3715738,579.16,653,766,0
3715748,592.31,653,756,0
3715767,599.76,622,754,0
3715770,599.02,622,758,0
3715779,592.07,622,766,0
3715789,578.29,622,757,0
3715799,560.25,622,765,0
3715809,538.06,622,756,0
3715819,513.83,622,766,0
3715829,487.95,622,757,0
3715840,462.98,622,765,0
3715849,438.60,622,756,0
3715859,416.69,622,766,0
3715869,396.81,622,757,0
3715879,380.33,622,765,0
3715889,367.24,622,756,0
3715899,358.81,622,766,0
3715909,354.58,622,757,0
3715919,354.97,622,765,0
3715929,358.49,622,756,0
3715939,365.67,622,766,0
3715949,375.07,622,757,0
3715959,386.45,622,766,0
3715969,397.84,622,756,0
3715979,409.33,622,766,0
3715989,419.60,622,757,0
3715999,429.07,622,766,0
3716009,436.55,622,758,0
3716019,442.17,622,766,0
3716029,445.16,622,757,0
3716039,446.18,622,766,0
3716049,444.59,622,758,0
3716059,441.32,622,766,0
3716069,436.00,622,757,0
3716079,429.53,622,766,0
3716089,422.00,622,758,0
3716099,414.67,622,765,0
3716109,407.27,622,757,0
3716119,400.67,622,766,0
3716129,394.47,622,758,0
3716140,389.53,622,766,0
3716150,385.51,622,759,0
3716160,382.62,622,766,0
3716170,380.33,622,760,0
3716180,378.65,622,765,0
3716190,377.38,622,759,0
3716200,376.67,622,766,0
3716210,376.30,622,760,0
3716220,376.21,622,765,0
3716230,376.92,622,759,0
3716240,378.61,622,765,0
3716250,382.03,622,760,0
3716260,387.25,622,765,0
3716270,395.02,622,759,0
3716280,405.90,622,766,0
3716290,420.67,622,760,0
3716300,439.20,622,765,0
3716311,461.30,622,762,0
3716321,485.98,622,766,0
3716331,512.56,622,765,0
3716341,538.83,622,765,0
3716352,563.23,622,766,0
3716361,583.56,622,765,0
3716371,598.78,622,764,0
3716381,607.33,622,765,0
3716391,609.24,622,766,0
3716401,603.94,622,765,0
3716411,592.60,622,764,0
3716430,575.54,663,763,0
3716433,554.46,663,768,0
3716442,530.32,663,765,0
3716452,505.03,663,766,0
3716462,478.58,663,763,0
3716472,453.55,663,766,0
3716482,429.81,663,765,0
3716492,409.34,663,766,0
3716502,391.67,663,763,0
3716512,378.18,663,766,0
3716523,367.84,663,761,0
3716532,362.57,663,766,0
3716542,360.43,663,763,0
3716552,362.87,663,766,0
3716562,367.54,663,762,0
3716572,375.65,663,766,0
3716582,384.71,663,763,0
3716592,395.86,663,766,0
3716602,406.23,663,762,0
3716612,416.92,663,766,0
3716622,425.47,663,764,0
3716632,433.69,663,766,0
3716642,438.92,663,762,0
3716652,442.85,663,766,0
3716662,443.79,663,764,0
3716672,443.85,663,766,0
3716682,441.11,663,763,0
3716692,437.82,663,766,0
3716702,432.18,663,764,0
3716712,426.68,663,766,0
3716722,419.66,663,763,0
3716732,413.21,663,766,0
3716742,406.12,663,764,0
3716752,400.25,663,766,0
3716762,394.05,663,763,0
3716772,389.58,663,766,0
3716782,385.33,663,764,0
3716792,383.05,663,766,0
3716802,380.85,663,763,0
3716812,380.25,663,766,0
3716823,379.45,663,761,0
3716833,380.38,663,766,0
3716843,380.83,663,759,0
3716853,382.89,663,766,0
3716864,384.85,663,758,0
3716873,389.35,663,766,0
3716883,394.91,663,759,0
3716893,404.49,663,766,0
3716903,416.26,663,758,0
3716913,432.89,663,766,0
3716923,452.00,663,760,0
3716933,475.23,663,766,0
3716943,499.20,663,758,0
3716953,524.94,663,766,0
3716963,548.53,663,760,0
3716973,570.40,663,766,0
3716983,586.69,663,758,0
3716993,598.57,663,766,0
3717003,603.24,663,760,0
3717013,602.48,663,766,0
3717023,593.98,663,758,0
3717033,580.40,663,766,0
3717043,561.12,663,760,0
3717053,539.27,663,766,0
3717063,513.61,663,758,0
3717073,487.67,663,766,0
3717083,460.64,663,760,0
3717093,435.85,663,766,0
3717103,412.28,663,758,0
3717113,392.57,663,765,0
3717123,375.64,663,760,0
3717133,364.35,663,766,0
3717143,356.57,663,758,0
3717153,354.51,663,766,0
3717164,355.73,663,757,0
3717174,361.90,663,766,0
3717184,369.94,663,756,0
3717194,381.15,663,766,0
3717204,392.42,663,756,0
3717214,404.93,663,766,0
3717224,415.54,663,756,0
3717234,425.92,663,766,0
3717244,433.19,663,755,0
3717254,439.52,663,766,0
3717264,442.32,663,756,0
3717274,443.89,663,766,0
3717284,442.17,663,756,0
3717294,440.02,663,766,0
3717304,435.26,663,756,0
3717314,430.68,663,766,0
3717324,424.00,663,756,0
3717335,418.17,663,766,0
3717345,411.09,663,755,0
3717355,405.45,663,766,0
3717365,398.89,663,755,0
3717376,394.04,663,766,0
3717385,388.67,663,755,0
3717395,385.42,663,766,0
3717405,381.74,663,755,0
3717415,379.80,663,766,0
3717425,377.42,663,755,0
3717435,376.61,663,766,0
3717445,375.18,663,755,0
3717455,375.43,663,766,0
3717465,375.26,663,755,0
3717475,377.49,663,766,0
3717485,380.39,663,755,0
3717495,386.53,663,766,0
3717505,394.30,663,755,0
3717515,406.72,663,766,0
3717525,421.89,663,755,0
3717535,442.07,663,766,0
3717545,464.33,663,755,0
3717555,490.03,663,766,0
3717565,515.57,663,755,0
3717575,541.88,663,766,0
3717585,564.72,663,755,0
3717595,584.77,663,766,0
3717605,598.38,663,754,0
3717615,606.75,663,766,0
3717625,607.26,663,755,0
3717635,602.42,663,766,0
3717645,590.34,663,754,0
3717655,574.21,663,766,0
3717675,552.80,0,765,0
3717678,528.95,0,766,0
3717687,502.95,0,755,0
3717697,477.34,0,766,0
3717707,451.61,0,756,0
3717718,428.54,0,766,0
3717727,407.16,0,755,0
3717737,390.01,0,766,0
3717747,376.30,0,756,0
3717757,367.08,0,766,0
3717767,361.35,0,755,0
3717777,360.22,0,766,0
3717787,362.08,0,756,0
3717797,367.54,0,766,0
3717807,374.49,0,755,0
3717817,383.82,0,766,0
3717827,393.30,0,756,0
3717837,403.54,0,766,0
3717847,412.29,0,755,0
3717857,420.39,0,766,0
3717867,426.19,0,756,0
3717877,430.76,0,766,0
3717888,432.59,0,755,0
3717897,433.01,0,766,0
3717907,430.99,0,756,0
3717917,428.12,0,766,0
3717927,423.46,0,755,0
3717937,418.82,0,766,0
3717947,413.17,0,755,0
3717957,408.02,0,766,0
3717967,402.27,0,755,0
3717977,397.61,0,766,0
3717987,392.92,0,756,0
3717997,389.56,0,766,0
3718007,386.18,0,755,0
3718017,384.15,0,766,0
3718027,382.09,0,755,0
3718037,381.29,0,766,0
3718047,380.35,0,756,0
3718057,380.50,0,766,0
3718067,380.48,0,755,0
3718077,381.62,0,765,0
3718087,382.93,0,756,0
3718097,385.95,0,766,0
3718107,389.87,0,755,0
3718117,396.51,0,765,0
3718127,405.27,0,755,0
3718137,418.09,0,766,0
3718147,433.75,0,755,0
3718157,453.79,0,766,0
3718167,476.27,0,755,0
3718177,501.56,0,766,0
3718188,527.06,0,756,0
3718198,552.42,0,766,0
3718217,574.62,543,764,0
3718220,592.22,543,766,0
3718230,604.03,543,761,0
3718239,610.15,543,765,0
3718249,609.20,543,759,0
3718259,601.86,543,765,0
3718269,588.06,543,761,0
3718279,569.31,543,765,0
3718289,547.57,543,759,0
3718299,522.89,543,765,0
3718309,496.61,543,760,0
3718319,470.63,543,765,0
3718329,446.27,543,759,0
3718339,424.29,543,766,0
3718349,405.60,543,761,0
3718359,390.42,543,766,0
3718369,379.15,543,759,0
3718379,372.03,543,766,0
3718389,368.90,543,760,0
3718400,369.36,543,765,0
3718409,373.23,543,759,0
3718419,379.98,543,766,0
3718429,389.11,543,760,0
3718439,399.71,543,765,0
3718449,410.64,543,758,0
3718459,420.99,543,766,0
3718469,430.42,543,760,0
3718479,437.92,543,766,0
3718489,443.22,543,759,0
3718499,446.20,543,766,0
3718509,447.29,543,760,0
3718519,446.52,543,766,0
3718529,444.09,543,759,0
3718539,440.04,543,766,0
3718549,435.10,543,760,0
3718559,429.24,543,765,0
3718569,423.08,543,762,0
3718579,416.67,543,766,0
3718589,410.56,543,760,0
3718599,404.65,543,765,0
3718609,399.31,543,761,0
3718619,394.72,543,765,0
3718629,391.03,543,760,0
3718639,387.94,543,766,0
3718649,385.73,543,761,0
3718659,384.18,543,766,0
3718669,383.61,543,760,0
3718679,383.60,543,765,0
3718689,384.58,543,761,0
3718700,386.20,543,765,0
3718710,389.27,543,764,0
3718720,393.48,543,765,0
3718730,400.10,543,766,0
3718740,409.07,543,765,0
3718750,421.65,543,764,0
3718760,437.48,543,765,0
3718770,457.74,543,766,0
3718780,480.87,543,765,0
3718790,507.01,543,764,0
3718800,533.88,543,766,0
3718810,560.74,543,766,0
3718820,584.65,543,765,0
3718830,604.60,543,763,0
3718840,618.26,543,766,0
3718850,625.68,543,765,0
3718870,625.31,652,764,0
3718873,617.29,652,767,0
3718882,602.20,652,760,0
3718892,582.60,652,766,0
3718902,558.29,652,757,0
3718913,532.23,652,766,0
3718923,504.09,652,757,0
3718933,476.85,652,766,0
3718943,450.88,652,756,0
3718953,428.20,652,766,0
3718963,407.48,652,757,0
3718973,392.55,652,767,0
3718983,380.90,652,756,0
3718993,374.93,652,767,0
3719003,370.88,652,757,0
3719013,370.74,652,766,0
3719023,371.85,652,755,0
3719033,376.48,652,766,0
3719043,380.84,652,757,0
3719053,387.10,652,766,0
3719063,392.43,652,755,0
3719073,400.31,652,766,0
3719084,407.68,652,755,0
3719094,416.17,652,766,0
3719104,422.51,652,754,0
3719114,428.31,652,765,0
3719124,430.92,652,754,0
3719134,432.87,652,765,0
3719144,431.75,652,755,0
3719154,430.71,652,766,0
3719164,427.11,652,754,0
3719174,423.69,652,766,0
3719184,418.56,652,755,0
3719194,414.40,652,766,0
3719204,409.23,652,754,0
3719214,405.43,652,766,0
3719224,400.41,652,755,0
3719234,397.12,652,766,0
3719244,393.23,652,755,0
3719255,391.23,652,765,0
3719265,388.63,652,754,0
3719275,387.50,652,766,0
3719285,385.72,652,754,0
3719296,385.33,652,765,0
3719305,384.25,652,754,0
3719315,384.94,652,766,0
3719325,385.48,652,754,0
3719335,388.46,652,765,0
3719345,392.14,652,754,0
3719355,399.25,652,765,0
3719365,408.78,652,755,0
3719375,423.33,652,766,0
3719385,441.06,652,754,0
3719395,463.63,652,766,0
3719405,488.60,652,755,0
3719415,516.66,652,765,0
3719434,544.06,565,764,0
3719437,570.14,565,767,0
3719446,592.43,565,755,0
3719456,610.86,565,765,0
3719467,622.21,565,756,0
3719476,627.29,565,766,0
3719486,624.38,565,755,0
3719496,615.35,565,765,0
3719506,599.99,565,755,0
3719516,579.93,565,766,0
3719526,554.93,565,755,0
3719536,528.33,565,765,0
3719546,499.73,565,755,0
3719556,472.30,565,766,0
3719566,445.81,565,755,0
3719576,422.60,565,765,0
3719586,401.72,565,755,0
3719596,385.39,565,766,0
3719606,372.41,565,755,0
3719616,364.66,565,765,0
3719626,360.39,565,755,0
3719636,360.87,565,765,0
3719646,364.30,565,755,0
3719656,371.62,565,765,0
3719666,380.61,565,755,0
3719676,391.53,565,765,0
3719686,402.34,565,755,0
3719696,413.55,565,765,0
3719706,423.29,565,756,0
3719716,432.11,565,765,0
3719726,437.74,565,754,0
3719736,441.84,565,765,0
3719746,443.26,565,755,0
3719756,443.83,565,765,0
3719767,441.39,565,756,0
3719777,437.33,565,765,0
3719787,431.19,565,756,0
3719797,424.92,565,765,0
3719808,417.53,565,757,0
3719817,410.56,565,765,0
3719827,402.67,565,756,0
3719837,396.34,565,765,0
3719847,390.80,565,757,0
3719857,386.92,565,765,0
3719867,383.64,565,756,0
3719877,381.56,565,764,0
3719887,379.94,565,757,0
3719897,379.40,565,765,0
3719907,378.81,565,756,0
3719917,378.95,565,764,0
3719927,378.88,565,756,0
3719937,379.64,565,765,0
3719947,380.18,565,755,0
3719957,381.28,565,764,0
3719967,382.48,565,756,0
3719977,385.25,565,764,0
3719987,389.16,565,755,0
3719997,395.93,565,764,0
3720007,405.34,565,756,0
3720017,419.21,565,764,0
3720027,436.67,565,755,0
3720037,458.71,565,764,0
3720047,485.93,565,758,0
3720057,517.54,565,766,0
3720067,550.29,565,757,0
3720077,582.90,565,766,0
3720087,611.22,565,757,0
3720107,635.15,672,757,0
3720110,652.25,672,766,0
3720119,659.80,672,766,0
3720129,658.06,672,764,0
3720139,647.37,672,765,0
3720150,628.92,672,766,0
3720159,605.07,672,765,0
3720169,576.64,672,763,0
3720179,545.59,672,766,0
3720189,513.70,672,765,0
3720199,481.73,672,766,0
3720209,452.07,672,764,0
3720219,425.26,672,766,0
3720229,403.03,672,766,0
3720239,385.15,672,766,0
3720249,372.16,672,764,0
3720259,363.63,672,766,0
3720269,360.40,672,766,0
3720279,361.43,672,766,0
3720289,366.45,672,763,0
3720299,373.77,672,766,0
3720309,383.40,672,766,0
3720320,393.82,672,766,0
3720329,405.02,672,763,0
3720339,415.73,672,766,0
3720349,425.92,672,766,0
3720359,433.83,672,766,0
3720369,439.97,672,763,0
3720379,443.32,672,766,0
3720389,445.37,672,766,0
3720399,445.04,672,766,0
3720409,442.46,672,763,0
3720419,437.65,672,767,0
3720429,432.35,672,765,0
3720439,425.91,672,766,0
3720449,419.21,672,762,0
3720459,411.30,672,766,0
3720469,403.84,672,765,0
3720479,396.17,672,766,0
3720489,389.09,672,766,0
3720499,381.56,672,765,0
3720509,375.31,672,764,0
3720519,369.95,672,765,0
3720529,366.15,672,766,0
3720539,362.76,672,766,0
3720549,360.82,672,764,0
3720559,359.50,672,765,0
3720569,360.29,672,766,0
3720579,361.62,672,766,0
3720589,364.22,672,764,0
3720599,367.24,672,766,0
3720609,372.40,672,766,0
3720620,378.41,672,766,0
3720630,386.30,672,767,0
3720640,394.57,672,764,0
3720650,405.15,672,766,0
3720660,417.06,672,762,0
3720670,432.17,672,767,0
3720680,448.92,672,764,0
3720690,469.26,672,766,0
3720700,491.47,672,763,0
3720710,516.48,672,767,0
3720720,541.45,672,764,0
3720730,566.65,672,767,0
3720740,588.27,672,763,0
3720750,606.23,672,767,0
3720760,617.13,672,764,0
3720770,621.68,672,766,0
3720790,617.87,683,764,0
3720793,606.68,683,767,0
3720802,588.78,683,757,0
3720812,567.59,683,766,0
3720822,541.95,683,756,0
3720833,515.48,683,766,0
3720843,487.39,683,756,0
3720853,461.05,683,766,0
3720863,436.18,683,755,0
3720873,414.39,683,766,0
3720883,393.79,683,756,0
3720893,377.48,683,766,0
3720903,363.71,683,755,0
3720913,355.10,683,766,0
3720923,349.37,683,756,0
3720933,349.39,683,766,0
3720943,352.27,683,756,0
3720953,359.77,683,767,0
3720963,368.97,683,756,0
3720973,381.19,683,766,0
3720983,393.14,683,755,0
3720993,406.21,683,766,0
3721004,416.95,683,755,0
3721014,426.73,683,766,0
3721024,433.07,683,755,0
3721034,438.02,683,767,0
3721044,439.17,683,755,0
3721054,438.99,683,766,0
3721064,435.61,683,755,0
3721074,431.48,683,766,0
3721084,425.08,683,755,0
3721094,418.84,683,766,0
3721104,411.13,683,755,0
3721114,404.28,683,766,0
3721124,396.87,683,755,0
3721134,391.08,683,766,0
3721144,384.80,683,755,0
3721154,380.23,683,766,0
3721164,375.49,683,755,0
3721175,372.56,683,766,0
3721185,369.82,683,755,0
3721195,368.72,683,766,0
3721205,367.43,683,756,0
3721216,367.77,683,766,0
3721225,367.84,683,755,0
3721235,369.60,683,766,0
3721245,371.18,683,756,0
3721255,374.13,683,766,0
3721265,377.34,683,756,0
3721275,382.21,683,766,0
3721285,387.16,683,756,0
3721295,393.84,683,766,0
3721305,400.83,683,755,0
3721315,410.27,683,766,0
3721325,421.25,683,756,0
3721335,435.79,683,766,0
3721345,452.48,683,755,0
3721355,473.12,683,766,0
3721365,495.71,683,756,0
3721375,520.70,683,766,0
3721385,545.13,683,756,0
3721395,568.71,683,766,0
3721405,587.78,683,756,0
3721415,602.59,683,766,0
3721435,610.38,645,765,0
3721438,610.57,645,766,0
3721447,603.33,645,758,0
3721457,589.73,645,765,0
3721467,570.82,645,760,0
3721477,549.15,645,766,0
3721487,524.89,645,759,0
3721497,499.72,645,766,0
3721507,475.33,645,760,0
3721517,451.88,645,766,0
3721527,429.84,645,758,0
3721537,409.40,645,765,0
3721547,390.60,645,759,0
3721558,374.60,645,765,0
3721567,362.42,645,758,0
3721577,355.01,645,766,0
3721587,352.44,645,759,0
3721597,355.00,645,766,0
3721607,362.37,645,759,0
3721617,374.22,645,766,0
3721627,388.81,645,759,0
3721637,404.60,645,766,0
3721647,419.76,645,759,0
3721657,434.15,645,767,0
3721667,446.96,645,760,0
3721677,457.04,645,767,0
3721687,463.54,645,759,0
3721697,466.94,645,767,0
3721707,467.47,645,759,0
3721717,465.62,645,767,0
3721728,460.72,645,761,0
3721737,453.94,645,767,0
3721747,446.08,645,760,0
3721757,437.65,645,767,0
3721767,429.19,645,762,0
3721777,420.99,645,767,0
3721787,413.15,645,760,0
3721797,405.82,645,767,0
3721807,398.20,645,761,0
3721817,391.20,645,767,0
3721827,384.97,645,760,0
3721837,379.58,645,767,0
3721847,375.38,645,761,0
3721857,372.61,645,767,0
3721867,371.35,645,760,0
3721877,371.76,645,767,0
3721887,372.90,645,761,0
3721897,374.52,645,767,0
3721907,376.42,645,759,0
3721917,378.57,645,767,0
3721927,381.10,645,761,0
3721937,384.58,645,767,0
3721947,389.42,645,759,0
3721957,396.71,645,767,0
3721967,407.30,645,761,0
3721977,421.61,645,767,0
3721987,441.48,645,761,0
3721997,467.01,645,769,0
3722007,496.83,645,762,0
3722017,529.16,645,768,0
3722028,561.04,645,763,0
3722038,590.21,645,768,0
3722048,615.31,645,766,0
3722058,632.61,645,767,0
3722068,641.39,645,768,0
3722078,641.14,645,768,0
3722088,632.87,645,765,0
3722107,617.35,673,765,0
3722110,595.82,673,768,0
3722119,569.39,673,767,0
3722129,540.43,673,768,0
3722139,509.23,673,766,0
3722149,478.60,673,768,0
3722159,448.72,673,767,0
3722169,421.98,673,768,0
3722179,398.50,673,766,0
3722189,379.53,673,768,0
3722199,364.29,673,767,0
3722209,354.30,673,768,0
3722219,348.00,673,766,0
3722229,346.97,673,768,0
3722240,349.34,673,764,0
3722249,356.39,673,768,0
3722259,365.87,673,766,0
3722269,378.47,673,768,0
3722279,391.40,673,764,0
3722289,405.34,673,768,0
3722299,417.62,673,766,0
3722309,429.35,673,768,0
3722319,438.07,673,765,0
3722329,445.08,673,768,0
3722339,448.48,673,766,0
3722349,450.27,673,768,0
3722359,448.99,673,765,0
3722369,446.68,673,768,0
3722379,441.89,673,766,0
3722389,436.65,673,768,0
3722399,429.51,673,765,0
3722409,422.63,673,768,0
3722419,414.86,673,767,0
3722429,408.00,673,768,0
3722439,400.54,673,765,0
3722449,394.51,673,768,0
3722459,388.53,673,767,0
3722469,384.51,673,768,0
3722479,380.67,673,765,0
3722489,378.54,673,768,0
3722499,376.49,673,767,0
3722509,376.13,673,768,0
3722519,375.53,673,765,0
3722529,376.27,673,768,0
3722540,376.45,673,763,0
3722550,378.16,673,768,0
3722560,380.34,673,761,0
3722570,384.57,673,768,0
3722580,388.98,673,760,0
3722590,395.80,673,768,0
3722600,403.53,673,761,0
3722610,414.90,673,768,0
3722620,428.52,673,760,0
3722630,445.93,673,768,0
3722640,467.21,673,765,0
3722650,496.50,673,772,0
3722660,529.70,673,764,0
3722670,565.62,673,772,0
3722680,601.13,673,765,0
3722690,633.45,673,768,0
3722710,656.63,602,766,0
3722713,668.48,602,768,0
3722722,665.47,602,757,0
3722732,650.88,602,768,0
3722742,625.63,602,757,0
3722753,592.66,602,768,0
3722763,554.32,602,756,0
3722773,516.81,602,768,0
3722783,480.99,602,757,0
3722793,448.77,602,768,0
3722803,419.27,602,757,0
3722813,395.14,602,768,0
3722823,374.31,602,757,0
3722833,358.96,602,768,0
3722843,347.02,602,756,0
3722853,340.54,602,768,0
3722863,337.85,602,757,0
3722873,340.42,602,768,0
3722883,345.57,602,757,0
3722893,354.74,602,768,0
3722903,365.49,602,757,0
3722913,379.01,602,768,0
3722924,392.42,602,756,0
3722934,406.61,602,768,0
3722944,419.16,602,757,0
3722954,431.37,602,768,0
3722964,441.03,602,757,0
3722974,449.03,602,768,0
3722984,453.57,602,757,0
3722994,456.40,602,768,0
3723004,456.45,602,758,0
3723014,455.37,602,768,0
3723024,451.53,602,757,0
3723034,446.74,602,768,0
3723044,440.26,602,758,0
3723054,433.84,602,768,0
3723064,426.13,602,757,0
3723074,418.55,602,768,0
3723084,410.33,602,758,0
3723095,403.37,602,768,0
3723105,396.45,602,758,0
3723115,390.87,602,768,0
3723125,385.59,602,759,0
3723136,382.12,602,768,0
3723145,379.00,602,758,0
3723155,376.90,602,768,0
3723165,374.91,602,759,0
3723175,373.95,602,768,0
3723185,373.37,602,758,0
3723195,373.94,602,768,0
3723205,374.56,602,759,0
3723215,376.15,602,768,0
3723225,378.20,602,758,0
3723235,382.09,602,768,0
3723245,387.50,602,758,0
3723255,395.62,602,768,0
3723265,406.15,602,758,0
3723275,421.11,602,768,0
3723285,443.45,602,762,0
3723295,470.70,602,768,0
3723305,499.42,602,759,0
3723315,529.42,602,768,0
3723325,558.18,602,758,0
3723335,585.21,602,768,0
3723345,607.73,602,759,0
3723355,621.70,602,768,0
3723365,627.83,602,759,0
3723375,627.88,602,768,0
3723395,621.06,685,767,0
3723398,608.49,685,769,0
3723407,590.64,685,763,0
3723417,568.20,685,768,0
3723427,541.79,685,766,0
3723437,513.31,685,768,0
3723447,483.77,685,763,0
3723457,454.35,685,767,0
3723467,426.73,685,766,0
3723478,401.01,685,767,0
3723487,378.81,685,763,0
3723497,360.74,685,767,0
3723507,347.75,685,765,0
3723517,339.81,685,767,0
3723527,337.42,685,762,0
3723537,339.48,685,767,0
3723547,346.19,685,765,0
3723557,355.82,685,767,0
3723567,368.00,685,762,0
3723577,381.37,685,767,0
3723587,395.40,685,764,0
3723597,408.57,685,767,0
3723607,420.44,685,762,0
3723617,429.74,685,767,0
3723627,437.06,685,764,0
3723637,441.28,685,767,0
3723648,443.08,685,767,0
3723657,441.86,685,767,0
3723667,438.82,685,764,0
3723677,433.60,685,767,0
3723687,427.46,685,766,0
3723697,420.00,685,767,0
3723707,412.37,685,764,0
3723717,404.11,685,767,0
3723727,396.49,685,766,0
3723737,389.06,685,767,0
3723747,382.57,685,763,0
3723757,376.40,685,767,0
3723767,371.65,685,766,0
3723777,367.73,685,767,0
3723787,365.11,685,763,0
3723797,362.93,685,767,0
3723807,361.88,685,766,0
3723817,361.02,685,767,0
3723827,361.18,685,763,0
3723837,361.26,685,767,0
3723847,362.12,685,766,0
3723857,362.94,685,767,0
3723867,364.80,685,763,0
3723877,367.26,685,767,0
3723887,372.03,685,765,0
3723897,378.66,685,767,0
3723907,388.49,685,762,0
3723917,401.42,685,767,0
3723927,418.95,685,765,0
3723937,440.31,685,767,0
3723948,466.10,685,767,0
3723958,494.18,685,767,0
3723968,523.96,685,768,0
3723978,552.60,685,765,0
3723988,578.95,685,768,0
3723998,600.18,685,767,0
3724008,615.42,685,767,0
3724018,622.11,685,765,0
3724038,621.35,643,763,0
3724041,610.70,643,757,0
3724050,593.91,643,767,0
3724060,570.49,643,758,0
3724070,543.69,643,767,0
3724080,513.65,643,759,0
3724090,483.76,643,767,0
3724100,453.19,643,758,0
3724110,426.64,643,768,0
3724120,401.68,643,760,0
3724130,381.42,643,767,0
3724140,363.85,643,758,0
3724150,351.72,643,768,0
3724161,342.76,643,758,0
3724171,339.71,643,767,0
3724181,339.79,643,757,0
3724191,345.08,643,768,0
3724201,352.60,643,756,0
3724211,364.08,643,767,0
3724221,376.10,643,757,0
3724231,390.21,643,768,0
3724241,402.83,643,756,0
3724251,415.44,643,767,0
3724261,424.95,643,757,0
3724271,433.28,643,767,0
3724281,437.95,643,757,0
3724291,441.10,643,767,0
3724301,440.51,643,757,0
3724311,438.86,643,767,0
3724321,434.31,643,757,0
3724332,429.72,643,767,0
3724342,422.82,643,756,0
3724352,416.10,643,767,0
3724362,407.89,643,756,0
3724372,400.63,643,767,0
3724382,392.43,643,756,0
3724392,385.83,643,767,0
3724402,378.89,643,756,0
3724412,374.34,643,767,0
3724422,370.00,643,756,0
3724432,367.73,643,767,0
3724442,365.54,643,756,0
3724452,365.55,643,767,0
3724462,365.47,643,756,0
3724472,366.96,643,767,0
3724482,367.61,643,756,0
3724492,369.57,643,767,0
3724503,371.46,643,756,0
3724513,375.35,643,767,0
3724523,379.83,643,757,0
3724533,387.00,643,767,0
3724544,396.25,643,757,0
3724553,409.98,643,767,0
3724563,426.87,643,757,0
3724573,448.59,643,767,0
3724583,473.06,643,757,0
3724593,500.56,643,767,0
3724603,528.50,643,757,0
3724613,556.34,643,767,0
3724623,580.62,643,757,0
3724633,601.22,643,767,0
3724643,614.87,643,756,0
3724653,622.28,643,767,0
3724663,621.47,643,757,0
3724682,614.08,645,754,0
3724685,598.67,645,760,0
3724694,578.54,645,767,0
3724704,553.31,645,757,0
3724715,525.87,645,767,0
3724724,496.17,645,757,0
3724734,467.06,645,767,0
3724744,438.59,645,757,0
3724754,413.64,645,767,0
3724764,391.38,645,757,0
3724774,373.82,645,767,0
3724784,360.25,645,757,0
3724794,351.99,645,767,0
3724804,348.09,645,757,0
3724814,349.31,645,767,0
3724824,354.10,645,756,0
3724834,362.81,645,767,0
3724844,373.50,645,756,0
3724854,386.42,645,767,0
3724864,399.32,645,757,0
3724874,412.38,645,767,0
3724884,423.63,645,758,0
3724894,433.51,645,767,0
3724904,440.34,645,757,0
3724914,444.87,645,767,0
3724924,446.06,645,758,0
3724934,445.36,645,767,0
3724944,441.95,645,757,0
3724954,437.12,645,767,0
3724964,430.53,645,758,0
3724974,423.64,645,767,0
3724984,415.73,645,757,0
3724994,408.14,645,767,0
3725004,400.17,645,757,0
3725015,393.09,645,767,0
3725025,386.38,645,758,0
3725035,380.78,645,767,0
3725045,375.57,645,759,0
3725056,371.59,645,767,0
3725065,368.07,645,758,0
3725075,365.91,645,767,0
3725085,364.43,645,759,0
3725095,364.09,645,767,0
3725105,364.32,645,758,0
3725115,365.81,645,767,0
3725125,368.57,645,759,0
3725135,373.33,645,767,0
3725145,380.00,645,758,0
3725155,389.51,645,767,0
3725165,402.13,645,759,0
3725175,418.59,645,767,0
3725185,438.51,645,758,0
3725195,462.23,645,767,0
3725205,488.39,645,759,0
3725215,516.09,645,766,0
3725225,542.98,645,760,0
3725235,567.75,645,766,0
3725245,588.14,645,758,0
3725255,603.19,645,767,0
3725265,611.06,645,760,0
3725275,611.94,645,766,0
3725285,605.14,645,758,0
3725295,591.73,645,766,0
3725305,572.48,645,759,0
3725315,549.32,645,766,0
3725325,523.04,645,757,0
3725335,495.56,645,766,0
3725345,467.96,645,759,0
3725356,441.92,645,766,0
3725366,418.80,645,760,0
3725376,398.67,645,766,0
3725386,382.10,645,763,0
3725396,369.34,645,766,0
3725406,360.75,645,760,0
3725416,356.24,645,766,0
3725426,356.21,645,763,0
3725436,359.49,645,766,0
3725446,366.29,645,760,0
3725456,375.50,645,766,0
3725466,386.92,645,763,0
3725476,398.69,645,766,0
3725486,410.22,645,760,0
3725496,420.40,645,766,0
3725506,429.11,645,763,0
3725516,435.42,645,766,0
3725527,439.54,645,765,0
3725537,440.66,645,766,0
3725547,440.03,645,767,0
3725557,436.72,645,765,0
3725568,431.84,645,766,0
3725577,425.67,645,767,0
3725587,419.68,645,767,0
3725597,413.14,645,766,0
3725607,407.57,645,767,0
3725617,401.87,645,767,0
3725627,397.84,645,767,0
3725637,393.94,645,766,0
3725647,391.05,645,768,0
3725657,387.69,645,767,0
3725667,385.34,645,767,0
3725677,382.58,645,766,0
3725687,381.03,645,768,0
3725697,379.31,645,767,0
3725707,378.75,645,767,0
3725717,377.88,645,766,0
3725727,378.22,645,768,0
3725737,378.37,645,765,0
3725747,380.06,645,767,0
3725757,382.27,645,766,0
3725767,387.42,645,767,0
3725777,394.79,645,764,0
3725787,406.51,645,767,0
3725797,421.83,645,766,0
3725807,442.49,645,767,0
3725817,466.60,645,764,0
3725827,494.49,645,766,0
3725837,523.10,645,766,0
3725847,551.79,645,767,0
3725857,577.14,645,765,0
3725868,598.57,645,767,0
3725887,612.67,0,766,0
3725889,619.28,0,766,0
3725899,617.01,0,757,0
3725910,607.79,0,767,0
3725919,591.01,0,758,0
3725929,569.79,0,767,0
3725939,543.41,0,756,0
3725949,515.73,0,767,0
3725959,486.93,0,757,0
3725969,459.91,0,767,0
3725979,433.23,0,756,0
3725989,410.11,0,767,0
3725999,388.69,0,757,0
3726009,372.20,0,767,0
3726019,358.47,0,756,0
3726029,350.53,0,767,0
3726039,345.83,0,758,0
3726049,346.78,0,767,0
3726059,350.27,0,756,0
3726069,358.25,0,767,0
3726080,367.39,0,756,0
3726089,379.53,0,767,0
3726099,390.81,0,756,0
3726109,403.04,0,767,0
3726119,412.59,0,756,0
3726129,421.80,0,767,0
3726139,427.60,0,755,0
3726149,432.31,0,767,0
3726159,433.24,0,755,0
3726169,433.21,0,767,0
3726179,429.81,0,755,0
3726189,426.39,0,767,0
3726199,420.49,0,755,0
3726209,415.33,0,767,0
3726219,408.76,0,756,0
3726229,404.03,0,767,0
3726239,398.49,0,756,0
3726249,394.87,0,767,0
3726259,390.58,0,756,0
3726269,388.31,0,767,0
3726279,385.26,0,756,0
3726289,383.85,0,767,0
3726299,380.94,0,757,0
3726309,379.11,0,767,0
3726319,375.31,0,756,0
3726329,372.26,0,766,0
3726339,368.02,0,758,0
3726349,366.17,0,767,0
3726359,364.49,0,757,0
3726369,366.32,0,767,0
3726380,369.91,0,756,0
3726390,378.85,0,767,0
3726400,391.11,0,755,0
3726410,409.08,0,767,0
3726420,429.84,0,755,0
3726430,455.43,0,767,0
3726440,482.47,0,756,0
3726450,511.82,0,767,0
3726460,539.43,0,755,0
3726470,566.34,0,767,0
3726489,588.35,602,765,0
3726492,605.01,602,767,0
3726501,614.05,602,755,0
3726511,617.29,602,767,0
3726521,612.57,602,755,0
3726531,602.46,602,766,0
3726541,584.71,602,754,0
3726551,562.98,602,766,0
3726561,537.49,602,755,0
3726571,510.64,602,766,0
3726581,481.52,602,754,0
3726592,453.76,602,766,0
3726601,427.05,602,755,0
3726611,404.75,602,766,0
3726621,385.37,602,755,0
3726631,371.37,602,766,0
3726641,361.02,602,755,0
3726651,356.38,602,766,0
3726661,355.24,602,755,0
3726671,359.88,602,767,0
3726681,367.85,602,755,0
3726691,380.58,602,767,0
3726701,394.68,602,755,0
3726711,411.14,602,767,0
3726721,426.32,602,755,0
3726731,440.06,602,765,0
3726741,449.90,602,755,0
3726751,457.69,602,767,0
3726761,461.17,602,755,0
3726771,461.76,602,766,0
3726781,458.15,602,754,0
3726791,453.05,602,766,0
3726801,447.03,602,755,0
3726811,441.58,602,767,0
3726821,433.91,602,753,0
3726831,426.22,602,767,0
3726841,418.48,602,755,0
3726851,412.77,602,767,0
3726861,406.24,602,755,0
3726871,401.28,602,767,0
3726881,395.71,602,755,0
3726892,392.07,602,767,0
3726902,388.36,602,755,0
3726912,385.90,602,767,0
3726922,382.50,602,755,0
3726932,381.11,602,766,0
3726942,378.55,602,755,0
3726952,376.88,602,767,0
3726962,374.73,602,754,0
3726972,373.87,602,767,0
3726982,372.75,602,755,0
3726992,374.24,602,767,0
3727002,377.90,602,756,0
3727012,385.68,602,767,0
3727022,395.59,602,755,0
3727032,409.13,602,767,0
3727042,425.42,602,756,0
3727052,447.28,602,767,0
3727063,471.97,602,757,0
3727073,498.25,602,766,0
3727083,524.15,602,756,0
3727093,549.77,602,767,0
3727104,572.98,602,757,0
3727113,593.05,602,766,0
3727123,605.80,602,756,0
3727133,611.65,602,766,0
3727143,610.51,602,757,0
3727153,603.63,602,766,0
3727172,590.97,683,766,0
3727175,572.94,683,766,0
3727184,551.27,683,760,0
3727194,527.96,683,766,0
3727204,503.37,683,759,0
3727214,478.32,683,767,0
3727224,452.85,683,759,0
3727234,429.54,683,767,0
3727244,409.19,683,759,0
3727254,391.95,683,767,0
3727264,378.34,683,759,0
3727275,368.51,683,766,0
3727284,362.95,683,759,0
3727294,362.33,683,767,0
3727304,365.18,683,759,0
3727314,371.30,683,767,0
3727324,380.12,683,759,0
3727334,390.72,683,767,0
3727344,402.29,683,759,0
3727354,414.24,683,767,0
3727364,424.80,683,758,0
3727374,432.79,683,767,0
3727384,438.38,683,759,0
3727394,441.31,683,767,0
3727404,441.00,683,757,0
3727414,438.39,683,767,0
3727424,433.56,683,759,0
3727434,427.35,683,767,0
3727444,421.71,683,761,0
3727454,416.40,683,767,0
3727464,410.58,683,759,0
3727474,404.83,683,767,0
3727484,400.51,683,760,0
3727494,397.70,683,767,0
3727504,395.99,683,759,0
3727514,394.02,683,767,0
3727524,391.96,683,760,0
3727534,390.26,683,767,0
3727544,388.98,683,759,0
3727554,386.97,683,767,0
3727564,384.41,683,760,0
3727575,381.59,683,767,0
3727585,379.01,683,762,0
3727595,376.56,683,766,0
3727605,374.68,683,764,0
3727616,373.62,683,766,0
3727625,373.26,683,761,0
3727635,373.91,683,767,0
3727645,378.18,683,764,0
3727655,386.10,683,767,0
3727665,398.58,683,761,0
3727675,415.34,683,766,0
3727685,436.71,683,763,0
3727695,461.70,683,766,0
3727705,489.69,683,760,0
3727715,516.91,683,766,0
3727725,542.05,683,762,0
3727735,562.91,683,765,0
3727745,578.36,683,760,0
3727764,587.25,592,758,0
3727767,587.65,592,765,0
3727776,578.97,592,763,0
3727787,562.91,592,764,0
3727796,540.35,592,764,0
3727806,514.10,592,764,0
3727816,486.04,592,764,0
3727826,458.90,592,766,0
3727836,435.45,592,765,0
3727846,417.01,592,766,0
3727856,401.88,592,764,0
3727866,391.16,592,766,0
3727876,383.40,592,765,0
3727886,377.96,592,763,0
3727896,372.19,592,763,0
3727906,369.39,592,766,0
3727916,368.33,592,765,0
3727926,370.46,592,762,0
3727936,373.96,592,763,0
3727946,381.00,592,766,0
3727956,390.09,592,763,0
3727966,402.49,592,765,0
3727976,414.00,592,765,0
3727986,425.40,592,766,0
3727996,435.01,592,763,0
3728006,443.88,592,765,0
3728016,449.19,592,765,0
3728026,453.54,592,767,0
3728036,455.01,592,763,0
3728046,454.75,592,765,0
3728056,451.57,592,765,0
3728066,447.45,592,766,0
3728076,441.15,592,763,0
3728087,434.80,592,766,0
3728097,425.69,592,761,0
3728107,416.57,592,766,0
3728117,405.90,592,759,0
3728128,396.46,592,766,0
3728137,386.93,592,762,0
3728147,379.75,592,766,0
3728157,372.63,592,759,0
3728167,368.24,592,766,0
3728177,365.51,592,763,0
3728187,366.51,592,767,0
3728197,368.85,592,761,0
3728207,374.08,592,767,0
3728217,379.50,592,764,0
3728227,386.72,592,767,0
3728237,393.10,592,761,0
3728247,399.33,592,766,0
3728257,403.47,592,763,0
3728267,407.57,592,766,0
3728277,410.14,592,760,0
3728287,415.59,592,767,0
3728297,423.08,592,758,0
3728307,435.61,592,767,0
3728317,451.50,592,760,0
3728327,472.69,592,767,0
3728337,496.01,592,758,0
3728347,522.58,592,767,0
3728357,547.14,592,760,0
3728367,569.59,592,767,0
3728377,585.87,592,758,0
3728387,597.10,592,766,0
3728397,600.20,592,760,0
3728407,597.14,592,766,0
3728417,586.12,592,758,0
3728428,570.32,592,767,0
3728438,548.88,592,757,0
3728448,525.56,592,766,0
3728458,499.03,592,756,0
3728468,473.01,592,767,0
3728478,446.86,592,758,0
3728488,423.76,592,767,0
3728498,401.93,592,757,0
3728508,384.34,592,767,0
3728518,369.07,592,758,0
3728528,358.97,592,767,0
3728538,351.61,592,756,0
3728548,349.41,592,766,0
3728558,349.55,592,758,0
3728568,354.27,592,766,0
3728578,360.70,592,756,0
3728588,370.78,592,767,0
3728599,381.13,592,756,0
3728609,393.31,592,766,0
3728619,403.93,592,755,0
3728629,415.39,592,767,0
3728640,424.66,592,756,0
3728649,433.42,592,767,0
3728659,438.52,592,756,0
3728669,442.31,592,767,0
3728679,442.69,592,756,0
3728689,442.10,592,767,0
3728699,437.87,592,756,0
3728709,432.64,592,767,0
3728719,424.64,592,756,0
3728729,417.04,592,767,0
3728739,407.85,592,756,0
3728749,399.84,592,767,0
3728759,391.06,592,756,0
3728769,384.23,592,767,0
3728779,377.26,592,756,0
3728789,372.64,592,767,0
3728799,367.90,592,756,0
3728809,365.45,592,767,0
3728819,362.70,592,756,0
3728829,361.93,592,767,0
3728839,360.71,592,756,0
3728849,361.31,592,767,0
3728859,361.47,592,756,0
3728869,363.95,592,767,0
3728879,366.88,592,756,0
3728889,373.21,592,767,0
3728899,381.08,592,756,0
3728909,393.48,592,767,0
3728919,408.68,592,756,0
3728929,429.31,592,767,0
3728940,453.09,592,756,0
3728950,481.60,592,767,0
3728960,511.12,592,756,0
3728970,542.11,592,767,0
3728980,570.24,592,756,0
3728990,595.75,592,767,0
3729000,614.34,592,756,0
3729010,626.50,592,767,0
3729020,629.13,592,756,0
3729030,624.68,592,767,0
3729040,611.70,592,756,0
3729050,593.36,592,767,0
3729060,569.13,592,756,0
3729070,542.86,592,767,0
3729080,513.97,592,756,0
3729090,485.95,592,767,0
3729100,458.02,592,756,0
3729111,433.16,592,768,0
3729121,410.65,592,756,0
3729131,392.72,592,767,0
3729141,377.93,592,757,0
3729152,368.44,592,768,0
3729161,362.65,592,757,0
3729171,362.07,592,768,0
3729181,364.62,592,757,0
3729191,371.03,592,768,0
3729201,378.87,592,756,0
3729211,388.93,592,767,0
3729221,398.77,592,757,0
3729231,409.21,592,768,0
3729241,417.89,592,756,0
3729251,425.89,592,768,0
3729261,431.24,592,757,0
3729271,435.28,592,768,0
3729281,436.27,592,756,0
3729291,435.97,592,768,0
3729301,432.77,592,757,0
3729311,428.51,592,768,0
3729321,422.14,592,757,0
3729331,415.59,592,767,0
3729341,407.70,592,757,0
3729351,400.59,592,768,0
3729361,393.04,592,757,0
3729371,386.90,592,768,0
3729381,380.59,592,756,0
3729391,375.78,592,767,0
3729401,371.13,592,757,0
3729411,368.48,592,767,0
3729421,365.98,592,756,0
3729431,364.96,592,767,0
3729441,363.94,592,757,0
3729452,364.60,592,767,0
3729462,365.41,592,757,0
3729472,367.43,592,767,0
3729482,369.10,592,758,0
3729492,371.60,592,767,0
3729502,373.90,592,757,0
3729512,377.53,592,767,0
3729522,381.74,592,758,0
3729532,387.91,592,767,0
3729542,395.78,592,757,0
3729552,407.12,592,767,0
3729562,421.78,592,758,0
3729572,440.92,592,767,0
3729582,463.10,592,757,0
3729592,488.66,592,767,0
3729602,515.46,592,758,0
3729612,542.79,592,767,0
3729623,567.93,592,758,0
3729633,589.63,592,767,0
3729643,605.82,592,759,0
3729662,615.94,0,758,0
3729665,618.32,0,768,0
3729675,613.85,0,766,0
3729685,602.97,0,767,0
3729695,586.13,0,766,0
3729705,565.65,0,768,0
3729715,542.27,0,767,0
3729725,517.76,0,767,0
3729735,492.93,0,766,0
3729745,469.08,0,768,0
3729755,446.39,0,766,0
3729765,426.94,0,767,0
3729775,409.22,0,766,0
3729785,394.84,0,767,0
3729795,382.84,0,766,0
3729805,375.30,0,767,0
3729815,370.97,0,766,0
3729825,370.55,0,767,0
3729836,372.53,0,765,0
3729846,378.16,0,768,0
3729856,385.05,0,762,0
3729866,394.38,0,767,0
3729876,402.92,0,759,0
3729886,412.12,0,768,0
3729896,419.62,0,762,0
3729906,426.59,0,768,0
3729916,430.27,0,760,0
3729926,432.93,0,768,0
3729936,432.23,0,763,0
3729946,430.70,0,767,0
3729956,426.03,0,760,0
3729966,420.84,0,768,0
3729976,413.47,0,763,0
3729986,406.73,0,768,0
3729996,398.54,0,761,0
3730007,391.65,0,768,0
3730017,384.08,0,759,0
3730027,378.36,0,768,0
3730037,372.34,0,757,0
3730048,368.25,0,768,0
3730057,363.89,0,759,0
3730067,361.69,0,768,0
3730077,359.00,0,757,0
3730087,358.31,0,768,0
3730097,357.11,0,759,0
3730107,357.67,0,768,0
3730117,357.43,0,758,0
3730127,358.80,0,768,0
3730137,359.12,0,759,0
3730147,361.01,0,768,0
3730157,361.95,0,758,0
3730167,364.54,0,768,0
3730177,366.60,0,759,0
3730187,371.05,0,767,0
3730197,375.84,0,758,0
3730207,384.20,0,768,0
3730217,394.34,0,757,0
3730227,409.19,0,767,0
3730237,426.62,0,758,0
3730247,449.11,0,768,0
3730257,473.55,0,757,0
3730267,501.33,0,768,0
3730277,528.23,0,758,0
3730287,554.90,0,768,0
3730297,576.96,0,757,0
3730316,595.36,654,757,0
3730319,605.24,654,756,0
3730328,609.37,654,768,0
3730338,604.76,654,756,0
3730348,594.59,654,767,0
3730358,577.27,654,757,0
3730368,556.70,654,768,0
3730378,531.68,654,756,0
3730388,506.92,654,767,0
3730398,480.24,654,756,0
3730408,455.48,654,767,0
3730418,431.08,654,756,0
3730428,410.23,654,767,0
3730438,391.17,654,756,0
3730448,376.64,654,767,0
3730458,364.62,654,756,0
3730468,357.66,654,767,0
3730478,353.43,654,756,0
3730488,354.12,654,767,0
3730498,357.17,654,756,0
3730508,363.85,654,767,0
3730519,371.86,654,756,0
3730529,382.88,654,767,0
3730539,393.33,654,755,0
3730549,404.03,654,767,0
3730560,413.28,654,756,0
3730569,423.01,654,767,0
3730579,430.68,654,756,0
3730589,437.46,654,767,0
3730599,440.71,654,756,0
3730609,442.98,654,767,0
3730619,442.90,654,756,0
3730629,441.26,654,767,0
3730639,435.95,654,755,0
3730649,429.67,654,767,0
3730659,420.85,654,755,0
3730669,412.03,654,767,0
3730679,401.73,654,755,0
3730689,392.60,654,767,0
3730699,383.38,654,755,0
3730709,376.15,654,767,0
3730719,368.78,654,755,0
3730729,363.57,654,767,0
3730739,358.81,654,755,0
3730749,356.30,654,767,0
3730759,354.58,654,755,0
3730769,355.22,654,767,0
3730779,355.15,654,753,0
3730789,356.82,654,767,0
3730799,359.10,654,756,0
3730809,363.53,654,767,0
3730819,367.91,654,756,0
3730829,373.43,654,767,0
3730839,378.14,654,756,0
3730849,385.00,654,767,0
3730860,392.46,654,756,0
3730870,401.62,654,767,0
3730880,411.76,654,756,0
3730890,425.59,654,767,0
3730900,442.04,654,756,0
3730910,462.82,654,767,0
3730920,485.97,654,756,0
3730930,512.12,654,767,0
3730940,538.23,654,756,0
3730950,564.05,654,767,0
3730960,585.76,654,756,0
3730970,603.06,654,767,0
3730980,613.29,654,756,0
3730990,617.44,654,767,0
3731009,613.41,693,766,0
3731012,602.19,693,766,0
3731021,584.30,693,757,0
3731031,562.70,693,767,0
3731041,537.16,693,757,0
3731051,510.33,693,767,0
3731061,482.07,693,757,0
3731072,454.92,693,767,0
3731081,429.74,693,756,0
3731091,407.32,693,767,0
3731101,387.21,693,756,0
3731111,371.08,693,767,0
3731121,358.37,693,756,0
3731131,350.37,693,767,0
3731141,346.40,693,756,0
3731151,347.31,693,767,0
3731161,351.55,693,756,0
3731171,359.44,693,767,0
3731181,369.29,693,756,0
3731191,381.33,693,767,0
3731201,393.45,693,756,0
3731211,405.91,693,767,0
3731221,416.57,693,756,0
3731231,425.95,693,767,0
3731241,432.74,693,757,0
3731251,437.70,693,767,0
3731261,439.64,693,756,0
3731271,439.62,693,767,0
3731281,436.90,693,757,0
3731291,432.99,693,767,0
3731301,427.38,693,756,0
3731311,421.44,693,767,0
3731321,414.58,693,757,0
3731331,408.23,693,767,0
3731341,401.69,693,756,0
3731351,396.04,693,767,0
3731361,390.41,693,757,0
3731372,385.83,693,767,0
3731382,381.38,693,757,0
3731392,378.01,693,767,0
3731402,375.05,693,758,0
3731412,373.28,693,766,0
3731422,371.82,693,757,0
3731432,371.23,693,766,0
3731442,370.78,693,759,0
3731452,370.97,693,766,0
3731462,371.20,693,757,0
3731472,370.92,693,766,0
3731482,372.27,693,759,0
3731492,375.66,693,767,0
3731502,381.08,693,758,0
3731512,389.28,693,767,0
3731522,400.38,693,759,0
3731532,415.27,693,767,0
3731543,434.90,693,760,0
3731553,457.09,693,767,0
3731563,481.71,693,762,0
3731573,507.94,693,767,0
3731584,534.61,693,764,0
3731593,560.23,693,767,0
3731603,582.83,693,761,0
3731613,600.80,693,767,0
3731623,613.54,693,764,0
3731642,619.47,633,759,0
3731645,618.81,633,766,0
3731654,611.58,633,766,0
3731664,598.94,633,767,0
3731674,581.38,633,767,0
3731684,560.40,633,766,0
3731694,535.42,633,766,0
3731704,508.59,633,767,0
3731714,480.86,633,767,0
3731724,453.99,633,766,0
3731734,427.72,633,766,0
3731744,404.36,633,767,0
3731755,383.60,633,765,0
3731764,367.60,633,766,0
3731774,356.02,633,766,0
3731784,349.54,633,767,0
3731794,346.64,633,765,0
3731804,348.63,633,765,0
3731814,353.63,633,766,0
3731824,362.57,633,767,0
3731834,373.28,633,765,0
3731844,385.88,633,765,0
3731854,398.09,633,766,0
3731864,410.66,633,767,0
3731874,421.14,633,765,0
3731884,430.05,633,765,0
3731894,435.52,633,766,0
3731904,438.84,633,767,0
3731914,438.54,633,765,0
3731924,437.05,633,767,0
3731934,432.79,633,766,0
3731944,427.50,633,766,0
3731954,420.23,633,765,0
3731964,413.82,633,767,0
3731974,407.02,633,766,0
3731984,401.27,633,766,0
3731994,395.02,633,766,0
3732004,390.38,633,767,0
3732014,386.37,633,766,0
3732024,383.64,633,766,0
3732034,379.46,633,765,0
3732044,376.84,633,767,0
3732055,374.23,633,763,0
3732065,373.48,633,767,0
3732075,372.95,633,762,0
3732085,374.38,633,767,0
3732096,376.49,633,760,0
3732105,381.36,633,767,0
3732115,385.79,633,762,0
3732125,392.24,633,767,0
3732135,398.38,633,760,0
3732145,406.41,633,767,0
3732155,414.77,633,762,0
3732165,426.76,633,767,0
3732175,440.76,633,760,0
3732185,459.43,633,767,0
3732195,480.56,633,763,0
3732205,505.63,633,767,0
3732215,531.24,633,760,0
3732225,558.34,633,768,0
3732235,582.88,633,763,0
3732245,604.95,633,767,0
3732264,620.69,622,766,0
3732268,629.96,622,768,0
3732276,631.17,622,758,0
3732286,626.45,622,767,0
3732296,613.58,622,757,0
3732306,595.54,622,767,0
3732316,571.80,622,758,0
3732326,545.98,622,767,0
3732336,518.08,622,758,0
3732346,490.54,622,767,0
3732356,462.35,622,758,0
3732366,437.13,622,768,0
3732376,413.22,622,758,0
3732386,393.53,622,767,0
3732396,376.18,622,759,0
3732406,364.13,622,767,0
3732416,355.13,622,758,0
3732426,351.75,622,767,0
3732436,351.22,622,757,0
3732446,355.87,622,767,0
3732456,362.60,622,758,0
3732466,373.26,622,767,0
3732476,384.50,622,757,0
3732486,398.10,622,768,0
3732496,410.42,622,758,0
3732506,423.02,622,768,0
3732516,432.49,622,757,0
3732526,440.87,622,768,0
3732536,445.06,622,758,0
3732546,447.57,622,768,0
3732556,445.73,622,757,0
3732567,442.51,622,768,0
3732577,435.84,622,757,0
3732587,428.90,622,768,0
3732597,419.50,622,756,0
3732608,410.82,622,768,0
3732617,400.85,622,757,0
3732627,392.58,622,767,0
3732637,383.75,622,756,0
3732647,377.18,622,768,0
3732657,370.31,622,757,0
3732667,365.98,622,767,0
3732677,361.70,622,756,0
3732687,359.73,622,767,0
3732697,357.54,622,757,0
3732707,357.46,622,767,0
3732717,356.98,622,756,0
3732727,358.14,622,767,0
3732737,358.19,622,756,0
3732747,359.37,622,767,0
3732757,359.30,622,756,0
3732767,359.68,622,766,0
3732777,359.01,622,755,0
3732787,361.15,622,767,0
3732797,364.66,622,756,0
3732807,372.56,622,767,0
3732817,383.02,622,756,0
3732827,398.96,622,767,0
3732837,419.03,622,757,0
3732847,445.03,622,768,0
3732857,472.97,622,756,0
3732867,504.18,622,768,0
3732877,534.81,622,757,0
3732887,565.60,622,767,0
3732897,592.42,622,756,0
3732908,615.78,622,768,0
3732918,631.70,622,756,0
3732937,641.22,673,754,0
3732940,641.28,673,759,0
3732950,634.64,673,767,0
3732959,619.62,673,756,0
3732969,599.16,673,767,0
3732979,572.89,673,756,0
3732989,544.21,673,767,0
3732999,512.90,673,756,0
3733009,482.59,673,767,0
3733019,452.20,673,756,0
3733029,424.75,673,767,0
3733039,399.50,673,756,0
3733049,378.69,673,767,0
3733059,361.26,673,756,0
3733069,349.18,673,767,0
3733079,340.77,673,756,0
3733089,337.88,673,767,0
3733099,338.69,673,756,0
3733109,344.40,673,767,0
3733120,352.63,673,756,0
3733129,364.10,673,766,0
3733139,376.03,673,756,0
3733149,389.39,673,767,0
3733159,401.62,673,756,0
3733169,413.43,673,767,0
3733179,422.56,673,756,0
3733189,430.15,673,767,0
3733199,434.43,673,756,0
3733209,437.05,673,767,0
3733219,436.26,673,756,0
3733229,433.87,673,767,0
3733239,428.59,673,756,0
3733249,422.59,673,767,0
3733259,414.57,673,756,0
3733269,406.68,673,767,0
3733279,397.65,673,756,0
3733289,389.61,673,767,0
3733299,381.07,673,755,0
3733309,373.98,673,766,0
3733319,366.53,673,756,0
3733329,360.24,673,766,0
3733339,354.17,673,755,0
3733349,350.18,673,767,0
3733359,347.42,673,756,0
3733369,347.12,673,766,0
3733379,347.09,673,755,0
3733389,348.99,673,766,0
3733399,352.16,673,756,0
3733409,357.51,673,767,0
3733420,363.23,673,756,0
3733430,369.72,673,767,0
3733440,376.02,673,757,0
3733450,384.16,673,766,0
3733460,393.24,673,757,0
3733470,403.71,673,766,0
3733480,415.50,673,756,0
3733490,431.55,673,766,0
3733500,451.18,673,757,0
3733510,475.39,673,767,0
3733520,502.27,673,757,0
3733530,531.25,673,766,0
3733540,559.84,673,757,0
3733550,586.50,673,766,0
3733560,608.38,673,757,0
3733570,625.07,673,767,0
3733580,634.26,673,757,0
3733600,636.37,663,756,0
3733603,630.64,663,765,0
3733612,619.09,663,766,0
3733622,601.75,663,763,0
3733633,578.98,663,766,0
3733643,552.03,663,766,0
3733653,522.36,663,766,0
3733663,491.74,663,767,0
3733673,461.39,663,765,0
3733683,432.86,663,766,0
3733693,406.84,663,766,0
3733703,385.25,663,767,0
3733713,367.26,663,765,0
3733723,354.75,663,765,0
3733733,346.68,663,766,0
3733743,344.38,663,767,0
3733753,345.94,663,766,0
3733763,352.21,663,765,0
3733773,361.15,663,766,0
3733783,373.28,663,767,0
3733793,385.96,663,766,0
3733804,399.69,663,767,0
3733814,411.83,663,764,0
3733824,423.23,663,767,0
3733834,431.52,663,761,0
3733844,437.88,663,767,0
3733854,440.70,663,764,0
3733864,441.65,663,767,0
3733874,438.75,663,761,0
3733884,434.54,663,767,0
3733894,427.65,663,764,0
3733904,420.47,663,767,0
3733914,411.16,663,761,0
3733924,402.58,663,767,0
3733934,393.88,663,764,0
3733944,387.66,663,767,0
3733954,381.85,663,762,0
3733964,378.51,663,767,0
3733975,375.44,663,759,0
3733985,375.01,663,767,0
3733995,374.15,663,758,0
3734005,374.40,663,767,0
3734016,373.21,663,756,0
3734025,372.93,663,767,0
3734035,370.85,663,756,0
3734045,368.45,663,766,0
3734055,365.19,663,756,0
3734065,364.45,663,767,0
3734075,364.01,663,757,0
3734085,366.92,663,767,0
3734095,371.02,663,756,0
3734105,379.71,663,767,0
3734115,392.10,663,758,0
3734125,409.60,663,767,0
3734135,429.52,663,757,0
3734145,454.31,663,767,0
3734155,480.96,663,758,0
3734165,511.18,663,767,0
3734175,540.74,663,757,0
3734185,570.52,663,767,0
3734195,595.91,663,759,0
3734205,617.36,663,767,0
3734224,630.75,624,765,0
3734227,636.40,624,767,0
3734236,632.64,624,757,0
3734246,622.25,624,767,0
3734256,603.57,624,756,0
3734266,580.30,624,767,0
3734276,552.31,624,758,0
3734286,523.42,624,767,0
3734296,493.63,624,756,0
3734306,465.29,624,767,0
3734316,437.47,624,757,0
3734326,413.46,624,767,0
3734336,391.38,624,757,0
3734346,373.52,624,767,0
3734356,358.28,624,756,0
3734366,348.60,624,768,0
3734376,342.20,624,756,0
3734386,341.33,624,767,0
3734396,343.42,624,756,0
3734406,350.49,624,767,0
3734416,359.39,624,756,0
3734426,371.53,624,767,0
3734436,383.58,624,756,0
3734446,397.12,624,767,0
3734456,408.57,624,757,0
3734466,419.59,624,767,0
3734476,427.25,624,756,0
3734487,433.61,624,767,0
3734497,436.21,624,756,0
3734507,437.26,624,767,0
3734517,434.91,624,756,0
3734528,431.85,624,767,0
3734537,426.33,624,756,0
3734547,421.08,624,767,0
3734557,414.25,624,755,0
3734567,408.30,624,767,0
3734577,401.48,624,756,0
3734587,395.98,624,767,0
3734597,389.90,624,756,0
3734607,385.39,624,767,0
3734617,380.21,624,756,0
3734627,376.72,624,767,0
3734637,372.86,624,756,0
3734647,370.76,624,767,0
3734657,368.22,624,756,0
3734667,367.51,624,767,0
3734677,366.41,624,756,0
3734687,367.15,624,767,0
3734697,367.75,624,756,0
3734707,370.52,624,767,0
3734717,373.97,624,756,0
3734727,380.92,624,767,0
3734737,389.77,624,756,0
3734747,403.51,624,767,0
3734757,420.59,624,756,0
3734767,443.34,624,767,0
3734777,469.34,624,756,0
3734787,499.62,624,767,0
3734797,530.38,624,756,0
3734807,562.02,624,767,0
3734817,590.00,624,756,0
3734828,614.09,624,767,0
3734847,630.22,623,765,0
3734850,637.52,623,765,0
3734859,635.82,623,757,0
3734870,627.35,623,766,0
3734879,610.06,623,754,0
3734889,588.05,623,767,0
3734899,561.60,623,757,0
3734909,533.86,623,767,0
3734919,506.30,623,756,0
3734929,479.21,623,767,0
3734939,452.19,623,757,0
3734949,428.43,623,767,0
3734959,406.53,623,756,0
3734969,388.33,623,767,0
3734979,373.06,623,758,0
3734989,362.50,623,767,0
3734999,355.71,623,756,0
3735009,354.21,623,767,0
3735019,356.33,623,757,0
3735029,362.70,623,767,0
3735040,371.24,623,757,0
3735049,382.52,623,767,0
3735059,394.11,623,757,0
3735069,406.76,623,767,0
3735079,417.89,623,757,0
3735089,428.47,623,767,0
3735099,436.51,623,757,0
3735109,442.87,623,767,0
3735119,446.04,623,757,0
3735129,447.53,623,767,0
3735139,445.74,623,757,0
3735149,442.43,623,767,0
3735159,436.43,623,757,0
3735169,429.66,623,767,0
3735179,421.06,623,757,0
3735189,412.21,623,766,0
3735199,402.59,623,757,0
3735209,394.44,623,767,0
3735219,386.85,623,757,0
3735229,381.41,623,767,0
3735239,376.79,623,758,0
3735249,374.49,623,767,0
3735259,373.15,623,757,0
3735269,373.66,623,767,0
3735279,374.19,623,758,0
3735289,375.63,623,767,0
3735299,376.47,623,757,0
3735309,377.96,623,767,0
3735319,378.87,623,757,0
3735329,380.50,623,767,0
3735340,381.98,623,758,0
3735350,384.73,623,766,0
3735360,388.54,623,758,0
3735370,394.98,623,766,0
3735380,404.20,623,760,0
3735390,417.94,623,766,0
3735400,436.17,623,759,0
3735410,459.61,623,766,0
3735420,486.98,623,760,0
3735430,517.59,623,767,0
3735440,549.12,623,758,0
3735450,579.86,623,767,0
3735460,606.69,623,759,0
3735470,628.34,623,766,0
3735480,642.55,623,758,0
3735499,649.16,652,757,0
3735502,646.92,652,767,0
3735511,637.48,652,766,0
3735521,620.88,652,760,0
3735531,598.97,652,767,0
3735541,572.75,652,763,0
3735552,543.60,652,766,0
3735561,512.90,652,761,0
3735571,482.76,652,767,0
3735581,453.60,652,762,0
3735591,426.42,652,766,0
3735601,402.00,652,760,0
3735611,380.44,652,766,0
3735621,363.29,652,762,0
3735631,351.08,652,766,0
3735641,344.33,652,760,0
3735651,342.68,652,766,0
3735661,346.34,652,762,0
3735671,354.46,652,767,0
3735681,366.50,652,760,0
3735691,381.09,652,767,0
3735701,396.49,652,762,0
3735711,411.09,652,767,0
3735721,424.18,652,764,0
3735731,434.84,652,766,0
3735741,442.90,652,762,0
3735751,447.99,652,767,0
3735761,450.22,652,764,0
3735771,449.68,652,766,0
3735781,447.03,652,762,0
3735791,442.22,652,767,0
3735801,436.24,652,764,0
3735811,429.14,652,766,0
3735821,421.68,652,761,0
3735831,413.81,652,766,0
3735841,406.11,652,764,0
3735852,398.53,652,766,0
3735862,391.99,652,766,0
3735872,385.65,652,766,0
3735882,380.44,652,767,0
3735892,375.51,652,765,0
3735902,371.80,652,766,0
3735912,368.64,652,766,0
3735922,366.78,652,767,0
3735932,365.09,652,765,0
3735942,364.72,652,766,0
3735952,364.55,652,767,0
3735962,366.10,652,767,0
3735972,368.04,652,765,0
3735982,371.93,652,766,0
3735992,377.13,652,766,0
3736002,385.71,652,767,0
3736012,396.98,652,765,0
3736023,413.06,652,767,0
3736033,432.80,652,764,0
3736043,457.93,652,767,0
3736053,486.02,652,762,0
3736064,517.34,652,767,0
3736073,548.57,652,764,0
3736083,579.38,652,767,0
3736093,605.80,652,762,0
3736103,627.63,652,767,0
3736113,641.63,652,765,0
3736123,648.64,652,767,0
3736133,646.39,652,762,0
3736153,637.02,653,760,0
3736156,618.54,653,758,0
3736165,595.58,653,767,0
3736175,567.12,653,757,0
3736185,536.57,653,767,0
3736195,503.66,653,758,0
3736205,472.04,653,767,0
3736215,440.83,653,757,0
3736225,414.18,653,767,0
3736236,389.36,653,756,0
3736246,369.83,653,767,0
3736256,353.90,653,756,0
3736266,344.16,653,767,0
3736276,338.37,653,756,0
3736286,338.60,653,767,0
3736296,342.11,653,756,0
3736306,350.52,653,767,0
3736316,360.90,653,756,0
3736326,374.52,653,767,0
3736336,387.73,653,756,0
3736346,401.96,653,767,0
3736356,414.10,653,756,0
3736366,425.94,653,767,0
3736376,434.53,653,756,0
3736386,441.70,653,767,0
3736396,445.00,653,756,0
3736407,446.93,653,767,0
3736417,445.32,653,756,0
3736427,442.65,653,767,0
3736437,436.97,653,756,0
3736448,430.94,653,767,0
3736457,422.77,653,756,0
3736467,415.13,653,767,0
3736477,406.52,653,756,0
3736487,399.20,653,767,0
3736497,391.69,653,756,0
3736507,386.04,653,767,0
3736517,380.37,653,756,0
3736527,376.66,653,767,0
3736537,372.90,653,756,0
3736547,370.96,653,767,0
3736557,369.00,653,756,0
3736567,368.79,653,767,0
3736577,368.21,653,755,0
3736587,369.60,653,767,0
3736597,371.14,653,756,0
3736607,375.21,653,767,0
3736617,380.33,653,756,0
3736627,388.93,653,767,0
3736637,399.88,653,756,0
3736647,415.99,653,767,0
3736657,435.45,653,756,0
3736667,459.91,653,767,0
3736677,486.68,653,756,0
3736687,516.31,653,767,0
3736697,545.14,653,755,0
3736707,573.00,653,766,0
3736717,596.01,653,756,0
3736727,615.17,653,767,0
3736737,627.20,653,755,0
3736748,633.06,653,767,0
3736758,630.34,653,756,0
3736768,621.02,653,766,0
3736778,603.83,653,756,0
3736788,580.95,653,766,0
3736798,552.81,653,756,0
3736808,522.91,653,767,0
3736818,491.05,653,757,0
3736828,460.61,653,767,0
3736838,431.58,653,756,0
3736848,406.98,653,767,0
3736858,386.67,653,757,0
3736868,371.04,653,767,0
3736878,358.86,653,756,0
3736888,351.87,653,767,0
3736898,348.74,653,757,0
3736908,350.45,653,766,0
3736919,355.24,653,757,0
3736929,363.74,653,767,0
3736939,374.10,653,758,0
3736949,386.37,653,766,0
3736960,398.73,653,759,0
3736969,411.11,653,767,0
3736979,421.88,653,758,0
3736989,431.17,653,766,0
3736999,437.81,653,759,0
3737009,442.24,653,767,0
3737019,443.71,653,758,0
3737029,442.85,653,766,0
3737039,439.51,653,759,0
3737049,434.77,653,767,0
3737059,428.28,653,758,0
3737069,421.17,653,766,0
3737079,413.15,653,759,0
3737089,405.47,653,767,0
3737099,397.75,653,758,0
3737109,390.84,653,766,0
3737119,384.20,653,759,0
3737129,378.74,653,767,0
3737139,373.80,653,758,0
3737149,370.26,653,766,0
3737159,367.40,653,759,0
3737169,365.86,653,767,0
3737179,365.52,653,758,0
3737189,367.03,653,767,0
3737199,369.55,653,759,0
3737209,373.54,653,767,0
3737219,378.31,653,758,0
3737229,384.99,653,767,0
3737239,393.35,653,759,0
3737249,404.00,653,767,0
3737260,416.90,653,760,0
3737270,433.34,653,767,0
3737280,453.30,653,761,0
3737290,477.17,653,767,0
3737300,503.04,653,763,0
3737310,530.42,653,765,0
3737320,556.99,653,761,0
3737330,582.41,653,767,0
3737340,604.91,653,763,0
3737350,622.68,653,767,0
3737360,633.92,653,761,0
3737370,638.27,653,767,0
3737380,635.19,653,762,0
3737399,625.23,0,759,0
3737402,608.19,0,768,0
3737411,585.03,0,767,0
3737421,557.94,0,767,0
3737431,528.26,0,767,0
3737441,497.97,0,766,0
3737451,468.06,0,767,0
3737461,440.36,0,767,0
3737472,415.09,0,766,0
3737481,393.47,0,765,0
3737491,375.20,0,767,0
3737501,361.68,0,767,0
3737511,352.31,0,767,0
3737521,348.01,0,765,0
3737531,347.75,0,767,0
3737541,352.16,0,767,0
3737551,359.35,0,767,0
3737561,369.36,0,764,0
3737571,380.35,0,767,0
3737581,392.59,0,767,0
3737591,403.86,0,766,0
3737601,414.57,0,763,0
3737611,423.27,0,767,0
3737621,430.56,0,767,0
3737631,435.19,0,767,0
3737641,438.05,0,767,0
3737651,437.99,0,767,0
3737661,436.41,0,766,0
3737671,432.43,0,766,0
3737681,427.29,0,767,0
3737691,420.60,0,767,0
3737701,413.69,0,766,0
3737711,405.68,0,767,0
3737721,398.24,0,767,0
3737731,390.79,0,767,0
3737741,384.38,0,766,0
3737751,378.14,0,767,0
3737761,373.26,0,767,0
3737772,368.59,0,766,0
3737782,365.76,0,767,0
3737792,363.04,0,764,0
3737802,361.92,0,767,0
3737812,360.96,0,762,0
3737822,361.83,0,767,0
3737832,363.16,0,764,0
3737842,367.02,0,767,0
3737852,371.90,0,762,0
3737862,380.46,0,767,0
3737872,391.76,0,764,0
3737882,408.46,0,767,0
3737892,428.85,0,762,0
3737902,454.44,0,768,0
3737912,482.72,0,765,0
3737922,514.31,0,767,0
3737932,545.54,0,763,0
3737943,575.89,0,767,0
3737953,601.13,0,760,0
3737963,621.32,0,767,0
3737973,633.01,0,758,0
3737984,637.38,0,767,0
3737993,632.55,0,760,0
3738003,620.90,0,767,0
3738013,601.21,0,758,0
3738023,577.32,0,767,0
3738033,548.64,0,760,0
3738043,519.13,0,767,0
3738053,487.81,0,758,0
3738063,458.51,0,768,0
3738073,430.11,0,759,0
3738083,406.25,0,768,0
3738093,384.92,0,758,0
3738103,368.87,0,768,0
3738113,356.05,0,761,0
3738123,349.18,0,768,0
3738133,345.35,0,759,0
3738143,346.79,0,768,0
3738153,350.50,0,758,0
3738163,358.45,0,768,0
3738173,367.61,0,760,0
3738183,379.64,0,768,0
3738193,390.98,0,758,0
3738203,403.46,0,768,0
3738213,413.73,0,760,0
3738223,423.67,0,768,0
3738233,430.16,0,758,0
3738243,435.51,0,768,0
3738253,437.11,0,759,0
3738263,437.59,0,768,0
3738273,434.54,0,758,0
3738284,430.82,0,768,0
3738294,424.15,0,757,0
3738304,417.38,0,767,0
3738314,408.39,0,757,0
3738324,400.17,0,767,0
3738334,390.91,0,757,0
3738344,383.39,0,768,0
3738354,375.52,0,757,0
3738364,369.96,0,767,0
3738374,364.66,0,757,0
3738384,361.98,0,768,0
3738394,359.24,0,757,0
3738404,358.83,0,767,0
3738414,358.06,0,757,0
3738424,359.33,0,767,0
3738434,360.05,0,757,0
3738444,362.47,0,767,0
3738455,364.18,0,756,0
3738465,367.89,0,767,0
3738475,371.78,0,756,0
3738485,378.79,0,767,0
3738496,387.25,0,755,0
3738505,400.29,0,767,0
3738515,416.32,0,756,0
3738525,437.99,0,767,0
3738535,462.72,0,755,0
3738545,491.61,0,767,0
3738555,521.13,0,756,0
3738565,551.47,0,767,0
3738575,578.42,0,755,0
3738585,602.21,0,767,0
3738595,618.60,0,756,0
3738605,628.62,0,767,0
3738615,629.42,0,756,0
3738625,623.38,0,767,0
3738644,608.95,0,766,0
3738647,588.74,0,768,0
3738656,562.89,0,755,0
3738667,534.72,0,767,0
3738676,503.73,0,756,0
3738686,473.56,0,767,0
3738696,443.18,0,756,0
3738706,415.99,0,767,0
3738716,391.44,0,756,0
3738726,371.16,0,767,0
3738736,354.01,0,756,0
3738746,342.27,0,767,0
3738756,334.17,0,756,0
3738766,331.81,0,767,0
3738776,332.89,0,756,0
3738786,338.80,0,767,0
3738796,346.91,0,756,0
3738806,358.55,0,767,0
3738816,370.90,0,755,0
3738826,384.73,0,767,0
3738836,397.16,0,755,0
3738846,409.07,0,767,0
3738856,418.00,0,755,0
3738866,425.37,0,767,0
3738876,429.12,0,756,0
3738886,431.05,0,767,0
3738896,429.67,0,756,0
3738906,426.90,0,767,0
3738916,421.48,0,756,0
3738926,415.81,0,767,0
3738936,408.32,0,755,0
3738946,401.16,0,767,0
3738956,392.79,0,755,0
3738967,385.40,0,767,0
3738977,377.82,0,756,0
3738987,371.66,0,767,0
3738997,365.42,0,756,0
3739008,360.75,0,766,0
3739017,356.11,0,756,0
3739027,353.34,0,766,0
3739037,350.96,0,756,0
3739047,349.99,0,766,0
3739057,348.75,0,755,0
3739067,348.22,0,767,0
3739077,349.36,0,756,0
3739087,353.54,0,767,0
3739097,359.03,0,756,0
3739107,367.21,0,767,0
3739117,377.17,0,756,0
3739127,390.92,0,767,0
3739137,407.79,0,755,0
3739147,427.82,0,767,0
3739157,449.78,0,756,0
3739167,474.96,0,767,0
3739177,501.54,0,756,0
3739187,529.79,0,767,0
3739197,557.16,0,756,0
3739207,583.25,0,767,0
3739217,604.65,0,756,0
3739227,621.17,0,767,0
3739237,630.16,0,756,0
3739247,632.08,0,767,0
3739267,625.42,622,765,0
3739270,610.55,622,767,0
3739279,588.91,622,758,0
3739289,562.37,622,766,0
3739299,531.96,622,760,0
3739309,499.91,622,766,0
3739319,467.11,622,758,0
3739329,435.83,622,766,0
3739339,407.04,622,760,0
3739350,381.01,622,766,0
3739359,359.02,622,757,0
3739369,341.32,622,766,0
3739379,329.95,622,760,0
3739389,324.91,622,766,0
3739399,325.96,622,759,0
3739409,333.30,622,767,0
3739419,345.77,622,760,0
3739429,361.48,622,766,0
3739439,379.55,622,759,0
3739449,397.21,622,767,0
3739459,413.56,622,760,0
3739469,427.37,622,766,0
3739479,438.27,622,759,0
3739489,445.86,622,767,0
3739499,450.49,622,761,0
3739509,451.84,622,766,0
3739520,450.52,622,762,0
3739529,446.63,622,767,0
3739539,440.87,622,760,0
3739549,433.45,622,766,0
3739559,425.13,622,763,0
3739569,416.09,622,767,0
3739579,407.02,622,761,0
3739589,397.76,622,766,0
3739599,389.00,622,763,0
3739609,381.03,622,767,0
3739619,374.16,622,760,0
3739629,368.16,622,766,0
3739639,363.52,622,762,0
3739649,360.15,622,766,0
3739659,358.35,622,760,0
3739669,357.64,622,766,0
3739679,358.05,622,762,0
3739689,359.11,622,766,0
3739699,361.18,622,760,0
3739709,363.69,622,766,0
3739719,366.91,622,762,0
3739729,370.67,622,766,0
3739739,375.48,622,760,0
3739749,381.85,622,766,0
3739759,390.85,622,761,0
3739769,402.55,622,766,0
3739779,417.69,622,759,0
3739789,436.51,622,766,0
3739799,459.20,622,761,0
3739809,484.90,622,766,0
3739820,512.53,622,764,0
3739830,539.93,622,766,0
3739840,565.79,622,767,0
3739850,587.54,622,766,0
3739860,604.05,622,767,0
3739870,613.33,622,766,0
3739880,615.25,622,766,0
3739890,608.92,622,766,0
3739900,595.83,622,766,0
3739919,576.29,653,764,0
3739922,552.72,653,768,0
3739931,525.85,653,763,0
3739941,498.76,653,767,0
3739951,471.32,653,765,0
3739961,445.98,653,768,0
3739971,422.12,653,763,0
3739981,401.77,653,767,0
3739991,384.09,653,765,0
3740001,370.44,653,767,0
3740011,359.38,653,764,0
3740021,353.22,653,767,0
3740032,350.50,653,761,0
3740041,353.01,653,767,0
3740051,358.49,653,764,0
3740061,368.29,653,767,0
3740071,379.51,653,762,0
3740081,393.03,653,767,0
3740091,405.79,653,764,0
3740101,418.76,653,767,0
3740111,428.99,653,762,0
3740121,437.90,653,767,0
3740131,443.12,653,764,0
3740141,446.64,653,767,0
3740151,446.36,653,762,0
3740161,444.54,653,767,0
3740171,439.66,653,765,0
3740181,434.15,653,767,0
3740191,426.22,653,762,0
3740201,418.31,653,767,0
3740211,409.13,653,765,0
3740221,400.91,653,767,0
3740231,391.98,653,763,0
3740241,384.36,653,767,0
3740251,376.49,653,765,0
3740261,370.43,653,767,0
3740271,364.26,653,763,0
3740281,359.94,653,767,0
3740291,355.80,653,765,0
3740301,353.67,653,767,0
3740311,351.59,653,763,0
3740321,351.45,653,767,0
3740332,351.53,653,761,0
3740342,354.11,653,767,0
3740352,357.17,653,759,0
3740362,363.42,653,767,0
3740372,371.82,653,758,0
3740382,385.03,653,767,0
3740392,401.39,653,759,0
3740402,423.43,653,767,0
3740412,448.67,653,758,0
3740422,478.64,653,768,0
3740432,509.69,653,759,0
3740442,542.01,653,767,0
3740452,571.28,653,758,0
3740462,598.03,653,768,0
3740472,617.73,653,759,0
3740482,631.44,653,767,0
3740492,635.98,653,758,0
3740503,633.37,653,767,0
3740513,621.60,653,757,0
3740523,604.02,653,767,0
3740533,579.50,653,756,0
3740544,552.27,653,767,0
3740553,521.37,653,756,0
3740563,490.96,653,767,0
3740573,459.81,653,756,0
3740583,431.58,653,767,0
3740593,404.79,653,757,0
3740603,382.31,653,767,0
3740613,362.33,653,756,0
3740623,347.71,653,767,0
3740633,336.18,653,757,0
3740643,330.51,653,767,0
3740653,328.22,653,756,0
3740663,331.49,653,767,0
3740673,337.30,653,757,0
3740683,347.41,653,767,0
3740693,358.52,653,756,0
3740703,372.16,653,767,0
3740713,384.80,653,756,0
3740723,397.89,653,767,0
3740733,408.04,653,756,0
3740743,417.54,653,767,0
3740753,423.33,653,756,0
3740763,427.86,653,767,0
3740773,428.59,653,756,0
3740783,428.33,653,767,0
3740793,424.84,653,756,0
3740803,421.08,653,767,0
3740813,414.84,653,756,0
3740823,409.14,653,767,0
3740833,401.90,653,756,0
3740844,395.93,653,767,0
3740854,388.97,653,755,0
3740864,383.75,653,767,0
3740874,378.17,653,756,0
3740884,374.43,653,767,0
3740894,370.40,653,755,0
3740904,368.14,653,767,0
3740914,365.27,653,756,0
3740924,364.12,653,767,0
3740934,362.45,653,755,0
3740944,362.49,653,767,0
3740954,362.08,653,756,0
3740964,363.13,653,767,0
3740974,363.65,653,755,0
3740984,366.24,653,767,0
3740994,369.43,653,755,0
3741004,375.90,653,767,0
3741015,384.20,653,755,0
3741025,397.17,653,767,0
3741035,413.53,653,755,0
3741045,435.44,653,767,0
3741056,460.51,653,755,0
3741065,489.37,653,767,0
3741075,518.66,653,756,0
3741085,548.33,653,767,0
3741095,574.55,653,756,0
3741105,597.01,653,767,0
3741115,612.31,653,756,0
3741134,621.04,0,754,0
3741137,620.43,0,758,0
3741146,612.97,0,767,0
3741156,597.64,0,756,0
3741166,577.18,0,766,0
3741176,551.49,0,756,0
3741186,523.87,0,767,0
3741196,494.30,0,756,0
3741206,466.31,0,767,0
3741216,438.92,0,756,0
3741227,414.43,0,767,0
3741236,392.27,0,756,0
3741246,374.15,0,767,0
3741256,359.10,0,756,0
3741266,348.61,0,767,0
3741276,341.57,0,756,0
3741286,339.17,0,767,0
3741296,340.24,0,756,0
3741306,345.39,0,767,0
3741316,353.33,0,756,0
3741326,364.55,0,767,0
3741336,376.85,0,757,0
3741346,390.36,0,767,0
3741356,402.93,0,757,0
3741366,414.78,0,767,0
3741376,424.10,0,757,0
3741386,431.19,0,767,0
3741396,434.65,0,757,0
3741406,435.91,0,767,0
3741416,434.05,0,757,0
3741426,430.52,0,767,0
3741436,424.66,0,757,0
3741446,418.08,0,767,0
3741456,410.00,0,756,0
3741466,401.90,0,767,0
3741476,393.06,0,757,0
3741486,384.77,0,767,0
3741496,375.88,0,756,0
3741506,368.25,0,767,0
3741516,360.63,0,757,0
3741527,355.13,0,767,0
3741537,351.32,0,758,0
3741547,349.64,0,767,0
3741557,348.20,0,759,0
3741568,349.38,0,767,0
3741577,351.97,0,758,0
3741587,356.78,0,768,0
3741597,361.99,0,759,0
3741607,367.43,0,767,0
3741617,372.66,0,758,0
3741627,379.75,0,767,0
3741637,387.32,0,758,0
3741647,396.48,0,767,0
3741657,407.44,0,758,0
3741667,421.79,0,767,0
3741677,439.85,0,759,0
3741687,462.23,0,767,0
3741697,487.66,0,758,0
3741707,515.66,0,767,0
3741717,543.92,0,759,0
3741727,571.03,0,767,0
3741737,594.25,0,760,0
3741747,612.00,0,767,0
3741757,622.37,0,759,0
3741767,625.39,0,767,0
3741777,620.30,0,760,0
3741796,608.04,662,756,0
3741799,588.83,662,767,0
3741808,564.58,662,767,0
3741818,536.76,662,764,0
3741828,507.22,662,767,0
3741838,476.98,662,761,0
3741848,447.33,662,767,0
3741858,419.42,662,764,0
3741868,394.69,662,766,0
3741878,373.48,662,761,0
3741888,356.11,662,767,0
3741898,343.39,662,763,0
3741908,335.05,662,766,0
3741918,331.99,662,761,0
3741928,333.54,662,767,0
3741938,339.59,662,763,0
3741948,349.01,662,766,0
3741958,361.35,662,761,0
3741968,375.05,662,767,0
3741978,389.56,662,762,0
3741988,402.59,662,766,0
3741998,413.86,662,760,0
3742008,422.30,662,766,0
3742018,427.48,662,761,0
3742028,429.99,662,766,0
3742039,430.72,662,765,0
3742049,428.19,662,766,0
3742059,425.74,662,767,0
3742069,422.77,662,765,0
3742080,420.40,662,767,0
3742089,418.56,662,767,0
3742099,416.98,662,767,0
3742109,414.37,662,766,0
3742119,413.23,662,768,0
3742129,410.68,662,767,0
3742139,407.77,662,767,0
3742149,403.30,662,766,0
3742159,399.27,662,768,0
3742169,394.39,662,767,0
3742179,390.33,662,767,0
3742189,385.69,662,766,0
3742199,382.09,662,768,0
3742209,378.55,662,767,0
3742219,376.50,662,767,0
3742229,374.34,662,766,0
3742239,373.85,662,768,0
3742249,373.72,662,765,0
3742259,375.99,662,767,0
3742269,379.77,662,767,0
3742279,387.12,662,768,0
3742289,397.33,662,765,0
3742299,412.14,662,767,0
3742309,430.49,662,767,0
3742319,453.83,662,768,0
3742329,479.85,662,766,0
