Time,PPG,IBI,GSR,GSR_Event
1520179,366.36,813,770,0
1520189,343.67,813,766,0
1520199,325.55,813,771,0
1520209,312.53,813,766,0
1520219,304.91,813,771,0
1520229,302.11,813,766,0
1520239,303.96,813,771,0
1520249,312.93,813,766,0
1520259,326.54,813,771,0
1520269,341.42,813,766,0
1520279,355.99,813,771,0
1520289,368.98,813,766,0
1520300,379.66,813,771,0
1520310,387.26,813,766,0
1520320,391.94,813,771,0
1520330,393.71,813,767,0
1520340,392.81,813,771,0
1520350,389.48,813,766,0
1520360,384.28,813,771,0
1520370,377.68,813,767,0
1520380,370.36,813,771,0
1520390,362.75,813,766,0
1520400,355.54,813,771,0
1520410,349.08,813,767,0
1520420,343.44,813,771,0
1520430,338.72,813,766,0
1520440,334.86,813,771,0
1520450,331.69,813,767,0
1520460,329.04,813,771,0
1520471,326.67,813,767,0
1520481,324.46,813,771,0
1520491,322.48,813,768,0
1520501,320.53,813,771,0
1520512,318.87,813,769,0
1520521,317.54,813,771,0
1520531,316.86,813,768,0
1520541,316.82,813,771,0
1520551,317.69,813,769,0
1520561,319.02,813,771,0
1520571,321.07,813,768,0
1520581,323.58,813,771,0
1520591,326.45,813,768,0
1520601,329.19,813,771,0
1520611,331.49,813,768,0
1520621,333.06,813,771,0
1520631,334.41,813,769,0
1520641,336.09,813,771,0
1520651,339.36,813,768,0
1520661,345.81,813,771,0
1520671,357.61,813,768,0
1520681,376.80,813,771,0
1520691,404.72,813,768,0
1520701,441.83,813,771,0
1520711,484.91,813,769,0
1520731,530.71,813,769,0
1520734,576.35,813,773,0
1520743,618.80,813,772,0
1520753,655.59,813,773,0
1520763,684.90,813,773,0
1520773,705.63,813,772,0
1520783,720.18,813,773,0
1520793,730.41,813,772,0
1520803,737.53,813,773,0
1520813,741.92,813,772,0
1520823,741.60,813,773,0
1520833,735.63,813,772,0
1520843,723.14,813,772,0
1520854,704.07,813,772,0
1520863,678.42,813,772,0
1520873,646.84,813,772,0
1520883,610.07,813,772,0
1520893,571.44,813,772,0
1520903,532.82,813,773,0
1520913,496.19,813,772,0
1520923,462.06,813,772,0
1520933,431.49,813,773,0
1520943,404.25,813,772,0
1520953,381.12,813,772,0
1520963,361.58,813,773,0
1520973,346.24,813,772,0
1520983,334.55,813,772,0
1520993,327.27,813,771,0
1521003,323.50,813,772,0
1521013,323.61,813,772,0
1521024,326.77,813,772,0
1521033,333.10,813,772,0
1521043,341.12,813,772,0
1521053,350.69,813,772,0
1521063,360.21,813,772,0
1521073,369.58,813,772,0
1521083,377.42,813,772,0
1521093,383.59,813,772,0
1521103,387.14,813,772,0
1521113,388.60,813,772,0
1521123,387.43,813,772,0
1521133,384.52,813,773,0
1521143,379.65,813,772,0
1521153,374.05,813,772,0
1521163,367.52,813,773,0
1521173,361.11,813,772,0
1521183,354.43,813,772,0
1521193,348.43,813,772,0
1521203,342.52,813,772,0
1521213,337.30,813,772,0
1521223,332.07,813,772,0
1521233,327.59,813,772,0
1521243,323.47,813,773,0
1521253,320.46,813,772,0
1521263,317.84,813,772,0
1521273,316.38,813,773,0
1521283,315.54,813,773,0
1521293,315.72,813,772,0
1521303,316.06,813,772,0
1521313,316.94,813,773,0
1521324,317.43,813,772,0
1521334,318.16,813,773,0
1521344,318.15,813,771,0
1521354,318.19,813,773,0
1521364,317.58,813,771,0
1521374,317.40,813,773,0
1521384,316.77,813,771,0
1521394,316.71,813,773,0
1521404,316.50,813,770,0
1521414,317.16,813,773,0
1521424,317.84,813,771,0
1521434,319.73,813,773,0
1521444,322.30,813,771,0
1521454,327.35,813,773,0
1521464,335.22,813,771,0
1521474,348.22,813,773,0
1521484,367.27,813,771,0
1521495,394.70,813,773,0
1521505,430.45,813,770,0
1521524,472.74,794,768,0
1521527,518.03,794,768,0
1521537,563.88,794,773,0
1521547,607.20,794,768,0
1521557,645.80,794,773,0
1521567,677.15,794,768,0
1521577,700.20,794,773,0
1521587,716.34,794,768,0
1521597,727.64,794,773,0
1521607,735.55,794,768,0
1521617,740.05,794,773,0
1521627,739.65,794,768,0
1521637,733.59,794,773,0
1521647,721.02,794,768,0
1521657,702.16,794,773,0
1521667,676.87,794,768,0
1521677,645.75,794,773,0
1521687,609.91,794,768,0
1521697,572.31,794,773,0
1521708,534.29,794,768,0
1521718,497.86,794,773,0
1521728,463.27,794,768,0
1521738,431.73,794,773,0
1521748,403.14,794,768,0
1521758,378.41,794,773,0
1521768,357.33,794,768,0
1521778,340.65,794,773,0
1521788,328.07,794,768,0
1521798,319.95,794,773,0
1521808,315.68,794,767,0
1521818,315.39,794,773,0
1521828,318.10,794,768,0
1521838,323.56,794,773,0
1521848,330.80,794,767,0
1521858,339.39,794,773,0
1521868,348.49,794,768,0
1521879,357.68,794,772,0
1521889,365.96,794,768,0
1521899,373.00,794,773,0
1521909,378.15,794,769,0
1521920,381.23,794,773,0
1521929,381.93,794,768,0
1521939,380.41,794,773,0
1521949,376.47,794,769,0
1521959,370.72,794,773,0
1521969,363.47,794,768,0
1521979,355.40,794,773,0
1521989,346.80,794,769,0
1521999,338.07,794,773,0
1522009,329.48,794,768,0
1522019,321.58,794,773,0
1522029,314.50,794,769,0
1522039,308.52,794,773,0
1522049,303.57,794,768,0
1522059,299.93,794,773,0
1522069,297.46,794,769,0
1522079,296.25,794,773,0
1522089,296.31,794,770,0
1522099,297.37,794,773,0
1522109,299.40,794,769,0
1522119,302.32,794,773,0
1522129,306.00,794,769,0
1522139,310.50,794,773,0
1522149,315.41,794,769,0
1522159,320.34,794,772,0
1522169,325.17,794,770,0
1522179,329.57,794,773,0
1522189,333.30,794,769,0
1522199,336.04,794,773,0
1522209,337.79,794,769,0
1522220,338.96,794,773,0
1522230,340.43,794,770,0
1522240,343.22,794,773,0
1522250,349.11,794,771,0
1522260,359.66,794,773,0
1522270,376.82,794,770,0
1522280,401.99,794,773,0
1522290,436.19,794,771,0
1522300,477.02,794,773,0
1522319,521.37,795,771,0
1522322,566.05,795,773,0
1522331,608.59,795,772,0
1522341,646.47,795,773,0
1522351,677.66,795,772,0
1522361,700.56,795,773,0
1522371,716.59,795,772,0
1522381,727.81,795,773,0
1522391,735.67,795,772,0
1522401,741.17,795,773,0
1522411,743.26,795,772,0
1522421,740.14,795,773,0
1522432,731.06,795,772,0
1522441,715.52,795,772,0
1522451,693.72,795,772,0
1522461,665.31,795,773,0
1522471,631.14,795,772,0
1522481,593.13,795,773,0
1522491,554.30,795,772,0
1522501,515.86,795,773,0
1522511,479.38,795,772,0
1522521,445.16,795,773,0
1522531,414.47,795,772,0
1522541,386.98,795,773,0
1522551,363.63,795,772,0
1522561,344.07,795,772,0
1522571,329.13,795,772,0
1522581,318.38,795,772,0
1522591,312.57,795,772,0
1522601,310.98,795,772,0
1522611,313.60,795,772,0
1522621,319.29,795,772,0
1522631,327.86,795,772,0
1522641,337.89,795,772,0
1522651,349.07,795,772,0
1522661,359.55,795,773,0
1522671,369.20,795,772,0
1522681,376.68,795,772,0
1522691,382.22,795,772,0
1522701,384.98,795,772,0
1522711,385.46,795,772,0
1522721,383.05,795,772,0
1522732,378.92,795,773,0
1522742,372.69,795,771,0
1522752,365.75,795,773,0
1522762,357.68,795,771,0
1522772,349.76,795,773,0
1522782,341.74,795,771,0
1522792,334.70,795,772,0
1522802,328.19,795,771,0
1522812,322.90,795,773,0
1522822,318.13,795,771,0
1522832,314.62,795,773,0
1522842,311.52,795,771,0
1522852,309.61,795,773,0
1522862,308.05,795,772,0
1522872,307.61,795,773,0
1522882,307.64,795,771,0
1522892,308.99,795,773,0
1522903,310.79,795,770,0
1522913,313.81,795,773,0
1522923,317.00,795,770,0
1522933,320.94,795,773,0
1522944,324.26,795,769,0
1522953,327.74,795,773,0
1522963,329.92,795,770,0
1522973,331.61,795,773,0
1522983,331.60,795,768,0
1522993,330.91,795,773,0
1523003,328.62,795,770,0
1523013,326.08,795,773,0
1523023,322.54,795,769,0
1523033,319.63,795,773,0
1523043,317.09,795,770,0
1523053,316.89,795,773,0
1523063,319.41,795,769,0
1523073,327.21,795,773,0
1523083,341.25,795,770,0
1523093,364.53,795,773,0
1523103,397.72,795,769,0
1523123,439.63,803,768,0
1523126,486.28,803,768,0
1523135,534.97,803,773,0
1523145,582.29,803,768,0
1523155,625.88,803,773,0
1523165,662.34,803,768,0
1523175,689.80,803,773,0
1523185,709.01,803,768,0
1523195,722.47,803,773,0
1523205,731.88,803,768,0
1523215,738.52,803,773,0
1523225,743.12,803,768,0
1523235,746.34,803,773,0
1523245,748.60,803,768,0
1523255,750.17,803,773,0
1523265,749.74,803,768,0
1523275,745.66,803,773,0
1523286,736.46,803,768,0
1523295,721.67,803,773,0
1523305,700.25,803,767,0
1523315,672.36,803,773,0
1523325,637.97,803,767,0
1523335,599.23,803,773,0
1523345,557.98,803,768,0
1523355,516.67,803,773,0
1523365,476.44,803,768,0
1523375,439.37,803,773,0
1523385,405.96,803,768,0
1523395,377.55,803,773,0
1523405,354.20,803,768,0
1523415,336.96,803,773,0
1523425,325.31,803,768,0
1523435,319.56,803,773,0
1523445,318.88,803,768,0
1523456,323.16,803,773,0
1523465,331.00,803,768,0
1523475,341.71,803,773,0
1523485,353.63,803,767,0
1523495,366.04,803,773,0
1523505,377.34,803,768,0
1523515,387.14,803,773,0
1523525,394.13,803,767,0
1523535,398.20,803,773,0
1523545,398.96,803,768,0
1523555,397.04,803,772,0
1523565,392.40,803,768,0
1523575,386.02,803,773,0
1523585,377.83,803,768,0
1523595,369.01,803,772,0
1523605,359.79,803,768,0
1523615,351.03,803,773,0
1523625,342.62,803,768,0
1523635,335.45,803,772,0
1523645,329.14,803,768,0
1523655,324.34,803,773,0
1523665,320.68,803,768,0
1523675,318.38,803,772,0
1523685,316.98,803,768,0
1523695,316.73,803,773,0
1523705,317.15,803,768,0
1523715,318.56,803,772,0
1523725,320.37,803,768,0
1523735,322.83,803,773,0
1523745,325.28,803,768,0
1523756,328.11,803,772,0
1523766,330.91,803,768,0
1523776,333.93,803,773,0
1523786,336.78,803,768,0
1523796,339.63,803,772,0
1523806,341.97,803,768,0
1523816,344.38,803,773,0
1523826,346.37,803,769,0
1523836,348.10,803,772,0
1523846,349.14,803,768,0
1523856,349.74,803,773,0
1523866,349.95,803,768,0
1523876,349.92,803,772,0
1523886,349.82,803,768,0
1523896,350.56,803,773,0
1523906,353.18,803,768,0
1523916,359.29,803,772,0
1523927,370.99,803,769,0
1523937,390.19,803,773,0
1523947,418.81,803,770,0
1523966,456.07,844,768,0
1523970,498.60,844,772,0
1523979,543.51,844,773,0
1523989,588.01,844,772,0
1523999,629.15,844,772,0
1524009,664.33,844,773,0
1524019,691.28,844,773,0
1524029,710.18,844,772,0
1524039,723.37,844,772,0
1524049,732.60,844,773,0
1524059,739.06,844,773,0
1524069,743.63,844,772,0
1524079,746.83,844,773,0
1524089,749.06,844,773,0
1524099,749.30,844,773,0
1524109,745.70,844,772,0
1524119,736.49,844,772,0
1524129,721.13,844,773,0
1524140,698.76,844,772,0
1524150,669.65,844,772,0
1524160,633.67,844,771,0
1524170,592.92,844,773,0
1524180,549.75,844,771,0
1524190,507.22,844,773,0
1524200,466.31,844,771,0
1524210,429.28,844,773,0
1524220,396.41,844,771,0
1524230,369.33,844,773,0
1524240,347.63,844,771,0
1524250,332.31,844,773,0
1524260,322.28,844,771,0
1524270,318.29,844,773,0
1524280,318.81,844,771,0
1524290,324.01,844,773,0
1524300,332.02,844,771,0
1524311,342.68,844,773,0
1524321,354.05,844,770,0
1524331,365.99,844,773,0
1524341,376.58,844,769,0
1524352,386.05,844,773,0
1524361,392.98,844,770,0
1524371,397.87,844,773,0
1524381,399.75,844,769,0
1524391,399.44,844,773,0
1524401,396.44,844,770,0
1524411,391.76,844,773,0
1524421,384.85,844,769,0
1524431,377.01,844,773,0
1524441,367.92,844,770,0
1524451,358.90,844,773,0
1524461,349.50,844,769,0
1524471,341.08,844,773,0
1524481,333.17,844,770,0
1524491,327.03,844,773,0
1524501,321.92,844,769,0
1524511,318.60,844,773,0
1524521,316.15,844,768,0
1524531,315.46,844,773,0
1524541,315.28,844,769,0
1524551,316.40,844,773,0
1524561,317.69,844,768,0
1524571,319.80,844,773,0
1524581,321.79,844,769,0
1524591,324.34,844,773,0
1524601,326.46,844,768,0
1524611,328.94,844,773,0
1524621,330.76,844,769,0
1524631,332.67,844,773,0
1524641,333.71,844,769,0
1524652,334.66,844,773,0
1524662,334.80,844,768,0
1524672,335.03,844,773,0
1524682,334.64,844,768,0
1524692,334.49,844,773,0
1524702,333.83,844,768,0
1524712,333.58,844,773,0
1524722,333.19,844,768,0
1524732,333.82,844,772,0
1524742,335.25,844,768,0
1524752,339.33,844,773,0
1524762,346.82,844,768,0
1524772,359.99,844,772,0
1524782,379.75,844,768,0
1524792,408.11,844,773,0
1524811,444.80,845,772,0
1524814,487.38,845,774,0
1524823,532.31,845,767,0
1524833,577.04,845,773,0
1524843,618.69,845,767,0
1524853,655.25,845,773,0
1524864,684.41,845,767,0
1524873,705.28,845,773,0
1524883,719.90,845,767,0
1524893,730.13,845,773,0
1524903,737.25,845,767,0
1524913,740.04,845,773,0
1524923,737.03,845,767,0
1524933,727.81,845,773,0
1524943,711.84,845,767,0
1524953,689.60,845,773,0
1524963,661.01,845,767,0
1524973,626.93,845,773,0
1524983,590.01,845,767,0
1524993,553.11,845,773,0
1525003,517.46,845,767,0
1525013,484.62,845,773,0
1525023,454.69,845,767,0
1525033,428.56,845,773,0
1525043,405.89,845,767,0
1525053,387.02,845,773,0
1525063,371.63,845,767,0
1525073,360.00,845,773,0
1525083,351.56,845,767,0
1525093,346.46,845,773,0
1525103,344.14,845,767,0
1525113,344.65,845,773,0
1525123,347.20,845,767,0
1525133,351.77,845,773,0
1525143,357.45,845,767,0
1525153,364.22,845,773,0
1525164,371.31,845,767,0
1525174,378.50,845,773,0
1525184,385.08,845,768,0
1525194,390.80,845,773,0
1525204,395.06,845,769,0
1525214,397.74,845,773,0
1525224,398.46,845,768,0
1525234,397.25,845,773,0
1525244,394.13,845,769,0
1525254,389.25,845,773,0
1525264,382.92,845,768,0
1525274,375.31,845,773,0
1525284,366.95,845,769,0
1525294,358.22,845,773,0
1525304,349.37,845,767,0
1525314,340.94,845,773,0
1525324,333.46,845,769,0
1525335,327.24,845,773,0
1525345,322.62,845,769,0
1525355,319.65,845,773,0
1525365,318.43,845,770,0
1525376,318.86,845,773,0
1525385,320.61,845,769,0
1525395,323.13,845,773,0
1525405,326.00,845,770,0
1525415,328.79,845,773,0
1525425,331.38,845,769,0
1525435,333.37,845,773,0
1525445,334.89,845,770,0
1525455,335.78,845,772,0
1525465,336.53,845,769,0
1525475,337.18,845,773,0
1525485,338.20,845,770,0
1525495,339.43,845,772,0
1525505,341.36,845,768,0
1525515,343.69,845,773,0
1525525,346.48,845,770,0
1525535,348.95,845,772,0
1525545,351.11,845,770,0
1525555,352.45,845,773,0
1525565,353.09,845,770,0
1525575,352.50,845,773,0
1525585,351.24,845,770,0
1525595,349.37,845,773,0
1525605,347.58,845,770,0
1525615,346.08,845,773,0
1525625,345.93,845,770,0
1525635,347.71,845,773,0
1525645,353.11,845,770,0
1525655,362.98,845,772,0
1525665,379.40,845,770,0
1525685,403.32,874,770,0
1525688,436.52,874,773,0
1525697,476.31,874,772,0
1525707,519.80,874,773,0
1525718,563.96,874,772,0
1525727,606.53,874,772,0
1525737,644.60,874,772,0
1525747,676.43,874,772,0
1525757,699.70,874,772,0
1525767,715.99,874,772,0
1525777,727.39,874,772,0
1525787,735.38,874,773,0
1525797,738.95,874,772,0
1525807,737.64,874,772,0
1525817,730.37,874,772,0
1525827,717.19,874,773,0
1525837,697.76,874,772,0
1525847,673.06,874,772,0
1525857,643.04,874,772,0
1525867,610.84,874,773,0
1525877,577.63,874,772,0
1525888,545.86,874,773,0
1525897,515.77,874,772,0
1525907,488.75,874,773,0
1525917,464.01,874,772,0
1525927,442.58,874,773,0
1525937,423.42,874,772,0
1525947,407.35,874,772,0
1525957,393.49,874,772,0
1525967,382.80,874,773,0
1525977,374.55,874,772,0
1525987,369.41,874,773,0
1525997,366.24,874,772,0
1526007,365.61,874,773,0
1526017,366.59,874,772,0
1526027,369.58,874,773,0
1526037,373.22,874,772,0
1526047,377.78,874,773,0
1526057,382.01,874,771,0
1526067,386.68,874,773,0
1526077,390.50,874,772,0
1526087,393.99,874,773,0
1526097,396.01,874,771,0
1526107,397.34,874,773,0
1526117,396.85,874,772,0
1526127,395.31,874,773,0
1526137,391.62,874,771,0
1526147,386.97,874,773,0
1526157,380.60,874,772,0
1526167,373.73,874,773,0
1526177,365.84,874,771,0
1526188,358.39,874,773,0
1526198,350.99,874,770,0
1526208,344.82,874,773,0
1526218,339.17,874,770,0
1526228,335.05,874,773,0
1526238,331.65,874,770,0
1526248,329.65,874,773,0
1526258,327.92,874,769,0
1526268,327.08,874,773,0
1526278,326.29,874,770,0
1526288,326.24,874,773,0
1526298,325.96,874,770,0
1526308,326.23,874,773,0
1526318,326.20,874,770,0
1526328,326.96,874,773,0
1526338,327.48,874,769,0
1526348,328.62,874,773,0
1526359,329.34,874,768,0
1526369,330.61,874,773,0
1526379,331.50,874,768,0
1526389,332.93,874,773,0
1526400,333.90,874,767,0
1526409,335.30,874,773,0
1526419,336.24,874,768,0
1526429,337.58,874,773,0
1526439,338.48,874,767,0
1526449,339.75,874,773,0
1526459,340.47,874,768,0
1526469,341.31,874,773,0
1526479,341.60,874,767,0
1526489,342.07,874,773,0
1526499,341.96,874,768,0
1526509,342.36,874,773,0
1526519,343.02,874,768,0
1526529,345.46,874,773,0
1526539,350.21,874,768,0
1526549,359.40,874,773,0
1526568,373.90,883,771,0
1526572,396.43,883,772,0
1526580,426.64,883,767,0
1526590,464.81,883,773,0
1526600,507.25,883,767,0
1526610,551.45,883,773,0
1526620,594.34,883,767,0
1526630,633.84,883,773,0
1526640,667.02,883,767,0
1526650,693.07,883,773,0
1526660,711.30,883,767,0
1526670,724.11,883,773,0
1526680,732.31,883,767,0
1526690,735.30,883,773,0
1526700,732.34,883,767,0
1526710,723.28,883,773,0
1526720,707.68,883,767,0
1526730,686.05,883,773,0
1526740,658.61,883,767,0
1526750,627.10,883,773,0
1526760,593.60,883,767,0
1526770,560.55,883,773,0
1526780,528.92,883,767,0
1526790,500.28,883,773,0
1526800,474.52,883,767,0
1526810,452.21,883,773,0
1526820,432.73,883,767,0
1526830,416.27,883,773,0
1526840,402.09,883,767,0
1526850,390.49,883,773,0
1526860,381.13,883,767,0
1526871,374.36,883,773,0
1526881,369.92,883,767,0
1526891,367.98,883,773,0
1526901,368.33,883,768,0
1526912,371.01,883,773,0
1526921,375.47,883,767,0
1526931,381.37,883,773,0
1526941,387.99,883,768,0
1526951,394.85,883,773,0
1526961,401.32,883,767,0
1526971,406.93,883,773,0
1526981,411.11,883,768,0
1526991,413.77,883,773,0
1527001,414.57,883,767,0
1527011,413.71,883,773,0
1527021,411.14,883,768,0
1527031,407.16,883,773,0
1527041,401.88,883,767,0
1527051,395.96,883,772,0
1527061,389.63,883,768,0
1527071,383.31,883,773,0
1527081,377.30,883,768,0
1527091,371.86,883,772,0
1527101,367.10,883,768,0
1527111,363.17,883,773,0
1527121,359.99,883,768,0
1527131,357.55,883,772,0
1527141,355.71,883,768,0
1527151,354.43,883,773,0
1527161,353.79,883,768,0
1527171,353.76,883,773,0
1527181,354.48,883,768,0
1527191,356.01,883,773,0
1527201,358.23,883,768,0
1527212,361.29,883,772,0
1527222,364.93,883,769,0
1527232,368.94,883,773,0
1527242,373.07,883,770,0
1527252,376.99,883,772,0
1527262,380.55,883,769,0
1527272,383.52,883,773,0
1527282,385.93,883,770,0
1527292,387.50,883,772,0
1527302,388.50,883,769,0
1527312,388.70,883,773,0
1527322,388.40,883,770,0
1527332,387.25,883,772,0
1527342,385.76,883,769,0
1527352,383.86,883,773,0
1527362,382.62,883,770,0
1527372,382.65,883,772,0
1527383,385.80,883,771,0
1527393,393.31,883,773,0
1527403,407.36,883,771,0
1527413,428.90,883,772,0
1527433,459.01,864,772,0
1527436,495.78,864,771,0
1527445,536.26,864,773,0
1527455,577.41,864,771,0
1527465,616.89,864,773,0
1527475,652.11,864,772,0
1527485,681.35,864,773,0
1527495,703.06,864,771,0
1527505,718.25,864,773,0
1527515,728.89,864,772,0
1527525,734.54,864,773,0
1527535,733.95,864,771,0
1527545,726.98,864,773,0
1527555,713.23,864,772,0
1527565,693.19,864,773,0
1527575,666.56,864,771,0
1527585,634.46,864,773,0
1527596,598.92,864,770,0
1527606,563.20,864,773,0
1527616,528.26,864,769,0
1527626,496.12,864,773,0
1527636,466.77,864,769,0
1527646,441.73,864,773,0
1527656,419.95,864,769,0
1527666,402.31,864,773,0
1527676,387.69,864,769,0
1527686,376.90,864,773,0
1527696,368.78,864,769,0
1527706,363.92,864,773,0
1527716,361.24,864,768,0
1527726,361.51,864,773,0
1527736,363.59,864,769,0
1527746,368.08,864,773,0
1527756,373.72,864,769,0
1527767,380.87,864,773,0
1527777,388.28,864,768,0
1527787,396.00,864,773,0
1527797,402.86,864,768,0
1527808,408.98,864,772,0
1527817,413.23,864,768,0
1527827,416.03,864,773,0
1527837,416.37,864,768,0
1527847,414.89,864,773,0
1527857,411.02,864,768,0
1527867,405.61,864,773,0
1527877,398.36,864,768,0
1527887,390.28,864,773,0
1527897,381.24,864,768,0
1527907,372.55,864,773,0
1527917,364.07,864,768,0
1527927,356.72,864,773,0
1527937,349.95,864,768,0
1527947,344.52,864,773,0
1527957,339.82,864,768,0
1527967,336.45,864,773,0
1527977,333.74,864,767,0
1527987,332.19,864,773,0
1527997,331.36,864,768,0
1528007,331.77,864,773,0
1528017,332.82,864,767,0
1528027,334.89,864,772,0
1528037,337.11,864,768,0
1528047,340.03,864,773,0
1528057,342.85,864,767,0
1528067,345.94,864,772,0
1528077,348.57,864,768,0
1528087,351.27,864,773,0
1528097,353.46,864,767,0
1528108,355.72,864,773,0
1528118,357.26,864,767,0
1528128,358.73,864,773,0
1528138,359.58,864,767,0
1528148,360.35,864,773,0
1528158,360.46,864,767,0
1528168,360.49,864,773,0
1528178,360.09,864,767,0
1528188,359.55,864,773,0
1528198,358.70,864,767,0
1528208,357.97,864,773,0
1528218,357.51,864,767,0
1528228,358.34,864,772,0
1528238,361.11,864,767,0
1528248,367.64,864,773,0
1528258,379.40,864,767,0
1528268,398.61,864,773,0
1528288,426.41,856,772,0
1528291,462.63,856,773,0
1528300,503.89,856,769,0
1528310,547.55,856,772,0
1528321,590.67,856,770,0
1528331,630.80,856,773,0
1528341,665.10,856,771,0
1528351,691.77,856,772,0
1528361,710.44,856,772,0
1528371,723.51,856,773,0
1528381,732.66,856,771,0
1528391,739.06,856,772,0
1528401,743.58,856,771,0
1528411,746.75,856,773,0
1528421,747.25,856,771,0
1528431,743.28,856,772,0
1528441,734.07,856,772,0
1528451,719.13,856,773,0
1528461,698.44,856,770,0
1528471,671.82,856,772,0
1528481,639.99,856,771,0
1528492,604.85,856,772,0
1528502,569.32,856,772,0
1528512,534.47,856,772,0
1528522,501.84,856,772,0
1528532,471.63,856,772,0
1528542,445.04,856,772,0
1528552,421.54,856,772,0
1528562,401.97,856,772,0
1528572,385.78,856,772,0
1528582,373.97,856,772,0
1528592,365.75,856,772,0
1528602,361.97,856,773,0
1528612,361.55,856,772,0
1528622,364.94,856,772,0
1528632,370.70,856,772,0
1528642,378.76,856,772,0
1528652,387.41,856,772,0
1528663,396.50,856,773,0
1528673,404.32,856,771,0
1528683,410.95,856,773,0
1528693,415.04,856,771,0
1528704,417.08,856,773,0
1528713,416.46,856,771,0
1528723,414.05,856,773,0
1528733,409.36,856,771,0
1528743,403.55,856,773,0
1528753,396.32,856,771,0
1528763,388.98,856,773,0
1528773,381.01,856,771,0
1528783,373.51,856,773,0
1528793,365.86,856,771,0
1528803,359.21,856,773,0
1528813,352.81,856,771,0
1528823,347.59,856,773,0
1528833,342.79,856,771,0
1528843,339.47,856,773,0
1528853,336.67,856,771,0
1528863,335.23,856,773,0
1528873,334.13,856,770,0
1528883,334.35,856,773,0
1528893,334.84,856,771,0
1528903,336.39,856,773,0
1528913,338.07,856,770,0
1528923,340.71,856,773,0
1528933,343.37,856,771,0
1528943,346.94,856,773,0
1528953,350.39,856,770,0
1528963,354.60,856,773,0
1528973,358.49,856,771,0
1528983,362.76,856,773,0
1528993,366.26,856,770,0
1529004,369.78,856,773,0
1529014,372.29,856,769,0
1529024,374.77,856,773,0
1529034,376.09,856,768,0
1529044,377.22,856,773,0
1529054,377.28,856,769,0
1529064,377.20,856,773,0
1529074,376.24,856,768,0
1529084,375.39,856,773,0
1529094,374.20,856,769,0
1529104,374.66,856,773,0
1529114,377.33,856,768,0
1529124,384.82,856,773,0
1529134,398.24,856,769,0
1529153,420.37,865,768,0
1529156,452.27,865,768,0
1529165,491.02,865,773,0
1529175,533.19,865,768,0
1529185,576.37,865,773,0
1529195,617.49,865,768,0
1529205,654.41,865,772,0
1529216,684.29,865,767,0
1529225,705.20,865,773,0
1529235,719.84,865,768,0
1529245,730.09,865,773,0
1529255,737.26,865,767,0
1529265,742.28,865,773,0
1529275,744.73,865,768,0
1529285,742.97,865,773,0
1529295,735.56,865,767,0
1529305,722.32,865,773,0
1529315,702.68,865,767,0
1529325,676.89,865,772,0
1529335,645.04,865,767,0
1529345,609.03,865,773,0
1529355,571.05,865,768,0
1529365,533.75,865,773,0
1529375,497.69,865,767,0
1529385,464.57,865,773,0
1529395,434.66,865,768,0
1529405,409.09,865,773,0
1529415,387.38,865,767,0
1529425,370.33,865,773,0
1529435,357.29,865,768,0
1529445,348.80,865,773,0
1529455,344.11,865,767,0
1529465,343.39,865,773,0
1529475,345.37,865,768,0
1529485,350.15,865,773,0
1529495,356.57,865,767,0
1529505,364.59,865,773,0
1529516,373.11,865,767,0
1529526,381.82,865,773,0
1529536,389.80,865,767,0
1529546,396.98,865,773,0
1529556,402.64,865,768,0
1529566,406.73,865,773,0
1529576,408.74,865,767,0
1529586,408.95,865,773,0
1529596,407.29,865,768,0
1529606,404.16,865,773,0
1529616,399.48,865,767,0
1529626,393.68,865,773,0
1529636,387.01,865,768,0
1529646,380.15,865,773,0
1529656,373.12,865,768,0
1529666,366.44,865,773,0
1529676,360.14,865,768,0
1529687,354.82,865,773,0
1529697,350.59,865,769,0
1529707,347.76,865,773,0
1529717,346.07,865,769,0
1529728,345.66,865,773,0
1529737,346.15,865,768,0
1529747,347.31,865,773,0
1529757,348.76,865,769,0
1529767,350.07,865,773,0
1529777,350.91,865,768,0
1529787,351.15,865,773,0
1529797,350.80,865,769,0
1529807,349.96,865,773,0
1529817,348.99,865,768,0
1529827,348.31,865,773,0
1529837,348.39,865,769,0
1529847,349.56,865,773,0
1529857,351.83,865,768,0
1529867,355.40,865,773,0
1529877,359.99,865,769,0
1529887,365.18,865,773,0
1529897,370.31,865,769,0
1529907,375.02,865,773,0
1529917,378.78,865,769,0
1529927,381.33,865,772,0
1529937,382.31,865,769,0
1529947,381.87,865,773,0
1529957,380.15,865,769,0
1529967,377.45,865,772,0
1529977,374.23,865,769,0
1529987,371.25,865,773,0
1529997,369.80,865,769,0
1530007,371.62,865,772,0
1530017,378.55,865,769,0
1530037,392.74,884,769,0
1530040,417.03,884,773,0
1530049,451.01,884,773,0
1530059,491.38,884,772,0
1530070,535.19,884,773,0
1530079,579.49,884,772,0
1530089,621.52,884,772,0
1530099,658.52,884,772,0
1530109,687.16,884,773,0
1530119,707.21,884,772,0
1530129,721.25,884,773,0
1530139,731.07,884,772,0
1530149,737.95,884,773,0
1530159,741.10,884,772,0
1530169,738.62,884,773,0
1530179,730.08,884,772,0
1530189,714.88,884,773,0
1530199,693.79,884,772,0
1530209,666.68,884,772,0
1530219,634.42,884,772,0
1530229,599.07,884,773,0
1530240,564.20,884,772,0
1530249,531.10,884,772,0
1530259,501.41,884,772,0
1530269,474.72,884,773,0
1530279,452.17,884,772,0
1530289,433.26,884,772,0
1530299,418.23,884,772,0
1530309,405.99,884,773,0
1530319,396.78,884,773,0
1530329,389.90,884,772,0
1530339,385.77,884,772,0
1530349,383.48,884,772,0
1530359,383.30,884,772,0
1530369,384.28,884,772,0
1530379,386.85,884,772,0
1530389,390.07,884,773,0
1530399,394.08,884,772,0
1530409,397.65,884,772,0
1530419,401.06,884,772,0
1530429,403.23,884,773,0
1530439,404.74,884,773,0
1530449,404.56,884,772,0
1530459,403.41,884,772,0
1530469,400.59,884,773,0
1530479,397.11,884,773,0
1530489,392.45,884,772,0
1530499,387.60,884,772,0
1530509,382.15,884,773,0
1530519,377.09,884,773,0
1530529,371.79,884,772,0
1530540,367.14,884,773,0
1530550,362.47,884,772,0
1530560,358.56,884,773,0
1530570,354.58,884,771,0
1530580,351.19,884,773,0
1530590,347.70,884,771,0
1530600,344.79,884,773,0
1530610,341.68,884,771,0
1530620,339.34,884,773,0
1530630,336.96,884,771,0
1530640,335.47,884,773,0
1530650,334.13,884,770,0
1530660,334.01,884,773,0
1530670,334.43,884,771,0
1530680,336.27,884,773,0
1530690,338.51,884,771,0
1530700,341.87,884,773,0
1530711,345.34,884,770,0
1530721,349.48,884,773,0
1530731,352.98,884,769,0
1530741,356.28,884,773,0
1530752,358.34,884,769,0
1530761,359.95,884,773,0
1530771,360.35,884,769,0
1530781,360.29,884,773,0
1530791,359.05,884,768,0
1530801,357.62,884,773,0
1530811,355.33,884,769,0
1530821,353.18,884,773,0
1530831,350.21,884,768,0
1530841,347.45,884,773,0
1530851,344.27,884,769,0
1530861,342.00,884,773,0
1530871,340.59,884,768,0
1530881,342.21,884,773,0
1530891,347.55,884,769,0
1530901,359.34,884,773,0
1530911,378.48,884,769,0
1530931,407.27,893,768,0
1530934,445.03,893,769,0
1530943,488.65,893,773,0
1530953,534.48,893,767,0
1530963,580.07,893,773,0
1530973,622.26,893,768,0
1530983,658.83,893,773,0
1530993,687.38,893,768,0
1531003,707.36,893,773,0
1531013,721.36,893,768,0
1531023,731.15,893,773,0
1531033,735.86,893,768,0
1531043,734.70,893,773,0
1531053,727.08,893,768,0
1531063,713.04,893,773,0
1531073,692.37,893,768,0
1531083,665.95,893,773,0
1531094,634.16,893,768,0
1531103,600.21,893,773,0
1531113,565.99,893,768,0
1531123,533.51,893,773,0
1531133,503.27,893,768,0
1531143,476.36,893,773,0
1531153,452.17,893,768,0
1531163,431.07,893,773,0
1531173,412.24,893,768,0
1531183,396.31,893,773,0
1531193,382.76,893,768,0
1531203,372.25,893,773,0
1531213,364.59,893,768,0
1531223,360.25,893,773,0
1531233,358.68,893,768,0
1531243,360.10,893,773,0
1531253,363.50,893,768,0
1531264,368.71,893,773,0
1531273,374.50,893,768,0
1531283,380.65,893,773,0
1531293,386.20,893,768,0
1531303,391.15,893,773,0
1531313,394.71,893,768,0
1531323,397.28,893,773,0
1531333,398.48,893,768,0
1531343,398.85,893,773,0
1531353,397.91,893,768,0
1531363,396.31,893,773,0
1531373,393.69,893,768,0
1531383,390.61,893,773,0
1531393,386.61,893,768,0
1531403,382.23,893,773,0
1531413,377.27,893,768,0
1531423,372.22,893,773,0
1531433,366.88,893,769,0
1531443,361.78,893,773,0
1531453,356.74,893,768,0
1531463,352.41,893,773,0
1531473,348.56,893,769,0
1531483,345.60,893,773,0
1531493,343.19,893,768,0
1531503,341.55,893,773,0
1531513,340.40,893,769,0
1531523,339.98,893,772,0
1531533,339.86,893,768,0
1531543,340.24,893,773,0
1531553,340.77,893,768,0
1531564,341.74,893,773,0
1531574,342.89,893,769,0
1531584,344.25,893,773,0
1531594,345.72,893,770,0
1531604,347.22,893,773,0
1531614,348.57,893,769,0
1531624,349.81,893,773,0
1531634,350.98,893,770,0
1531644,351.97,893,772,0
1531654,352.97,893,769,0
1531664,353.75,893,773,0
1531674,354.47,893,770,0
1531684,355.01,893,772,0
1531694,355.48,893,769,0
1531704,355.76,893,773,0
1531714,355.92,893,770,0
1531724,355.86,893,772,0
1531735,356.03,893,770,0
1531745,356.96,893,773,0
1531755,359.93,893,771,0
1531765,366.08,893,772,0
1531776,377.33,893,772,0
1531785,395.14,893,773,0
1531804,421.07,874,771,0
1531807,455.81,874,772,0
1531816,496.32,874,772,0
1531826,539.47,874,773,0
1531836,582.66,874,772,0
1531846,623.00,874,772,0
1531856,658.44,874,773,0
1531866,686.90,874,773,0
1531876,707.07,874,772,0
1531886,721.19,874,772,0
1531896,729.23,874,773,0
1531906,730.28,874,772,0
1531916,724.02,874,772,0
1531926,709.79,874,772,0
1531936,687.91,874,773,0
1531947,658.54,874,772,0
1531956,622.98,874,772,0
1531966,583.43,874,772,0
1531976,543.18,874,773,0
1531986,503.87,874,772,0
1531996,467.87,874,772,0
1532006,435.51,874,772,0
1532016,407.71,874,773,0
1532026,383.37,874,772,0
1532036,363.20,874,772,0
1532046,346.34,874,772,0
1532056,333.30,874,773,0
1532066,323.01,874,772,0
1532076,316.28,874,772,0
1532086,312.38,874,772,0
1532096,312.01,874,773,0
1532106,314.15,874,772,0
1532116,319.25,874,773,0
1532126,326.20,874,772,0
1532136,335.31,874,773,0
1532146,345.03,874,772,0
1532156,355.35,874,773,0
1532166,365.10,874,772,0
1532176,374.33,874,773,0
1532186,381.77,874,772,0
1532196,387.71,874,773,0
1532206,391.23,874,772,0
1532216,392.83,874,772,0
1532226,391.94,874,772,0
1532236,389.56,874,773,0
1532247,385.28,874,771,0
1532257,380.22,874,773,0
1532267,373.98,874,771,0
1532277,367.65,874,773,0
1532288,360.85,874,770,0
1532297,354.85,874,773,0
1532307,348.85,874,771,0
1532317,343.88,874,773,0
1532327,339.29,874,770,0
1532337,336.16,874,773,0
1532347,333.80,874,770,0
1532357,333.30,874,773,0
1532367,333.51,874,770,0
1532377,335.20,874,772,0
1532387,337.24,874,771,0
1532397,339.91,874,773,0
1532407,341.95,874,770,0
1532417,344.02,874,773,0
1532427,345.00,874,771,0
1532437,345.77,874,773,0
1532447,345.37,874,770,0
1532457,344.92,874,773,0
1532467,343.96,874,771,0
1532477,343.58,874,773,0
1532487,342.81,874,770,0
1532497,342.61,874,773,0
1532507,342.13,874,771,0
1532517,342.26,874,773,0
1532527,341.97,874,770,0
1532537,341.89,874,772,0
1532547,341.02,874,771,0
1532557,340.25,874,773,0
1532567,338.50,874,770,0
1532577,336.55,874,772,0
1532588,333.73,874,769,0
1532598,331.07,874,773,0
1532608,328.22,874,769,0
1532618,326.57,874,772,0
1532628,326.53,874,769,0
1532638,330.05,874,773,0
1532648,337.92,874,769,0
1532658,352.69,874,773,0
1532678,375.20,873,772,0
1532681,407.75,873,774,0
1532690,448.41,873,768,0
1532700,493.85,873,773,0
1532710,540.73,873,768,0
1532720,586.67,873,773,0
1532730,628.51,873,768,0
1532740,664.23,873,773,0
1532750,691.16,873,768,0
1532760,710.01,873,773,0
1532770,722.87,873,768,0
1532780,729.16,873,773,0
1532790,727.91,873,768,0
1532801,718.94,873,773,0
1532811,702.03,873,768,0
1532821,677.59,873,772,0
1532831,646.30,873,769,0
1532841,609.40,873,773,0
1532851,569.93,873,769,0
1532861,531.08,873,773,0
1532871,494.50,873,769,0
1532881,461.78,873,773,0
1532891,433.47,873,769,0
1532901,409.76,873,773,0
1532911,390.38,873,769,0
1532921,375.09,873,773,0
1532931,363.41,873,769,0
1532941,355.23,873,773,0
1532951,350.10,873,769,0
1532961,347.84,873,773,0
1532972,348.32,873,770,0
1532982,351.31,873,773,0
1532992,356.66,873,770,0
1533002,363.88,873,773,0
1533012,372.57,873,771,0
1533022,382.13,873,773,0
1533032,392.03,873,770,0
1533042,401.54,873,773,0
1533052,410.20,873,771,0
1533062,417.30,873,773,0
1533072,422.65,873,771,0
1533082,425.67,873,773,0
1533092,426.46,873,771,0
1533102,424.90,873,773,0
1533112,421.25,873,771,0
1533122,415.52,873,773,0
1533132,408.42,873,771,0
1533143,400.11,873,773,0
1533153,391.46,873,772,0
1533163,382.67,873,773,0
1533173,374.58,873,772,0
1533184,367.16,873,772,0
1533193,361.16,873,772,0
1533203,356.18,873,772,0
1533213,352.96,873,772,0
1533223,350.95,873,772,0
1533233,350.71,873,772,0
1533243,351.57,873,773,0
1533253,354.14,873,772,0
1533263,357.66,873,773,0
1533273,362.47,873,771,0
1533283,367.73,873,772,0
1533293,373.55,873,772,0
1533303,379.05,873,772,0
1533313,384.26,873,771,0
1533323,388.30,873,773,0
1533333,391.46,873,772,0
1533343,392.87,873,772,0
1533353,393.04,873,772,0
1533363,391.53,873,773,0
1533373,389.05,873,772,0
1533383,385.31,873,772,0
1533393,381.23,873,772,0
1533403,376.49,873,773,0
1533413,372.19,873,772,0
1533423,367.97,873,772,0
1533433,365.11,873,772,0
1533443,363.62,873,773,0
1533453,365.06,873,772,0
1533463,369.80,873,772,0
1533473,379.93,873,772,0
1533484,396.54,873,772,0
1533494,421.32,873,773,0
1533504,453.92,873,771,0
1533523,492.82,846,769,0
1533527,534.66,846,769,0
1533535,577.10,846,773,0
1533545,617.27,846,770,0
1533555,652.93,846,773,0
1533565,681.97,846,770,0
1533575,703.58,846,773,0
1533585,718.70,846,770,0
1533595,729.29,846,773,0
1533605,734.05,846,770,0
1533615,733.01,846,773,0
1533625,725.07,846,770,0
1533635,710.52,846,772,0
1533645,689.15,846,769,0
1533655,662.15,846,773,0
1533665,629.66,846,770,0
1533675,595.69,846,772,0
1533685,561.37,846,770,0
1533696,529.50,846,773,0
1533705,500.38,846,770,0
1533715,475.24,846,773,0
1533725,453.05,846,770,0
1533735,434.39,846,773,0
1533745,417.90,846,770,0
1533755,404.13,846,773,0
1533765,391.79,846,770,0
1533775,381.70,846,773,0
1533785,373.22,846,770,0
1533795,367.32,846,773,0
1533805,363.41,846,769,0
1533815,362.47,846,773,0
1533825,363.62,846,770,0
1533835,367.93,846,773,0
1533845,374.12,846,769,0
1533855,382.53,846,773,0
1533865,391.54,846,769,0
1533875,401.41,846,773,0
1533885,410.37,846,770,0
1533895,418.70,846,773,0
1533905,424.71,846,769,0
1533915,428.87,846,773,0
1533925,429.89,846,769,0
1533935,428.60,846,773,0
1533945,424.22,846,769,0
1533955,418.02,846,773,0
1533965,409.53,846,769,0
1533975,400.24,846,773,0
1533985,389.71,846,769,0
1533996,379.47,846,773,0
1534006,369.09,846,768,0
1534016,359.72,846,773,0
1534026,350.76,846,768,0
1534036,343.12,846,773,0
1534046,336.01,846,768,0
1534056,330.44,846,773,0
1534066,325.68,846,768,0
1534076,322.90,846,773,0
1534086,321.30,846,768,0
1534096,321.64,846,773,0
1534106,323.38,846,768,0
1534116,326.91,846,773,0
1534126,331.26,846,768,0
1534136,336.76,846,773,0
1534146,342.10,846,768,0
1534156,347.77,846,773,0
1534167,352.81,846,767,0
1534177,357.15,846,773,0
1534187,360.19,846,767,0
1534197,362.45,846,773,0
1534208,363.43,846,767,0
1534217,363.60,846,773,0
1534227,362.43,846,768,0
1534237,360.59,846,773,0
1534247,358.06,846,767,0
1534257,355.68,846,773,0
1534267,353.51,846,768,0
1534277,352.75,846,773,0
1534287,354.33,846,767,0
1534297,360.10,846,773,0
1534307,371.26,846,767,0
1534317,390.04,846,773,0
1534327,417.33,846,767,0
1534337,453.53,846,773,0
1534356,495.16,833,772,0
1534359,539.34,833,774,0
1534368,583.12,833,769,0
1534379,624.14,833,773,0
1534388,659.63,833,768,0
1534398,687.77,833,773,0
1534408,707.64,833,769,0
1534418,721.55,833,773,0
1534428,731.28,833,768,0
1534438,738.10,833,773,0
1534448,741.33,833,769,0
1534458,740.03,833,773,0
1534468,733.72,833,768,0
1534478,722.28,833,773,0
1534488,705.61,833,769,0
1534498,683.95,833,773,0
1534508,657.70,833,768,0
1534518,628.73,833,773,0
1534528,598.68,833,769,0
1534538,568.78,833,773,0
1534548,539.62,833,769,0
1534558,511.79,833,773,0
1534568,485.54,833,769,0
1534578,461.08,833,773,0
1534588,438.85,833,770,0
1534598,419.40,833,773,0
1534608,403.04,833,769,0
1534618,390.08,833,773,0
1534628,380.67,833,770,0
1534638,374.77,833,773,0
1534648,372.22,833,769,0
1534658,372.59,833,773,0
1534668,375.28,833,769,0
1534679,379.61,833,773,0
1534689,385.00,833,770,0
1534699,390.74,833,773,0
1534709,396.52,833,771,0
1534720,401.55,833,773,0
1534729,405.54,833,770,0
1534739,408.21,833,773,0
1534749,409.65,833,771,0
1534759,409.62,833,773,0
1534769,408.49,833,770,0
1534779,405.95,833,773,0
1534789,402.66,833,771,0
1534799,398.35,833,773,0
1534809,393.57,833,770,0
1534819,388.09,833,773,0
1534829,382.40,833,771,0
1534839,376.24,833,773,0
1534849,370.34,833,770,0
1534859,364.28,833,773,0
1534869,358.58,833,771,0
1534879,352.96,833,772,0
1534889,348.09,833,772,0
1534899,343.73,833,773,0
1534909,340.47,833,771,0
1534919,337.97,833,773,0
1534929,336.87,833,772,0
1534939,336.99,833,772,0
1534949,338.62,833,771,0
1534959,341.31,833,772,0
1534969,345.50,833,772,0
1534979,350.49,833,772,0
1534989,356.39,833,771,0
1534999,362.19,833,772,0
1535009,367.83,833,772,0
1535020,372.47,833,772,0
1535030,376.23,833,772,0
1535040,378.04,833,772,0
1535050,378.59,833,773,0
1535060,377.17,833,772,0
1535070,374.89,833,772,0
1535080,371.49,833,772,0
1535090,368.05,833,773,0
1535100,364.48,833,771,0
1535110,362.49,833,772,0
1535120,362.43,833,772,0
1535130,366.37,833,773,0
1535140,374.92,833,771,0
1535150,390.03,833,772,0
1535160,412.31,833,772,0
1535170,443.03,833,773,0
1535190,480.69,833,771,0
1535193,522.36,833,774,0
1535202,564.81,833,770,0
1535212,605.75,833,773,0
1535222,642.64,833,769,0
1535233,673.90,833,773,0
1535243,697.85,833,769,0
1535253,714.65,833,773,0
1535263,724.48,833,768,0
1535273,727.81,833,773,0
1535283,724.57,833,769,0
1535293,715.27,833,773,0
1535303,699.67,833,768,0
1535313,678.73,833,773,0
1535323,652.58,833,769,0
1535333,624.04,833,773,0
1535343,594.20,833,768,0
1535353,565.12,833,773,0
1535363,537.01,833,769,0
1535373,511.25,833,773,0
1535383,487.05,833,768,0
1535393,465.18,833,773,0
1535404,444.90,833,768,0
1535414,426.93,833,773,0
1535424,410.45,833,768,0
1535434,396.43,833,773,0
1535444,384.39,833,768,0
1535454,375.18,833,773,0
1535464,368.19,833,768,0
1535474,364.02,833,773,0
1535484,362.08,833,768,0
1535494,362.70,833,773,0
1535504,364.89,833,768,0
1535514,368.69,833,773,0
1535524,373.16,833,768,0
1535534,378.38,833,773,0
1535544,383.28,833,768,0
1535554,387.87,833,773,0
1535564,391.25,833,768,0
1535575,393.58,833,773,0
1535585,394.09,833,768,0
1535595,393.16,833,773,0
1535605,390.33,833,768,0
1535616,386.29,833,773,0
1535625,380.93,833,768,0
1535635,375.08,833,773,0
1535645,368.71,833,768,0
1535655,362.58,833,773,0
1535665,356.67,833,768,0
1535675,351.54,833,773,0
1535685,347.09,833,768,0
1535695,343.51,833,773,0
1535705,340.57,833,768,0
1535715,338.43,833,773,0
1535725,336.88,833,768,0
1535735,336.06,833,773,0
1535745,335.70,833,768,0
1535755,336.00,833,773,0
1535765,336.69,833,769,0
1535775,337.81,833,773,0
1535785,339.20,833,769,0
1535795,340.89,833,773,0
1535805,342.64,833,769,0
1535815,344.55,833,773,0
1535825,346.27,833,769,0
1535835,348.03,833,773,0
1535845,349.48,833,768,0
1535855,350.71,833,773,0
1535865,351.65,833,769,0
1535875,352.44,833,773,0
1535885,353.00,833,769,0
1535895,353.34,833,773,0
1535905,353.37,833,769,0
1535916,353.26,833,773,0
1535926,353.09,833,770,0
1535936,352.81,833,773,0
1535946,352.87,833,770,0
1535956,353.63,833,773,0
1535966,356.02,833,770,0
1535976,361.07,833,773,0
1535986,370.18,833,770,0
1535996,384.52,833,773,0
1536015,405.28,826,771,0
1536018,433.18,826,773,0
1536027,468.27,826,771,0
1536037,508.17,826,773,0
1536047,549.95,826,771,0
1536057,590.94,826,773,0
1536067,628.88,826,772,0
1536077,662.05,826,773,0
1536087,688.78,826,771,0
1536097,706.80,826,773,0
1536107,716.46,826,771,0
1536117,718.34,826,772,0
1536128,713.44,826,772,0
1536137,702.29,826,772,0
1536147,685.83,826,771,0
1536157,664.15,826,772,0
1536167,639.85,826,772,0
1536177,614.22,826,772,0
1536187,589.13,826,771,0
1536197,564.79,826,772,0
1536207,542.40,826,772,0
1536217,521.53,826,772,0
1536227,502.77,826,771,0
1536237,485.23,826,772,0
1536247,469.22,826,772,0
1536257,454.24,826,773,0
1536267,441.01,826,771,0
1536277,428.83,826,772,0
1536287,418.56,826,772,0
1536297,410.07,826,772,0
1536307,404.22,826,771,0
1536317,400.56,826,772,0
1536327,399.79,826,772,0
1536337,401.70,826,773,0
1536347,406.63,826,773,0
1536357,414.93,826,776,0
1536367,426.82,826,777,0
1536377,439.60,826,778,0
1536387,452.45,826,777,0
1536397,462.39,826,778,0
1536407,469.26,826,779,0
1536417,469.65,826,775,0
1536428,460.24,826,772,0
1536438,430.85,826,759,0
1536448,391.73,826,770,0
1536458,357.74,826,773,0
1536468,338.74,826,779,0
1536478,317.86,826,759,0
1536488,306.68,826,773,0
1536498,303.39,826,767,0
1536508,323.50,826,783,0
1536518,357.12,826,783,0
1536528,387.86,826,752,0
1536538,390.47,826,768,0
1536548,380.94,826,766,0
1536558,368.10,826,776,0
1536568,354.96,826,773,0
1536578,332.69,826,764,0
1536588,297.47,826,764,0
1536599,252.03,826,769,0
1536609,225.62,826,754,0
1536619,217.42,826,761,0
1536629,214.25,826,762,0
1536640,217.99,826,762,0
1536649,231.92,826,765,0
1536659,260.70,826,761,0
1536669,302.36,826,764,0
1536679,342.07,826,760,0
1536689,380.23,826,763,0
1536699,412.78,826,761,0
1536709,436.67,826,763,0
1536719,450.70,826,760,0
1536729,454.78,826,761,0
1536739,450.81,826,759,0
1536749,442.86,826,761,0
1536759,434.03,826,760,0
1536769,422.83,826,762,0
1536779,412.21,826,760,0
1536789,406.41,826,765,0
1536799,403.93,826,760,0
1536809,404.46,826,762,0
1536819,409.51,826,761,0
1536829,417.80,826,762,0
1536839,433.59,826,761,0
1536849,455.44,826,763,0
1536859,478.88,826,760,0
1536869,505.79,826,762,0
1536879,535.72,826,758,0
1536889,564.86,826,762,0
1536899,591.65,826,761,0
1536909,615.11,826,762,0
1536919,633.21,826,758,0
1536929,645.79,826,761,0
1536940,652.19,826,757,0
1536950,654.58,826,763,0
1536960,653.33,826,758,0
1536970,647.96,826,761,0
1536980,635.67,826,756,0
1536990,619.57,826,761,0
1537000,604.61,826,759,0
1537010,590.20,826,763,0
1537020,573.00,826,756,0
1537030,555.34,826,763,0
1537040,536.98,826,758,0
1537050,518.60,826,762,0
1537060,499.78,826,757,0
1537070,477.77,826,762,0
1537080,454.44,826,757,0
1537090,432.24,826,761,0
1537100,410.65,826,756,0
1537111,392.20,826,761,0
1537121,377.53,826,756,0
1537131,367.51,826,760,0
1537141,362.51,826,756,0
1537152,362.10,826,761,0
1537161,365.07,826,756,0
1537171,370.15,826,760,0
1537181,378.16,826,758,0
1537191,388.06,826,761,0
1537201,398.63,826,757,0
1537211,409.79,826,763,0
1537221,419.50,826,757,0
1537231,426.55,826,762,0
1537241,430.41,826,756,0
1537251,428.79,826,760,0
1537261,422.38,826,755,0
1537271,411.60,826,758,0
1537281,397.57,826,755,0
1537291,381.89,826,758,0
1537301,365.81,826,753,0
1537311,354.08,826,761,0
1537321,347.46,826,755,0
1537331,344.88,826,760,0
1537341,345.73,826,754,0
1537351,350.61,826,764,0
1537361,359.43,826,757,0
1537371,369.93,826,761,0
1537381,377.32,826,756,0
1537391,381.17,826,761,0
1537401,382.06,826,755,0
1537411,381.14,826,760,0
1537421,375.79,826,755,0
1537431,367.58,826,760,0
1537441,359.18,826,754,0
1537452,352.09,826,759,0
1537462,348.68,826,756,0
1537472,347.96,826,760,0
1537482,348.36,826,756,0
1537492,349.71,826,759,0
1537502,351.34,826,755,0
1537512,355.22,826,761,0
1537522,359.36,826,756,0
1537532,361.13,826,760,0
1537542,361.65,826,755,0
1537552,361.97,826,762,0
1537562,363.65,826,756,0
1537572,365.38,826,760,0
1537582,364.71,826,755,0
1537592,362.96,826,759,0
1537602,360.65,826,755,0
1537612,358.96,826,760,0
1537623,358.20,826,756,0
1537633,356.85,826,760,0
1537643,356.68,826,758,0
1537653,357.76,826,760,0
1537664,360.58,826,758,0
1537673,365.80,826,760,0
1537683,373.75,826,757,0
1537693,385.27,826,760,0
1537703,401.60,826,759,0
1537713,423.11,826,761,0
1537732,450.63,0,760,0
1537735,483.19,0,761,0
1537744,519.43,0,760,0
1537754,556.93,0,761,0
1537764,592.52,0,760,0
1537774,624.25,0,762,0
1537784,649.50,0,761,0
1537794,667.14,0,762,0
1537804,676.27,0,761,0
1537814,677.00,0,762,0
1537824,669.93,0,761,0
1537835,656.37,0,762,0
1537844,637.53,0,761,0
1537854,615.73,0,762,0
1537864,592.45,0,762,0
1537874,569.56,0,762,0
1537884,548.01,0,761,0
1537894,528.33,0,762,0
1537904,511.52,0,761,0
1537914,496.92,0,763,0
1537924,484.09,0,762,0
1537934,471.76,0,762,0
1537944,459.83,0,762,0
1537954,447.71,0,763,0
1537964,435.58,0,761,0
1537974,423.28,0,763,0
1537984,411.75,0,762,0
1537994,401.24,0,763,0
1538004,392.21,0,762,0
1538014,384.82,0,762,0
1538024,379.86,0,762,0
1538034,377.24,0,763,0
1538044,377.17,0,762,0
1538054,378.58,0,762,0
1538064,381.45,0,762,0
1538074,385.38,0,762,0
1538084,390.24,0,762,0
1538094,394.84,0,762,0
1538104,398.92,0,762,0
1538114,402.20,0,763,0
1538124,404.58,0,763,0
1538135,405.05,0,762,0
1538145,404.01,0,762,0
1538155,401.65,0,762,0
1538165,398.71,0,763,0
1538176,395.07,0,761,0
1538185,390.85,0,763,0
1538195,385.92,0,762,0
1538205,381.36,0,763,0
1538215,376.79,0,761,0
1538225,372.27,0,762,0
1538235,367.60,0,762,0
1538245,363.57,0,763,0
1538255,359.80,0,761,0
1538265,357.37,0,762,0
1538275,355.72,0,761,0
1538285,355.33,0,762,0
1538295,355.66,0,761,0
1538305,357.52,0,763,0
1538315,359.76,0,762,0
1538325,362.45,0,763,0
1538335,364.46,0,761,0
1538345,366.21,0,763,0
1538355,367.22,0,762,0
1538365,368.01,0,763,0
1538375,367.41,0,761,0
1538385,366.56,0,763,0
1538395,365.36,0,762,0
1538405,364.69,0,763,0
1538415,364.10,0,761,0
1538425,364.11,0,763,0
1538435,364.12,0,761,0
1538445,364.64,0,763,0
1538455,365.01,0,761,0
1538465,365.95,0,763,0
1538476,366.99,0,760,0
1538486,368.49,0,763,0
1538496,369.59,0,760,0
1538506,370.78,0,763,0
1538516,371.58,0,759,0
1538526,372.43,0,763,0
1538536,372.73,0,759,0
1538546,373.11,0,763,0
1538556,373.89,0,759,0
1538566,376.92,0,763,0
1538576,382.95,0,759,0
1538586,393.72,0,763,0
1538606,409.66,873,762,0
1538609,432.18,873,764,0
1538618,460.37,873,758,0
1538628,493.47,873,763,0
1538638,529.29,873,758,0
1538648,566.06,873,763,0
1538658,600.93,873,758,0
1538668,631.98,873,763,0
1538678,656.28,873,757,0
1538689,673.34,873,763,0
1538699,682.54,873,758,0
1538709,684.09,873,763,0
1538719,678.32,873,758,0
1538729,666.48,873,763,0
1538739,649.92,873,758,0
1538749,630.45,873,763,0
1538759,609.10,873,758,0
1538769,587.17,873,763,0
1538779,565.39,873,758,0
1538789,544.44,873,763,0
1538799,524.51,873,758,0
1538809,505.50,873,763,0
1538819,487.26,873,758,0
1538829,469.91,873,763,0
1538839,453.65,873,758,0
1538849,438.93,873,763,0
1538860,425.96,873,759,0
1538870,415.05,873,763,0
1538880,406.63,873,759,0
1538890,400.91,873,763,0
1538900,397.85,873,760,0
1538910,396.83,873,763,0
1538920,397.48,873,759,0
1538930,399.39,873,763,0
1538940,402.32,873,760,0
1538950,405.65,873,763,0
1538960,408.97,873,759,0
1538970,411.98,873,763,0
1538980,414.64,873,760,0
1538990,416.72,873,763,0
1539000,417.92,873,759,0
1539010,417.99,873,763,0
1539020,416.88,873,760,0
1539031,414.64,873,763,0
1539041,411.15,873,760,0
1539051,406.56,873,763,0
1539061,401.08,873,762,0
1539072,395.01,873,763,0
1539081,388.75,873,760,0
1539091,382.31,873,763,0
1539101,376.26,873,761,0
1539111,370.74,873,763,0
1539121,366.28,873,761,0
1539131,362.72,873,763,0
1539141,360.45,873,762,0
1539151,359.07,873,763,0
1539161,358.92,873,761,0
1539171,359.46,873,763,0
1539181,360.74,873,762,0
1539191,362.36,873,763,0
1539201,364.52,873,762,0
1539211,366.68,873,764,0
1539221,368.83,873,763,0
1539231,370.55,873,764,0
1539241,371.46,873,762,0
1539251,371.66,873,763,0
1539261,371.34,873,762,0
1539271,370.25,873,763,0
1539281,368.89,873,762,0
1539291,367.29,873,763,0
1539301,365.92,873,762,0
1539311,365.22,873,763,0
1539321,365.32,873,762,0
1539331,365.83,873,763,0
1539341,366.74,873,762,0
1539351,367.63,873,763,0
1539361,368.64,873,762,0
1539372,369.43,873,763,0
1539382,370.25,873,762,0
1539392,370.64,873,762,0
1539402,371.61,873,763,0
1539412,374.00,873,763,0
1539422,378.93,873,763,0
1539432,386.88,873,763,0
1539442,399.17,873,764,0
1539462,416.61,856,763,0
1539465,440.81,856,764,0
1539474,470.57,856,761,0
1539484,505.24,856,764,0
1539494,542.32,856,761,0
1539504,579.81,856,764,0
1539514,615.48,856,761,0
1539524,647.61,856,764,0
1539534,673.70,856,761,0
1539544,693.20,856,764,0
1539554,704.50,856,761,0
1539564,708.46,856,764,0
1539574,705.80,856,761,0
1539585,697.67,856,764,0
1539595,684.48,856,760,0
1539605,667.71,856,764,0
1539615,648.21,856,760,0
1539625,627.96,856,764,0
1539635,608.13,856,760,0
1539645,589.23,856,764,0
1539655,570.61,856,760,0
1539665,552.72,856,764,0
1539675,534.89,856,760,0
1539685,517.61,856,764,0
1539695,500.24,856,760,0
1539705,482.86,856,764,0
1539715,465.67,856,760,0
1539725,449.65,856,764,0
1539735,434.97,856,760,0
1539745,422.34,856,764,0
1539756,411.05,856,759,0
1539766,402.16,856,764,0
1539776,395.17,856,759,0
1539786,390.53,856,764,0
1539796,387.76,856,759,0
1539806,386.63,856,764,0
1539816,386.53,856,759,0
1539826,387.70,856,764,0
1539836,389.07,856,759,0
1539846,390.68,856,764,0
1539856,391.72,856,758,0
1539866,392.36,856,764,0
1539876,392.12,856,759,0
1539886,391.23,856,764,0
1539896,389.36,856,758,0
1539906,386.68,856,764,0
1539916,382.92,856,758,0
1539927,378.83,856,763,0
1539937,373.91,856,758,0
1539947,368.71,856,764,0
1539957,363.31,856,759,0
1539968,358.59,856,764,0
1539977,354.17,856,759,0
1539987,350.35,856,764,0
1539997,346.69,856,759,0
1540007,344.17,856,763,0
1540017,342.40,856,758,0
1540027,341.08,856,763,0
1540037,340.33,856,759,0
1540047,340.23,856,763,0
1540057,340.89,856,758,0
1540067,342.42,856,764,0
1540077,343.88,856,759,0
1540087,345.20,856,763,0
1540097,346.38,856,758,0
1540107,346.78,856,763,0
1540117,346.68,856,759,0
1540127,346.09,856,763,0
1540137,344.95,856,759,0
1540147,343.98,856,763,0
1540157,343.64,856,759,0
1540167,343.92,856,763,0
1540177,344.67,856,759,0
1540187,345.54,856,763,0
1540197,345.94,856,758,0
1540207,346.68,856,763,0
1540217,347.72,856,760,0
1540227,348.66,856,763,0
1540237,349.32,856,760,0
1540247,350.00,856,763,0
1540257,350.90,856,760,0
1540268,352.26,856,763,0
1540278,353.17,856,761,0
1540288,353.07,856,763,0
1540298,351.47,856,758,0
1540308,346.61,856,760,0
1540318,340.64,856,757,0
1540328,335.74,856,760,0
1540338,333.76,856,758,0
1540348,336.32,856,760,0
1540358,345.05,856,757,0
1540377,362.22,916,756,0
1540380,391.55,916,760,0
1540389,430.73,916,760,0
1540399,475.47,916,758,0
1540409,522.00,916,760,0
1540419,567.43,916,759,0
1540429,609.39,916,760,0
1540439,645.66,916,758,0
1540449,674.13,916,760,0
1540459,694.49,916,759,0
1540469,708.70,916,760,0
1540480,717.15,916,759,0
1540489,720.02,916,759,0
1540499,717.74,916,758,0
1540509,710.23,916,759,0
1540519,697.99,916,759,0
1540529,681.32,916,759,0
1540539,660.23,916,758,0
1540549,636.42,916,759,0
1540559,611.52,916,758,0
1540569,589.38,916,761,0
1540579,569.29,916,760,0
1540589,549.96,916,760,0
1540599,531.12,916,760,0
1540609,512.95,916,760,0
1540619,495.44,916,759,0
1540629,478.21,916,760,0
1540639,458.64,916,759,0
1540649,438.57,916,759,0
1540659,420.14,916,759,0
1540669,404.03,916,759,0
1540679,391.03,916,759,0
1540689,381.47,916,759,0
1540699,375.88,916,758,0
1540709,373.69,916,759,0
1540719,374.68,916,759,0
1540729,377.74,916,759,0
1540739,382.40,916,758,0
1540749,387.59,916,759,0
1540759,394.14,916,765,0
1540769,403.44,916,762,0
1540780,412.65,916,762,0
1540790,419.74,916,761,0
1540800,424.06,916,762,0
1540810,424.99,916,760,0
1540820,422.85,916,761,0
1540830,416.42,916,761,0
1540840,403.95,916,761,0
1540850,388.24,916,760,0
1540860,371.88,916,761,0
1540870,356.02,916,760,0
1540880,342.04,916,761,0
1540890,330.11,916,760,0
1540900,320.87,916,761,0
1540910,314.13,916,760,0
1540920,310.32,916,761,0
1540930,308.68,916,760,0
1540940,309.04,916,761,0
1540951,310.27,916,759,0
1540961,312.54,916,760,0
1540971,315.12,916,758,0
1540981,320.74,916,762,0
1540992,326.74,916,759,0
1541001,332.47,916,762,0
1541011,337.22,916,759,0
1541021,341.44,916,761,0
1541031,346.58,916,760,0
1541041,351.33,916,762,0
1541051,352.00,916,759,0
1541061,350.93,916,761,0
1541071,348.89,916,758,0
1541081,347.04,916,761,0
1541091,345.36,916,759,0
1541101,342.55,916,761,0
1541111,339.94,916,759,0
1541121,338.72,916,761,0
1541131,338.67,916,759,0
1541141,339.71,916,761,0
1541151,341.17,916,758,0
1541161,343.22,916,761,0
1541171,345.21,916,759,0
1541181,347.33,916,761,0
1541191,349.08,916,758,0
1541201,350.64,916,761,0
1541211,351.78,916,759,0
1541221,352.74,916,761,0
1541231,352.99,916,758,0
1541241,353.12,916,761,0
1541251,353.34,916,759,0
1541261,354.78,916,761,0
1541271,358.06,916,758,0
1541281,364.86,916,761,0
1541292,376.26,916,758,0
1541302,394.05,916,761,0
1541312,418.51,916,757,0
1541331,449.90,954,756,0
1541335,487.26,954,757,0
1541343,527.68,954,761,0
1541353,568.15,954,756,0
1541363,606.50,954,761,0
1541373,640.51,954,756,0
1541383,669.03,954,761,0
1541393,690.06,954,756,0
1541403,702.30,954,761,0
1541413,706.54,954,756,0
1541423,703.89,954,761,0
1541433,694.71,954,756,0
1541443,679.71,954,761,0
1541453,659.23,954,756,0
1541463,635.12,954,760,0
1541473,611.17,954,758,0
1541483,588.75,954,762,0
1541493,568.38,954,758,0
1541504,549.15,954,762,0
1541513,530.68,954,757,0
1541523,513.03,954,762,0
1541533,495.96,954,757,0
1541543,477.68,954,761,0
1541553,458.57,954,757,0
1541563,439.29,954,761,0
1541573,421.50,954,756,0
1541583,406.61,954,760,0
1541593,395.11,954,756,0
1541603,387.66,954,760,0
1541613,384.04,954,756,0
1541623,384.20,954,760,0
1541633,387.35,954,755,0
1541643,393.55,954,760,0
1541653,401.78,954,756,0
1541663,411.23,954,760,0
1541673,420.51,954,755,0
1541683,428.75,954,760,0
1541693,435.09,954,756,0
1541703,439.30,954,760,0
1541713,440.93,954,755,0
1541723,439.88,954,760,0
1541733,439.66,954,760,0
1541743,439.72,954,763,0
1541753,437.92,954,758,0
1541763,433.91,954,762,0
1541773,428.84,954,759,0
1541783,421.90,954,763,0
1541793,412.97,954,758,0
1541804,399.22,954,762,0
1541814,382.31,954,758,0
1541824,365.59,954,762,0
1541834,350.37,954,758,0
1541844,336.59,954,762,0
1541854,325.91,954,758,0
1541864,319.08,954,762,0
1541874,316.14,954,758,0
1541884,316.74,954,761,0
1541894,320.16,954,758,0
1541904,325.94,954,761,0
1541914,333.20,954,758,0
1541924,343.08,954,763,0
1541934,353.77,954,759,0
1541944,363.74,954,762,0
1541954,372.30,954,758,0
1541964,379.33,954,761,0
1541975,384.67,954,759,0
1541985,388.41,954,761,0
1541995,388.89,954,759,0
1542005,387.51,954,761,0
1542016,385.56,954,760,0
1542025,383.50,954,761,0
1542035,381.38,954,759,0
1542045,379.25,954,761,0
1542055,377.08,954,759,0
1542065,374.78,954,761,0
1542075,372.32,954,758,0
1542085,369.61,954,761,0
1542095,367.03,954,759,0
1542105,364.83,954,761,0
1542115,363.94,954,759,0
1542125,365.20,954,760,0
1542135,371.78,954,760,0
1542145,383.29,954,762,0
1542155,400.39,954,759,0
1542165,423.54,954,761,0
1542175,452.91,954,760,0
1542185,487.82,954,761,0
1542195,526.66,954,759,0
1542214,564.61,883,758,0
1542217,600.85,883,762,0
1542226,633.90,883,761,0
1542236,662.34,883,759,0
1542246,684.91,883,761,0
1542256,700.07,883,760,0
1542266,707.37,883,760,0
1542276,709.83,883,761,0
1542286,706.63,883,761,0
1542296,696.45,883,760,0
1542306,679.56,883,760,0
1542316,657.62,883,759,0
1542326,632.62,883,760,0
1542336,606.76,883,760,0
1542346,579.32,883,760,0
1542356,552.95,883,760,0
1542366,530.04,883,760,0
1542376,511.17,883,760,0
1542386,495.39,883,760,0
1542396,483.40,883,761,0
1542406,473.38,883,761,0
1542416,464.14,883,761,0
1542426,454.37,883,761,0
1542436,443.89,883,761,0
1542446,433.33,883,761,0
1542456,423.03,883,761,0
1542466,411.80,883,761,0
1542476,401.14,883,761,0
1542487,391.93,883,761,0
1542497,385.52,883,762,0
1542507,381.94,883,760,0
1542517,380.63,883,761,0
1542528,381.30,883,760,0
1542537,383.95,883,761,0
1542547,387.52,883,760,0
1542557,391.69,883,761,0
1542567,395.13,883,760,0
1542577,397.79,883,761,0
1542587,398.84,883,760,0
1542597,398.42,883,761,0
1542607,396.45,883,760,0
1542617,393.40,883,762,0
1542627,389.38,883,760,0
1542637,384.94,883,761,0
1542647,379.94,883,760,0
1542657,375.16,883,761,0
1542667,370.61,883,760,0
1542677,366.40,883,761,0
1542687,362.34,883,760,0
1542697,358.64,883,761,0
1542707,355.23,883,760,0
1542717,352.46,883,761,0
1542727,349.79,883,760,0
1542737,347.58,883,761,0
1542747,345.52,883,760,0
1542757,344.08,883,761,0
1542767,342.73,883,759,0
1542777,341.87,883,761,0
1542787,341.05,883,760,0
1542797,340.65,883,761,0
1542807,340.20,883,759,0
1542817,340.01,883,761,0
1542828,339.62,883,759,0
1542838,339.56,883,761,0
1542848,339.35,883,758,0
1542858,339.46,883,761,0
1542868,339.71,883,758,0
1542878,340.52,883,761,0
1542888,341.61,883,758,0
1542898,343.44,883,761,0
1542908,345.67,883,758,0
1542918,348.68,883,761,0
1542928,351.86,883,758,0
1542938,355.37,883,761,0
1542948,358.43,883,758,0
1542958,361.26,883,761,0
1542968,363.03,883,758,0
1542978,363.87,883,761,0
1542988,363.27,883,758,0
1542999,361.86,883,761,0
1543009,359.33,883,757,0
1543019,356.92,883,761,0
1543029,355.18,883,757,0
1543040,355.82,883,761,0
1543049,359.68,883,757,0
1543059,368.52,883,761,0
1543078,383.15,864,760,0
1543081,405.22,864,761,0
1543090,433.78,864,757,0
1543100,467.96,864,761,0
1543110,505.82,864,757,0
1543120,545.21,864,761,0
1543130,583.34,864,757,0
1543140,617.48,864,761,0
1543150,644.81,864,757,0
1543160,664.19,864,761,0
1543170,674.93,864,756,0
1543180,677.14,864,761,0
1543190,671.31,864,756,0
1543200,658.88,864,761,0
1543211,641.26,864,756,0
1543220,620.31,864,761,0
1543230,597.54,864,756,0
1543240,574.32,864,761,0
1543250,551.64,864,757,0
1543260,530.75,864,761,0
1543270,511.67,864,757,0
1543280,494.75,864,761,0
1543290,479.61,864,756,0
1543300,466.23,864,761,0
1543310,454.25,864,756,0
1543320,443.50,864,761,0
1543330,433.54,864,756,0
1543340,424.63,864,761,0
1543350,416.64,864,756,0
1543360,409.72,864,761,0
1543370,403.72,864,756,0
1543380,399.00,864,761,0
1543390,395.32,864,756,0
1543400,392.99,864,761,0
1543410,391.84,864,757,0
1543420,392.02,864,761,0
1543430,393.12,864,756,0
1543440,395.19,864,761,0
1543450,397.66,864,756,0
1543460,400.68,864,761,0
1543470,403.69,864,756,0
1543480,406.61,864,761,0
1543490,409.00,864,756,0
1543500,410.80,864,761,0
1543511,411.84,864,757,0
1543521,412.02,864,761,0
1543531,411.07,864,757,0
1543541,409.08,864,761,0
1543552,406.23,864,758,0
1543561,402.77,864,761,0
1543571,398.98,864,758,0
1543581,395.00,864,761,0
1543591,391.02,864,758,0
1543601,387.28,864,761,0
1543611,383.73,864,757,0
1543621,380.21,864,761,0
1543631,376.72,864,758,0
1543641,373.29,864,761,0
1543651,369.82,864,758,0
1543661,366.44,864,761,0
1543671,363.01,864,758,0
1543681,359.71,864,761,0
1543691,356.45,864,757,0
1543701,353.32,864,761,0
1543711,350.44,864,758,0
1543721,347.91,864,761,0
1543731,345.88,864,757,0
1543741,344.54,864,761,0
1543751,343.99,864,757,0
1543761,344.38,864,761,0
1543771,345.60,864,757,0
1543781,347.43,864,761,0
1543791,349.83,864,758,0
1543801,352.54,864,761,0
1543811,355.33,864,758,0
1543821,357.93,864,761,0
1543831,360.14,864,758,0
1543841,361.81,864,761,0
1543852,362.98,864,758,0
1543862,363.54,864,761,0
1543872,363.55,864,759,0
1543882,363.17,864,761,0
1543892,362.61,864,760,0
1543902,361.95,864,761,0
1543912,361.50,864,759,0
1543922,361.35,864,761,0
1543932,362.40,864,760,0
1543942,365.11,864,761,0
1543952,370.56,864,759,0
1543962,379.65,864,761,0
1543972,393.68,864,760,0
1543982,413.06,864,761,0
1544001,438.25,923,760,0
1544004,468.81,923,761,0
1544013,503.71,923,760,0
1544023,540.48,923,761,0
1544033,577.11,923,760,0
1544043,610.76,923,761,0
1544053,639.51,923,761,0
1544064,661.17,923,760,0
1544073,674.53,923,760,0
1544083,679.17,923,761,0
1544093,675.74,923,760,0
1544103,664.84,923,760,0
1544113,648.18,923,760,0
1544123,627.08,923,761,0
1544133,603.61,923,760,0
1544143,578.79,923,760,0
1544153,554.29,923,760,0
1544163,530.93,923,761,0
1544173,509.65,923,760,0
1544183,490.26,923,760,0
1544193,473.29,923,760,0
1544203,458.25,923,761,0
1544213,445.15,923,760,0
1544223,433.27,923,760,0
1544233,422.78,923,761,0
1544243,413.24,923,761,0
1544253,404.94,923,760,0
1544263,397.50,923,760,0
1544273,391.61,923,761,0
1544283,387.27,923,760,0
1544293,385.00,923,760,0
1544303,384.40,923,760,0
1544313,385.82,923,760,0
1544323,388.79,923,760,0
1544333,393.31,923,760,0
1544343,398.32,923,760,0
1544353,403.62,923,760,0
1544364,408.11,923,759,0
1544374,411.97,923,760,0
1544384,414.25,923,758,0
1544394,415.29,923,761,0
1544404,414.43,923,758,0
1544414,412.42,923,760,0
1544424,408.91,923,758,0
1544434,404.69,923,760,0
1544444,399.47,923,758,0
1544454,394.19,923,760,0
1544464,388.43,923,759,0
1544474,382.99,923,760,0
1544484,377.46,923,758,0
1544494,372.61,923,761,0
1544504,371.27,923,761,0
1544514,372.13,923,763,0
1544524,373.29,923,760,0
1544535,374.53,923,763,0
1544545,375.10,923,759,0
1544555,375.16,923,762,0
1544565,374.38,923,758,0
1544576,370.02,923,762,0
1544585,363.67,923,759,0
1544595,357.30,923,762,0
1544605,351.55,923,758,0
1544615,347.53,923,762,0
1544625,344.97,923,759,0
1544635,344.34,923,762,0
1544645,345.26,923,758,0
1544655,348.10,923,762,0
1544665,352.14,923,759,0
1544675,358.78,923,763,0
1544685,366.05,923,758,0
1544695,373.66,923,763,0
1544705,380.49,923,759,0
1544715,386.56,923,762,0
1544725,391.02,923,758,0
1544735,394.19,923,762,0
1544745,394.43,923,758,0
1544755,393.23,923,762,0
1544765,390.89,923,758,0
1544775,388.31,923,762,0
1544785,385.26,923,758,0
1544795,382.48,923,762,0
1544805,379.64,923,758,0
1544815,377.13,923,762,0
1544825,374.69,923,757,0
1544835,372.98,923,762,0
1544845,371.96,923,758,0
1544855,372.70,923,762,0
1544865,375.15,923,758,0
1544876,380.42,923,762,0
1544886,389.04,923,757,0
1544896,402.44,923,762,0
1544906,420.95,923,757,0
1544916,445.01,923,762,0
1544926,473.55,923,757,0
1544945,506.21,944,756,0
1544948,541.42,944,758,0
1544957,577.21,944,762,0
1544967,610.53,944,756,0
1544977,639.22,944,762,0
1544987,661.18,944,757,0
1544997,675.48,944,762,0
1545007,681.38,944,757,0
1545017,678.87,944,762,0
1545027,668.62,944,757,0
1545037,652.36,944,762,0
1545047,631.51,944,756,0
1545057,607.92,944,762,0
1545067,582.95,944,757,0
1545077,558.11,944,762,0
1545088,534.46,944,757,0
1545097,512.94,944,762,0
1545107,493.71,944,757,0
1545117,476.91,944,762,0
1545127,462.24,944,757,0
1545137,449.74,944,762,0
1545147,438.85,944,757,0
1545157,429.38,944,761,0
1545167,420.95,944,757,0
1545177,413.68,944,762,0
1545187,407.56,944,756,0
1545197,402.81,944,762,0
1545207,399.48,944,757,0
1545217,397.58,944,762,0
1545227,396.98,944,756,0
1545237,397.75,944,761,0
1545247,399.67,944,757,0
1545257,402.68,944,762,0
1545267,406.21,944,756,0
1545277,409.83,944,761,0
1545287,413.31,944,756,0
1545297,416.43,944,762,0
1545307,418.74,944,756,0
1545317,420.06,944,761,0
1545327,420.00,944,757,0
1545337,418.59,944,761,0
1545347,415.88,944,756,0
1545357,412.06,944,761,0
1545367,407.20,944,757,0
1545377,401.57,944,761,0
1545388,395.40,944,757,0
1545398,389.11,944,761,0
1545408,383.03,944,758,0
1545418,377.24,944,761,0
1545428,372.07,944,758,0
1545438,367.50,944,761,0
1545448,363.67,944,758,0
1545458,360.60,944,761,0
1545468,358.10,944,758,0
1545478,356.10,944,761,0
1545488,354.74,944,758,0
1545498,353.75,944,761,0
1545508,353.22,944,758,0
1545518,353.07,944,761,0
1545528,353.35,944,758,0
1545538,354.02,944,760,0
1545548,355.13,944,758,0
1545559,356.42,944,761,0
1545569,358.01,944,759,0
1545579,359.63,944,761,0
1545589,361.46,944,759,0
1545600,363.16,944,761,0
1545609,365.04,944,759,0
1545619,366.70,944,761,0
1545629,368.51,944,760,0
1545639,370.03,944,761,0
1545649,371.52,944,759,0
1545659,372.56,944,761,0
1545669,373.38,944,760,0
1545679,373.48,944,761,0
1545689,373.16,944,759,0
1545699,372.09,944,760,0
1545709,370.73,944,760,0
1545719,369.06,944,761,0
1545729,367.50,944,759,0
1545739,366.19,944,761,0
1545749,365.79,944,760,0
1545759,366.50,944,761,0
1545769,369.35,944,760,0
1545779,374.81,944,761,0
1545789,384.26,944,760,0
1545808,398.24,863,759,0
1545811,417.97,863,761,0
1545820,442.83,863,761,0
1545830,472.54,863,761,0
1545840,505.34,863,760,0
1545850,539.91,863,761,0
1545860,573.53,863,761,0
1545870,604.49,863,761,0
1545880,629.97,863,760,0
1545890,649.05,863,761,0
1545900,660.74,863,761,0
1545910,664.97,863,761,0
1545920,661.64,863,760,0
1545930,651.97,863,761,0
1545940,636.68,863,760,0
1545950,617.62,863,761,0
1545960,596.01,863,761,0
1545970,573.46,863,761,0
1545980,551.08,863,760,0
1545990,530.36,863,761,0
1546000,511.39,863,760,0
1546010,494.95,863,761,0
1546020,480.52,863,760,0
1546030,468.49,863,761,0
1546040,458.14,863,760,0
1546050,449.53,863,761,0
1546060,441.70,863,760,0
1546071,435.10,863,761,0
1546081,429.07,863,759,0
1546091,424.17,863,761,0
1546101,419.79,863,758,0
1546112,416.64,863,761,0
1546121,414.26,863,759,0
1546131,413.28,863,761,0
1546141,413.20,863,758,0
1546151,414.42,863,761,0
1546161,416.23,863,759,0
1546171,418.77,863,761,0
1546181,421.20,863,758,0
1546191,423.62,863,761,0
1546201,425.28,863,759,0
1546211,426.27,863,761,0
1546221,425.84,863,758,0
1546231,424.48,863,761,0
1546241,421.76,863,759,0
1546251,418.28,863,761,0
1546261,413.74,863,758,0
1546271,408.76,863,761,0
1546281,403.13,863,758,0
1546291,397.69,863,761,0
1546301,391.91,863,758,0
1546311,386.54,863,761,0
1546321,381.32,863,758,0
1546331,376.90,863,760,0
1546341,372.94,863,758,0
1546351,370.00,863,761,0
1546361,367.69,863,758,0
1546371,366.41,863,761,0
1546381,365.47,863,758,0
1546391,365.20,863,760,0
1546401,364.93,863,758,0
1546412,364.91,863,760,0
1546422,364.63,863,757,0
1546432,364.44,863,760,0
1546442,364.05,863,756,0
1546452,364.08,863,761,0
1546462,364.01,863,757,0
1546472,364.52,863,761,0
1546482,365.27,863,756,0
1546492,366.64,863,761,0
1546502,367.99,863,757,0
1546512,369.62,863,760,0
1546522,370.98,863,756,0
1546532,372.31,863,761,0
1546542,373.03,863,757,0
1546552,373.41,863,760,0
1546562,373.12,863,756,0
1546572,372.74,863,761,0
1546583,372.13,863,756,0
1546593,371.96,863,760,0
1546603,372.66,863,756,0
1546613,375.29,863,760,0
1546624,380.56,863,756,0
1546633,389.39,863,760,0
1546643,402.43,863,756,0
1546653,420.52,863,761,0
1546673,443.29,864,760,0
1546676,470.55,864,761,0
1546685,500.73,864,756,0
1546695,532.01,864,760,0
1546705,562.56,864,757,0
1546715,590.25,864,760,0
1546725,613.10,864,756,0
1546735,632.53,864,763,0
1546745,645.61,864,759,0
1546755,651.60,864,762,0
1546765,650.22,864,758,0
1546775,642.01,864,762,0
1546785,628.17,864,758,0
1546796,610.24,864,761,0
1546806,587.33,864,759,0
1546816,563.62,864,763,0
1546826,540.76,864,760,0
1546836,519.57,864,762,0
1546846,500.72,864,760,0
1546856,484.43,864,762,0
1546866,470.54,864,760,0
1546876,458.68,864,762,0
1546886,447.68,864,759,0
1546896,437.49,864,762,0
1546906,428.90,864,759,0
1546916,421.77,864,761,0
1546926,416.40,864,759,0
1546936,412.59,864,761,0
1546946,410.44,864,759,0
1546956,409.58,864,761,0
1546967,410.18,864,760,0
1546977,411.88,864,761,0
1546987,414.79,864,760,0
1546997,418.28,864,761,0
1547008,422.40,864,761,0
1547017,426.65,864,761,0
1547027,430.87,864,760,0
1547037,434.42,864,761,0
1547047,437.21,864,761,0
1547057,438.78,864,761,0
1547067,439.19,864,760,0
1547077,437.97,864,761,0
1547087,435.41,864,761,0
1547097,431.69,864,761,0
1547107,427.37,864,760,0
1547117,422.37,864,761,0
1547127,417.33,864,761,0
1547137,412.35,864,761,0
1547147,408.00,864,761,0
1547157,404.06,864,761,0
1547167,400.70,864,761,0
1547177,397.57,864,761,0
1547187,395.13,864,760,0
1547197,392.78,864,761,0
1547207,390.57,864,761,0
1547217,388.13,864,761,0
1547227,385.86,864,761,0
1547237,383.55,864,761,0
1547247,381.50,864,761,0
1547257,379.46,864,761,0
1547267,377.82,864,761,0
1547277,376.46,864,761,0
1547287,375.59,864,761,0
1547297,374.73,864,761,0
1547308,374.00,864,761,0
1547318,373.01,864,761,0
1547328,372.07,864,761,0
1547338,371.02,864,760,0
1547348,370.33,864,761,0
1547358,369.76,864,760,0
1547368,369.83,864,761,0
1547378,369.88,864,760,0
1547388,370.52,864,761,0
1547398,371.26,864,760,0
1547408,372.51,864,761,0
1547418,373.90,864,760,0
1547428,376.12,864,761,0
1547438,379.21,864,760,0
1547448,384.63,864,761,0
1547458,392.71,864,760,0
1547468,404.71,864,761,0
1547479,420.96,864,759,0
1547489,441.97,864,761,0
1547508,467.18,836,760,0
1547511,496.35,836,761,0
1547521,527.53,836,757,0
1547531,559.13,836,761,0
1547541,588.79,836,756,0
1547551,614.91,836,761,0
1547561,635.81,836,756,0
1547571,650.82,836,761,0
1547581,658.93,836,756,0
1547591,660.63,836,761,0
1547601,656.41,836,756,0
1547611,647.59,836,761,0
1547621,634.85,836,756,0
1547631,619.43,836,761,0
1547641,602.20,836,756,0
1547651,584.44,836,761,0
1547661,566.82,836,756,0
1547671,550.12,836,761,0
1547681,534.27,836,756,0
1547692,519.79,836,760,0
1547702,506.52,836,759,0
1547712,496.47,836,762,0
1547722,487.54,836,757,0
1547732,478.89,836,762,0
1547742,469.71,836,757,0
1547752,460.24,836,762,0
1547762,450.40,836,757,0
1547772,440.81,836,761,0
1547782,429.55,836,757,0
1547792,418.97,836,761,0
1547802,410.19,836,757,0
1547812,403.88,836,761,0
1547822,399.97,836,756,0
1547832,398.44,836,761,0
1547842,398.82,836,756,0
1547852,400.85,836,761,0
1547863,405.73,836,759,0
1547873,411.47,836,762,0
1547883,416.77,836,758,0
1547893,420.87,836,762,0
1547904,423.35,836,759,0
1547913,423.97,836,762,0
1547923,422.61,836,758,0
1547933,417.33,836,761,0
1547943,410.03,836,759,0
1547953,402.01,836,761,0
1547963,394.03,836,758,0
1547973,386.57,836,761,0
1547983,379.84,836,758,0
1547993,374.10,836,761,0
1548003,378.66,836,765,0
1548013,388.83,836,768,0
1548023,400.54,836,767,0
1548033,411.86,836,770,0
1548043,420.39,836,766,0
1548053,425.59,836,770,0
1548063,427.34,836,767,0
1548073,416.01,836,769,0
1548083,397.88,836,768,0
1548093,377.60,836,770,0
1548103,357.71,836,769,0
1548113,340.35,836,772,0
1548123,326.10,836,768,0
1548133,314.97,836,771,0
1548143,308.64,836,769,0
1548153,304.20,836,771,0
1548163,303.33,836,769,0
1548173,304.90,836,772,0
1548183,308.40,836,770,0
1548193,313.30,836,772,0
1548204,319.51,836,770,0
1548214,325.44,836,772,0
1548224,331.91,836,771,0
1548234,336.14,836,772,0
1548244,338.97,836,771,0
1548254,340.99,836,772,0
1548264,342.92,836,771,0
1548274,344.45,836,772,0
1548284,345.77,836,771,0
1548294,347.08,836,771,0
1548304,348.90,836,770,0
1548314,353.22,836,772,0
1548324,360.91,836,771,0
1548334,372.16,836,772,0
1548344,388.06,836,771,0
1548354,409.21,836,772,0
1548364,436.06,836,771,0
1548375,468.19,836,772,0
1548385,503.10,836,772,0
1548395,538.69,836,772,0
1548405,573.75,836,772,0
1548416,606.05,836,772,0
1548434,634.20,926,771,0
1548437,655.95,926,769,0
1548446,670.92,926,772,0
1548456,677.72,926,770,0
1548466,677.55,926,772,0
1548476,670.48,926,770,0
1548486,657.31,926,771,0
1548496,640.46,926,770,0
1548506,623.09,926,772,0
1548516,605.58,926,771,0
1548526,589.25,926,772,0
1548536,573.87,926,770,0
1548546,560.15,926,772,0
1548556,548.49,926,771,0
1548566,537.37,926,772,0
1548576,525.35,926,770,0
1548587,512.77,926,772,0
1548596,499.38,926,771,0
1548606,485.64,926,772,0
1548616,471.52,926,770,0
1548626,457.56,926,772,0
1548636,444.71,926,771,0
1548646,432.54,926,772,0
1548656,421.45,926,770,0
1548666,412.10,926,772,0
1548676,404.74,926,773,0
1548686,399.72,926,772,0
1548696,397.79,926,772,0
1548706,398.20,926,774,0
1548716,400.32,926,773,0
1548726,403.01,926,773,0
1548736,402.49,926,769,0
1548746,399.82,926,771,0
1548756,396.44,926,769,0
1548766,392.62,926,773,0
1548776,386.95,926,770,0
1548786,381.05,926,772,0
1548796,375.76,926,770,0
1548806,373.69,926,772,0
1548816,372.71,926,770,0
1548826,371.30,926,772,0
1548836,368.90,926,770,0
1548846,366.57,926,773,0
1548856,362.46,926,770,0
1548866,356.79,926,772,0
1548876,349.22,926,769,0
1548887,343.97,926,773,0
1548897,339.78,926,769,0
1548907,336.07,926,772,0
1548917,333.01,926,769,0
1548928,332.32,926,772,0
1548937,332.10,926,768,0
1548947,333.78,926,772,0
1548957,335.60,926,769,0
1548967,338.59,926,773,0
1548977,341.72,926,770,0
1548987,344.93,926,773,0
1548997,347.27,926,770,0
1549007,350.23,926,774,0
1549017,353.50,926,770,0
1549027,357.21,926,776,0
1549037,361.43,926,773,0
1549047,365.63,926,776,0
1549057,368.44,926,773,0
1549067,369.29,926,775,0
1549077,367.02,926,771,0
1549087,362.81,926,775,0
1549097,355.46,926,770,0
1549107,345.89,926,775,0
1549117,337.31,926,773,0
1549127,330.74,926,778,0
1549137,312.09,926,758,0
1549147,288.88,926,764,0
1549157,266.97,926,760,0
1549167,250.18,926,763,0
1549177,239.93,926,759,0
1549187,235.71,926,763,0
1549197,238.24,926,758,0
1549207,262.89,926,762,0
1549217,305.74,926,761,0
1549228,357.46,926,764,0
1549238,412.52,926,760,0
1549257,465.94,823,758,0
1549260,515.07,823,760,0
1549270,559.41,823,763,0
1549279,597.90,823,758,0
1549289,627.67,823,762,0
1549299,650.44,823,758,0
1549309,666.59,823,762,0
1549319,677.90,823,757,0
1549329,685.13,823,762,0
1549339,687.79,823,758,0
1549349,686.40,823,762,0
1549359,684.61,823,760,0
1549369,680.82,823,765,0
1549379,673.46,823,759,0
1549389,662.48,823,764,0
1549399,648.32,823,758,0
1549409,631.98,823,763,0
1549419,614.20,823,758,0
1549429,592.37,823,763,0
1549440,569.12,823,759,0
1549449,547.01,823,763,0
1549459,526.99,823,758,0
1549469,509.59,823,763,0
1549479,494.42,823,758,0
1549489,481.22,823,763,0
1549499,469.37,823,758,0
1549509,458.46,823,763,0
1549519,448.29,823,758,0
1549529,438.90,823,762,0
1549539,431.26,823,760,0
1549549,426.60,823,764,0
1549559,422.86,823,759,0
1549569,421.83,823,765,0
1549579,421.62,823,759,0
1549589,421.52,823,763,0
1549599,420.98,823,759,0
1549609,418.89,823,763,0
1549619,414.33,823,758,0
1549629,409.56,823,762,0
1549639,402.88,823,758,0
1549649,396.32,823,762,0
1549659,392.58,823,759,0
1549669,390.43,823,763,0
1549679,390.05,823,759,0
1549689,390.20,823,765,0
1549699,390.79,823,759,0
1549709,390.81,823,763,0
1549719,389.71,823,758,0
1549729,385.60,823,763,0
1549740,383.23,823,761,0
1549750,380.89,823,764,0
1549760,378.18,823,760,0
1549770,374.44,823,764,0
1549780,370.54,823,761,0
1549790,367.12,823,763,0
1549800,364.04,823,760,0
1549810,358.29,823,763,0
1549820,351.64,823,760,0
1549830,345.96,823,763,0
1549840,341.86,823,760,0
1549850,339.37,823,763,0
1549860,338.45,823,760,0
1549870,338.74,823,762,0
1549880,340.15,823,759,0
1549890,342.42,823,762,0
1549900,345.21,823,760,0
1549911,348.23,823,762,0
1549921,351.50,823,760,0
1549931,354.48,823,762,0
1549941,357.51,823,761,0
1549952,360.31,823,762,0
1549961,362.92,823,760,0
1549971,364.87,823,762,0
1549981,366.28,823,760,0
1549991,367.23,823,762,0
1550001,368.27,823,760,0
1550011,369.26,823,762,0
1550021,370.43,823,760,0
1550031,371.33,823,761,0
1550041,372.39,823,760,0
1550051,373.73,823,762,0
1550061,375.18,823,760,0
1550071,379.54,823,764,0
1550081,385.04,823,761,0
1550091,390.94,823,763,0
1550101,397.99,823,762,0
1550111,409.05,823,764,0
1550121,423.78,823,763,0
1550140,442.27,883,761,0
1550143,461.78,883,763,0
1550152,484.17,883,763,0
1550162,510.09,883,763,0
1550172,538.52,883,763,0
1550182,566.05,883,762,0
1550192,592.05,883,762,0
1550202,615.43,883,763,0
1550212,634.72,883,762,0
1550222,648.99,883,762,0
1550232,659.45,883,763,0
1550242,664.63,883,763,0
1550252,663.84,883,763,0
1550262,657.67,883,763,0
1550272,647.14,883,762,0
1550282,633.90,883,763,0
1550292,618.80,883,761,0
1550302,600.95,883,762,0
1550312,582.53,883,762,0
1550322,565.06,883,762,0
1550332,548.63,883,761,0
1550342,533.78,883,762,0
1550352,519.75,883,761,0
1550362,506.71,883,762,0
1550372,494.02,883,760,0
1550382,481.97,883,762,0
1550392,470.15,883,761,0
1550402,459.05,883,762,0
1550412,448.24,883,760,0
1550423,438.35,883,762,0
1550433,429.29,883,760,0
1550443,421.92,883,762,0
1550453,417.31,883,762,0
1550464,416.62,883,764,0
1550473,418.79,883,762,0
1550483,421.42,883,764,0
1550493,423.18,883,760,0
1550503,423.69,883,763,0
1550513,422.32,883,761,0
1550523,418.24,883,763,0
1550533,410.41,883,759,0
1550543,400.22,883,763,0
1550553,392.48,883,762,0
1550563,386.98,883,764,0
1550573,382.61,883,760,0
1550583,380.67,883,764,0
1550593,379.66,883,764,0
1550603,381.47,883,765,0
1550613,384.29,883,762,0
1550623,383.64,883,764,0
1550633,379.85,883,760,0
1550643,374.92,883,763,0
1550653,369.25,883,763,0
1550663,364.89,883,765,0
1550673,359.91,883,762,0
1550683,354.58,883,764,0
1550693,349.95,883,761,0
1550703,347.35,883,764,0
1550713,346.39,883,760,0
1550723,345.89,883,764,0
1550733,344.59,883,761,0
1550743,342.74,883,764,0
1550753,341.23,883,760,0
1550764,341.42,883,763,0
1550774,342.62,883,759,0
1550784,344.79,883,763,0
1550794,349.14,883,760,0
1550804,354.54,883,766,0
1550814,361.28,883,761,0
1550824,367.75,883,765,0
1550834,373.10,883,760,0
1550844,377.23,883,764,0
1550854,380.76,883,761,0
1550864,381.22,883,765,0
1550874,379.48,883,760,0
1550884,376.76,883,765,0
1550894,373.88,883,760,0
1550904,371.09,883,765,0
1550914,368.62,883,759,0
1550924,365.73,883,764,0
1550935,363.41,883,759,0
1550945,362.35,883,764,0
1550955,360.70,883,758,0
1550965,359.46,883,764,0
1550976,358.72,883,758,0
1550985,358.81,883,764,0
1550995,359.38,883,758,0
1551005,360.55,883,763,0
1551015,363.00,883,758,0
1551025,366.00,883,764,0
1551035,369.21,883,758,0
1551045,373.35,883,763,0
1551055,378.90,883,757,0
1551065,387.25,883,763,0
1551075,399.43,883,758,0
1551085,416.19,883,763,0
1551095,438.97,883,757,0
1551114,468.12,974,756,0
1551117,503.02,974,759,0
1551126,540.98,974,763,0
1551136,579.43,974,758,0
1551147,616.12,974,764,0
1551156,648.52,974,759,0
1551166,675.41,974,763,0
1551176,695.90,974,758,0
1551186,708.49,974,763,0
1551196,714.17,974,758,0
1551206,713.65,974,763,0
1551216,707.45,974,758,0
1551226,696.22,974,763,0
1551236,680.68,974,757,0
1551246,661.83,974,767,0
1551256,642.55,974,759,0
1551266,622.89,974,763,0
1551276,603.29,974,758,0
1551286,584.65,974,763,0
1551296,566.80,974,758,0
1551306,549.41,974,763,0
1551316,532.32,974,759,0
1551326,514.22,974,763,0
1551336,496.20,974,758,0
1551346,478.70,974,763,0
1551356,461.60,974,759,0
1551366,445.48,974,763,0
1551376,430.68,974,758,0
1551386,417.79,974,763,0
1551396,407.18,974,759,0
1551406,398.86,974,763,0
1551416,392.81,974,758,0
1551426,389.01,974,763,0
1551436,387.34,974,759,0
1551447,387.62,974,763,0
1551457,389.15,974,759,0
1551467,391.33,974,763,0
1551477,393.93,974,760,0
1551488,396.57,974,763,0
1551497,398.80,974,759,0
1551507,400.40,974,763,0
1551517,401.14,974,760,0
1551527,400.75,974,763,0
1551537,399.46,974,760,0
1551547,397.18,974,763,0
1551557,394.29,974,760,0
1551567,390.99,974,763,0
1551577,387.48,974,760,0
1551587,383.78,974,759,0
1551597,382.47,974,762,0
1551607,381.82,974,764,0
1551617,380.76,974,760,0
1551627,379.63,974,764,0
1551637,377.51,974,761,0
1551647,374.23,974,764,0
1551657,370.26,974,762,0
1551667,363.54,974,764,0
1551677,357.59,974,762,0
1551687,352.61,974,764,0
1551697,347.93,974,762,0
1551707,344.57,974,764,0
1551717,342.68,974,761,0
1551727,342.01,974,764,0
1551737,342.56,974,762,0
1551747,342.31,974,763,0
1551757,342.51,974,761,0
1551767,343.30,974,763,0
1551777,344.71,974,761,0
1551788,346.51,974,763,0
1551798,348.80,974,762,0
1551808,351.30,974,763,0
1551818,354.30,974,762,0
1551828,357.29,974,763,0
1551838,360.51,974,762,0
1551848,363.44,974,763,0
1551858,366.05,974,762,0
1551868,368.09,974,763,0
1551878,369.69,974,762,0
1551888,370.64,974,763,0
1551898,371.31,974,762,0
1551908,371.30,974,763,0
1551918,371.00,974,762,0
1551928,370.23,974,763,0
1551938,369.34,974,762,0
1551948,368.04,974,763,0
1551959,366.70,974,762,0
1551969,364.99,974,762,0
1551979,363.41,974,763,0
1551989,361.74,974,761,0
1552000,360.62,974,763,0
1552009,359.71,974,762,0
1552019,359.79,974,763,0
1552029,360.84,974,762,0
1552039,364.27,974,763,0
1552049,370.45,974,762,0
1552059,380.90,974,763,0
1552069,396.40,974,761,0
1552079,418.10,974,763,0
1552098,445.58,984,763,0
1552101,480.38,984,765,0
1552110,518.79,984,761,0
1552120,558.50,984,764,0
1552130,596.92,984,762,0
1552140,632.09,984,763,0
1552150,660.99,984,761,0
1552160,682.16,984,763,0
1552171,692.49,984,760,0
1552180,693.97,984,763,0
1552190,687.64,984,760,0
1552200,674.63,984,763,0
1552210,655.46,984,760,0
1552220,632.82,984,763,0
1552230,608.14,984,760,0
1552240,583.42,984,762,0
1552250,559.38,984,760,0
1552260,537.45,984,763,0
1552270,517.69,984,760,0
1552280,500.68,984,763,0
1552290,485.52,984,759,0
1552300,472.38,984,762,0
1552310,460.35,984,760,0
1552320,449.44,984,763,0
1552330,438.77,984,762,0
1552340,430.22,984,764,0
1552350,422.31,984,761,0
1552360,414.93,984,763,0
1552370,407.67,984,760,0
1552380,401.12,984,763,0
1552390,395.94,984,761,0
1552400,392.02,984,763,0
1552410,387.30,984,760,0
1552420,383.48,984,763,0
1552430,381.66,984,762,0
1552440,382.11,984,764,0
1552450,383.83,984,760,0
1552460,385.55,984,763,0
1552471,387.27,984,759,0
1552481,389.25,984,763,0
1552491,390.76,984,759,0
1552501,391.09,984,763,0
1552512,389.78,984,758,0
1552521,387.53,984,763,0
1552531,387.33,984,761,0
1552541,387.70,984,765,0
1552551,387.23,984,760,0
1552561,386.82,984,765,0
1552571,385.29,984,761,0
1552581,382.46,984,764,0
1552591,378.16,984,760,0
1552601,370.36,984,764,0
1552611,360.78,984,760,0
1552621,351.33,984,764,0
1552631,341.63,984,759,0
1552641,333.43,984,764,0
1552651,327.30,984,760,0
1552661,323.65,984,764,0
1552671,322.04,984,761,0
1552681,323.49,984,764,0
1552691,326.30,984,760,0
1552701,330.02,984,765,0
1552711,334.13,984,760,0
1552721,338.21,984,764,0
1552731,341.79,984,760,0
1552741,344.76,984,764,0
1552751,345.99,984,759,0
1552761,346.68,984,764,0
1552771,347.03,984,759,0
1552781,346.98,984,764,0
1552791,346.64,984,759,0
1552801,346.45,984,764,0
1552812,346.32,984,759,0
1552822,346.56,984,764,0
1552832,346.95,984,758,0
1552842,347.39,984,763,0
1552852,347.62,984,758,0
1552862,348.16,984,763,0
1552872,348.67,984,758,0
1552882,349.33,984,763,0
1552892,349.74,984,758,0
1552902,350.16,984,763,0
1552912,350.46,984,758,0
1552922,350.96,984,763,0
1552932,351.49,984,758,0
1552942,352.07,984,763,0
1552952,352.52,984,758,0
1552962,353.05,984,763,0
1552972,353.46,984,758,0
1552983,353.84,984,763,0
1552993,354.06,984,758,0
1553003,354.26,984,763,0
1553013,354.86,984,759,0
1553024,356.53,984,763,0
1553033,361.73,984,760,0
1553043,370.04,984,764,0
1553062,381.60,964,763,0
1553065,397.66,964,764,0
1553074,418.59,964,760,0
1553084,444.43,964,764,0
1553094,474.77,964,760,0
1553104,506.64,964,764,0
1553114,539.66,964,760,0
1553124,572.72,964,763,0
1553134,603.15,964,760,0
1553144,629.03,964,763,0
1553154,650.07,964,761,0
1553164,664.10,964,764,0
1553174,670.89,964,761,0
1553184,670.58,964,765,0
1553195,662.56,964,762,0
1553204,648.64,964,764,0
1553214,629.59,964,761,0
1553224,605.50,964,764,0
1553234,580.28,964,762,0
1553244,554.44,964,764,0
1553254,528.72,964,761,0
1553264,505.19,964,764,0
1553274,484.18,964,761,0
1553284,466.68,964,763,0
1553294,452.80,964,761,0
1553304,440.86,964,764,0
1553314,431.18,964,761,0
1553324,423.79,964,763,0
1553334,418.67,964,760,0
1553344,415.21,964,763,0
1553354,413.01,964,761,0
1553364,411.63,964,763,0
1553374,410.76,964,760,0
1553384,410.36,964,763,0
1553394,410.47,964,761,0
1553404,410.71,964,763,0
1553414,410.97,964,760,0
1553424,411.06,964,763,0
1553434,411.30,964,761,0
1553444,411.73,964,763,0
1553454,413.69,964,761,0
1553464,416.01,964,764,0
1553474,417.77,964,761,0
1553484,418.35,964,763,0
1553495,417.73,964,762,0
1553505,415.50,964,763,0
1553515,411.79,964,762,0
1553525,405.00,964,766,0
1553536,398.14,964,764,0
1553545,391.20,964,764,0
1553555,384.67,964,763,0
1553565,379.28,964,764,0
1553575,374.48,964,763,0
1553585,370.10,964,764,0
1553595,367.41,964,763,0
1553605,364.97,964,765,0
1553615,362.97,964,764,0
1553625,360.62,964,765,0
1553635,357.52,964,763,0
1553645,354.53,964,764,0
1553655,353.30,964,764,0
1553665,351.97,964,764,0
1553675,350.78,964,764,0
1553685,349.64,964,764,0
1553695,349.41,964,764,0
1553705,349.67,964,764,0
1553715,350.80,964,763,0
1553725,351.12,964,764,0
1553735,351.51,964,763,0
1553745,351.19,964,764,0
1553755,353.49,964,765,0
1553765,357.11,964,765,0
1553775,361.19,964,765,0
1553785,364.26,964,765,0
1553795,366.54,964,764,0
1553805,367.79,964,764,0
1553815,368.50,964,764,0
1553825,366.21,964,764,0
1553836,362.46,964,767,0
1553846,359.66,964,764,0
1553856,357.79,964,765,0
1553866,356.10,964,763,0
1553876,355.68,964,766,0
1553886,355.65,964,764,0
1553896,355.33,964,764,0
1553906,354.59,964,763,0
1553916,352.74,964,764,0
1553926,350.97,964,763,0
1553936,350.60,964,764,0
1553946,351.15,964,763,0
1553956,354.23,964,764,0
1553966,361.40,964,763,0
1553976,375.51,964,766,0
1553995,396.40,933,764,0
1553998,423.41,933,766,0
1554007,455.13,933,763,0
1554017,490.66,933,765,0
1554027,528.09,933,761,0
1554037,565.95,933,764,0
1554048,599.95,933,761,0
1554057,628.68,933,764,0
1554067,651.62,933,762,0
1554077,668.83,933,765,0
1554087,678.53,933,761,0
1554097,680.77,933,765,0
1554107,675.14,933,761,0
1554117,662.97,933,765,0
1554127,645.15,933,761,0
1554137,623.29,933,764,0
1554147,598.43,933,761,0
1554157,573.40,933,764,0
1554167,549.28,933,760,0
1554177,527.68,933,764,0
1554187,508.71,933,761,0
1554197,493.71,933,764,0
1554207,481.71,933,761,0
1554217,471.30,933,764,0
1554227,461.65,933,754,0
1554237,453.31,933,764,0
1554247,445.12,933,760,0
1554257,437.37,933,764,0
1554267,428.90,933,761,0
1554277,420.75,933,764,0
1554287,414.18,933,760,0
1554297,409.84,933,763,0
1554307,406.63,933,760,0
1554317,405.63,933,764,0
1554327,408.01,933,761,0
1554337,412.38,933,764,0
1554348,417.24,933,760,0
1554358,422.01,933,764,0
1554368,425.86,933,759,0
1554378,429.08,933,764,0
1554388,431.71,933,759,0
1554398,431.37,933,764,0
1554408,429.76,933,760,0
1554418,426.83,933,764,0
1554428,423.71,933,760,0
1554438,420.07,933,765,0
1554448,415.08,933,760,0
1554458,408.80,933,764,0
1554468,401.40,933,759,0
1554478,393.09,933,764,0
1554488,385.09,933,759,0
1554498,377.22,933,764,0
1554508,371.67,933,760,0
1554519,368.68,933,765,0
1554529,366.72,933,759,0
1554539,366.25,933,764,0
1554549,368.27,933,760,0
1554560,370.72,933,765,0
1554569,372.65,933,759,0
1554579,372.58,933,764,0
1554589,371.12,933,758,0
1554599,369.54,933,764,0
1554609,368.18,933,759,0
1554619,365.68,933,764,0
1554629,363.85,933,758,0
1554639,363.12,933,764,0
1554649,363.51,933,759,0
1554659,364.95,933,764,0
1554669,369.25,933,760,0
1554679,373.46,933,764,0
1554689,376.54,933,759,0
1554699,378.60,933,764,0
1554709,379.58,933,758,0
1554719,379.83,933,764,0
1554729,379.54,933,758,0
1554739,376.89,933,763,0
1554749,374.57,933,758,0
1554759,374.05,933,765,0
1554769,375.80,933,759,0
1554779,377.83,933,764,0
1554789,379.04,933,758,0
1554799,379.28,933,764,0
1554809,378.81,933,759,0
1554819,378.14,933,764,0
1554829,377.07,933,758,0
1554839,376.02,933,763,0
1554849,378.11,933,758,0
1554860,385.37,933,763,0
1554879,398.97,884,762,0
1554882,419.85,884,763,0
1554892,448.14,884,762,0
1554903,483.03,884,763,0
1554913,521.89,884,762,0
1554923,561.91,884,763,0
1554933,600.59,884,763,0
1554944,635.86,884,763,0
1554953,665.60,884,762,0
1554963,688.91,884,763,0
1554973,704.83,884,762,0
1554983,713.28,884,763,0
1554993,715.21,884,762,0
1555003,710.69,884,763,0
1555013,700.41,884,762,0
1555023,684.60,884,763,0
1555033,664.19,884,762,0
1555043,640.44,884,762,0
1555053,615.58,884,762,0
1555063,592.35,884,764,0
1555073,571.11,884,763,0
1555083,551.28,884,763,0
1555093,533.20,884,763,0
1555103,516.38,884,763,0
1555113,501.14,884,763,0
1555123,488.11,884,764,0
1555133,474.66,884,763,0
1555143,461.26,884,763,0
1555153,449.14,884,763,0
1555163,438.43,884,763,0
1555173,429.51,884,763,0
1555183,422.20,884,763,0
1555193,415.97,884,763,0
1555203,411.56,884,763,0
1555213,411.82,884,764,0
1555223,415.01,884,764,0
1555233,419.63,884,764,0
1555244,424.59,884,763,0
1555254,429.30,884,764,0
1555264,432.94,884,762,0
1555274,437.15,884,765,0
1555284,438.01,884,762,0
1555294,436.03,884,764,0
1555304,433.75,884,763,0
1555314,430.91,884,765,0
1555324,426.95,884,762,0
1555334,422.38,884,765,0
1555344,415.20,884,763,0
1555354,407.21,884,764,0
1555364,399.22,884,762,0
1555374,390.45,884,764,0
1555384,381.87,884,762,0
1555394,374.63,884,764,0
1555404,368.18,884,762,0
1555415,363.16,884,764,0
1555425,358.95,884,761,0
1555435,355.92,884,764,0
1555445,353.63,884,760,0
1555456,352.41,884,764,0
1555465,351.86,884,760,0
1555475,352.46,884,764,0
1555485,353.74,884,760,0
1555495,355.92,884,764,0
1555505,358.34,884,760,0
1555515,361.02,884,764,0
1555525,363.42,884,760,0
1555535,365.82,884,764,0
1555545,367.72,884,760,0
1555555,369.17,884,763,0
1555565,369.81,884,760,0
1555575,370.12,884,764,0
1555585,370.00,884,760,0
1555595,369.91,884,763,0
1555605,369.47,884,759,0
1555615,369.29,884,764,0
1555625,369.11,884,759,0
1555635,369.51,884,763,0
1555645,369.83,884,759,0
1555655,370.14,884,764,0
1555665,371.47,884,760,0
1555675,373.00,884,764,0
1555685,373.60,884,760,0
1555695,373.72,884,764,0
1555705,373.46,884,760,0
1555715,374.27,884,764,0
1555725,378.30,884,761,0
1555735,386.22,884,765,0
1555745,399.31,884,760,0
1555765,419.02,886,758,0
1555768,446.36,886,759,0
1555777,481.09,886,765,0
1555787,520.54,886,759,0
1555798,560.88,886,764,0
1555807,598.93,886,758,0
1555817,633.71,886,764,0
1555827,663.92,886,758,0
1555837,687.90,886,764,0
1555847,705.29,886,758,0
1555857,717.42,886,764,0
1555867,725.48,886,759,0
1555877,728.93,886,765,0
1555887,726.73,886,758,0
1555897,718.79,886,764,0
1555907,705.10,886,758,0
1555917,686.17,886,764,0
1555927,662.63,886,758,0
1555937,635.49,886,763,0
1555947,607.74,886,759,0
1555957,582.40,886,765,0
1555968,558.67,886,759,0
1555977,536.83,886,764,0
1555987,516.52,886,759,0
1555997,497.55,886,764,0
1556007,479.69,886,759,0
1556017,462.12,886,764,0
1556027,444.09,886,759,0
1556037,429.87,886,766,0
1556047,418.85,886,760,0
1556057,410.37,886,765,0
1556067,404.94,886,760,0
1556077,402.26,886,765,0
1556087,401.24,886,759,0
1556097,401.85,886,764,0
1556107,401.30,886,759,0
1556117,400.69,886,764,0
1556127,400.87,886,759,0
1556137,401.00,886,764,0
1556147,401.85,886,760,0
1556157,403.44,886,764,0
1556167,404.68,886,759,0
1556177,405.46,886,764,0
1556187,405.41,886,759,0
1556197,404.39,886,764,0
1556207,402.00,886,758,0
1556217,397.58,886,763,0
1556227,391.92,886,758,0
1556237,386.03,886,763,0
1556247,380.02,886,758,0
1556257,374.19,886,763,0
1556268,368.60,886,758,0
1556278,363.96,886,763,0
1556288,360.29,886,759,0
1556298,357.59,886,763,0
1556308,355.65,886,760,0
1556318,354.52,886,763,0
1556328,353.93,886,759,0
1556338,353.61,886,763,0
1556348,353.68,886,760,0
1556358,353.95,886,763,0
1556368,354.18,886,759,0
1556378,354.34,886,763,0
1556388,354.45,886,760,0
1556398,354.40,886,763,0
1556408,354.45,886,759,0
1556418,354.57,886,763,0
1556428,354.83,886,759,0
1556439,355.35,886,763,0
1556449,356.06,886,760,0
1556459,357.07,886,763,0
1556469,358.34,886,761,0
1556480,359.65,886,763,0
1556489,360.83,886,760,0
1556499,361.74,886,763,0
1556509,362.24,886,761,0
1556519,362.17,886,763,0
1556529,361.48,886,760,0
1556539,360.43,886,762,0
1556549,359.36,886,761,0
1556559,358.22,886,763,0
1556569,357.77,886,760,0
1556579,358.48,886,763,0
1556589,361.55,886,761,0
1556599,367.77,886,762,0
1556609,378.13,886,760,0
1556628,395.75,863,761,0
1556631,421.75,863,764,0
1556640,454.78,863,765,0
1556651,492.82,863,764,0
1556660,533.80,863,765,0
1556670,575.26,863,763,0
1556680,615.17,863,765,0
1556690,649.45,863,764,0
1556700,676.27,863,765,0
1556710,694.15,863,763,0
1556720,703.15,863,764,0
1556730,703.92,863,763,0
1556740,698.84,863,764,0
1556750,687.79,863,763,0
1556760,670.84,863,764,0
1556770,650.06,863,764,0
1556780,627.33,863,764,0
1556790,604.17,863,763,0
1556800,581.19,863,764,0
1556810,558.03,863,763,0
1556820,536.04,863,763,0
1556830,517.43,863,764,0
1556840,500.24,863,764,0
1556850,484.48,863,763,0
1556860,469.85,863,763,0
1556870,456.57,863,763,0
1556880,443.97,863,764,0
1556890,432.24,863,763,0
1556900,419.86,863,763,0
1556910,408.12,863,762,0
1556920,397.63,863,763,0
1556930,389.30,863,763,0
1556940,382.86,863,763,0
1556951,379.00,863,763,0
1556961,377.20,863,763,0
1556971,377.57,863,763,0
1556981,379.24,863,762,0
1556992,382.00,863,763,0
1557001,385.17,863,762,0
1557011,388.80,863,763,0
1557021,391.73,863,761,0
1557031,394.13,863,763,0
1557041,395.33,863,762,0
1557051,395.75,863,763,0
1557061,395.01,863,761,0
1557071,393.42,863,763,0
1557081,390.55,863,762,0
1557091,387.21,863,763,0
1557101,383.12,863,761,0
1557111,379.01,863,763,0
1557121,374.60,863,762,0
1557131,370.52,863,763,0
1557141,366.33,863,761,0
1557151,362.59,863,763,0
1557161,358.81,863,761,0
1557171,355.40,863,763,0
1557181,352.15,863,761,0
1557191,349.58,863,763,0
1557201,349.75,863,766,0
1557211,350.94,863,764,0
1557221,351.30,863,762,0
1557231,351.21,863,764,0
1557241,350.46,863,761,0
1557251,349.51,863,764,0
1557261,347.98,863,762,0
1557271,344.00,863,764,0
1557281,341.26,863,762,0
1557292,340.84,863,764,0
1557302,340.63,863,761,0
1557312,340.87,863,764,0
1557322,341.12,863,760,0
1557332,341.64,863,764,0
1557342,342.01,863,760,0
1557352,341.96,863,764,0
1557362,341.46,863,760,0
1557372,341.84,863,764,0
1557382,343.69,863,761,0
1557392,345.92,863,764,0
1557402,347.57,863,760,0
1557412,348.82,863,764,0
1557422,349.39,863,761,0
1557432,350.17,863,765,0
1557442,351.36,863,761,0
1557452,352.80,863,765,0
1557463,354.10,863,760,0
1557473,356.86,863,764,0
1557483,363.16,863,760,0
1557493,371.94,863,764,0
1557504,383.36,863,759,0
1557522,398.81,894,758,0
1557525,418.19,894,759,0
1557534,443.12,894,764,0
1557544,472.31,894,758,0
1557554,502.82,894,764,0
1557564,533.43,894,758,0
1557574,562.74,894,764,0
1557584,588.49,894,758,0
1557594,609.34,894,763,0
1557604,623.90,894,758,0
1557614,631.86,894,763,0
1557624,633.06,894,758,0
1557634,628.37,894,763,0
1557644,618.44,894,757,0
1557654,604.51,894,763,0
1557664,587.56,894,758,0
1557675,569.13,894,763,0
1557684,550.06,894,757,0
1557694,531.62,894,763,0
1557704,513.99,894,758,0
1557714,497.75,894,763,0
1557724,483.08,894,757,0
1557734,469.94,894,763,0
1557744,458.09,894,758,0
1557754,447.35,894,763,0
1557764,437.26,894,757,0
1557774,427.97,894,763,0
1557784,419.19,894,758,0
1557794,411.12,894,763,0
1557804,403.67,894,757,0
1557814,397.30,894,763,0
1557824,392.15,894,758,0
1557834,388.46,894,763,0
1557844,386.27,894,758,0
1557854,385.59,894,763,0
1557864,386.22,894,757,0
1557874,388.09,894,763,0
1557884,390.37,894,757,0
1557894,392.96,894,763,0
1557904,395.29,894,752,0
1557914,398.67,894,764,0
1557924,402.29,894,759,0
1557934,404.64,894,764,0
1557944,405.26,894,759,0
1557954,403.73,894,764,0
1557964,401.45,894,759,0
1557975,397.50,894,764,0
1557985,390.32,894,759,0
1557995,381.87,894,765,0
1558005,373.38,894,760,0
1558016,365.08,894,764,0
1558025,358.20,894,759,0
1558035,351.71,894,763,0
1558045,347.43,894,760,0
1558055,345.24,894,764,0
1558065,344.10,894,759,0
1558075,345.48,894,765,0
1558085,348.59,894,760,0
1558095,353.52,894,765,0
1558105,359.23,894,761,0
1558115,364.09,894,765,0
1558125,367.58,894,761,0
1558135,369.38,894,765,0
1558145,368.45,894,760,0
1558155,366.13,894,765,0
1558165,362.06,894,760,0
1558175,357.29,894,765,0
1558185,352.91,894,761,0
1558195,349.47,894,764,0
1558205,347.40,894,760,0
1558215,346.51,894,764,0
1558225,346.74,894,761,0
1558235,347.80,894,764,0
1558245,349.36,894,760,0
1558255,351.35,894,764,0
1558265,353.91,894,760,0
1558275,356.63,894,764,0
1558285,359.40,894,760,0
1558295,361.94,894,764,0
1558305,364.31,894,760,0
1558316,366.28,894,764,0
1558326,368.04,894,761,0
1558336,369.57,894,764,0
1558346,371.46,894,761,0
1558356,374.36,894,763,0
1558366,379.10,894,760,0
1558376,386.52,894,764,0
1558386,397.08,894,761,0
1558396,410.81,894,763,0
1558415,427.80,893,770,0
1558418,455.20,893,772,0
1558427,489.13,893,772,0
1558437,525.65,893,773,0
1558447,559.27,893,771,0
1558457,584.99,893,773,0
1558467,602.39,893,772,0
1558477,613.16,893,775,0
1558487,610.03,893,774,0
1558497,595.02,893,775,0
1558507,571.31,893,775,0
1558517,543.32,893,776,0
1558528,516.57,893,776,0
1558537,492.14,893,776,0
1558547,469.17,893,776,0
1558557,447.22,893,776,0
1558567,428.47,893,776,0
1558577,413.28,893,776,0
1558587,402.44,893,776,0
1558597,395.02,893,776,0
1558607,390.64,893,776,0
1558617,388.01,893,776,0
1558627,387.62,893,777,0
1558637,387.31,893,775,0
1558647,384.21,893,773,0
1558657,379.14,893,773,0
1558667,376.65,893,773,0
1558677,376.54,893,774,0
1558687,378.69,893,773,0
1558697,381.74,893,775,0
1558707,390.31,893,776,0
1558717,405.47,893,777,0
1558727,423.72,893,777,0
1558737,439.02,893,777,0
1558747,449.94,893,777,0
1558757,455.83,893,777,0
1558767,456.99,893,776,0
1558777,447.57,893,776,0
1558787,437.20,893,778,0
1558797,426.72,893,779,0
1558807,416.44,893,779,0
1558817,406.06,893,778,0
1558828,396.66,893,779,0
1558838,388.40,893,778,0
1558848,384.47,893,779,0
1558858,376.66,893,777,0
1558868,367.12,893,780,0
1558878,357.18,893,778,0
1558888,348.64,893,779,0
1558898,341.59,893,777,0
1558908,337.34,893,780,0
1558918,334.80,893,778,0
1558928,334.43,893,779,0
1558938,335.03,893,777,0
1558948,336.86,893,779,0
1558958,339.60,893,778,0
1558968,343.49,893,779,0
1558978,347.20,893,777,0
1558988,351.47,893,780,0
1558999,355.27,893,777,0
1559009,359.18,893,779,0
1559019,362.42,893,776,0
1559029,365.38,893,779,0
1559040,367.45,893,775,0
1559049,369.33,893,779,0
1559059,370.30,893,776,0
1559069,371.07,893,780,0
1559079,371.35,893,775,0
1559089,371.67,893,779,0
1559099,371.39,893,776,0
1559109,371.01,893,780,0
1559119,369.89,893,775,0
1559129,369.07,893,779,0
1559139,368.32,893,776,0
1559149,367.88,893,779,0
1559159,367.27,893,775,0
1559169,367.06,893,779,0
1559179,366.96,893,776,0
1559189,367.79,893,780,0
1559199,368.58,893,775,0
1559209,369.35,893,779,0
1559219,369.76,893,775,0
1559229,370.60,893,780,0
1559239,371.45,893,775,0
1559249,372.73,893,779,0
1559259,374.14,893,776,0
1559269,376.67,893,780,0
1559279,380.71,893,775,0
1559289,387.44,893,779,0
1559299,396.69,893,776,0
1559309,409.60,893,779,0
1559328,426.01,913,778,0
1559331,446.62,913,779,0
1559340,470.35,913,774,0
1559350,496.47,913,779,0
1559360,523.03,913,774,0
1559370,548.95,913,779,0
1559380,572.15,913,774,0
1559390,591.86,913,779,0
1559400,606.22,913,774,0
1559410,615.24,913,779,0
1559420,618.55,913,774,0
1559430,617.06,913,779,0
1559440,611.17,913,774,0
1559450,602.16,913,779,0
1559460,590.50,913,774,0
1559470,577.58,913,779,0
1559480,563.90,913,774,0
1559490,550.56,913,779,0
1559500,537.41,913,774,0
1559511,525.07,913,779,0
1559521,513.14,913,774,0
1559531,501.99,913,779,0
1559541,491.20,913,774,0
1559552,480.89,913,779,0
1559561,470.68,913,774,0
1559571,460.79,913,779,0
1559581,451.17,913,773,0
1559591,442.33,913,779,0
1559601,434.00,913,774,0
1559611,426.93,913,779,0
1559621,421.17,913,774,0
1559631,416.70,913,779,0
1559641,413.58,913,774,0
1559651,411.99,913,779,0
1559661,411.69,913,773,0
1559671,412.69,913,779,0
1559681,414.11,913,773,0
1559691,415.62,913,779,0
1559701,416.93,913,773,0
1559711,418.15,913,779,0
1559721,418.54,913,774,0
1559731,417.95,913,779,0
1559741,416.16,913,773,0
1559751,413.41,913,779,0
1559761,410.42,913,774,0
1559771,407.46,913,779,0
1559781,404.11,913,774,0
1559791,400.65,913,780,0
1559801,396.98,913,774,0
1559811,393.56,913,780,0
1559821,390.31,913,774,0
1559831,386.66,913,779,0
1559841,382.43,913,774,0
1559852,377.72,913,779,0
1559862,373.56,913,774,0
1559872,370.13,913,779,0
1559882,367.82,913,775,0
1559892,366.20,913,779,0
1559902,365.50,913,774,0
1559912,366.21,913,779,0
1559922,368.55,913,775,0
1559932,371.04,913,779,0
1559942,374.28,913,774,0
1559952,377.28,913,779,0
1559962,380.11,913,775,0
1559972,382.74,913,779,0
1559982,384.49,913,774,0
1559992,385.16,913,779,0
1560002,385.15,913,775,0
1560012,384.12,913,779,0
1560023,382.50,913,775,0
1560033,381.49,913,779,0
1560043,380.74,913,776,0
1560053,380.44,913,779,0
1560064,380.90,913,777,0
1560073,382.05,913,779,0
1560083,383.75,913,776,0
1560093,385.54,913,779,0
1560103,386.88,913,777,0
1560113,387.68,913,779,0
1560123,388.21,913,776,0
1560133,388.06,913,779,0
1560143,387.78,913,777,0
1560153,387.38,913,779,0
1560163,387.78,913,776,0
1560173,389.13,913,779,0
1560183,392.48,913,777,0
1560193,398.21,913,778,0
1560203,407.96,913,775,0
1560213,422.07,913,779,0
1560232,441.46,904,778,0
1560236,465.45,904,777,0
1560244,493.22,904,777,0
1560254,523.19,904,779,0
1560264,554.38,904,778,0
1560274,583.84,904,779,0
1560284,610.50,904,777,0
1560294,632.04,904,779,0
1560304,647.75,904,778,0
1560314,657.30,904,778,0
1560324,660.59,904,777,0
1560334,657.55,904,779,0
1560344,650.22,904,778,0
1560354,638.41,904,778,0
1560364,623.76,904,777,0
1560374,606.99,904,779,0
1560384,589.68,904,779,0
1560394,572.42,904,779,0
1560404,556.22,904,779,0
1560414,540.34,904,779,0
1560424,525.62,904,779,0
1560434,511.68,904,779,0
1560444,498.62,904,779,0
1560454,485.15,904,779,0
1560464,472.07,904,778,0
1560474,458.90,904,779,0
1560484,446.63,904,779,0
1560494,435.21,904,779,0
1560504,425.29,904,778,0
1560514,417.79,904,778,0
1560524,413.61,904,778,0
1560535,411.80,904,778,0
1560545,413.19,904,778,0
1560555,416.17,904,777,0
1560565,420.58,904,778,0
1560576,425.55,904,777,0
1560585,430.31,904,778,0
1560595,434.03,904,777,0
1560605,436.89,904,778,0
1560615,437.70,904,777,0
1560625,431.27,904,765,0
1560635,419.02,904,772,0
1560645,410.79,904,775,0
1560655,406.74,904,774,0
1560665,406.39,904,776,0
1560675,408.46,904,775,0
1560685,412.18,904,776,0
1560695,422.19,904,774,0
1560705,436.88,904,776,0
1560715,445.92,904,774,0
1560725,449.11,904,776,0
1560735,446.64,904,774,0
1560745,439.50,904,774,0
1560755,424.65,904,771,0
1560765,407.61,904,772,0
1560775,391.53,904,770,0
1560785,378.60,904,773,0
1560795,368.82,904,771,0
1560805,364.12,904,773,0
1560815,363.74,904,770,0
1560825,370.67,904,773,0
1560835,381.49,904,772,0
1560845,393.00,904,773,0
1560855,402.34,904,771,0
1560865,409.65,904,773,0
1560876,413.06,904,771,0
1560886,413.94,904,773,0
1560896,412.59,904,767,0
1560906,409.24,904,773,0
1560916,404.88,904,769,0
1560926,400.46,904,773,0
1560936,393.89,904,767,0
1560946,388.14,904,773,0
1560956,384.07,904,769,0
1560966,383.02,904,774,0
1560976,383.61,904,770,0
1560986,384.54,904,774,0
1560996,385.24,904,770,0
1561006,387.70,904,774,0
1561016,389.03,904,770,0
1561026,388.59,904,774,0
1561036,386.10,904,770,0
1561047,382.73,904,774,0
1561057,379.55,904,769,0
1561067,378.61,904,773,0
1561077,381.34,904,768,0
1561088,390.50,904,774,0
1561097,406.16,904,769,0
1561107,428.70,904,774,0
1561117,456.69,904,768,0
1561127,490.30,904,773,0
1561146,527.75,914,772,0
1561149,566.61,914,775,0
1561158,603.41,914,769,0
1561168,636.72,914,775,0
1561178,665.52,914,770,0
1561188,689.92,914,775,0
1561198,706.79,914,770,0
1561208,716.36,914,776,0
1561218,718.36,914,770,0
1561228,713.41,914,775,0
1561238,701.84,914,770,0
1561248,685.26,914,776,0
1561259,664.01,914,770,0
1561268,639.66,914,775,0
1561278,613.45,914,769,0
1561288,587.60,914,775,0
1561298,563.72,914,769,0
1561308,541.95,914,775,0
1561318,522.29,914,770,0
1561328,505.23,914,775,0
1561338,491.58,914,770,0
1561348,480.52,914,776,0
1561358,471.23,914,770,0
1561368,462.81,914,776,0
1561378,455.58,914,770,0
1561388,448.76,914,776,0
1561398,441.85,914,770,0
1561408,435.38,914,776,0
1561418,429.61,914,770,0
1561428,424.37,914,776,0
1561438,419.72,914,770,0
1561448,415.00,914,774,0
1561458,409.39,914,768,0
1561468,406.78,914,776,0
1561478,406.63,914,770,0
1561488,407.86,914,775,0
1561498,410.00,914,769,0
1561508,413.34,914,776,0
1561518,417.91,914,770,0
1561528,423.98,914,775,0
1561538,427.16,914,770,0
1561548,427.28,914,775,0
1561559,425.53,914,770,0
1561569,421.94,914,775,0
1561579,415.91,914,770,0
1561589,407.88,914,774,0
1561600,399.86,914,771,0
1561609,391.97,914,774,0
1561619,385.47,914,771,0
1561629,380.23,914,775,0
1561639,376.64,914,772,0
1561649,374.82,914,776,0
1561659,374.45,914,771,0
1561669,372.94,914,775,0
1561679,369.87,914,770,0
1561689,365.75,914,774,0
1561699,361.33,914,770,0
1561709,357.20,914,774,0
1561719,353.84,914,771,0
1561729,352.69,914,776,0
1561739,355.01,914,771,0
1561749,360.58,914,776,0
1561759,367.13,914,772,0
1561769,373.18,914,776,0
1561779,377.88,914,771,0
1561789,380.83,914,776,0
1561799,381.14,914,772,0
1561809,378.83,914,776,0
1561819,375.15,914,772,0
1561829,370.99,914,776,0
1561839,367.18,914,772,0
1561849,363.95,914,776,0
1561859,361.52,914,772,0
1561869,359.91,914,776,0
1561879,358.82,914,773,0
1561889,358.06,914,776,0
1561900,357.57,914,773,0
1561910,357.14,914,776,0
1561920,356.89,914,774,0
1561930,356.62,914,776,0
1561940,356.82,914,774,0
1561950,357.60,914,776,0
1561960,359.99,914,774,0
1561970,364.58,914,776,0
1561980,372.76,914,774,0
1561990,385.26,914,776,0
1562000,403.61,914,774,0
1562010,428.16,914,776,0
1562030,459.35,883,775,0
1562033,496.06,883,775,0
1562042,536.07,883,776,0
1562052,576.34,883,776,0
1562062,614.85,883,776,0
1562072,649.39,883,776,0
1562082,678.68,883,777,0
1562092,700.72,883,776,0
1562102,714.22,883,777,0
1562113,719.17,883,775,0
1562123,716.97,883,777,0
1562133,708.07,883,774,0
1562143,693.48,883,776,0
1562153,673.45,883,773,0
1562163,650.08,883,776,0
1562173,625.03,883,774,0
1562183,600.64,883,776,0
1562193,576.96,883,773,0
1562203,555.33,883,776,0
1562213,535.17,883,774,0
1562223,517.25,883,776,0
1562233,500.59,883,773,0
1562243,485.50,883,777,0
1562253,470.82,883,774,0
1562263,457.29,883,776,0
1562273,444.13,883,773,0
1562284,432.05,883,776,0
1562294,420.59,883,772,0
1562304,410.77,883,776,0
1562314,402.14,883,772,0
1562324,395.50,883,776,0
1562334,390.16,883,772,0
1562344,386.81,883,775,0
1562354,385.33,883,771,0
1562364,386.30,883,776,0
1562374,389.08,883,772,0
1562384,393.56,883,776,0
1562394,398.79,883,771,0
1562404,404.64,883,777,0
1562414,409.80,883,772,0
1562424,413.98,883,776,0
1562434,415.74,883,772,0
1562444,415.22,883,776,0
1562455,412.20,883,771,0
1562465,407.38,883,776,0
1562475,400.97,883,771,0
1562485,393.95,883,777,0
1562496,386.46,883,771,0
1562505,379.68,883,776,0
1562515,373.09,883,771,0
1562525,367.49,883,776,0
1562535,362.54,883,771,0
1562545,358.65,883,776,0
1562555,355.41,883,771,0
1562565,352.93,883,776,0
1562575,350.72,883,771,0
1562585,349.39,883,776,0
1562595,348.80,883,772,0
1562605,349.38,883,777,0
1562615,349.95,883,772,0
1562625,350.69,883,777,0
1562635,351.13,883,772,0
1562645,351.65,883,777,0
1562655,351.92,883,771,0
1562665,351.69,883,777,0
1562675,350.71,883,772,0
1562685,350.20,883,777,0
1562695,350.10,883,771,0
1562705,350.75,883,777,0
1562715,351.60,883,771,0
1562725,352.96,883,776,0
1562735,354.56,883,771,0
1562745,356.45,883,777,0
1562755,357.94,883,772,0
1562765,359.20,883,776,0
1562775,360.13,883,771,0
1562785,361.07,883,777,0
1562796,361.65,883,771,0
1562806,362.23,883,776,0
1562816,362.50,883,771,0
1562826,362.78,883,777,0
1562836,362.89,883,771,0
1562846,362.97,883,776,0
1562856,363.19,883,771,0
1562866,364.12,883,777,0
1562876,366.53,883,771,0
1562886,371.34,883,777,0
1562905,379.81,876,776,0
1562908,393.88,876,777,0
1562917,414.36,876,773,0
1562927,441.04,876,776,0
1562937,473.51,876,772,0
1562947,510.39,876,777,0
1562957,549.96,876,773,0
1562967,589.44,876,777,0
1562977,625.91,876,772,0
1562987,657.01,876,777,0
1562997,681.18,876,773,0
1563008,697.11,876,777,0
1563017,704.36,876,772,0
1563027,703.10,876,777,0
1563037,694.28,876,773,0
1563047,678.60,876,777,0
1563057,657.80,876,772,0
1563067,633.56,876,777,0
1563077,607.55,876,773,0
1563087,581.16,876,777,0
1563097,555.74,876,772,0
1563107,532.20,876,777,0
1563117,511.14,876,773,0
1563127,492.46,876,776,0
1563137,476.08,876,772,0
1563147,461.65,876,777,0
1563157,449.29,876,773,0
1563167,437.89,876,777,0
1563177,427.03,876,774,0
1563187,416.57,876,777,0
1563197,406.54,876,773,0
1563207,397.25,876,777,0
1563217,389.12,876,774,0
1563227,381.84,876,777,0
1563237,376.40,876,773,0
1563247,372.98,876,777,0
1563257,371.92,876,774,0
1563267,372.80,876,777,0
1563277,375.26,876,773,0
1563287,378.57,876,777,0
1563297,382.21,876,774,0
1563308,385.53,876,777,0
1563318,388.33,876,775,0
1563328,390.03,876,777,0
1563338,390.79,876,775,0
1563348,390.21,876,777,0
1563358,388.73,876,775,0
1563368,386.16,876,777,0
1563378,382.81,876,775,0
1563388,378.75,876,777,0
1563398,374.54,876,775,0
1563408,370.22,876,777,0
1563418,366.00,876,775,0
1563428,361.50,876,777,0
1563438,357.83,876,775,0
1563448,354.54,876,777,0
1563458,351.89,876,775,0
1563468,349.48,876,777,0
1563479,347.45,876,776,0
1563489,345.94,876,777,0
1563499,345.32,876,776,0
1563509,344.62,876,777,0
1563520,344.56,876,777,0
1563529,344.87,876,777,0
1563539,345.89,876,776,0
1563549,347.04,876,777,0
1563559,348.53,876,777,0
1563569,349.87,876,777,0
1563579,351.41,876,776,0
1563589,352.57,876,777,0
1563599,353.56,876,777,0
1563609,353.78,876,777,0
1563619,353.93,876,776,0
1563629,353.69,876,777,0
1563639,353.66,876,777,0
1563649,353.55,876,777,0
1563659,353.94,876,776,0
1563669,354.39,876,777,0
1563679,355.38,876,777,0
1563689,356.25,876,776,0
1563699,357.25,876,776,0
1563709,357.77,876,777,0
1563719,358.49,876,777,0
1563729,358.81,876,776,0
1563739,359.90,876,776,0
1563749,361.73,876,777,0
1563759,365.92,876,777,0
1563769,373.02,876,776,0
1563788,385.96,883,778,0
1563791,405.47,883,777,0
1563800,431.26,883,780,0
1563810,460.97,883,777,0
1563820,493.59,883,780,0
1563830,526.54,883,779,0
1563840,558.52,883,780,0
1563850,585.67,883,778,0
1563860,606.17,883,780,0
1563870,619.44,883,779,0
1563880,626.30,883,780,0
1563890,626.51,883,778,0
1563900,621.30,883,780,0
1563910,610.84,883,779,0
1563920,596.61,883,780,0
1563930,578.86,883,778,0
1563940,559.36,883,780,0
1563950,538.81,883,779,0
1563960,518.94,883,780,0
1563970,499.93,883,778,0
1563980,482.81,883,780,0
1563991,467.31,883,777,0
1564001,454.32,883,780,0
1564011,442.91,883,776,0
1564021,433.42,883,780,0
1564032,424.85,883,776,0
1564041,417.57,883,780,0
1564051,410.71,883,776,0
1564061,404.63,883,780,0
1564071,398.78,883,776,0
1564081,393.70,883,780,0
1564091,389.08,883,776,0
1564101,385.71,883,780,0
1564111,383.18,883,776,0
1564121,382.66,883,781,0
1564131,383.23,883,777,0
1564141,385.22,883,781,0
1564151,387.81,883,776,0
1564161,391.21,883,781,0
1564171,394.40,883,777,0
1564181,397.41,883,781,0
1564191,398.96,883,776,0
1564201,399.74,883,781,0
1564211,399.05,883,777,0
1564221,397.53,883,781,0
1564231,394.59,883,776,0
1564241,391.03,883,781,0
1564251,386.56,883,777,0
1564261,381.94,883,781,0
1564271,376.73,883,776,0
1564281,371.79,883,781,0
1564291,366.88,883,777,0
1564301,362.76,883,781,0
1564311,358.89,883,776,0
1564321,356.05,883,781,0
1564332,353.59,883,776,0
1564342,352.13,883,781,0
1564352,351.06,883,776,0
1564362,350.70,883,781,0
1564372,350.49,883,775,0
1564382,350.99,883,781,0
1564392,351.38,883,776,0
1564402,352.21,883,781,0
1564412,352.74,883,776,0
1564422,353.38,883,781,0
1564432,353.44,883,776,0
1564442,353.31,883,781,0
1564452,352.44,883,776,0
1564462,351.41,883,781,0
1564472,349.83,883,776,0
1564482,348.29,883,781,0
1564492,346.75,883,776,0
1564503,345.88,883,781,0
1564513,345.53,883,775,0
1564523,346.10,883,781,0
1564533,347.23,883,776,0
1564544,349.13,883,781,0
1564553,351.49,883,775,0
1564563,354.13,883,781,0
1564573,356.58,883,776,0
1564583,358.85,883,781,0
1564593,360.65,883,775,0
1564603,362.43,883,781,0
1564613,364.36,883,776,0
1564623,367.12,883,781,0
1564633,371.24,883,775,0
1564643,378.03,883,781,0
1564662,388.30,874,780,0
1564665,403.21,874,781,0
1564674,422.69,874,776,0
1564684,446.44,874,781,0
1564694,473.52,874,776,0
1564704,502.72,874,781,0
1564715,532.12,874,777,0
1564724,559.86,874,781,0
1564734,583.94,874,776,0
1564744,602.95,874,781,0
1564754,616.08,874,777,0
1564764,622.91,874,781,0
1564774,623.58,874,776,0
1564784,618.39,874,781,0
1564794,608.03,874,777,0
1564804,593.75,874,781,0
1564814,576.90,874,776,0
1564824,558.67,874,781,0
1564834,540.21,874,777,0
1564844,522.53,874,781,0
1564854,506.17,874,776,0
1564864,491.64,874,781,0
1564874,478.89,874,777,0
1564884,467.78,874,781,0
1564894,458.12,874,777,0
1564904,449.47,874,781,0
1564914,441.53,874,777,0
1564924,434.13,874,781,0
1564934,427.19,874,777,0
1564944,420.36,874,781,0
1564954,413.87,874,777,0
1564964,407.78,874,781,0
1564974,402.40,874,777,0
1564984,398.00,874,781,0
1564994,394.83,874,777,0
1565004,392.99,874,780,0
1565015,392.69,874,778,0
1565025,393.64,874,781,0
1565035,395.64,874,779,0
1565045,398.06,874,781,0
1565056,400.57,874,779,0
1565065,402.71,874,781,0
1565075,404.17,874,779,0
1565085,404.59,874,781,0
1565095,404.07,874,780,0
1565105,402.55,874,781,0
1565115,400.50,874,779,0
1565125,397.78,874,781,0
1565135,394.97,874,779,0
1565145,391.94,874,781,0
1565155,389.00,874,779,0
1565165,385.96,874,781,0
1565175,383.06,874,779,0
1565185,380.04,874,781,0
1565195,377.20,874,779,0
1565205,374.22,874,781,0
1565215,371.59,874,780,0
1565225,369.05,874,781,0
1565235,367.07,874,779,0
1565245,365.42,874,781,0
1565255,364.56,874,780,0
1565265,364.22,874,781,0
1565275,364.76,874,779,0
1565285,365.73,874,781,0
1565295,367.52,874,779,0
1565305,369.64,874,781,0
1565315,372.28,874,779,0
1565325,374.85,874,781,0
1565335,377.55,874,779,0
1565345,379.74,874,781,0
1565356,381.75,874,780,0
1565366,382.94,874,781,0
1565376,383.77,874,781,0
1565386,383.75,874,780,0
1565396,383.49,874,781,0
1565406,382.74,874,781,0
1565416,382.05,874,781,0
1565426,381.00,874,781,0
1565436,380.15,874,781,0
1565446,378.86,874,781,0
1565456,377.66,874,781,0
1565466,376.00,874,780,0
1565476,374.37,874,781,0
1565486,372.63,874,781,0
1565496,371.54,874,781,0
1565506,371.17,874,781,0
1565516,372.87,874,781,0
1565527,376.98,874,780,0
1565537,384.83,874,781,0
1565547,396.50,874,779,0
1565557,412.85,874,781,0
1565577,433.25,914,780,0
1565580,457.90,914,782,0
1565589,485.06,914,776,0
1565599,513.54,914,781,0
1565609,541.11,914,776,0
1565619,566.79,914,781,0
1565629,588.41,914,776,0
1565639,605.56,914,781,0
1565649,616.75,914,776,0
1565659,622.57,914,781,0
1565669,622.87,914,776,0
1565679,618.96,914,781,0
1565689,611.13,914,776,0
1565699,601.06,914,781,0
1565709,589.00,914,776,0
1565719,576.44,914,781,0
1565729,563.45,914,776,0
1565740,551.23,914,781,0
1565750,539.29,914,776,0
1565760,528.28,914,781,0
1565770,517.74,914,775,0
1565780,508.04,914,781,0
1565790,498.69,914,776,0
1565800,490.04,914,781,0
1565810,481.50,914,775,0
1565820,473.55,914,781,0
1565830,465.76,914,776,0
1565840,458.46,914,781,0
1565850,451.55,914,775,0
1565860,445.38,914,781,0
1565870,439.70,914,776,0
1565880,434.95,914,781,0
1565890,430.93,914,775,0
1565900,427.87,914,781,0
1565911,425.38,914,775,0
1565921,423.68,914,781,0
1565931,422.40,914,775,0
1565941,421.64,914,781,0
1565952,421.19,914,776,0
1565961,421.05,914,781,0
1565971,420.91,914,775,0
1565981,420.72,914,780,0
1565991,420.16,914,776,0
1566001,419.43,914,781,0
1566011,418.27,914,775,0
1566021,416.69,914,780,0
1566031,414.68,914,776,0
1566041,412.51,914,781,0
1566051,410.21,914,775,0
1566061,407.96,914,780,0
1566071,405.66,914,776,0
1566081,403.53,914,781,0
1566091,401.57,914,775,0
1566101,400.12,914,781,0
1566111,399.01,914,776,0
1566121,398.45,914,781,0
1566131,398.23,914,775,0
1566141,398.42,914,781,0
1566151,398.81,914,776,0
1566161,399.34,914,781,0
1566171,399.62,914,776,0
1566181,399.56,914,781,0
1566191,398.92,914,776,0
1566201,397.96,914,781,0
1566211,396.56,914,775,0
1566221,394.89,914,781,0
1566231,392.82,914,776,0
1566241,390.39,914,781,0
1566252,387.92,914,777,0
1566262,385.50,914,781,0
1566272,383.21,914,777,0
1566282,381.04,914,781,0
1566292,379.23,914,778,0
1566302,377.88,914,781,0
1566312,377.14,914,777,0
1566322,376.88,914,781,0
1566332,377.18,914,778,0
1566342,377.85,914,781,0
1566352,378.88,914,777,0
1566362,379.82,914,781,0
1566372,380.77,914,778,0
1566382,381.65,914,781,0
1566392,382.57,914,777,0
1566402,383.52,914,781,0
1566412,384.95,914,778,0
1566423,387.36,914,781,0
1566433,391.75,914,779,0
1566443,398.30,914,781,0
1566453,407.60,914,779,0
1566464,419.76,914,781,0
1566473,435.00,914,779,0
1566492,452.62,916,778,0
1566495,472.15,916,781,0
1566504,492.03,916,780,0
1566514,511.35,916,780,0
1566524,528.56,916,781,0
1566534,543.13,916,780,0
1566544,553.89,916,780,0
1566554,561.04,916,780,0
1566564,563.86,916,781,0
1566574,563.04,916,780,0
1566584,558.79,916,780,0
1566594,552.21,916,780,0
1566604,543.40,916,781,0
1566614,533.60,916,780,0
1566624,522.66,916,780,0
1566635,511.71,916,781,0
1566644,500.69,916,781,0
1566654,490.37,916,780,0
1566664,480.36,916,780,0
1566674,471.21,916,781,0
1566684,462.45,916,781,0
1566694,454.64,916,780,0
1566704,447.29,916,780,0
1566714,440.95,916,781,0
1566724,435.18,916,781,0
1566734,430.62,916,780,0
1566744,426.67,916,780,0
1566754,423.72,916,780,0
1566764,421.32,916,781,0
1566774,419.94,916,780,0
1566784,418.93,916,780,0
1566794,418.65,916,780,0
1566804,418.54,916,780,0
1566814,419.06,916,780,0
1566824,419.60,916,780,0
1566834,420.32,916,781,0
1566844,420.57,916,780,0
1566854,420.74,916,780,0
1566864,420.22,916,780,0
1566874,419.38,916,780,0
1566884,417.72,916,780,0
1566894,415.88,916,780,0
1566904,413.51,916,780,0
1566914,411.13,916,780,0
1566924,408.18,916,780,0
1566935,405.42,916,781,0
1566945,402.30,916,779,0
1566955,399.51,916,781,0
1566965,396.44,916,779,0
1566976,393.82,916,781,0
1566985,391.35,916,779,0
1566995,389.70,916,781,0
1567005,388.20,916,778,0
1567015,387.41,916,781,0
1567025,386.60,916,779,0
1567035,386.38,916,781,0
1567045,385.88,916,779,0
1567055,385.49,916,781,0
1567065,384.61,916,779,0
1567075,383.87,916,781,0
1567085,382.71,916,779,0
1567095,381.85,916,781,0
1567105,380.70,916,779,0
1567115,380.06,916,781,0
1567125,379.23,916,779,0
1567135,378.90,916,781,0
1567145,378.33,916,777,0
1567155,378.23,916,781,0
1567165,377.91,916,779,0
1567175,377.98,916,781,0
1567185,377.77,916,777,0
1567195,378.01,916,781,0
1567205,377.92,916,779,0
1567215,378.24,916,781,0
1567225,378.21,916,778,0
1567235,378.45,916,781,0
1567245,378.27,916,779,0
1567255,378.32,916,781,0
1567265,378.01,916,778,0
1567276,378.05,916,781,0
1567286,377.91,916,777,0
1567296,378.41,916,781,0
1567306,379.27,916,776,0
1567316,381.55,916,781,0
1567326,384.90,916,777,0
1567336,390.37,916,781,0
1567346,397.63,916,776,0
1567366,407.56,873,775,0
1567369,419.95,873,776,0
1567378,434.83,873,781,0
1567388,450.91,873,775,0
1567398,467.78,873,781,0
1567408,483.96,873,775,0
1567418,499.06,873,781,0
1567428,511.64,873,775,0
1567438,521.18,873,781,0
1567448,527.17,873,775,0
1567458,530.12,873,781,0
1567468,529.82,873,775,0
1567478,526.96,873,781,0
1567489,521.75,873,775,0
1567499,515.09,873,781,0
1567509,507.27,873,775,0
1567519,498.91,873,781,0
1567529,490.41,873,776,0
1567539,482.36,873,781,0
1567549,474.88,873,775,0
1567559,468.23,873,781,0
1567569,462.20,873,776,0
1567579,456.83,873,781,0
1567589,451.95,873,775,0
1567599,447.34,873,781,0
1567609,442.91,873,775,0
1567619,438.44,873,781,0
1567629,433.63,873,775,0
1567639,428.90,873,781,0
1567649,424.30,873,776,0
1567660,419.84,873,781,0
1567670,415.69,873,777,0
1567680,412.10,873,781,0
1567690,409.37,873,777,0
1567700,407.63,873,781,0
1567710,406.54,873,777,0
1567720,406.34,873,781,0
1567730,407.09,873,777,0
1567740,408.48,873,781,0
1567750,410.52,873,777,0
1567760,412.98,873,781,0
1567770,415.77,873,777,0
1567780,418.80,873,781,0
1567790,421.77,873,777,0
1567800,424.20,873,781,0
1567810,426.28,873,777,0
1567820,427.48,873,781,0
1567831,427.81,873,778,0
1567841,427.27,873,780,0
1567851,426.03,873,779,0
1567861,423.62,873,781,0
1567872,420.82,873,780,0
1567881,417.23,873,781,0
1567891,413.35,873,779,0
1567901,409.34,873,781,0
1567911,405.30,873,780,0
1567921,401.18,873,781,0
1567931,397.57,873,779,0
1567941,393.84,873,781,0
1567951,390.85,873,780,0
1567961,388.15,873,781,0
1567971,386.00,873,779,0
1567981,384.46,873,781,0
1567991,383.85,873,779,0
1568001,384.02,873,781,0
1568011,385.30,873,779,0
1568021,386.88,873,781,0
1568031,389.32,873,780,0
1568041,391.62,873,781,0
1568051,394.05,873,779,0
1568061,395.96,873,781,0
1568071,397.35,873,780,0
1568081,397.76,873,780,0
1568091,397.74,873,779,0
1568101,396.49,873,781,0
1568111,395.10,873,780,0
1568121,392.89,873,780,0
1568131,390.61,873,779,0
1568141,388.58,873,781,0
1568151,387.59,873,779,0
1568161,387.80,873,780,0
1568172,390.52,873,780,0
1568182,395.42,873,780,0
1568192,403.39,873,780,0
1568202,413.86,873,779,0
1568212,426.85,873,781,0
1568222,441.16,873,780,0
1568232,456.59,873,780,0
1568251,471.58,886,779,0
1568254,485.76,886,781,0
1568263,498.26,886,779,0
1568273,508.60,886,781,0
1568283,515.88,886,778,0
1568293,520.76,886,781,0
1568303,522.42,886,779,0
1568313,521.90,886,780,0
1568323,519.10,886,778,0
1568333,514.44,886,781,0
1568343,508.35,886,778,0
1568353,501.82,886,781,0
1568363,494.50,886,778,0
1568373,487.41,886,781,0
1568384,479.91,886,777,0
1568393,472.65,886,781,0
1568403,465.52,886,778,0
1568413,459.10,886,781,0
1568423,452.43,886,777,0
1568433,446.52,886,781,0
1568443,440.53,886,778,0
