Time,PPG,IBI,GSR,GSR_Event
2272250,432.27,733,773,0
2272260,429.15,733,774,0
2272270,426.79,733,773,0
2272280,425.95,733,773,0
2272290,427.81,733,773,0
2272300,431.68,733,774,0
2272310,437.69,733,773,0
2272320,447.17,733,774,0
2272330,459.59,733,774,0
2272340,469.61,733,774,0
2272350,476.41,733,774,0
2272360,478.65,733,774,0
2272370,477.30,733,774,0
2272380,472.19,733,774,0
2272390,464.16,733,774,0
2272400,453.31,733,774,0
2272410,441.69,733,774,0
2272420,429.78,733,774,0
2272430,418.92,733,774,0
2272440,409.00,733,775,0
2272450,401.07,733,774,0
2272460,394.92,733,774,0
2272471,391.05,733,774,0
2272481,388.89,733,774,0
2272491,388.79,733,775,0
2272501,389.84,733,774,0
2272512,392.33,733,775,0
2272521,395.28,733,774,0
2272531,398.92,733,774,0
2272541,402.46,733,774,0
2272551,406.35,733,775,0
2272561,409.67,733,774,0
2272571,413.07,733,775,0
2272581,415.79,733,774,0
2272591,418.43,733,775,0
2272601,420.48,733,774,0
2272611,422.35,733,775,0
2272621,423.28,733,774,0
2272631,423.92,733,775,0
2272641,423.82,733,774,0
2272651,423.57,733,775,0
2272661,422.54,733,774,0
2272671,421.35,733,775,0
2272681,419.66,733,773,0
2272691,418.22,733,775,0
2272701,416.48,733,774,0
2272711,415.05,733,775,0
2272721,413.32,733,773,0
2272731,412.20,733,775,0
2272741,411.02,733,774,0
2272751,410.46,733,775,0
2272761,409.94,733,773,0
2272771,410.04,733,775,0
2272781,410.20,733,774,0
2272791,411.34,733,775,0
2272801,412.52,733,773,0
2272812,414.34,733,775,0
2272822,415.91,733,773,0
2272832,417.86,733,775,0
2272842,419.75,733,772,0
2272852,421.62,733,775,0
2272862,422.59,733,773,0
2272872,423.36,733,775,0
2272882,423.47,733,772,0
2272892,423.75,733,775,0
2272902,423.36,733,774,0
2272912,422.91,733,775,0
2272922,422.03,733,773,0
2272932,421.51,733,775,0
2272942,420.63,733,773,0
2272952,419.97,733,775,0
2272962,418.99,733,773,0
2272972,418.35,733,775,0
2272983,417.43,733,772,0
2272993,417.09,733,775,0
2273003,416.63,733,772,0
2273013,416.96,733,775,0
2273024,417.31,733,771,0
2273033,418.16,733,775,0
2273043,418.84,733,772,0
2273053,419.92,733,775,0
2273063,420.67,733,771,0
2273073,421.67,733,775,0
2273083,422.24,733,772,0
2273093,422.98,733,776,0
2273103,423.16,733,772,0
2273113,423.33,733,776,0
2273123,422.63,733,772,0
2273133,421.75,733,776,0
2273143,420.07,733,772,0
2273153,418.25,733,776,0
2273163,415.86,733,773,0
2273173,413.72,733,776,0
2273183,411.57,733,772,0
2273193,410.37,733,776,0
2273203,409.58,733,773,0
2273213,409.79,733,776,0
2273223,410.19,733,772,0
2273233,411.42,733,776,0
2273243,412.97,733,773,0
2273253,415.12,733,776,0
2273263,417.01,733,772,0
2273273,419.02,733,776,0
2273283,420.69,733,773,0
2273293,422.54,733,776,0
2273303,423.83,733,772,0
2273313,425.00,733,776,0
2273324,425.60,733,772,0
2273334,426.28,733,776,0
2273344,426.54,733,772,0
2273354,426.85,733,776,0
2273364,426.85,733,772,0
2273374,426.98,733,776,0
2273384,426.82,733,772,0
2273394,426.83,733,776,0
2273404,426.49,733,772,0
2273414,426.39,733,776,0
2273424,425.93,733,772,0
2273434,425.56,733,776,0
2273444,425.05,733,772,0
2273454,424.78,733,776,0
2273464,424.33,733,772,0
2273474,424.27,733,776,0
2273484,424.02,733,772,0
2273495,423.93,733,776,0
2273505,423.52,733,771,0
2273515,423.15,733,776,0
2273525,422.51,733,772,0
2273536,421.88,733,776,0
2273545,420.93,733,772,0
2273555,420.01,733,776,0
2273565,419.02,733,772,0
2273575,418.33,733,776,0
2273585,417.63,733,772,0
2273595,417.23,733,776,0
2273605,416.94,733,772,0
2273615,416.96,733,776,0
2273625,417.06,733,772,0
2273635,417.47,733,776,0
2273645,417.97,733,772,0
2273655,418.62,733,776,0
2273665,419.21,733,772,0
2273675,419.87,733,776,0
2273685,420.51,733,772,0
2273695,421.39,733,776,0
2273705,422.30,733,772,0
2273715,423.41,733,776,0
2273725,424.62,733,772,0
2273735,426.06,733,776,0
2273745,427.50,733,772,0
2273755,429.06,733,776,0
2273765,430.46,733,772,0
2273775,431.82,733,776,0
2273785,432.95,733,772,0
2273795,434.12,733,776,0
2273805,434.90,733,772,0
2273815,435.44,733,776,0
2273825,435.61,733,772,0
2273836,435.73,733,776,0
2273846,435.55,733,772,0
2273865,435.13,0,772,0
2273868,435.43,0,776,0
2273878,435.47,0,778,0
2273887,434.30,0,774,0
2273897,431.64,0,777,0
2273907,427.33,0,774,0
2273917,421.66,0,777,0
2273927,415.12,0,774,0
2273937,406.86,0,777,0
2273947,398.71,0,774,0
2273957,391.90,0,777,0
2273967,387.00,0,774,0
2273977,384.30,0,777,0
2273987,383.87,0,774,0
2273997,385.36,0,777,0
2274007,388.51,0,774,0
2274017,392.94,0,778,0
2274027,398.32,0,774,0
2274037,404.31,0,777,0
2274048,410.56,0,775,0
2274057,416.69,0,777,0
2274067,422.53,0,774,0
2274077,427.77,0,777,0
2274087,432.12,0,774,0
2274097,435.64,0,777,0
2274107,438.49,0,774,0
2274117,440.75,0,777,0
2274127,442.54,0,775,0
2274137,443.79,0,777,0
2274147,444.71,0,774,0
2274157,445.31,0,777,0
2274167,445.52,0,774,0
2274177,445.11,0,777,0
2274187,444.05,0,774,0
2274197,442.45,0,777,0
2274207,440.43,0,775,0
2274217,438.07,0,777,0
2274227,435.52,0,774,0
2274237,433.05,0,777,0
2274247,430.76,0,775,0
2274257,428.73,0,777,0
2274267,427.01,0,774,0
2274277,425.68,0,777,0
2274287,424.79,0,774,0
2274297,424.34,0,777,0
2274307,424.28,0,774,0
2274317,424.58,0,777,0
2274327,425.18,0,774,0
2274337,425.90,0,777,0
2274348,426.78,0,775,0
2274358,427.62,0,777,0
2274368,428.51,0,775,0
2274378,429.17,0,777,0
2274388,429.80,0,776,0
2274398,430.33,0,777,0
2274408,430.83,0,775,0
2274418,431.18,0,777,0
2274428,431.60,0,776,0
2274438,431.89,0,777,0
2274448,432.22,0,775,0
2274458,432.33,0,777,0
2274468,432.36,0,776,0
2274478,432.21,0,777,0
2274488,431.97,0,775,0
2274498,431.47,0,777,0
2274508,430.94,0,776,0
2274519,430.32,0,777,0
2274529,429.92,0,776,0
2274539,429.56,0,777,0
2274549,429.52,0,777,0
2274560,429.41,0,777,0
2274569,429.58,0,777,0
2274579,429.54,0,777,0
2274589,429.51,0,777,0
2274599,428.97,0,777,0
2274609,428.42,0,776,0
2274619,427.48,0,777,0
2274629,426.74,0,776,0
2274639,425.79,0,777,0
2274649,425.29,0,776,0
2274659,425.03,0,777,0
2274669,425.41,0,776,0
2274679,426.06,0,777,0
2274689,427.24,0,776,0
2274699,428.63,0,777,0
2274709,430.54,0,776,0
2274719,432.39,0,777,0
2274729,434.50,0,777,0
2274739,436.49,0,777,0
2274758,438.62,893,776,0
2274761,440.70,893,775,0
2274770,443.15,893,777,0
2274780,445.25,893,777,0
2274790,447.36,893,777,0
2274800,448.75,893,776,0
2274810,449.94,893,777,0
2274820,450.39,893,777,0
2274830,450.36,893,777,0
2274840,449.26,893,776,0
2274850,447.94,893,777,0
2274860,446.07,893,777,0
2274870,444.38,893,777,0
2274880,442.42,893,776,0
2274890,440.80,893,777,0
2274900,439.10,893,776,0
2274910,437.96,893,777,0
2274920,436.77,893,776,0
2274930,436.11,893,777,0
2274940,435.52,893,776,0
2274950,435.49,893,777,0
2274960,435.56,893,776,0
2274970,436.16,893,777,0
2274980,436.63,893,776,0
2274990,437.60,893,777,0
2275000,438.32,893,776,0
2275010,439.34,893,777,0
2275020,439.92,893,776,0
2275031,440.63,893,777,0
2275041,440.87,893,776,0
2275051,441.38,893,777,0
2275061,441.39,893,775,0
2275072,441.70,893,778,0
2275081,441.71,893,776,0
2275091,442.27,893,777,0
2275101,442.62,893,775,0
2275111,443.50,893,777,0
2275121,444.21,893,776,0
2275131,445.43,893,778,0
2275141,446.33,893,775,0
2275151,447.35,893,777,0
2275161,447.63,893,776,0
2275171,447.83,893,778,0
2275181,447.15,893,775,0
2275191,446.38,893,778,0
2275201,444.89,893,776,0
2275211,443.51,893,778,0
2275221,441.73,893,775,0
2275231,440.31,893,778,0
2275241,438.63,893,775,0
2275251,437.46,893,777,0
2275261,436.03,893,775,0
2275271,435.12,893,778,0
2275281,434.14,893,775,0
2275291,433.80,893,777,0
2275301,433.39,893,775,0
2275311,433.62,893,777,0
2275321,433.73,893,775,0
2275331,434.45,893,778,0
2275341,434.92,893,775,0
2275351,435.67,893,778,0
2275361,435.90,893,775,0
2275372,436.31,893,778,0
2275382,436.22,893,775,0
2275392,436.33,893,778,0
2275402,435.84,893,774,0
2275412,435.59,893,778,0
2275422,434.98,893,775,0
2275432,434.82,893,778,0
2275442,434.32,893,774,0
2275452,434.26,893,777,0
2275462,433.88,893,775,0
2275472,433.96,893,778,0
2275482,433.80,893,774,0
2275492,433.86,893,777,0
2275502,433.56,893,774,0
2275512,433.61,893,778,0
2275522,433.38,893,774,0
2275532,433.57,893,777,0
2275543,433.35,893,774,0
2275553,433.33,893,778,0
2275563,433.06,893,774,0
2275573,433.04,893,777,0
2275584,432.77,893,773,0
2275593,432.88,893,778,0
2275603,432.88,893,774,0
2275613,433.51,893,777,0
2275623,434.22,893,773,0
2275633,435.69,893,778,0
2275643,437.37,893,774,0
2275653,439.96,893,778,0
2275673,442.67,914,776,0
2275676,446.54,914,779,0
2275685,451.01,914,773,0
2275695,456.06,914,778,0
2275705,460.97,914,773,0
2275715,466.17,914,778,0
2275725,470.70,914,773,0
2275735,475.03,914,778,0
2275745,478.07,914,773,0
2275756,480.10,914,778,0
2275766,481.19,914,774,0
2275776,481.69,914,777,0
2275786,481.31,914,774,0
2275796,480.57,914,778,0
2275806,479.29,914,774,0
2275816,477.96,914,777,0
2275826,476.43,914,774,0
2275836,475.06,914,778,0
2275846,473.71,914,774,0
2275856,472.55,914,777,0
2275866,471.40,914,774,0
2275876,470.47,914,778,0
2275886,469.56,914,774,0
2275896,468.66,914,778,0
2275906,467.69,914,774,0
2275916,466.76,914,777,0
2275927,465.84,914,774,0
2275937,465.12,914,777,0
2275947,464.61,914,775,0
2275957,464.26,914,777,0
2275968,464.22,914,775,0
2275977,464.37,914,777,0
2275987,464.64,914,775,0
2275997,465.09,914,777,0
2276007,465.75,914,775,0
2276017,466.51,914,777,0
2276027,467.39,914,775,0
2276037,468.21,914,777,0
2276047,469.18,914,775,0
2276057,470.11,914,778,0
2276067,470.98,914,775,0
2276077,471.54,914,778,0
2276087,471.85,914,775,0
2276097,471.77,914,777,0
2276107,471.41,914,775,0
2276117,470.56,914,777,0
2276127,469.45,914,775,0
2276137,467.98,914,777,0
2276147,466.57,914,775,0
2276157,465.03,914,777,0
2276167,463.65,914,775,0
2276177,462.26,914,777,0
2276187,460.89,914,775,0
2276197,459.51,914,778,0
2276207,458.16,914,775,0
2276217,456.61,914,777,0
2276227,455.01,914,775,0
2276237,453.34,914,778,0
2276247,451.78,914,775,0
2276257,450.39,914,777,0
2276268,449.29,914,776,0
2276278,448.43,914,778,0
2276288,447.96,914,776,0
2276298,447.67,914,777,0
2276308,447.73,914,777,0
2276318,447.81,914,777,0
2276328,448.21,914,776,0
2276338,448.57,914,777,0
2276348,449.09,914,776,0
2276358,449.40,914,777,0
2276368,449.75,914,776,0
2276378,449.83,914,777,0
2276388,450.05,914,777,0
2276398,450.16,914,777,0
2276408,450.33,914,776,0
2276418,450.32,914,777,0
2276428,450.35,914,777,0
2276439,450.12,914,777,0
2276449,449.87,914,777,0
2276459,449.26,914,777,0
2276469,448.54,914,777,0
2276480,447.44,914,777,0
2276489,446.36,914,777,0
2276499,444.97,914,777,0
2276509,443.82,914,777,0
2276519,442.50,914,777,0
2276529,441.49,914,777,0
2276539,440.28,914,777,0
2276549,439.46,914,777,0
2276559,438.51,914,776,0
2276569,438.06,914,777,0
2276579,437.65,914,777,0
2276589,437.89,914,777,0
2276599,438.35,914,776,0
2276609,439.79,914,777,0
2276619,441.95,914,777,0
2276629,445.69,914,777,0
2276639,450.80,914,776,0
2276659,457.93,986,775,0
2276662,467.00,986,775,0
2276671,478.40,986,778,0
2276681,490.79,986,774,0
2276691,504.23,986,778,0
2276701,517.49,986,775,0
2276711,530.33,986,778,0
2276721,541.71,986,775,0
2276731,551.01,986,778,0
2276741,557.31,986,775,0
2276751,561.59,986,778,0
2276761,563.13,986,775,0
2276771,562.75,986,778,0
2276781,560.25,986,775,0
2276791,556.40,986,778,0
2276801,551.35,986,775,0
2276811,546.19,986,778,0
2276822,540.52,986,775,0
2276831,535.35,986,777,0
2276841,530.23,986,775,0
2276851,525.88,986,778,0
2276861,521.71,986,774,0
2276871,518.50,986,778,0
2276881,515.22,986,775,0
2276891,512.45,986,778,0
2276901,509.45,986,775,0
2276911,506.78,986,778,0
2276921,503.76,986,775,0
2276931,501.13,986,778,0
2276941,498.09,986,775,0
2276951,495.62,986,778,0
2276961,493.16,986,775,0
2276971,491.53,986,778,0
2276981,490.13,986,775,0
2276992,489.75,986,778,0
2277001,489.57,986,775,0
2277011,490.21,986,778,0
2277021,490.70,986,775,0
2277031,491.69,986,778,0
2277041,492.30,986,775,0
2277051,493.07,986,778,0
2277061,493.09,986,775,0
2277071,492.98,986,778,0
2277081,492.08,986,775,0
2277091,491.12,986,778,0
2277101,489.37,986,775,0
2277111,487.50,986,778,0
2277121,484.95,986,775,0
2277131,482.48,986,778,0
2277141,479.46,986,775,0
2277151,476.71,986,778,0
2277161,473.54,986,774,0
2277171,470.89,986,778,0
2277181,468.01,986,775,0
2277191,465.74,986,778,0
2277201,463.29,986,774,0
2277211,461.53,986,777,0
2277221,459.53,986,775,0
2277231,458.17,986,778,0
2277241,456.58,986,774,0
2277251,455.59,986,777,0
2277261,454.43,986,775,0
2277271,453.87,986,778,0
2277281,453.05,986,774,0
2277292,452.69,986,777,0
2277302,452.19,986,774,0
2277312,452.22,986,777,0
2277322,452.19,986,774,0
2277332,452.69,986,777,0
2277342,453.00,986,774,0
2277352,453.77,986,778,0
2277362,454.35,986,774,0
2277372,455.15,986,777,0
2277382,455.40,986,774,0
2277392,455.67,986,778,0
2277402,455.12,986,774,0
2277412,454.44,986,777,0
2277422,453.07,986,774,0
2277432,451.72,986,778,0
2277442,449.96,986,770,0
2277452,448.56,986,778,0
2277463,446.76,986,770,0
2277473,445.29,986,778,0
2277483,443.57,986,769,0
2277493,442.33,986,777,0
2277504,441.03,986,769,0
2277513,440.38,986,778,0
2277523,439.54,986,770,0
2277533,439.08,986,777,0
2277543,438.58,986,770,0
2277553,438.54,986,778,0
2277563,438.38,986,770,0
2277573,438.52,986,778,0
2277583,438.54,986,769,0
2277593,439.15,986,778,0
2277603,440.35,986,770,0
2277613,443.24,986,778,0
2277623,448.01,986,769,0
2277633,455.68,986,778,0
2277643,466.02,986,770,0
2277662,479.64,1004,768,0
2277665,496.93,1004,771,0
2277676,517.44,1004,778,0
2277686,539.72,1004,771,0
2277696,562.35,1004,778,0
2277706,583.84,1004,772,0
2277716,603.01,1004,778,0
2277726,618.69,1004,771,0
2277736,629.24,1004,778,0
2277746,634.61,1004,772,0
2277756,634.77,1004,778,0
2277766,630.77,1004,771,0
2277776,623.08,1004,778,0
2277786,613.07,1004,772,0
2277796,601.26,1004,778,0
2277806,589.06,1004,771,0
2277816,576.91,1004,778,0
2277826,565.84,1004,772,0
2277836,555.77,1004,778,0
2277847,547.27,1004,773,0
2277857,539.82,1004,778,0
2277867,533.79,1004,774,0
2277877,528.36,1004,777,0
2277888,523.80,1004,775,0
2277897,519.40,1004,778,0
2277907,515.64,1004,774,0
2277917,511.76,1004,778,0
2277927,508.58,1004,775,0
2277937,505.40,1004,777,0
2277947,503.01,1004,774,0
2277957,500.91,1004,778,0
2277967,499.61,1004,774,0
2277977,498.52,1004,778,0
2277987,498.15,1004,774,0
2277997,497.85,1004,778,0
2278007,498.02,1004,774,0
2278017,498.19,1004,778,0
2278027,498.65,1004,773,0
2278037,498.67,1004,778,0
2278047,498.77,1004,774,0
2278057,498.32,1004,778,0
2278067,497.75,1004,773,0
2278077,496.41,1004,778,0
2278087,494.70,1004,774,0
2278097,492.05,1004,778,0
2278107,489.21,1004,773,0
2278117,485.63,1004,778,0
2278127,482.01,1004,774,0
2278137,477.85,1004,778,0
2278147,474.04,1004,773,0
2278157,470.00,1004,778,0
2278167,466.53,1004,774,0
2278177,463.11,1004,778,0
2278188,460.38,1004,775,0
2278198,457.74,1004,777,0
2278208,455.93,1004,776,0
2278218,454.07,1004,777,0
2278228,452.85,1004,776,0
2278238,451.73,1004,778,0
2278248,451.13,1004,776,0
2278258,450.15,1004,777,0
2278268,449.50,1004,776,0
2278278,448.41,1004,778,0
2278288,447.82,1004,776,0
2278298,446.84,1004,777,0
2278308,446.12,1004,776,0
2278318,445.01,1004,778,0
2278328,444.54,1004,775,0
2278338,443.73,1004,778,0
2278348,443.43,1004,776,0
2278359,442.61,1004,777,0
2278369,442.26,1004,777,0
2278379,441.45,1004,777,0
2278389,441.10,1004,778,0
2278400,440.09,1004,775,0
2278409,439.63,1004,777,0
2278419,438.67,1004,777,0
2278429,438.26,1004,778,0
2278439,437.36,1004,776,0
2278449,437.04,1004,777,0
2278459,436.34,1004,777,0
2278469,436.24,1004,778,0
2278479,435.57,1004,776,0
2278489,435.40,1004,777,0
2278499,434.64,1004,777,0
2278509,434.36,1004,777,0
2278519,433.44,1004,776,0
2278529,432.96,1004,777,0
2278539,431.99,1004,777,0
2278549,431.35,1004,778,0
2278559,430.22,1004,777,0
2278569,429.68,1004,778,0
2278579,429.00,1004,778,0
2278589,429.26,1004,778,0
2278599,429.91,1004,776,0
2278609,432.55,1004,778,0
2278619,437.06,1004,777,0
2278629,445.10,1004,777,0
2278639,456.60,1004,776,0
2278659,472.87,996,774,0
2278662,493.66,996,771,0
2278671,519.43,996,778,0
2278681,548.06,996,771,0
2278691,579.11,996,778,0
2278701,609.81,996,772,0
2278711,639.18,996,778,0
2278721,664.41,996,771,0
2278731,684.73,996,778,0
2278742,698.10,996,770,0
2278751,705.40,996,778,0
2278761,705.75,996,771,0
2278771,700.77,996,778,0
2278781,690.34,996,770,0
2278791,676.91,996,778,0
2278801,660.61,996,771,0
2278811,643.84,996,778,0
2278821,626.49,996,770,0
2278831,610.66,996,778,0
2278841,595.72,996,771,0
2278851,582.90,996,778,0
2278861,571.10,996,770,0
2278871,561.43,996,778,0
2278881,552.56,996,771,0
2278891,545.28,996,778,0
2278901,538.16,996,771,0
2278912,532.12,996,778,0
2278921,526.29,996,771,0
2278931,521.71,996,778,0
2278941,517.17,996,771,0
2278951,513.73,996,778,0
2278961,510.51,996,771,0
2278971,508.77,996,778,0
2278981,507.51,996,771,0
2278991,507.57,996,778,0
2279001,507.70,996,771,0
2279011,508.95,996,778,0
2279021,509.99,996,771,0
2279031,511.58,996,778,0
2279041,512.18,996,772,0
2279051,512.77,996,778,0
2279061,512.15,996,771,0
2279071,511.16,996,778,0
2279081,508.71,996,770,0
2279091,505.80,996,778,0
2279101,501.49,996,771,0
2279111,497.06,996,778,0
2279121,491.51,996,770,0
2279131,486.21,996,778,0
2279141,480.36,996,771,0
2279151,475.03,996,778,0
2279161,469.40,996,770,0
2279171,464.83,996,778,0
2279181,460.08,996,771,0
2279191,456.33,996,778,0
2279201,452.46,996,770,0
2279212,449.58,996,778,0
2279222,446.75,996,770,0
2279232,444.89,996,778,0
2279242,442.95,996,770,0
2279252,441.90,996,778,0
2279262,440.77,996,770,0
2279272,440.28,996,778,0
2279282,439.51,996,770,0
2279292,439.14,996,778,0
2279302,438.50,996,770,0
2279312,438.26,996,778,0
2279322,437.84,996,770,0
2279332,437.76,996,778,0
2279342,437.45,996,770,0
2279352,437.53,996,778,0
2279362,437.37,996,770,0
2279372,437.52,996,778,0
2279383,437.23,996,770,0
2279393,437.08,996,778,0
2279403,436.54,996,769,0
2279413,436.12,996,778,0
2279424,435.36,996,770,0
2279433,434.78,996,778,0
2279443,433.82,996,769,0
2279453,433.06,996,778,0
2279463,432.01,996,770,0
2279473,431.15,996,778,0
2279483,429.99,996,769,0
2279493,428.97,996,778,0
2279503,427.78,996,769,0
2279513,426.69,996,778,0
2279523,425.24,996,769,0
2279533,424.05,996,778,0
2279543,422.88,996,769,0
2279553,422.02,996,778,0
2279563,421.07,996,769,0
2279573,420.40,996,778,0
2279583,419.81,996,769,0
2279593,419.78,996,778,0
2279603,419.93,996,769,0
2279613,421.07,996,778,0
2279623,423.40,996,769,0
2279633,428.17,996,778,0
2279643,435.83,996,769,0
2279653,448.01,996,778,0
2279672,465.41,1014,777,0
2279675,489.37,1014,778,0
2279685,519.43,1014,770,0
2279695,553.46,1014,778,0
2279705,588.85,1014,771,0
2279715,623.78,1014,778,0
2279725,656.03,1014,770,0
2279735,684.14,1014,778,0
2279745,706.34,1014,771,0
2279755,722.14,1014,778,0
2279766,733.20,1014,771,0
2279775,740.94,1014,778,0
2279785,745.03,1014,770,0
2279795,744.93,1014,778,0
2279805,740.67,1014,771,0
2279815,732.20,1014,778,0
2279825,719.75,1014,771,0
2279835,703.58,1014,778,0
2279845,684.12,1014,771,0
2279855,663.00,1014,778,0
2279865,641.74,1014,771,0
2279875,621.03,1014,778,0
2279885,601.57,1014,771,0
2279895,583.44,1014,778,0
2279905,566.72,1014,771,0
2279915,551.29,1014,778,0
2279925,537.19,1014,771,0
2279936,524.28,1014,777,0
2279945,512.92,1014,771,0
2279955,503.13,1014,778,0
2279965,495.21,1014,771,0
2279975,489.14,1014,777,0
2279985,485.03,1014,771,0
2279995,482.79,1014,778,0
2280005,482.38,1014,771,0
2280015,483.21,1014,778,0
2280025,485.03,1014,771,0
2280035,487.29,1014,778,0
2280045,489.69,1014,771,0
2280055,491.76,1014,778,0
2280065,493.07,1014,770,0
2280075,493.44,1014,778,0
2280085,492.62,1014,771,0
2280095,490.38,1014,777,0
2280105,486.92,1014,772,0
2280115,482.23,1014,778,0
2280125,476.50,1014,771,0
2280135,469.88,1014,778,0
2280145,462.76,1014,772,0
2280155,455.29,1014,778,0
2280165,447.87,1014,771,0
2280175,440.41,1014,778,0
2280185,433.39,1014,772,0
2280195,426.63,1014,778,0
2280205,420.44,1014,771,0
2280215,414.78,1014,777,0
2280225,410.13,1014,771,0
2280236,406.23,1014,777,0
2280246,403.51,1014,773,0
2280256,401.51,1014,778,0
2280266,400.54,1014,774,0
2280276,400.17,1014,778,0
2280286,400.37,1014,773,0
2280296,400.73,1014,778,0
2280306,401.37,1014,774,0
2280316,401.69,1014,778,0
2280326,402.04,1014,773,0
2280336,401.98,1014,777,0
2280346,402.03,1014,774,0
2280356,401.68,1014,777,0
2280366,401.30,1014,772,0
2280376,400.57,1014,777,0
2280386,400.01,1014,773,0
2280396,399.02,1014,778,0
2280407,398.29,1014,774,0
2280417,397.17,1014,778,0
2280427,396.39,1014,776,0
2280437,395.25,1014,778,0
2280448,394.49,1014,776,0
2280457,393.35,1014,778,0
2280467,392.56,1014,775,0
2280477,391.49,1014,778,0
2280487,390.83,1014,776,0
2280497,389.81,1014,777,0
2280507,389.18,1014,775,0
2280517,388.10,1014,778,0
2280527,387.47,1014,776,0
2280537,386.69,1014,778,0
2280547,386.31,1014,775,0
2280557,385.57,1014,777,0
2280567,385.32,1014,776,0
2280577,384.79,1014,778,0
2280587,384.68,1014,774,0
2280597,384.18,1014,778,0
2280607,383.95,1014,776,0
2280617,383.24,1014,777,0
2280627,383.08,1014,774,0
2280637,383.01,1014,777,0
2280647,384.21,1014,776,0
2280657,386.72,1014,777,0
2280667,392.03,1014,774,0
2280677,400.59,1014,778,0
2280687,414.39,1014,776,0
2280707,433.47,1034,775,0
2280710,459.26,1034,779,0
2280720,490.59,1034,772,0
2280730,526.85,1034,778,0
2280740,564.99,1034,771,0
2280750,602.88,1034,778,0
2280760,638.06,1034,772,0
2280770,668.77,1034,778,0
2280780,691.47,1034,771,0
2280791,705.60,1034,778,0
2280801,709.79,1034,770,0
2280811,705.91,1034,778,0
2280821,694.02,1034,770,0
2280832,675.42,1034,777,0
2280841,651.08,1034,770,0
2280851,623.84,1034,778,0
2280861,594.62,1034,770,0
2280871,566.06,1034,778,0
2280881,538.40,1034,771,0
2280891,513.81,1034,778,0
2280901,491.88,1034,770,0
2280911,473.36,1034,778,0
2280921,457.39,1034,771,0
2280931,444.59,1034,778,0
2280941,433.78,1034,770,0
2280951,425.58,1034,778,0
2280961,418.85,1034,771,0
2280971,414.48,1034,778,0
2280981,411.55,1034,770,0
2280991,410.83,1034,778,0
2281001,411.44,1034,770,0
2281011,414.05,1034,778,0
2281021,417.42,1034,770,0
2281031,422.09,1034,778,0
2281041,426.78,1034,770,0
2281051,432.03,1034,778,0
2281061,436.61,1034,770,0
2281071,440.97,1034,778,0
2281081,443.85,1034,770,0
2281091,446.08,1034,778,0
2281101,446.53,1034,770,0
2281111,445.98,1034,778,0
2281121,443.50,1034,770,0
2281132,440.01,1034,778,0
2281142,434.91,1034,770,0
2281152,429.23,1034,778,0
2281162,422.39,1034,769,0
2281172,415.59,1034,778,0
2281182,408.21,1034,770,0
2281192,401.42,1034,778,0
2281202,394.69,1034,769,0
2281212,388.87,1034,778,0
2281222,383.51,1034,770,0
2281232,379.20,1034,778,0
2281242,375.37,1034,770,0
2281252,372.56,1034,778,0
2281262,370.12,1034,770,0
2281272,368.54,1034,778,0
2281282,367.26,1034,769,0
2281292,366.71,1034,778,0
2281303,366.37,1034,769,0
2281313,366.60,1034,778,0
2281323,367.11,1034,769,0
2281333,368.10,1034,778,0
2281344,369.27,1034,770,0
2281353,370.78,1034,778,0
2281363,372.22,1034,770,0
2281373,373.86,1034,778,0
2281383,375.36,1034,770,0
2281393,376.80,1034,778,0
2281403,377.84,1034,769,0
2281413,378.66,1034,778,0
2281423,379.02,1034,770,0
2281433,379.27,1034,778,0
2281443,379.02,1034,769,0
2281453,378.54,1034,778,0
2281463,377.74,1034,770,0
2281473,377.00,1034,778,0
2281483,376.14,1034,769,0
2281493,375.50,1034,778,0
2281503,375.09,1034,770,0
2281513,375.71,1034,778,0
2281523,377.72,1034,769,0
2281533,382.09,1034,778,0
2281543,389.52,1034,769,0
2281553,401.28,1034,778,0
2281572,417.65,866,777,0
2281575,439.49,866,778,0
2281584,466.51,866,770,0
2281594,497.52,866,778,0
2281604,530.66,866,769,0
2281614,564.23,866,778,0
2281624,595.75,866,770,0
2281634,623.38,866,778,0
2281644,644.70,866,769,0
2281654,658.24,866,778,0
2281664,663.74,866,770,0
2281674,661.21,866,778,0
2281684,651.12,866,771,0
2281694,634.62,866,778,0
2281704,613.22,866,770,0
2281714,588.43,866,778,0
2281724,561.94,866,771,0
2281734,535.09,866,778,0
2281744,509.22,866,770,0
2281754,485.11,866,778,0
2281764,463.39,866,771,0
2281774,444.46,866,778,0
2281784,428.25,866,770,0
2281794,414.63,866,777,0
2281804,403.73,866,771,0
2281815,395.41,866,778,0
2281825,389.63,866,772,0
2281835,386.23,866,778,0
2281845,384.96,866,773,0
2281856,385.74,866,778,0
2281865,388.35,866,772,0
2281875,392.27,866,778,0
2281885,397.42,866,773,0
2281895,403.08,866,778,0
2281905,409.01,866,772,0
2281915,414.71,866,778,0
2281925,420.15,866,773,0
2281935,424.61,866,778,0
2281945,428.20,866,772,0
2281955,430.24,866,777,0
2281965,431.07,866,772,0
2281975,430.15,866,778,0
2281985,427.92,866,772,0
2281995,424.13,866,778,0
2282005,419.37,866,772,0
2282015,413.31,866,778,0
2282025,406.70,866,774,0
2282035,399.55,866,778,0
2282045,392.44,866,772,0
2282055,385.28,866,778,0
2282065,378.55,866,773,0
2282075,372.34,866,778,0
2282085,367.18,866,772,0
2282095,362.63,866,778,0
2282105,359.18,866,773,0
2282115,356.51,866,778,0
2282125,354.86,866,772,0
2282135,353.87,866,778,0
2282145,353.74,866,773,0
2282156,353.90,866,777,0
2282166,354.88,866,774,0
2282176,355.77,866,778,0
2282186,357.21,866,775,0
2282196,358.56,866,778,0
2282206,360.32,866,774,0
2282216,361.85,866,777,0
2282226,363.48,866,775,0
2282236,364.62,866,777,0
2282246,366.15,866,774,0
2282256,367.22,866,777,0
2282266,368.44,866,775,0
2282276,369.12,866,777,0
2282286,369.81,866,774,0
2282296,370.08,866,777,0
2282306,370.57,866,775,0
2282316,370.62,866,777,0
2282327,371.29,866,775,0
2282337,372.19,866,777,0
2282347,374.66,866,776,0
2282357,378.88,866,777,0
2282368,386.84,866,777,0
2282377,398.42,866,777,0
2282387,415.26,866,776,0
2282397,436.78,866,778,0
2282417,463.85,844,776,0
2282420,494.62,844,772,0
2282429,528.81,844,778,0
2282439,562.85,844,772,0
2282449,595.72,844,778,0
2282459,624.01,844,774,0
2282469,646.80,844,778,0
2282479,661.56,844,772,0
2282489,668.68,844,778,0
2282499,666.93,844,774,0
2282509,658.60,844,778,0
2282519,643.63,844,773,0
2282529,624.63,844,778,0
2282540,602.20,844,772,0
2282550,579.12,844,778,0
2282560,555.64,844,771,0
2282570,533.94,844,778,0
2282580,513.51,844,770,0
2282590,495.83,844,778,0
2282600,479.90,844,771,0
2282610,466.43,844,778,0
2282620,454.08,844,770,0
2282630,443.60,844,778,0
2282640,433.48,844,771,0
2282650,424.55,844,778,0
2282660,415.86,844,770,0
2282670,408.48,844,778,0
2282680,401.61,844,771,0
2282690,396.41,844,778,0
2282700,392.18,844,770,0
2282711,390.11,844,778,0
2282721,389.26,844,770,0
2282731,390.43,844,778,0
2282741,392.44,844,769,0
2282752,395.87,844,778,0
2282761,399.38,844,770,0
2282771,403.38,844,778,0
2282781,406.48,844,770,0
2282791,409.08,844,778,0
2282801,410.08,844,770,0
2282811,410.10,844,778,0
2282821,408.49,844,770,0
2282831,405.98,844,778,0
2282841,401.87,844,770,0
2282851,397.20,844,778,0
2282861,391.57,844,770,0
2282871,385.83,844,778,0
2282881,379.71,844,771,0
2282891,374.09,844,778,0
2282901,368.45,844,770,0
2282911,363.73,844,778,0
2282921,359.40,844,770,0
2282931,356.24,844,778,0
2282941,353.68,844,770,0
2282951,352.36,844,778,0
2282961,351.57,844,770,0
2282971,351.83,844,778,0
2282981,352.18,844,770,0
2282991,353.20,844,778,0
2283001,354.17,844,770,0
2283011,355.66,844,778,0
2283021,356.83,844,770,0
2283031,358.13,844,778,0
2283041,359.03,844,770,0
2283052,360.22,844,778,0
2283062,361.06,844,770,0
2283072,361.90,844,778,0
2283082,362.31,844,770,0
2283092,362.82,844,778,0
2283102,363.04,844,770,0
2283112,363.37,844,778,0
2283122,363.39,844,770,0
2283132,363.53,844,778,0
2283142,363.37,844,770,0
2283152,363.26,844,778,0
2283162,362.80,844,770,0
2283172,362.43,844,778,0
2283182,361.79,844,770,0
2283192,361.55,844,778,0
2283202,361.77,844,770,0
2283212,363.64,844,778,0
2283223,367.86,844,770,0
2283233,375.75,844,778,0
2283243,388.17,844,770,0
2283262,406.37,846,769,0
2283266,431.12,846,775,0
2283275,461.77,846,778,0
2283285,496.94,846,773,0
2283295,534.59,846,778,0
2283305,572.68,846,774,0
2283315,608.61,846,778,0
2283325,640.14,846,773,0
2283335,664.44,846,778,0
2283345,681.02,846,774,0
2283355,689.29,846,777,0
2283365,689.84,846,773,0
2283375,682.95,846,778,0
2283385,670.23,846,774,0
2283395,652.94,846,777,0
2283405,633.11,846,773,0
2283415,611.61,846,778,0
2283425,590.30,846,774,0
2283436,569.68,846,777,0
2283446,551.09,846,775,0
2283456,534.05,846,777,0
2283466,519.08,846,775,0
2283476,505.21,846,777,0
2283486,492.98,846,775,0
2283496,481.11,846,777,0
2283506,469.94,846,776,0
2283516,458.47,846,777,0
2283526,447.53,846,775,0
2283536,436.48,846,778,0
2283546,426.35,846,776,0
2283556,416.56,846,777,0
2283566,408.16,846,775,0
2283576,400.92,846,777,0
2283586,395.75,846,775,0
2283596,391.93,846,777,0
2283607,390.24,846,776,0
2283617,389.69,846,777,0
2283627,390.86,846,777,0
2283637,392.53,846,776,0
2283648,394.98,846,778,0
2283657,396.96,846,777,0
2283667,399.07,846,777,0
2283677,400.04,846,777,0
2283687,400.67,846,778,0
2283697,399.82,846,777,0
2283707,398.42,846,777,0
2283717,395.59,846,776,0
2283727,392.42,846,778,0
2283737,388.13,846,777,0
2283747,383.81,846,777,0
2283757,378.72,846,777,0
2283767,374.05,846,778,0
2283777,369.15,846,777,0
2283787,365.20,846,777,0
2283797,361.37,846,777,0
2283807,358.69,846,778,0
2283817,356.21,846,776,0
2283827,354.95,846,777,0
2283837,353.85,846,777,0
2283847,353.72,846,778,0
2283857,353.51,846,776,0
2283867,354.17,846,776,0
2283877,354.50,846,777,0
2283887,355.42,846,778,0
2283897,355.81,846,776,0
2283907,356.77,846,776,0
2283917,357.31,846,777,0
2283927,358.29,846,777,0
2283937,358.63,846,776,0
2283948,359.38,846,778,0
2283958,359.61,846,775,0
2283968,360.24,846,778,0
2283978,360.17,846,774,0
2283988,360.33,846,777,0
2283998,359.98,846,775,0
2284008,360.20,846,778,0
2284018,359.80,846,774,0
2284028,359.86,846,777,0
2284038,359.60,846,775,0
2284048,360.06,846,778,0
2284058,360.22,846,774,0
2284068,360.92,846,778,0
2284078,361.03,846,775,0
2284088,361.75,846,778,0
2284098,361.87,846,774,0
2284108,362.21,846,778,0
2284119,361.76,846,773,0
2284129,361.49,846,778,0
2284139,360.49,846,772,0
2284149,359.70,846,778,0
2284160,358.20,846,771,0
2284169,357.16,846,778,0
2284179,355.52,846,772,0
2284189,354.55,846,778,0
2284199,353.83,846,771,0
2284209,354.74,846,778,0
2284219,357.26,846,772,0
2284229,363.31,846,777,0
2284249,373.03,986,776,0
2284252,389.18,986,779,0
2284261,411.88,986,769,0
2284271,441.75,986,777,0
2284281,477.69,986,769,0
2284291,518.24,986,778,0
2284301,560.04,986,769,0
2284311,601.13,986,778,0
2284321,638.38,986,769,0
2284332,670.28,986,778,0
2284342,695.82,986,769,0
2284352,714.78,986,778,0
2284362,726.59,986,769,0
2284372,731.90,986,778,0
2284382,731.20,986,769,0
2284392,725.14,986,778,0
2284402,713.87,986,769,0
2284412,698.09,986,777,0
2284422,678.31,986,769,0
2284432,656.74,986,778,0
2284442,634.66,986,769,0
2284452,613.16,986,777,0
2284462,592.63,986,769,0
2284472,573.93,986,778,0
2284482,556.72,986,769,0
2284492,540.78,986,777,0
2284503,525.50,986,770,0
2284513,510.99,986,778,0
2284523,497.02,986,770,0
2284533,483.60,986,777,0
2284544,470.69,986,772,0
2284553,458.49,986,778,0
2284563,447.45,986,770,0
2284573,437.89,986,777,0
2284583,430.04,986,771,0
2284593,424.07,986,778,0
2284603,419.98,986,770,0
2284613,417.63,986,777,0
2284623,417.01,986,771,0
2284633,417.74,986,778,0
2284643,419.31,986,770,0
2284653,421.23,986,777,0
2284663,423.14,986,771,0
2284673,424.81,986,778,0
2284683,425.90,986,770,0
2284693,425.93,986,777,0
2284703,424.83,986,771,0
2284713,422.70,986,778,0
2284723,419.57,986,770,0
2284733,415.50,986,778,0
2284743,410.72,986,771,0
2284753,405.28,986,778,0
2284763,399.84,986,770,0
2284773,394.36,986,778,0
2284783,389.19,986,771,0
2284793,384.46,986,778,0
2284803,380.30,986,770,0
2284813,376.78,986,778,0
2284823,374.02,986,771,0
2284833,371.78,986,778,0
2284844,370.26,986,771,0
2284854,369.20,986,777,0
2284864,368.62,986,772,0
2284874,368.39,986,777,0
2284884,368.40,986,773,0
2284894,368.58,986,777,0
2284904,368.97,986,772,0
2284914,369.19,986,778,0
2284924,369.56,986,773,0
2284934,369.78,986,777,0
2284944,370.15,986,772,0
2284954,370.27,986,777,0
2284964,370.49,986,773,0
2284974,370.43,986,777,0
2284984,370.47,986,772,0
2284994,370.20,986,778,0
2285004,369.97,986,773,0
2285015,369.42,986,777,0
2285025,369.00,986,774,0
2285035,368.18,986,777,0
2285045,367.66,986,775,0
2285056,366.99,986,777,0
2285065,366.73,986,774,0
2285075,366.43,986,778,0
2285085,366.60,986,775,0
2285095,366.72,986,777,0
2285105,367.28,986,774,0
2285115,367.62,986,778,0
2285125,368.25,986,775,0
2285135,368.47,986,777,0
2285145,368.85,986,773,0
2285155,368.64,986,777,0
2285165,368.57,986,775,0
2285175,367.93,986,777,0
2285185,367.35,986,773,0
2285195,366.30,986,777,0
2285205,365.44,986,775,0
2285215,364.28,986,777,0
2285225,363.81,986,775,0
2285235,363.61,986,777,0
2285245,365.14,986,774,0
2285255,368.66,986,777,0
2285265,376.00,986,775,0
2285284,387.70,1036,772,0
2285287,406.13,1036,778,0
2285297,431.12,1036,775,0
2285307,463.27,1036,778,0
2285317,500.73,1036,777,0
2285327,541.40,1036,778,0
2285337,582.21,1036,775,0
2285347,621.19,1036,778,0
2285357,655.46,1036,777,0
2285367,684.04,1036,778,0
2285377,705.11,1036,775,0
2285387,718.62,1036,777,0
2285398,724.22,1036,774,0
2285407,723.68,1036,777,0
2285417,716.58,1036,775,0
2285427,704.15,1036,778,0
2285437,686.49,1036,774,0
2285447,665.94,1036,777,0
2285457,643.20,1036,776,0
2285467,621.11,1036,777,0
2285477,599.18,1036,774,0
2285487,579.80,1036,777,0
2285497,561.94,1036,776,0
2285507,546.62,1036,777,0
2285517,532.03,1036,775,0
2285527,519.12,1036,777,0
2285537,506.23,1036,776,0
2285547,494.12,1036,778,0
2285557,481.40,1036,775,0
2285568,469.41,1036,778,0
2285577,457.37,1036,776,0
2285587,446.76,1036,778,0
2285597,436.63,1036,775,0
2285607,428.43,1036,778,0
2285617,421.36,1036,776,0
2285627,416.62,1036,777,0
2285637,413.09,1036,775,0
2285647,411.65,1036,778,0
2285657,410.90,1036,776,0
2285667,411.61,1036,778,0
2285677,412.37,1036,776,0
2285687,413.85,1036,778,0
2285697,414.75,1036,776,0
2285707,415.77,1036,778,0
2285717,415.58,1036,775,0
2285727,415.15,1036,778,0
2285737,413.22,1036,774,0
2285747,410.97,1036,778,0
2285757,407.33,1036,776,0
2285767,403.55,1036,778,0
2285777,398.63,1036,774,0
2285787,393.94,1036,778,0
2285797,388.56,1036,776,0
2285807,383.85,1036,778,0
2285817,378.75,1036,774,0
2285827,374.67,1036,778,0
2285837,370.52,1036,776,0
2285847,367.50,1036,778,0
2285857,364.39,1036,775,0
2285868,362.39,1036,778,0
2285878,360.30,1036,773,0
2285888,359.27,1036,778,0
2285898,358.03,1036,772,0
2285908,357.59,1036,778,0
2285918,356.86,1036,773,0
2285928,356.86,1036,778,0
2285938,356.47,1036,772,0
2285948,356.76,1036,778,0
2285958,356.57,1036,773,0
2285968,357.04,1036,778,0
2285978,356.95,1036,772,0
2285988,357.43,1036,777,0
2285998,357.43,1036,773,0
2286008,357.90,1036,778,0
2286018,357.80,1036,772,0
2286028,358.12,1036,777,0
2286039,357.78,1036,771,0
2286049,358.06,1036,778,0
2286059,357.79,1036,770,0
2286069,358.02,1036,778,0
2286080,357.84,1036,770,0
2286089,358.32,1036,778,0
2286099,358.40,1036,770,0
2286109,359.01,1036,778,0
2286119,358.96,1036,770,0
2286129,359.32,1036,777,0
2286139,358.92,1036,770,0
2286149,358.82,1036,778,0
2286159,358.14,1036,770,0
2286169,358.06,1036,778,0
2286179,358.04,1036,771,0
2286189,359.53,1036,777,0
2286199,362.50,1036,769,0
2286209,368.82,1036,778,0
2286228,378.47,944,776,0
2286231,393.72,944,778,0
2286240,414.29,944,769,0
2286251,440.82,944,778,0
2286260,471.86,944,769,0
2286270,506.79,944,778,0
2286280,543.11,944,769,0
2286290,579.46,944,778,0
2286300,612.24,944,769,0
2286310,640.02,944,778,0
2286320,660.37,944,768,0
2286330,673.25,944,778,0
2286340,677.67,944,769,0
2286350,674.60,944,778,0
2286360,664.22,944,769,0
2286370,648.60,944,778,0
2286380,628.83,944,770,0
2286390,607.20,944,777,0
2286400,584.38,944,769,0
2286410,562.41,944,778,0
2286420,541.76,944,769,0
2286430,523.57,944,777,0
2286440,507.33,944,769,0
2286450,493.30,944,778,0
2286460,480.70,944,769,0
2286470,469.77,944,777,0
2286480,459.38,944,769,0
2286490,449.75,944,778,0
2286500,440.14,944,769,0
2286510,431.19,944,778,0
2286520,422.26,944,769,0
2286530,414.38,944,778,0
2286540,407.20,944,769,0
2286551,401.31,944,777,0
2286561,396.37,944,769,0
2286571,393.00,944,778,0
2286581,390.73,944,769,0
2286592,390.04,944,777,0
2286601,390.24,944,769,0
2286611,391.54,944,778,0
2286621,393.44,944,769,0
2286631,395.75,944,778,0
2286641,397.88,944,769,0
2286651,399.76,944,778,0
2286661,400.90,944,769,0
2286671,401.40,944,777,0
2286681,400.73,944,769,0
2286691,399.22,944,778,0
2286701,396.84,944,769,0
2286711,393.85,944,778,0
2286721,390.12,944,769,0
2286731,386.18,944,778,0
2286741,382.01,944,769,0
2286751,378.11,944,777,0
2286761,374.35,944,769,0
2286771,370.99,944,777,0
2286781,367.99,944,769,0
2286791,365.59,944,778,0
2286801,363.53,944,769,0
2286811,362.00,944,778,0
2286821,360.84,944,769,0
2286831,359.99,944,777,0
2286841,359.18,944,769,0
2286851,358.57,944,777,0
2286861,358.14,944,769,0
2286871,358.10,944,778,0
2286881,358.15,944,769,0
2286892,358.45,944,777,0
2286902,358.92,944,770,0
2286912,359.71,944,777,0
2286922,360.61,944,770,0
2286932,361.50,944,777,0
2286942,362.21,944,770,0
2286952,362.92,944,777,0
2286962,363.50,944,771,0
2286972,363.91,944,777,0
2286982,364.11,944,770,0
2286992,364.07,944,778,0
2287002,363.97,944,770,0
2287012,363.80,944,777,0
2287022,363.56,944,770,0
2287032,363.27,944,778,0
2287042,363.06,944,770,0
2287052,362.87,944,777,0
2287063,362.78,944,771,0
2287073,362.50,944,777,0
2287083,362.18,944,772,0
2287093,361.53,944,777,0
2287104,360.90,944,773,0
2287113,360.07,944,778,0
2287123,359.41,944,772,0
2287133,359.16,944,777,0
2287143,360.14,944,773,0
2287153,362.63,944,777,0
2287163,367.75,944,772,0
2287173,375.93,944,777,0
2287193,388.42,964,776,0
2287196,405.87,964,776,0
2287205,429.09,964,775,0
2287215,456.75,964,777,0
2287225,488.28,964,776,0
2287235,521.50,964,777,0
2287245,554.95,964,775,0
2287255,585.86,964,777,0
2287265,612.52,964,776,0
2287276,632.21,964,777,0
2287286,645.00,964,777,0
2287296,649.72,964,776,0
2287306,647.57,964,778,0
2287316,638.44,964,775,0
2287326,624.55,964,777,0
2287336,606.34,964,776,0
2287346,586.31,964,778,0
2287356,564.83,964,775,0
2287366,544.35,964,777,0
2287376,524.58,964,776,0
2287386,507.22,964,778,0
2287396,491.34,964,775,0
2287406,478.17,964,777,0
2287416,466.29,964,776,0
2287426,456.47,964,778,0
2287436,447.20,964,775,0
2287447,439.47,964,777,0
2287457,431.91,964,774,0
2287467,425.60,964,778,0
2287477,419.33,964,773,0
2287488,414.39,964,777,0
2287497,410.07,964,774,0
2287507,407.39,964,778,0
2287517,405.30,964,773,0
2287527,404.91,964,778,0
2287537,405.15,964,774,0
2287547,406.91,964,778,0
2287557,408.78,964,773,0
2287567,411.46,964,777,0
2287577,413.68,964,774,0
2287587,416.26,964,778,0
2287597,417.77,964,773,0
2287607,419.04,964,777,0
2287617,418.85,964,775,0
2287627,418.34,964,778,0
2287637,416.22,964,773,0
2287647,413.76,964,778,0
2287657,409.80,964,772,0
2287667,405.96,964,778,0
2287677,401.09,964,773,0
2287687,396.52,964,778,0
2287697,391.43,964,772,0
2287707,387.15,964,777,0
2287717,382.69,964,774,0
2287727,379.35,964,778,0
2287737,375.69,964,772,0
2287747,373.13,964,777,0
2287757,370.60,964,774,0
2287767,369.14,964,778,0
2287777,367.68,964,772,0
2287788,367.22,964,777,0
2287798,366.55,964,771,0
2287808,366.90,964,778,0
2287818,367.06,964,770,0
2287828,368.03,964,777,0
2287838,368.49,964,771,0
2287848,369.50,964,777,0
2287858,369.95,964,770,0
2287868,370.95,964,777,0
2287878,371.48,964,772,0
2287888,372.41,964,777,0
2287898,372.67,964,770,0
2287908,373.20,964,777,0
2287918,373.18,964,772,0
2287928,373.60,964,778,0
2287938,373.46,964,771,0
2287948,373.67,964,777,0
2287959,373.34,964,770,0
2287969,373.45,964,777,0
2287979,373.32,964,770,0
2287989,373.52,964,777,0
2288000,373.32,964,769,0
2288009,373.48,964,777,0
2288019,373.17,964,770,0
2288029,373.16,964,777,0
2288039,372.68,964,769,0
2288049,372.69,964,777,0
2288059,372.36,964,770,0
2288069,372.33,964,777,0
2288079,372.02,964,769,0
2288089,372.14,964,778,0
2288099,372.01,964,770,0
2288109,372.27,964,777,0
2288119,372.06,964,769,0
2288129,372.26,964,777,0
2288139,372.18,964,770,0
2288149,372.68,964,777,0
2288159,373.46,964,769,0
2288169,375.64,964,777,0
2288179,379.18,964,770,0
2288198,385.59,1006,768,0
2288201,395.74,1006,770,0
2288211,410.91,1006,778,0
2288221,430.65,1006,769,0
2288231,455.10,1006,778,0
2288241,483.31,1006,769,0
2288251,514.33,1006,778,0
2288261,546.08,1006,769,0
2288271,576.27,1006,778,0
2288281,602.67,1006,769,0
2288291,624.07,1006,778,0
2288301,639.35,1006,769,0
2288311,647.86,1006,778,0
2288321,649.53,1006,769,0
2288331,644.83,1006,777,0
2288342,634.64,1006,770,0
2288351,620.35,1006,777,0
2288361,603.01,1006,769,0
2288371,584.07,1006,777,0
2288381,564.89,1006,770,0
2288391,546.54,1006,777,0
2288401,529.75,1006,769,0
2288411,515.08,1006,778,0
2288421,502.37,1006,770,0
2288431,491.85,1006,777,0
2288441,482.93,1006,769,0
2288451,475.11,1006,778,0
2288461,468.05,1006,770,0
2288471,461.43,1006,777,0
2288481,455.09,1006,769,0
2288491,449.23,1006,777,0
2288501,443.85,1006,770,0
2288512,439.14,1006,777,0
2288521,435.20,1006,769,0
2288531,432.39,1006,777,0
2288541,430.73,1006,770,0
2288551,430.04,1006,777,0
2288561,429.94,1006,769,0
2288571,430.43,1006,778,0
2288581,431.42,1006,770,0
2288591,432.62,1006,777,0
2288601,433.55,1006,769,0
2288611,434.07,1006,777,0
2288621,434.05,1006,769,0
2288631,433.43,1006,777,0
2288641,432.02,1006,769,0
2288651,429.87,1006,777,0
2288661,427.12,1006,770,0
2288671,423.87,1006,777,0
2288681,420.22,1006,770,0
2288691,416.34,1006,777,0
2288701,412.34,1006,769,0
2288711,408.34,1006,777,0
2288721,404.29,1006,770,0
2288731,400.43,1006,777,0
2288741,396.92,1006,770,0
2288751,393.81,1006,777,0
2288761,391.08,1006,770,0
2288771,388.79,1006,778,0
2288781,386.92,1006,770,0
2288791,385.49,1006,777,0
2288801,384.31,1006,770,0
2288812,383.15,1006,777,0
2288822,382.08,1006,771,0
2288832,380.94,1006,777,0
2288842,380.01,1006,772,0
2288852,379.11,1006,777,0
2288862,378.39,1006,771,0
2288872,377.72,1006,777,0
2288882,377.33,1006,772,0
2288892,376.97,1006,777,0
2288902,376.94,1006,771,0
2288912,376.87,1006,777,0
2288922,377.00,1006,771,0
2288932,376.91,1006,778,0
2288942,376.94,1006,771,0
2288952,376.83,1006,777,0
2288962,376.67,1006,771,0
2288972,376.21,1006,777,0
2288983,375.93,1006,772,0
2288993,375.52,1006,777,0
2289003,375.41,1006,773,0
2289013,375.03,1006,777,0
2289024,374.81,1006,774,0
2289033,374.44,1006,777,0
2289043,374.35,1006,773,0
2289053,373.86,1006,777,0
2289063,373.56,1006,774,0
2289073,372.79,1006,777,0
2289083,372.34,1006,773,0
2289093,371.64,1006,777,0
2289103,371.19,1006,774,0
2289113,370.49,1006,777,0
2289123,370.26,1006,773,0
2289133,369.92,1006,777,0
2289143,370.07,1006,774,0
2289153,370.05,1006,777,0
2289163,370.21,1006,773,0
2289173,370.15,1006,777,0
2289183,370.49,1006,774,0
2289193,370.68,1006,777,0
2289203,371.55,1006,773,0
2289213,372.97,1006,777,0
2289223,376.19,1006,774,0
2289233,381.49,1006,777,0
2289252,390.17,1054,776,0
2289255,402.72,1054,777,0
2289265,420.72,1054,777,0
2289275,443.30,1054,775,0
2289285,470.64,1054,776,0
2289295,500.79,1054,777,0
2289305,533.13,1054,777,0
2289315,564.97,1054,776,0
2289325,594.81,1054,776,0
2289335,619.47,1054,777,0
2289345,638.66,1054,777,0
2289355,650.54,1054,776,0
2289366,655.87,1054,778,0
2289375,653.81,1054,776,0
2289385,646.02,1054,777,0
2289395,632.60,1054,776,0
2289405,615.88,1054,777,0
2289415,596.41,1054,777,0
2289425,576.58,1054,777,0
2289435,556.43,1054,776,0
2289445,537.96,1054,777,0
2289455,520.79,1054,777,0
2289465,506.28,1054,777,0
2289475,493.38,1054,776,0
2289485,482.81,1054,778,0
2289495,473.35,1054,777,0
2289505,465.79,1054,777,0
2289515,458.82,1054,776,0
2289525,453.43,1054,778,0
2289536,448.16,1054,775,0
2289545,444.26,1054,777,0
2289555,440.66,1054,776,0
2289565,438.41,1054,777,0
2289575,436.44,1054,775,0
2289585,435.75,1054,777,0
2289595,435.18,1054,776,0
2289605,435.94,1054,777,0
2289615,436.77,1054,775,0
2289625,438.43,1054,777,0
2289635,439.71,1054,776,0
2289645,441.47,1054,777,0
2289655,442.36,1054,775,0
2289665,443.37,1054,777,0
2289675,443.17,1054,776,0
2289685,442.48,1054,777,0
2289695,440.32,1054,775,0
2289705,437.87,1054,777,0
2289715,434.13,1054,777,0
2289725,430.41,1054,777,0
2289735,425.66,1054,776,0
2289745,421.13,1054,778,0
2289755,416.12,1054,777,0
2289765,411.67,1054,777,0
2289775,406.84,1054,776,0
2289785,402.73,1054,778,0
2289795,398.53,1054,777,0
2289805,395.24,1054,777,0
2289815,391.82,1054,776,0
2289825,389.31,1054,778,0
2289836,386.77,1054,775,0
2289846,385.21,1054,777,0
2289856,383.52,1054,773,0
2289866,382.68,1054,778,0
2289876,381.49,1054,772,0
2289886,381.17,1054,777,0
2289896,380.56,1054,773,0
2289906,380.69,1054,778,0
2289916,380.40,1054,772,0
2289926,380.92,1054,777,0
2289936,380.86,1054,774,0
2289946,381.46,1054,777,0
2289956,381.41,1054,772,0
2289966,381.93,1054,777,0
2289976,381.82,1054,774,0
2289986,382.17,1054,778,0
2289996,381.78,1054,772,0
2290007,381.85,1054,777,0
2290017,381.29,1054,771,0
2290027,381.20,1054,778,0
2290037,380.50,1054,770,0
2290048,380.22,1054,777,0
2290057,379.43,1054,771,0
2290067,379.13,1054,778,0
2290077,378.27,1054,771,0
2290087,377.85,1054,777,0
2290097,376.95,1054,771,0
2290107,376.45,1054,777,0
2290117,375.50,1054,770,0
2290127,375.05,1054,777,0
2290137,374.14,1054,771,0
2290147,373.97,1054,777,0
2290157,373.38,1054,771,0
2290167,373.39,1054,777,0
2290177,373.06,1054,772,0
2290187,373.21,1054,777,0
2290197,372.89,1054,771,0
2290207,373.01,1054,777,0
2290217,372.54,1054,770,0
2290227,372.80,1054,777,0
2290237,373.03,1054,771,0
2290247,374.82,1054,777,0
2290257,378.01,1054,770,0
2290267,384.22,1054,777,0
2290286,393.58,1034,776,0
2290289,408.45,1034,778,0
2290299,428.63,1034,769,0
2290309,454.37,1034,777,0
2290319,484.30,1034,769,0
2290329,517.85,1034,777,0
2290339,552.78,1034,769,0
2290349,587.52,1034,777,0
2290359,618.52,1034,769,0
2290369,644.42,1034,778,0
2290379,663.80,1034,768,0
2290390,675.99,1034,777,0
2290399,680.28,1034,768,0
2290409,677.45,1034,777,0
2290419,668.06,1034,769,0
2290429,653.68,1034,777,0
2290439,635.31,1034,769,0
2290449,614.81,1034,777,0
2290459,593.31,1034,769,0
2290469,572.39,1034,777,0
2290479,552.60,1034,769,0
2290489,534.94,1034,777,0
2290499,519.36,1034,769,0
2290509,506.09,1034,777,0
2290519,494.49,1034,769,0
2290529,484.83,1034,777,0
2290539,476.31,1034,769,0
2290549,468.97,1034,777,0
2290560,462.17,1034,769,0
2290569,456.29,1034,777,0
2290579,450.97,1034,769,0
2290589,446.65,1034,777,0
2290599,442.94,1034,769,0
2290609,440.43,1034,777,0
2290619,438.59,1034,769,0
2290629,437.81,1034,777,0
2290639,437.61,1034,769,0
2290649,438.16,1034,777,0
2290659,438.97,1034,769,0
2290669,440.13,1034,777,0
2290679,441.08,1034,768,0
2290689,441.87,1034,777,0
2290699,441.91,1034,769,0
2290709,441.38,1034,777,0
2290719,439.94,1034,768,0
2290729,437.77,1034,777,0
2290739,434.58,1034,769,0
2290749,430.76,1034,777,0
2290759,426.25,1034,768,0
2290769,421.42,1034,777,0
2290779,416.06,1034,769,0
2290789,410.73,1034,777,0
2290799,405.41,1034,768,0
2290809,400.49,1034,777,0
2290819,395.67,1034,769,0
2290829,391.35,1034,777,0
2290839,387.39,1034,769,0
2290849,384.02,1034,777,0
2290860,380.93,1034,769,0
2290870,378.21,1034,777,0
2290880,375.92,1034,769,0
2290890,374.31,1034,777,0
2290900,373.19,1034,770,0
2290910,372.58,1034,777,0
2290920,372.27,1034,769,0
2290930,372.36,1034,777,0
2290940,372.81,1034,770,0
2290950,373.25,1034,777,0
2290960,373.56,1034,769,0
2290970,373.69,1034,777,0
2290980,373.91,1034,770,0
2290990,374.33,1034,777,0
2291000,374.66,1034,769,0
2291010,374.93,1034,777,0
2291020,375.34,1034,770,0
2291031,375.79,1034,777,0
2291041,376.33,1034,770,0
2291051,376.66,1034,777,0
2291061,376.89,1034,772,0
2291072,377.01,1034,777,0
2291081,377.18,1034,770,0
2291091,377.00,1034,777,0
2291101,376.78,1034,772,0
2291111,376.38,1034,777,0
2291121,376.01,1034,770,0
2291131,375.45,1034,777,0
2291141,375.14,1034,771,0
2291151,374.58,1034,777,0
2291161,374.24,1034,770,0
2291171,373.74,1034,777,0
2291181,373.35,1034,771,0
2291191,372.77,1034,777,0
2291201,372.11,1034,770,0
2291211,371.09,1034,777,0
2291221,370.04,1034,771,0
2291231,368.74,1034,777,0
2291241,367.49,1034,772,0
2291251,366.23,1034,777,0
2291261,365.35,1034,771,0
2291271,364.90,1034,777,0
2291281,365.70,1034,772,0
2291291,367.98,1034,777,0
2291301,372.87,1034,771,0
2291311,381.05,1034,777,0
2291331,393.76,1044,776,0
2291334,411.96,1044,778,0
2291344,436.75,1044,776,0
2291354,466.74,1044,776,0
2291364,501.57,1044,777,0
2291374,538.73,1044,777,0
2291384,576.70,1044,776,0
2291394,612.40,1044,776,0
2291404,643.74,1044,777,0
2291415,667.73,1044,775,0
2291425,684.27,1044,778,0
2291435,691.77,1044,774,0
2291445,691.58,1044,777,0
2291456,683.31,1044,773,0
2291465,669.37,1044,777,0
2291475,649.98,1044,774,0
2291485,627.78,1044,777,0
2291495,603.33,1044,773,0
2291505,579.49,1044,777,0
2291515,556.03,1044,774,0
2291525,534.98,1044,777,0
2291535,515.53,1044,773,0
2291545,499.25,1044,777,0
2291555,484.69,1044,774,0
2291565,472.87,1044,777,0
2291575,462.32,1044,773,0
2291585,454.26,1044,777,0
2291595,447.32,1044,775,0
2291605,442.47,1044,777,0
2291615,438.30,1044,773,0
2291625,436.19,1044,777,0
2291635,434.77,1044,775,0
2291645,434.96,1044,777,0
2291655,435.36,1044,773,0
2291665,437.01,1044,777,0
2291675,438.51,1044,775,0
2291685,440.88,1044,777,0
2291695,442.68,1044,773,0
2291705,444.87,1044,777,0
2291715,446.11,1044,775,0
2291725,447.32,1044,777,0
2291735,447.14,1044,773,0
2291745,446.45,1044,777,0
2291756,444.13,1044,772,0
2291766,441.22,1044,777,0
2291776,436.74,1044,771,0
2291786,431.85,1044,777,0
2291796,425.72,1044,770,0
2291806,419.59,1044,777,0
2291816,412.77,1044,771,0
2291826,406.50,1044,777,0
2291836,400.09,1044,771,0
2291846,394.88,1044,777,0
2291856,389.73,1044,771,0
2291866,385.78,1044,777,0
2291876,382.03,1044,771,0
2291886,379.54,1044,777,0
2291896,377.19,1044,771,0
2291906,375.98,1044,777,0
2291916,374.53,1044,771,0
2291927,374.03,1044,777,0
2291937,373.29,1044,770,0
2291947,373.37,1044,778,0
2291957,373.22,1044,770,0
2291968,373.75,1044,777,0
2291977,373.78,1044,770,0
2291987,374.36,1044,778,0
2291997,374.55,1044,770,0
2292007,375.20,1044,777,0
2292017,375.31,1044,770,0
2292027,375.78,1044,777,0
2292037,375.71,1044,770,0
2292047,375.97,1044,777,0
2292057,375.77,1044,770,0
2292067,375.88,1044,777,0
2292077,375.53,1044,770,0
2292087,375.50,1044,777,0
2292097,374.92,1044,770,0
2292107,374.69,1044,777,0
2292117,374.01,1044,770,0
2292127,373.66,1044,777,0
2292137,372.86,1044,769,0
2292147,372.48,1044,777,0
2292157,371.91,1044,770,0
2292167,372.11,1044,777,0
2292177,372.85,1044,769,0
2292187,375.55,1044,777,0
2292197,380.23,1044,770,0
2292207,388.56,1044,777,0
2292227,400.78,896,776,0
2292230,418.67,896,778,0
2292239,442.04,896,769,0
2292249,470.57,896,777,0
2292259,502.84,896,769,0
2292269,537.56,896,777,0
2292279,572.32,896,768,0
2292289,605.27,896,777,0
2292299,633.52,896,769,0
2292310,655.39,896,777,0
2292319,669.93,896,768,0
2292329,676.72,896,777,0
2292339,675.69,896,769,0
2292349,667.47,896,777,0
2292359,653.01,896,768,0
2292369,633.72,896,777,0
2292379,610.88,896,769,0
2292389,586.01,896,777,0
2292399,560.38,896,769,0
2292409,535.28,896,777,0
2292419,511.50,896,769,0
2292429,489.58,896,777,0
2292439,469.65,896,769,0
2292449,452.22,896,777,0
2292459,437.33,896,769,0
2292469,424.76,896,777,0
2292480,414.50,896,769,0
2292489,406.59,896,777,0
2292499,400.97,896,769,0
2292509,397.77,896,777,0
2292519,396.68,896,769,0
2292529,397.46,896,777,0
2292539,399.94,896,769,0
2292549,403.81,896,777,0
2292559,408.67,896,770,0
2292569,414.25,896,777,0
2292579,419.92,896,769,0
2292589,425.34,896,777,0
2292599,429.96,896,769,0
2292609,433.57,896,777,0
2292619,435.93,896,769,0
2292629,436.85,896,777,0
2292639,436.08,896,769,0
2292649,433.83,896,777,0
2292659,430.15,896,769,0
2292669,425.31,896,777,0
2292679,419.47,896,769,0
2292689,412.86,896,777,0
2292699,405.87,896,769,0
2292709,398.84,896,777,0
2292719,391.90,896,769,0
2292729,385.33,896,777,0
2292739,379.27,896,769,0
2292749,373.92,896,777,0
2292759,369.32,896,769,0
2292769,365.45,896,777,0
2292780,362.40,896,769,0
2292790,360.18,896,777,0
2292800,358.71,896,770,0
2292810,357.94,896,777,0
2292820,357.92,896,771,0
2292830,358.46,896,777,0
2292840,359.52,896,770,0
2292850,360.73,896,777,0
2292860,362.36,896,770,0
2292870,364.05,896,777,0
2292880,365.83,896,770,0
2292890,367.34,896,777,0
2292900,368.87,896,771,0
2292910,370.15,896,777,0
2292920,371.39,896,770,0
2292930,372.05,896,777,0
2292940,372.55,896,770,0
2292951,372.81,896,777,0
2292961,373.08,896,771,0
2292971,373.01,896,777,0
2292981,373.14,896,772,0
2292992,373.35,896,777,0
2293001,374.49,896,771,0
2293011,376.70,896,777,0
2293021,381.03,896,772,0
2293031,388.05,896,777,0
2293041,398.96,896,771,0
2293051,414.10,896,777,0
2293061,434.64,896,772,0
2293081,459.95,854,771,0
2293084,490.27,854,778,0
2293093,523.49,854,777,0
2293103,558.27,854,775,0
2293113,591.70,854,776,0
2293123,622.35,854,775,0
2293133,647.27,854,777,0
2293143,665.83,854,775,0
2293153,675.74,854,776,0
2293164,677.92,854,777,0
2293174,671.94,854,775,0
2293184,659.96,854,777,0
2293194,641.93,854,773,0
2293204,620.44,854,777,0
2293214,596.05,854,775,0
2293224,571.56,854,777,0
2293234,546.84,854,774,0
2293244,524.04,854,778,0
2293254,502.47,854,775,0
2293264,483.65,854,777,0
2293274,466.57,854,774,0
2293284,452.04,854,778,0
2293294,438.66,854,776,0
2293304,427.49,854,777,0
2293314,417.06,854,774,0
2293324,408.64,854,778,0
2293335,401.20,854,773,0
2293345,396.00,854,777,0
2293355,391.97,854,772,0
2293365,390.31,854,777,0
2293376,390.00,854,771,0
2293385,391.97,854,777,0
2293395,394.94,854,772,0
2293405,399.67,854,777,0
2293415,404.53,854,771,0
2293425,410.20,854,777,0
2293435,414.98,854,772,0
2293445,419.40,854,777,0
2293455,421.98,854,771,0
2293465,423.66,854,777,0
2293475,423.03,854,772,0
2293485,421.22,854,777,0
2293495,417.38,854,771,0
2293505,412.98,854,777,0
2293515,407.12,854,772,0
2293525,401.30,854,777,0
2293535,394.61,854,771,0
2293545,388.47,854,777,0
2293555,382.07,854,773,0
2293565,376.56,854,777,0
2293575,370.95,854,772,0
2293585,366.47,854,777,0
2293595,362.38,854,773,0
2293605,359.48,854,777,0
2293615,356.90,854,772,0
2293625,355.64,854,777,0
2293635,354.63,854,773,0
2293645,354.83,854,777,0
2293655,355.14,854,772,0
2293665,356.34,854,777,0
2293676,357.57,854,771,0
2293686,359.58,854,777,0
2293696,361.29,854,771,0
2293706,363.56,854,777,0
2293716,365.41,854,770,0
2293726,367.73,854,777,0
2293736,369.31,854,771,0
2293746,371.02,854,777,0
2293756,372.00,854,770,0
2293766,373.07,854,777,0
2293776,373.35,854,771,0
2293786,373.54,854,777,0
2293796,372.70,854,770,0
2293806,371.93,854,777,0
2293816,370.45,854,771,0
2293826,369.33,854,777,0
2293836,367.77,854,770,0
2293847,366.77,854,777,0
2293857,365.90,854,770,0
2293867,366.31,854,777,0
2293877,367.93,854,770,0
2293888,372.54,854,777,0
2293897,380.18,854,770,0
2293907,392.81,854,777,0
2293926,410.65,846,776,0
2293929,435.06,846,777,0
2293938,465.34,846,769,0
2293948,500.89,846,777,0
2293958,539.37,846,769,0
2293968,578.60,846,777,0
2293978,615.88,846,769,0
2293988,649.64,846,777,0
2293998,677.01,846,769,0
2294008,696.68,846,777,0
2294018,707.75,846,769,0
2294028,710.52,846,777,0
2294038,705.78,846,769,0
2294048,694.45,846,777,0
2294059,677.43,846,769,0
2294068,656.77,846,777,0
2294078,633.95,846,768,0
2294088,610.65,846,777,0
2294098,587.83,846,769,0
2294108,566.71,846,777,0
2294118,547.55,846,769,0
2294128,530.72,846,777,0
2294138,515.63,846,769,0
2294148,502.50,846,777,0
2294158,490.39,846,769,0
2294168,479.00,846,777,0
2294178,467.73,846,768,0
2294188,456.84,846,777,0
2294198,445.87,846,769,0
2294208,435.33,846,777,0
2294218,425.16,846,769,0
2294228,416.02,846,777,0
2294238,408.22,846,769,0
2294248,402.19,846,777,0
2294258,397.81,846,768,0
2294268,395.42,846,777,0
2294278,394.70,846,769,0
2294288,395.56,846,777,0
2294298,397.45,846,768,0
2294308,400.14,846,777,0
2294318,402.84,846,768,0
2294328,405.46,846,777,0
2294338,407.34,846,768,0
2294348,408.39,846,777,0
2294359,408.19,846,769,0
2294369,406.85,846,777,0
2294379,404.32,846,769,0
2294389,400.97,846,777,0
2294400,396.82,846,771,0
2294409,392.20,846,777,0
2294419,387.30,846,769,0
2294429,382.45,846,777,0
2294439,377.95,846,771,0
2294449,373.76,846,777,0
2294459,370.23,846,769,0
2294469,367.25,846,777,0
2294479,364.90,846,770,0
2294489,363.17,846,777,0
2294499,362.05,846,769,0
2294509,361.48,846,777,0
2294519,361.51,846,770,0
2294529,361.91,846,777,0
2294539,362.71,846,769,0
2294549,363.65,846,777,0
2294559,364.74,846,770,0
2294569,365.81,846,777,0
2294579,366.76,846,769,0
2294589,367.44,846,777,0
2294599,367.99,846,770,0
2294609,368.21,846,777,0
2294619,368.27,846,769,0
2294629,368.06,846,777,0
2294639,367.70,846,770,0
2294649,367.11,846,777,0
2294659,366.43,846,769,0
2294669,365.49,846,777,0
2294679,364.61,846,770,0
2294689,363.83,846,777,0
2294700,363.28,846,771,0
2294710,362.90,846,777,0
2294720,362.80,846,772,0
2294730,362.82,846,777,0
2294740,363.17,846,773,0
2294750,363.51,846,777,0
2294760,364.00,846,772,0
2294770,364.34,846,777,0
2294780,364.80,846,773,0
2294790,365.11,846,777,0
2294800,365.47,846,771,0
2294810,365.41,846,777,0
2294820,365.55,846,772,0
2294830,365.25,846,777,0
2294840,365.09,846,772,0
2294850,364.59,846,777,0
2294860,364.41,846,772,0
2294871,364.80,846,777,0
2294881,367.05,846,773,0
2294891,371.45,846,777,0
2294910,380.01,984,776,0
2294914,393.68,984,776,0
2294923,414.39,984,777,0
2294933,441.62,984,775,0
2294943,475.93,984,777,0
2294953,515.00,984,774,0
2294963,556.31,984,777,0
2294973,596.85,984,775,0
2294983,634.44,984,777,0
2294993,666.66,984,774,0
2295003,693.16,984,777,0
2295013,712.74,984,775,0
2295023,726.02,984,777,0
2295033,732.74,984,774,0
2295043,734.11,984,776,0
2295053,729.83,984,775,0
2295063,720.88,984,777,0
2295073,707.07,984,774,0
2295084,689.44,984,777,0
2295094,668.18,984,773,0
2295104,646.35,984,777,0
2295114,623.92,984,771,0
2295124,602.90,984,777,0
2295134,582.79,984,773,0
2295144,564.81,984,777,0
2295154,547.55,984,772,0
2295164,532.00,984,777,0
2295174,516.70,984,773,0
2295184,502.56,984,777,0
2295194,488.21,984,771,0
2295204,474.65,984,777,0
2295214,461.04,984,773,0
2295224,448.90,984,777,0
2295234,437.44,984,772,0
2295244,428.27,984,777,0
2295255,420.39,984,771,0
2295265,415.04,984,777,0
2295275,411.17,984,769,0
2295285,409.62,984,777,0
2295296,409.26,984,769,0
2295305,410.81,984,777,0
2295315,412.58,984,770,0
2295325,415.28,984,777,0
2295335,417.55,984,769,0
2295345,420.00,984,777,0
2295355,421.20,984,770,0
2295365,421.91,984,777,0
2295375,420.87,984,770,0
2295385,419.15,984,777,0
2295395,415.85,984,770,0
2295405,412.16,984,777,0
2295415,407.23,984,770,0
2295425,402.49,984,777,0
2295435,396.90,984,770,0
2295445,391.92,984,777,0
2295455,386.71,984,770,0
2295465,382.51,984,777,0
2295475,378.20,984,770,0
2295485,374.88,984,777,0
2295495,371.58,984,770,0
2295505,369.47,984,777,0
2295515,367.45,984,770,0
2295525,366.58,984,777,0
2295535,365.68,984,770,0
2295545,365.78,984,777,0
2295555,365.71,984,771,0
2295565,366.36,984,777,0
2295575,366.72,984,770,0
2295585,367.79,984,777,0
2295596,368.45,984,770,0
2295606,369.47,984,778,0
2295616,369.89,984,769,0
2295626,370.69,984,777,0
2295636,371.00,984,769,0
2295646,371.56,984,777,0
2295656,371.39,984,769,0
2295666,371.27,984,777,0
2295676,370.63,984,769,0
2295686,370.32,984,777,0
2295696,369.75,984,769,0
2295706,369.52,984,777,0
2295716,368.94,984,768,0
2295726,368.79,984,777,0
2295736,368.42,984,769,0
2295746,368.42,984,777,0
2295756,368.08,984,769,0
2295767,367.84,984,777,0
2295777,367.20,984,769,0
2295787,366.59,984,777,0
2295797,365.77,984,769,0
2295808,365.11,984,777,0
2295817,364.30,984,769,0
2295827,363.87,984,777,0
2295837,363.35,984,769,0
2295847,363.16,984,777,0
2295857,363.11,984,769,0
2295867,363.42,984,777,0
2295877,363.77,984,769,0
2295887,364.14,984,777,0
2295897,364.18,984,769,0
2295907,364.43,984,777,0
2295917,364.56,984,768,0
2295927,364.86,984,777,0
2295937,364.90,984,769,0
2295947,365.10,984,777,0
2295957,365.37,984,768,0
2295967,365.95,984,777,0
2295977,366.43,984,769,0
2295987,367.20,984,777,0
2295997,368.30,984,769,0
2296007,370.61,984,778,0
2296017,374.84,984,769,0
2296027,382.22,984,777,0
2296046,393.72,1136,776,0
2296049,411.42,1136,777,0
2296059,436.28,1136,772,0
2296069,467.78,1136,777,0
2296079,505.13,1136,770,0
2296089,545.29,1136,777,0
2296099,585.71,1136,771,0
2296109,624.28,1136,777,0
2296119,658.35,1136,770,0
2296129,686.19,1136,777,0
2296139,707.82,1136,771,0
2296150,722.53,1136,777,0
2296159,731.11,1136,770,0
2296169,733.61,1136,777,0
2296179,730.34,1136,771,0
2296189,721.45,1136,777,0
2296199,707.69,1136,770,0
2296209,689.27,1136,777,0
2296219,667.59,1136,771,0
2296229,644.01,1136,777,0
2296239,620.69,1136,770,0
2296249,598.33,1136,777,0
2296259,577.79,1136,771,0
2296269,558.74,1136,777,0
2296279,541.59,1136,770,0
2296289,525.55,1136,777,0
2296299,510.82,1136,771,0
2296309,496.51,1136,777,0
2296320,482.99,1136,772,0
2296329,470.05,1136,777,0
2296339,458.12,1136,771,0
2296349,446.94,1136,777,0
2296359,437.14,1136,772,0
2296369,428.62,1136,777,0
2296379,421.96,1136,771,0
2296389,417.04,1136,777,0
2296399,414.03,1136,772,0
2296409,412.69,1136,777,0
2296419,413.21,1136,771,0
2296429,414.86,1136,777,0
2296439,417.60,1136,772,0
2296449,420.59,1136,777,0
2296459,423.63,1136,771,0
2296469,426.06,1136,777,0
2296479,427.71,1136,772,0
2296489,428.01,1136,777,0
2296499,427.19,1136,771,0
2296509,424.95,1136,777,0
2296519,421.66,1136,772,0
2296529,417.22,1136,777,0
2296539,412.23,1136,771,0
2296549,406.72,1136,777,0
2296559,401.19,1136,772,0
2296569,395.52,1136,777,0
2296579,390.35,1136,771,0
2296589,385.66,1136,777,0
2296599,381.77,1136,772,0
2296609,378.37,1136,777,0
2296620,375.82,1136,773,0
2296630,373.64,1136,777,0
2296640,372.29,1136,773,0
2296650,371.09,1136,777,0
2296660,370.42,1136,774,0
2296670,369.82,1136,777,0
2296680,369.70,1136,773,0
2296690,369.54,1136,777,0
2296700,369.89,1136,774,0
2296710,370.22,1136,777,0
2296720,371.14,1136,773,0
2296730,371.91,1136,777,0
2296740,373.01,1136,774,0
2296750,373.91,1136,777,0
2296760,374.88,1136,773,0
2296770,375.34,1136,777,0
2296780,375.88,1136,774,0
2296791,375.79,1136,777,0
2296801,375.85,1136,775,0
2296811,375.51,1136,777,0
2296821,375.31,1136,776,0
2296832,374.66,1136,777,0
2296841,374.38,1136,775,0
2296851,373.67,1136,777,0
2296861,373.34,1136,776,0
2296871,372.46,1136,777,0
2296881,371.85,1136,775,0
2296891,370.78,1136,777,0
2296901,370.21,1136,776,0
2296911,369.12,1136,777,0
2296921,368.48,1136,775,0
2296931,367.44,1136,777,0
2296941,366.92,1136,775,0
2296951,366.09,1136,777,0
2296961,365.72,1136,775,0
2296971,365.07,1136,777,0
2296981,365.01,1136,775,0
2296991,364.53,1136,777,0
2297001,364.50,1136,776,0
2297011,364.14,1136,777,0
2297021,364.23,1136,775,0
2297031,363.94,1136,777,0
2297041,364.26,1136,776,0
2297051,364.23,1136,777,0
2297061,364.89,1136,775,0
2297071,365.35,1136,777,0
2297081,366.40,1136,776,0
2297091,367.27,1136,777,0
2297101,368.69,1136,775,0
2297111,369.55,1136,777,0
2297121,370.89,1136,776,0
2297132,371.52,1136,777,0
2297142,372.35,1136,777,0
2297152,372.42,1136,776,0
2297162,372.63,1136,777,0
2297172,372.14,1136,774,0
2297182,372.23,1136,777,0
2297192,372.37,1136,776,0
2297202,374.28,1136,777,0
2297212,377.97,1136,774,0
2297222,385.43,1136,777,0
2297241,396.83,1195,776,0
2297244,414.92,1195,779,0
2297254,439.20,1195,770,0
2297264,470.09,1195,777,0
2297274,505.80,1195,771,0
2297284,544.82,1195,777,0
2297294,584.09,1195,769,0
2297304,621.82,1195,777,0
2297314,655.00,1195,770,0
2297324,682.86,1195,777,0
2297334,703.64,1195,769,0
2297345,716.95,1195,777,0
2297355,722.19,1195,769,0
2297365,720.51,1195,778,0
2297375,712.08,1195,769,0
2297385,697.87,1195,777,0
2297395,678.28,1195,770,0
2297405,655.53,1195,777,0
2297415,630.68,1195,769,0
2297425,606.31,1195,777,0
2297435,582.94,1195,770,0
2297445,562.13,1195,777,0
2297455,543.58,1195,769,0
2297465,527.80,1195,777,0
2297475,513.81,1195,770,0
2297485,501.95,1195,777,0
2297495,490.82,1195,769,0
2297505,480.72,1195,777,0
2297516,470.90,1195,769,0
2297526,461.85,1195,777,0
2297536,453.06,1195,769,0
2297546,445.03,1195,777,0
2297556,437.48,1195,769,0
2297566,431.42,1195,777,0
2297576,426.58,1195,769,0
2297586,423.32,1195,777,0
2297596,421.38,1195,769,0
2297606,420.97,1195,777,0
2297616,421.53,1195,769,0
2297626,423.09,1195,777,0
2297636,424.82,1195,769,0
2297646,426.80,1195,777,0
2297656,428.32,1195,769,0
2297666,429.34,1195,777,0
2297676,429.36,1195,769,0
2297687,428.61,1195,777,0
2297697,426.71,1195,769,0
2297707,423.89,1195,777,0
2297717,419.85,1195,769,0
2297728,415.14,1195,777,0
2297737,409.70,1195,769,0
2297747,404.04,1195,777,0
2297757,398.37,1195,769,0
2297767,392.90,1195,777,0
2297777,387.83,1195,769,0
2297787,383.38,1195,777,0
2297797,379.54,1195,769,0
2297807,376.38,1195,777,0
2297817,373.78,1195,769,0
2297827,371.75,1195,777,0
2297837,370.24,1195,769,0
2297847,369.27,1195,777,0
2297857,368.59,1195,769,0
2297867,368.37,1195,777,0
2297877,368.47,1195,769,0
2297887,368.80,1195,777,0
2297897,369.29,1195,770,0
2297907,369.93,1195,777,0
2297917,370.51,1195,769,0
2297927,371.21,1195,777,0
2297937,371.88,1195,770,0
2297947,372.51,1195,777,0
2297957,372.96,1195,769,0
2297967,373.23,1195,777,0
2297977,373.42,1195,770,0
2297987,373.55,1195,777,0
2297997,373.47,1195,769,0
2298007,373.16,1195,777,0
2298017,372.64,1195,770,0
2298028,372.06,1195,777,0
2298038,371.40,1195,770,0
2298048,370.59,1195,777,0
2298058,369.82,1195,771,0
2298068,369.01,1195,777,0
2298078,368.24,1195,770,0
2298088,367.48,1195,777,0
2298098,366.91,1195,771,0
2298108,366.25,1195,777,0
2298118,365.62,1195,770,0
2298128,365.09,1195,777,0
2298138,364.81,1195,771,0
2298148,364.61,1195,777,0
2298158,364.60,1195,770,0
2298168,364.46,1195,777,0
2298178,364.54,1195,771,0
2298188,364.68,1195,777,0
2298199,364.94,1195,772,0
2298209,365.00,1195,777,0
2298219,365.26,1195,773,0
2298229,365.18,1195,777,0
2298240,365.34,1195,774,0
2298249,365.32,1195,777,0
2298259,365.53,1195,773,0
2298269,365.50,1195,777,0
2298279,365.82,1195,773,0
2298289,365.87,1195,777,0
2298299,366.43,1195,773,0
2298309,366.86,1195,777,0
2298319,367.71,1195,773,0
2298329,368.36,1195,777,0
2298339,369.19,1195,772,0
2298349,369.69,1195,777,0
2298359,370.43,1195,773,0
2298369,370.73,1195,777,0
2298379,371.32,1195,772,0
2298389,372.04,1195,777,0
2298399,373.96,1195,773,0
2298409,377.14,1195,777,0
2298428,383.06,1187,776,0
2298431,392.55,1187,777,0
2298441,407.82,1187,777,0
2298451,428.40,1187,776,0
2298461,454.89,1187,775,0
2298471,485.91,1187,777,0
2298481,521.17,1187,777,0
2298491,558.02,1187,776,0
2298501,594.74,1187,775,0
2298511,627.60,1187,777,0
2298521,655.62,1187,776,0
2298531,676.22,1187,776,0
2298541,689.48,1187,775,0
2298551,694.01,1187,777,0
2298561,691.01,1187,776,0
2298571,680.25,1187,776,0
2298582,663.97,1187,777,0
2298591,643.07,1187,777,0
2298601,620.38,1187,776,0
2298611,596.48,1187,776,0
2298621,573.79,1187,777,0
2298631,552.51,1187,777,0
2298641,534.23,1187,776,0
2298651,518.30,1187,776,0
2298661,505.70,1187,777,0
2298671,494.82,1187,777,0
2298681,486.26,1187,776,0
2298691,478.42,1187,776,0
2298701,471.70,1187,777,0
2298711,464.84,1187,777,0
2298721,458.81,1187,776,0
2298731,452.31,1187,776,0
2298741,446.60,1187,777,0
2298752,440.68,1187,775,0
2298761,435.97,1187,776,0
2298771,431.91,1187,776,0
2298781,429.49,1187,777,0
2298791,427.67,1187,776,0
2298801,427.39,1187,776,0
2298811,427.48,1187,776,0
2298821,428.88,1187,777,0
2298831,430.03,1187,776,0
2298841,431.74,1187,776,0
2298851,432.72,1187,777,0
2298861,433.79,1187,777,0
2298871,433.64,1187,776,0
2298881,433.27,1187,776,0
2298891,431.52,1187,777,0
2298901,429.35,1187,777,0
2298911,425.69,1187,776,0
2298921,421.75,1187,777,0
2298931,416.73,1187,777,0
2298941,411.79,1187,777,0
2298951,406.11,1187,776,0
2298961,400.94,1187,777,0
2298971,395.68,1187,777,0
2298981,391.41,1187,777,0
2298991,387.17,1187,776,0
2299001,383.95,1187,777,0
2299011,380.88,1187,777,0
2299021,378.99,1187,777,0
2299031,377.10,1187,776,0
2299041,376.09,1187,777,0
2299052,374.82,1187,775,0
2299062,374.40,1187,777,0
2299072,373.77,1187,774,0
2299082,373.88,1187,777,0
2299092,373.57,1187,772,0
2299102,374.09,1187,778,0
2299112,374.23,1187,774,0
2299122,375.23,1187,777,0
2299132,375.76,1187,773,0
2299142,376.86,1187,777,0
2299152,377.38,1187,774,0
2299162,378.42,1187,777,0
2299172,378.72,1187,773,0
2299182,379.53,1187,778,0
2299192,379.55,1187,774,0
2299202,379.90,1187,777,0
2299212,379.46,1187,773,0
2299223,379.49,1187,778,0
2299233,378.74,1187,772,0
2299243,378.39,1187,777,0
2299253,377.29,1187,771,0
2299264,376.64,1187,777,0
2299273,375.51,1187,772,0
2299283,374.97,1187,777,0
2299293,373.82,1187,771,0
2299303,373.32,1187,778,0
2299313,372.24,1187,772,0
2299323,371.69,1187,777,0
2299333,370.63,1187,771,0
2299343,370.01,1187,777,0
2299353,368.89,1187,772,0
2299363,368.45,1187,777,0
2299373,367.63,1187,771,0
2299383,367.49,1187,777,0
2299393,366.95,1187,772,0
2299403,367.18,1187,777,0
2299413,367.08,1187,771,0
2299423,367.62,1187,777,0
2299433,367.69,1187,770,0
2299443,368.30,1187,777,0
2299453,368.34,1187,771,0
2299463,368.88,1187,777,0
2299473,368.87,1187,771,0
2299483,369.55,1187,777,0
2299493,369.77,1187,771,0
2299503,370.53,1187,777,0
2299513,370.75,1187,771,0
2299523,371.77,1187,777,0
2299533,372.18,1187,771,0
2299543,373.03,1187,777,0
2299553,373.11,1187,771,0
2299564,373.63,1187,777,0
2299574,373.78,1187,770,0
2299584,374.75,1187,777,0
2299594,375.98,1187,770,0
2299604,379.46,1187,777,0
2299614,385.02,1187,770,0
2299633,394.66,1205,768,0
2299636,409.37,1205,769,0
2299646,430.39,1205,777,0
2299656,457.10,1205,768,0
2299666,489.60,1205,777,0
2299676,526.19,1205,769,0
2299686,564.92,1205,778,0
2299696,603.00,1205,768,0
2299706,637.93,1205,777,0
2299716,668.12,1205,768,0
2299726,692.26,1205,777,0
2299736,708.81,1205,768,0
2299746,717.14,1205,777,0
2299756,717.74,1205,768,0
2299766,711.47,1205,777,0
2299777,699.03,1205,769,0
2299787,681.19,1205,777,0
2299797,659.58,1205,770,0
2299807,635.79,1205,777,0
2299817,611.64,1205,770,0
2299827,588.60,1205,777,0
2299837,567.72,1205,770,0
2299847,549.46,1205,777,0
2299857,533.77,1205,770,0
2299867,520.38,1205,777,0
2299877,509.08,1205,770,0
2299887,499.20,1205,777,0
2299897,490.57,1205,771,0
2299907,482.60,1205,777,0
2299917,475.26,1205,770,0
2299927,468.50,1205,777,0
2299937,462.56,1205,771,0
2299948,457.38,1205,777,0
2299958,453.28,1205,771,0
2299968,450.02,1205,777,0
2299978,448.09,1205,772,0
2299988,447.12,1205,777,0
2299998,447.30,1205,771,0
2300008,447.94,1205,777,0
2300018,449.24,1205,772,0
2300028,450.54,1205,777,0
2300038,451.84,1205,771,0
2300048,452.48,1205,777,0
2300058,452.55,1205,772,0
2300068,451.49,1205,777,0
2300078,449.67,1205,771,0
2300088,446.55,1205,777,0
2300098,442.66,1205,772,0
2300108,437.70,1205,777,0
2300119,432.22,1205,773,0
2300129,425.98,1205,777,0
2300139,419.90,1205,774,0
2300149,413.50,1205,777,0
2300160,407.70,1205,775,0
2300169,402.09,1205,777,0
2300179,397.22,1205,774,0
2300189,392.48,1205,777,0
2300199,388.78,1205,775,0
2300209,385.16,1205,777,0
2300219,382.71,1205,774,0
2300229,380.61,1205,777,0
2300239,379.57,1205,775,0
2300249,378.80,1205,777,0
2300259,378.90,1205,774,0
2300269,379.02,1205,777,0
2300279,380.00,1205,775,0
2300289,380.94,1205,777,0
2300299,382.29,1205,773,0
2300309,383.19,1205,777,0
2300319,384.42,1205,775,0
2300329,385.23,1205,777,0
2300339,386.32,1205,774,0
2300349,386.74,1205,777,0
2300359,387.07,1205,774,0
2300369,386.80,1205,777,0
2300379,386.69,1205,773,0
2300389,386.09,1205,777,0
2300399,385.77,1205,774,0
2300409,384.85,1205,777,0
2300419,384.34,1205,773,0
2300429,383.47,1205,777,0
2300439,382.90,1205,774,0
2300449,381.90,1205,777,0
2300460,381.20,1205,775,0
2300470,380.07,1205,777,0
2300480,379.36,1205,776,0
2300490,378.23,1205,777,0
2300500,377.60,1205,777,0
2300510,376.73,1205,777,0
2300520,376.39,1205,775,0
2300530,375.76,1205,777,0
2300540,375.70,1205,777,0
2300550,375.40,1205,777,0
2300560,375.63,1205,775,0
2300570,375.35,1205,777,0
2300580,375.50,1205,777,0
2300590,375.27,1205,777,0
2300600,375.53,1205,775,0
2300610,375.29,1205,777,0
2300620,375.37,1205,777,0
2300631,374.87,1205,776,0
2300641,375.00,1205,777,0
2300651,374.57,1205,775,0
2300661,374.66,1205,777,0
2300672,374.12,1205,774,0
2300681,374.17,1205,777,0
2300691,373.86,1205,775,0
2300701,374.20,1205,777,0
2300711,374.23,1205,774,0
2300721,375.44,1205,777,0
2300731,377.33,1205,775,0
2300741,381.99,1205,777,0
2300751,389.10,1205,774,0
2300761,400.82,1205,777,0
2300780,417.29,1147,776,0
2300783,440.51,1147,778,0
2300793,469.42,1147,770,0
2300803,503.79,1147,777,0
2300813,541.10,1147,770,0
2300823,579.55,1147,777,0
2300833,616.37,1147,769,0
2300844,650.08,1147,777,0
2300854,677.57,1147,769,0
2300864,697.88,1147,777,0
2300874,709.40,1147,769,0
2300884,712.28,1147,777,0
2300894,707.05,1147,769,0
2300904,694.65,1147,777,0
2300914,675.39,1147,769,0
2300924,651.01,1147,777,0
2300934,622.94,1147,769,0
2300944,593.73,1147,778,0
2300954,564.37,1147,769,0
2300964,536.61,1147,777,0
2300974,510.93,1147,769,0
2300984,488.58,1147,777,0
2300994,469.21,1147,769,0
2301004,453.37,1147,777,0
2301015,440.23,1147,769,0
2301025,430.35,1147,777,0
2301035,423.04,1147,769,0
2301045,418.44,1147,777,0
2301056,416.00,1147,769,0
2301065,415.96,1147,777,0
2301075,417.68,1147,769,0
2301085,421.38,1147,777,0
2301095,426.54,1147,769,0
2301105,432.98,1147,777,0
2301115,440.14,1147,769,0
2301125,447.73,1147,777,0
2301135,455.14,1147,769,0
2301145,462.08,1147,777,0
2301155,467.76,1147,769,0
2301165,471.86,1147,778,0
2301175,473.87,1147,769,0
2301185,474.04,1147,777,0
2301195,472.10,1147,769,0
2301205,468.25,1147,777,0
2301215,462.44,1147,769,0
2301225,455.28,1147,777,0
2301235,446.88,1147,769,0
2301245,437.92,1147,777,0
2301255,428.43,1147,769,0
2301265,419.04,1147,777,0
2301275,409.86,1147,769,0
2301285,401.54,1147,777,0
2301295,394.05,1147,769,0
2301305,387.69,1147,777,0
2301315,382.39,1147,769,0
2301325,378.37,1147,777,0
2301335,375.30,1147,769,0
2301345,373.45,1147,777,0
2301356,372.29,1147,769,0
2301366,371.90,1147,777,0
2301376,372.23,1147,769,0
2301386,373.36,1147,777,0
2301396,374.97,1147,770,0
2301406,376.99,1147,777,0
2301416,379.14,1147,769,0
2301426,381.41,1147,777,0
2301436,383.69,1147,770,0
2301446,385.71,1147,777,0
2301456,387.17,1147,769,0
2301466,388.10,1147,777,0
2301476,388.67,1147,770,0
2301486,388.86,1147,777,0
2301496,388.77,1147,769,0
2301506,388.45,1147,777,0
2301516,388.02,1147,770,0
2301527,387.41,1147,777,0
2301537,386.73,1147,770,0
2301547,385.95,1147,777,0
2301557,385.24,1147,772,0
2301568,384.40,1147,777,0
2301577,383.63,1147,770,0
2301587,382.76,1147,777,0
2301597,382.19,1147,772,0
2301607,381.75,1147,777,0
2301617,381.78,1147,771,0
2301627,382.53,1147,777,0
2301637,384.94,1147,772,0
2301647,389.67,1147,777,0
2301657,397.83,1147,770,0
2301667,410.35,1147,777,0
2301686,428.46,906,776,0
2301689,452.71,906,776,0
2301698,482.80,906,772,0
2301708,517.49,906,777,0
2301718,554.88,906,772,0
2301728,592.50,906,777,0
2301739,628.14,906,773,0
2301748,659.94,906,777,0
2301758,685.93,906,772,0
2301768,704.12,906,777,0
2301778,713.90,906,773,0
2301788,715.00,906,777,0
2301798,708.57,906,772,0
2301808,694.81,906,777,0
2301818,674.64,906,773,0
2301828,649.12,906,777,0
2301838,620.58,906,772,0
2301848,590.49,906,777,0
2301858,560.82,906,774,0
2301868,532.46,906,777,0
2301878,506.91,906,773,0
2301888,483.92,906,777,0
2301898,464.06,906,773,0
2301908,446.90,906,777,0
2301918,432.91,906,773,0
2301928,421.41,906,777,0
2301938,412.59,906,774,0
2301948,405.73,906,777,0
2301958,401.48,906,773,0
2301968,399.28,906,777,0
2301978,399.67,906,773,0
2301988,401.78,906,777,0
2301998,406.05,906,772,0
2302008,411.52,906,777,0
2302018,418.39,906,773,0
2302028,425.60,906,777,0
2302039,433.26,906,774,0
2302049,440.17,906,777,0
2302059,446.38,906,775,0
2302069,450.64,906,777,0
2302080,453.66,906,776,0
2302089,454.53,906,777,0
2302099,453.73,906,775,0
2302109,450.43,906,777,0
2302119,445.58,906,776,0
2302129,438.77,906,777,0
2302139,431.16,906,775,0
2302149,421.86,906,777,0
2302159,412.34,906,776,0
2302169,402.43,906,777,0
2302179,393.34,906,775,0
2302189,384.45,906,777,0
2302199,377.07,906,776,0
2302209,370.58,906,777,0
2302219,366.08,906,775,0
2302229,362.54,906,777,0
2302239,360.54,906,776,0
2302249,359.22,906,777,0
2302259,359.50,906,775,0
2302269,359.99,906,777,0
2302279,361.45,906,776,0
2302289,362.73,906,777,0
2302299,364.65,906,775,0
2302309,366.26,906,777,0
2302319,368.28,906,776,0
2302329,369.70,906,777,0
2302339,371.54,906,775,0
2302349,372.92,906,777,0
2302359,374.70,906,776,0
2302369,375.82,906,777,0
2302380,377.20,906,776,0
2302390,377.91,906,776,0
2302400,379.05,906,777,0
2302410,379.55,906,775,0
2302420,380.33,906,777,0
2302430,380.40,906,776,0
2302440,380.80,906,777,0
2302450,380.51,906,775,0
2302460,380.57,906,777,0
2302470,379.89,906,776,0
2302480,379.58,906,777,0
2302490,378.76,906,776,0
2302500,378.96,906,777,0
2302510,379.79,906,776,0
2302520,383.11,906,777,0
2302530,389.03,906,775,0
2302540,399.95,906,777,0
2302560,416.04,874,776,0
2302563,439.77,874,778,0
2302572,470.14,874,770,0
2302582,506.74,874,777,0
2302593,546.16,874,769,0
2302603,586.40,874,778,0
2302613,624.46,874,769,0
2302623,658.87,874,777,0
2302633,686.94,874,768,0
2302643,708.47,874,777,0
2302653,723.50,874,769,0
2302663,734.06,874,777,0
2302673,740.05,874,768,0
2302683,741.49,874,777,0
2302693,737.53,874,769,0
2302703,728.37,874,777,0
2302713,713.52,874,768,0
2302723,693.90,874,777,0
2302733,669.68,874,770,0
2302743,643.03,874,778,0
2302753,614.91,874,769,0
2302764,587.55,874,777,0
2302774,561.28,874,769,0
2302784,537.33,874,777,0
2302794,515.07,874,769,0
2302804,494.78,874,778,0
2302814,475.90,874,769,0
2302824,458.83,874,777,0
2302834,443.07,874,769,0
2302844,429.12,874,778,0
2302854,416.78,874,769,0
2302864,406.69,874,777,0
2302874,398.73,874,769,0
2302884,393.28,874,778,0
2302894,390.11,874,769,0
2302904,389.35,874,777,0
2302914,390.44,874,769,0
2302924,393.40,874,778,0
2302935,397.52,874,769,0
2302945,402.51,874,777,0
2302955,407.46,874,769,0
2302965,412.03,874,778,0
2302976,415.62,874,770,0
2302985,418.09,874,777,0
2302995,418.92,874,769,0
2303005,417.96,874,778,0
2303015,415.14,874,770,0
2303025,410.86,874,777,0
2303035,405.20,874,769,0
2303045,398.63,874,777,0
2303055,391.45,874,770,0
2303065,384.25,874,778,0
2303075,377.23,874,769,0
2303085,370.82,874,777,0
2303095,365.13,874,770,0
2303105,360.38,874,777,0
2303115,356.66,874,769,0
2303125,354.06,874,777,0
2303135,352.33,874,770,0
2303145,351.63,874,777,0
2303155,351.66,874,769,0
2303165,352.40,874,777,0
2303175,353.82,874,770,0
2303185,355.68,874,777,0
2303195,357.66,874,769,0
2303205,359.65,874,777,0
2303215,361.47,874,770,0
2303225,363.13,874,777,0
2303235,364.50,874,769,0
2303245,365.60,874,777,0
2303255,366.40,874,770,0
2303265,367.05,874,777,0
2303276,367.59,874,770,0
2303286,367.93,874,777,0
2303296,368.29,874,771,0
2303306,368.42,874,777,0
2303316,368.42,874,772,0
2303326,368.21,874,777,0
2303336,367.85,874,771,0
2303346,367.29,874,777,0
2303356,366.73,874,772,0
2303366,365.91,874,777,0
2303376,365.21,874,771,0
2303386,364.46,874,777,0
2303396,363.94,874,772,0
2303406,363.44,874,777,0
2303416,363.18,874,771,0
2303426,362.87,874,777,0
2303436,362.82,874,771,0
2303447,362.70,874,777,0
2303457,362.79,874,773,0
2303467,362.56,874,777,0
2303477,362.43,874,773,0
2303488,362.00,874,777,0
2303497,361.74,874,773,0
2303507,361.18,874,777,0
2303517,361.00,874,773,0
2303527,360.95,874,777,0
2303537,362.30,874,772,0
2303547,365.46,874,777,0
2303557,372.31,874,773,0
2303577,383.79,1016,772,0
2303580,403.01,1016,778,0
2303590,430.18,1016,775,0
2303600,466.00,1016,778,0
2303610,506.88,1016,773,0
2303620,550.25,1016,778,0
2303630,593.20,1016,774,0
2303640,633.60,1016,778,0
2303650,667.92,1016,773,0
2303660,695.11,1016,777,0
2303670,714.11,1016,775,0
2303680,727.45,1016,777,0
2303690,736.74,1016,773,0
2303700,743.29,1016,778,0
2303710,747.87,1016,775,0
2303720,751.13,1016,778,0
2303730,751.22,1016,773,0
2303740,747.94,1016,778,0
2303750,740.29,1016,775,0
2303760,728.63,1016,778,0
2303770,712.15,1016,774,0
2303780,691.49,1016,778,0
2303790,666.40,1016,775,0
2303800,639.71,1016,778,0
2303810,611.43,1016,774,0
2303820,583.57,1016,778,0
2303831,555.46,1016,772,0
2303841,528.83,1016,777,0
2303851,502.78,1016,771,0
2303861,478.51,1016,778,0
2303872,455.17,1016,771,0
2303881,434.55,1016,777,0
2303891,415.65,1016,772,0
2303901,400.11,1016,778,0
2303911,387.09,1016,771,0
2303921,377.94,1016,777,0
2303931,371.53,1016,772,0
2303941,369.01,1016,777,0
2303951,368.84,1016,771,0
2303961,371.71,1016,777,0
2303971,375.91,1016,772,0
2303981,381.73,1016,777,0
2303991,387.47,1016,771,0
2304001,393.71,1016,777,0
2304011,398.60,1016,772,0
2304021,402.79,1016,778,0
2304031,404.87,1016,771,0
2304041,405.72,1016,777,0
2304051,404.35,1016,772,0
2304061,402.01,1016,777,0
2304071,397.51,1016,771,0
2304081,392.43,1016,777,0
2304091,385.91,1016,772,0
2304101,379.64,1016,777,0
2304111,372.98,1016,771,0
2304121,367.20,1016,777,0
2304131,361.35,1016,772,0
2304141,356.92,1016,777,0
2304151,352.70,1016,771,0
2304161,349.96,1016,777,0
2304172,347.53,1016,771,0
2304182,346.26,1016,777,0
2304192,345.19,1016,770,0
2304202,345.09,1016,777,0
2304212,345.02,1016,769,0
2304222,345.92,1016,777,0
2304232,346.71,1016,770,0
2304242,348.13,1016,777,0
2304252,349.12,1016,769,0
2304262,350.67,1016,777,0
2304272,351.80,1016,770,0
2304282,353.36,1016,777,0
2304292,354.54,1016,770,0
2304302,356.05,1016,777,0
2304312,356.98,1016,770,0
2304322,358.40,1016,777,0
2304332,359.35,1016,770,0
2304343,360.62,1016,777,0
2304353,361.25,1016,769,0
2304363,361.94,1016,777,0
2304373,362.09,1016,769,0
2304384,362.23,1016,777,0
2304393,361.78,1016,769,0
2304403,361.24,1016,777,0
2304413,360.49,1016,769,0
2304423,359.95,1016,777,0
2304433,359.11,1016,769,0
2304443,358.43,1016,777,0
2304453,357.70,1016,769,0
2304463,357.19,1016,777,0
2304473,356.45,1016,769,0
2304483,355.80,1016,777,0
2304493,354.92,1016,769,0
2304503,354.34,1016,777,0
2304513,353.60,1016,769,0
2304523,353.33,1016,777,0
2304533,353.06,1016,769,0
2304543,353.30,1016,777,0
2304553,353.51,1016,769,0
2304563,354.26,1016,777,0
2304573,354.91,1016,769,0
2304583,355.96,1016,777,0
2304593,356.83,1016,769,0
2304603,358.00,1016,777,0
2304613,359.07,1016,769,0
2304623,360.29,1016,777,0
2304633,361.19,1016,769,0
2304643,362.29,1016,777,0
2304653,363.02,1016,769,0
2304663,363.78,1016,777,0
2304673,364.41,1016,769,0
2304684,365.70,1016,777,0
2304694,368.10,1016,769,0
2304704,373.00,1016,777,0
2304723,381.27,1147,776,0
2304727,395.33,1147,777,0
2304737,416.62,1147,773,0
2304747,445.49,1147,777,0
2304757,481.69,1147,774,0
2304768,522.32,1147,777,0
2304777,564.48,1147,772,0
2304787,605.91,1147,777,0
2304797,643.65,1147,773,0
2304807,675.43,1147,777,0
2304817,700.46,1147,772,0
2304827,718.02,1147,777,0
2304837,730.31,1147,773,0
2304847,738.49,1147,777,0
2304857,742.42,1147,772,0
2304867,741.22,1147,777,0
2304877,734.98,1147,773,0
2304887,723.24,1147,777,0
2304897,706.76,1147,772,0
2304907,685.40,1147,777,0
2304917,660.60,1147,773,0
2304927,633.76,1147,777,0
2304937,607.39,1147,774,0
2304947,581.90,1147,777,0
2304957,558.57,1147,773,0
2304967,536.76,1147,777,0
2304977,517.25,1147,774,0
2304987,498.83,1147,777,0
2304997,481.69,1147,773,0
2305007,464.73,1147,777,0
2305017,448.61,1147,775,0
2305027,432.96,1147,777,0
2305037,418.57,1147,773,0
2305047,405.16,1147,777,0
2305057,393.88,1147,774,0
2305068,384.57,1147,777,0
2305078,378.36,1147,775,0
2305088,374.57,1147,777,0
2305098,373.71,1147,776,0
2305108,374.65,1147,776,0
2305118,377.63,1147,775,0
2305128,381.47,1147,777,0
2305138,386.51,1147,776,0
2305148,391.29,1147,776,0
2305158,396.17,1147,775,0
2305168,399.81,1147,777,0
2305178,402.99,1147,776,0
2305188,404.50,1147,777,0
2305198,405.03,1147,775,0
2305208,403.69,1147,777,0
2305218,401.43,1147,776,0
2305228,397.44,1147,777,0
2305239,393.11,1147,777,0
2305249,387.76,1147,776,0
2305259,382.86,1147,777,0
2305269,377.50,1147,774,0
2305280,372.64,1147,777,0
2305289,367.65,1147,776,0
2305299,363.85,1147,777,0
2305309,360.25,1147,775,0
2305319,357.78,1147,777,0
2305329,355.36,1147,776,0
2305339,354.09,1147,777,0
2305349,352.99,1147,775,0
2305359,353.04,1147,777,0
2305369,352.81,1147,776,0
2305379,353.38,1147,777,0
2305389,353.57,1147,775,0
2305399,354.43,1147,777,0
2305409,354.90,1147,776,0
2305419,356.04,1147,778,0
2305429,356.59,1147,775,0
2305439,357.74,1147,777,0
2305449,358.12,1147,774,0
2305459,359.07,1147,778,0
2305469,359.48,1147,775,0
2305479,360.49,1147,777,0
2305489,360.90,1147,774,0
2305499,361.83,1147,777,0
2305509,362.14,1147,775,0
2305519,363.04,1147,777,0
2305529,363.24,1147,774,0
2305539,363.81,1147,777,0
2305549,363.44,1147,775,0
2305559,363.39,1147,777,0
2305569,362.50,1147,774,0
2305580,361.97,1147,777,0
2305590,360.73,1147,773,0
2305600,360.00,1147,777,0
2305610,358.63,1147,772,0
2305620,357.88,1147,777,0
2305630,356.63,1147,773,0
2305640,356.19,1147,777,0
2305650,355.23,1147,772,0
2305660,354.99,1147,778,0
2305670,354.31,1147,773,0
2305680,354.39,1147,777,0
2305690,354.01,1147,772,0
2305700,354.27,1147,777,0
2305710,353.97,1147,773,0
2305720,354.37,1147,777,0
2305730,354.43,1147,772,0
2305740,355.24,1147,778,0
2305751,355.56,1147,771,0
2305761,356.50,1147,777,0
2305771,357.08,1147,770,0
2305781,358.17,1147,777,0
2305792,358.72,1147,770,0
2305801,359.62,1147,777,0
2305811,359.86,1147,770,0
2305821,360.50,1147,778,0
2305831,360.48,1147,770,0
2305841,360.72,1147,777,0
2305851,360.55,1147,770,0
2305861,361.24,1147,777,0
2305871,362.37,1147,770,0
2305881,365.52,1147,777,0
2305891,370.55,1147,770,0
2305901,379.68,1147,777,0
2305921,393.41,1197,776,0
2305924,414.20,1197,778,0
2305934,441.91,1197,769,0
2305944,476.48,1197,778,0
2305954,515.55,1197,769,0
2305964,556.91,1197,777,0
2305974,597.57,1197,768,0
2305984,635.63,1197,777,0
2305994,668.31,1197,769,0
2306004,694.49,1197,777,0
2306014,712.77,1197,768,0
2306024,722.87,1197,777,0
2306034,725.39,1197,769,0
2306044,720.78,1197,777,0
2306054,709.74,1197,768,0
2306064,692.76,1197,778,0
2306074,670.59,1197,769,0
2306084,644.79,1197,777,0
2306094,617.55,1197,768,0
2306104,590.73,1197,777,0
2306114,565.61,1197,769,0
2306124,542.80,1197,777,0
2306135,522.76,1197,770,0
2306145,505.26,1197,777,0
2306155,490.31,1197,771,0
2306165,477.15,1197,777,0
2306176,465.40,1197,771,0
2306185,454.70,1197,777,0
2306195,444.84,1197,771,0
2306205,435.59,1197,777,0
2306215,427.31,1197,771,0
2306225,420.11,1197,777,0
2306235,414.46,1197,771,0
2306245,410.42,1197,777,0
2306255,408.50,1197,771,0
2306265,408.39,1197,777,0
2306275,410.29,1197,771,0
2306285,413.54,1197,777,0
2306295,417.97,1197,771,0
2306305,422.90,1197,777,0
2306315,428.03,1197,771,0
2306325,432.35,1197,777,0
2306335,435.80,1197,771,0
2306345,437.71,1197,777,0
2306355,438.22,1197,771,0
2306365,436.96,1197,777,0
2306375,434.18,1197,771,0
2306385,429.67,1197,777,0
2306395,424.16,1197,771,0
2306405,417.68,1197,777,0
2306415,410.92,1197,771,0
2306425,403.83,1197,777,0
2306435,397.07,1197,771,0
2306445,390.62,1197,777,0
2306455,384.99,1197,771,0
2306465,379.76,1197,777,0
2306476,375.51,1197,772,0
2306486,371.80,1197,777,0
2306496,369.12,1197,773,0
2306506,366.72,1197,777,0
2306516,365.09,1197,774,0
2306526,363.78,1197,777,0
2306536,363.42,1197,773,0
2306546,363.21,1197,777,0
2306556,363.79,1197,774,0
2306566,364.41,1197,777,0
2306576,366.00,1197,773,0
2306586,367.63,1197,777,0
2306596,369.80,1197,774,0
2306606,371.79,1197,777,0
2306616,373.99,1197,773,0
2306626,375.67,1197,778,0
2306636,377.35,1197,774,0
2306647,378.02,1197,777,0
2306657,378.48,1197,775,0
2306667,378.25,1197,777,0
2306677,378.13,1197,776,0
2306688,377.32,1197,777,0
2306697,376.75,1197,775,0
2306707,375.80,1197,777,0
2306717,375.56,1197,776,0
2306727,375.01,1197,777,0
2306737,374.83,1197,775,0
2306747,373.90,1197,777,0
2306757,373.33,1197,775,0
2306767,372.03,1197,777,0
2306777,371.08,1197,775,0
2306787,369.34,1197,777,0
2306797,368.08,1197,776,0
2306807,366.56,1197,777,0
2306817,366.13,1197,775,0
2306827,366.39,1197,777,0
2306837,368.80,1197,775,0
2306847,373.11,1197,777,0
2306857,381.43,1197,776,0
2306867,393.64,1197,777,0
2306877,411.58,1197,775,0
2306896,434.72,976,774,0
2306899,464.33,976,779,0
2306908,498.52,976,776,0
2306918,536.46,976,777,0
2306928,574.90,976,775,0
2306938,612.21,976,778,0
2306948,645.36,976,776,0
2306958,673.15,976,777,0
2306968,692.14,976,775,0
2306978,702.68,976,778,0
2306988,703.81,976,776,0
2306998,696.96,976,777,0
2307008,682.40,976,775,0
2307018,662.18,976,777,0
2307028,636.84,976,774,0
2307038,609.72,976,777,0
2307048,581.30,976,776,0
2307058,554.00,976,777,0
2307068,527.86,976,774,0
2307078,504.71,976,777,0
2307088,483.76,976,776,0
2307098,466.09,976,778,0
2307108,450.12,976,775,0
2307118,436.75,976,777,0
2307128,424.61,976,776,0
2307138,414.70,976,777,0
2307148,405.62,976,775,0
2307159,398.62,976,778,0
2307169,392.65,976,773,0
2307179,389.11,976,778,0
2307189,386.76,976,772,0
2307200,386.92,976,778,0
2307209,388.32,976,774,0
2307219,392.16,976,777,0
2307229,396.66,976,772,0
2307239,402.72,976,777,0
2307249,408.59,976,774,0
2307259,415.01,976,777,0
2307269,420.19,976,772,0
2307279,424.81,976,778,0
2307289,427.31,976,774,0
2307299,428.80,976,777,0
2307309,427.92,976,772,0
2307319,425.84,976,778,0
2307329,421.56,976,774,0
2307339,416.55,976,778,0
2307349,409.96,976,773,0
2307359,403.20,976,778,0
2307369,395.47,976,772,0
2307379,388.38,976,777,0
2307389,381.07,976,773,0
2307399,374.96,976,778,0
2307409,368.97,976,772,0
2307419,364.57,976,778,0
2307429,360.58,976,773,0
2307439,358.22,976,778,0
2307449,356.23,976,772,0
2307459,355.77,976,778,0
2307469,355.46,976,773,0
2307479,356.39,976,778,0
2307489,357.13,976,772,0
2307500,358.72,976,777,0
2307510,360.00,976,771,0
2307520,361.89,976,778,0
2307530,363.29,976,770,0
2307540,365.18,976,777,0
2307550,366.50,976,771,0
2307560,368.36,976,778,0
2307570,369.58,976,770,0
2307580,371.12,976,777,0
2307590,371.98,976,771,0
2307600,373.06,976,777,0
2307610,373.39,976,770,0
2307620,373.96,976,777,0
2307630,373.67,976,771,0
2307640,373.64,976,777,0
2307650,372.98,976,770,0
2307660,372.64,976,777,0
2307671,371.68,976,770,0
2307681,371.09,976,777,0
2307691,370.03,976,769,0
2307701,369.38,976,777,0
2307712,368.49,976,769,0
2307721,368.05,976,777,0
2307731,367.26,976,769,0
2307741,366.97,976,778,0
2307751,366.46,976,769,0
2307761,366.24,976,777,0
2307771,365.65,976,769,0
2307781,365.41,976,777,0
2307791,365.12,976,769,0
2307801,365.73,976,777,0
2307811,367.14,976,770,0
2307821,371.08,976,778,0
2307831,378.26,976,769,0
2307841,390.48,976,777,0
2307860,408.25,964,776,0
2307863,433.76,964,777,0
2307872,466.62,964,768,0
2307883,505.30,964,777,0
2307892,546.40,964,768,0
2307902,587.59,964,777,0
2307912,626.42,964,768,0
2307922,661.09,964,777,0
2307932,689.13,964,768,0
2307942,709.92,964,777,0
2307952,724.52,964,768,0
2307962,734.73,964,777,0
2307972,740.04,964,768,0
2307982,740.03,964,777,0
2307992,734.28,964,768,0
2308002,722.79,964,777,0
2308012,705.80,964,768,0
2308022,683.79,964,777,0
2308032,656.98,964,768,0
2308042,627.97,964,777,0
2308052,598.49,964,769,0
2308062,570.45,964,777,0
2308072,544.38,964,769,0
2308082,520.91,964,777,0
2308092,499.81,964,769,0
2308102,481.44,964,777,0
2308112,465.06,964,769,0
2308122,450.73,964,777,0
2308132,437.83,964,769,0
2308142,426.69,964,778,0
2308152,417.06,964,769,0
2308162,409.24,964,777,0
2308172,403.04,964,769,0
2308183,398.87,964,777,0
2308193,396.81,964,769,0
2308203,396.82,964,777,0
2308213,398.51,964,770,0
2308224,401.61,964,777,0
2308233,405.63,964,769,0
2308243,410.20,964,777,0
2308253,414.72,964,769,0
2308263,418.49,964,777,0
2308273,421.13,964,769,0
2308283,422.46,964,777,0
2308293,422.37,964,769,0
2308303,420.80,964,777,0
2308313,417.82,964,769,0
2308323,413.63,964,777,0
2308333,408.34,964,769,0
2308343,402.32,964,777,0
2308353,395.88,964,769,0
2308363,389.32,964,777,0
2308373,382.84,964,769,0
2308383,376.59,964,777,0
2308393,370.80,964,770,0
2308403,365.71,964,777,0
2308413,361.39,964,769,0
2308423,357.76,964,777,0
2308433,354.91,964,771,0
2308443,352.84,964,777,0
2308453,351.56,964,769,0
2308463,350.92,964,777,0
2308473,350.99,964,770,0
2308483,351.63,964,777,0
2308493,352.69,964,769,0
2308503,353.98,964,777,0
2308513,355.57,964,770,0
2308524,357.29,964,777,0
2308534,359.17,964,771,0
2308544,360.92,964,777,0
2308554,362.74,964,772,0
2308564,364.32,964,777,0
2308574,365.90,964,771,0
2308584,367.08,964,777,0
2308594,368.26,964,772,0
2308604,369.04,964,777,0
2308614,369.71,964,770,0
2308624,369.93,964,777,0
2308634,370.16,964,772,0
2308644,369.94,964,777,0
2308654,369.66,964,771,0
2308664,368.99,964,778,0
2308674,368.31,964,772,0
2308684,367.40,964,777,0
2308695,366.55,964,772,0
2308705,365.44,964,777,0
2308715,364.54,964,773,0
2308725,363.48,964,777,0
2308736,362.82,964,774,0
2308745,362.10,964,777,0
2308755,361.69,964,773,0
2308765,361.18,964,777,0
2308775,361.25,964,774,0
2308785,361.35,964,777,0
2308795,361.84,964,773,0
2308805,362.06,964,777,0
2308815,362.86,964,774,0
2308825,363.63,964,777,0
2308835,364.81,964,773,0
2308845,365.60,964,777,0
2308855,366.53,964,774,0
2308865,367.06,964,777,0
2308875,367.68,964,773,0
2308885,367.61,964,777,0
2308895,367.60,964,774,0
2308905,367.50,964,777,0
2308915,368.55,964,773,0
2308925,371.13,964,777,0
2308935,377.09,964,774,0
2308945,387.56,964,777,0
2308964,404.54,1104,776,0
2308967,429.28,1104,776,0
2308977,463.09,1104,777,0
2308987,502.41,1104,775,0
2308997,544.67,1104,776,0
2309007,587.03,1104,776,0
2309017,627.13,1104,777,0
2309027,662.58,1104,775,0
2309037,691.25,1104,776,0
2309047,711.45,1104,776,0
2309057,725.63,1104,777,0
2309067,735.51,1104,775,0
2309078,742.47,1104,778,0
2309087,747.34,1104,776,0
2309097,749.64,1104,777,0
2309107,747.61,1104,775,0
2309117,741.17,1104,778,0
2309127,729.67,1104,776,0
2309137,713.66,1104,777,0
2309147,692.72,1104,775,0
2309157,667.82,1104,777,0
2309167,640.01,1104,777,0
2309177,612.32,1104,777,0
2309187,584.80,1104,775,0
2309197,559.19,1104,777,0
2309207,534.96,1104,777,0
2309217,513.16,1104,777,0
2309227,492.58,1104,775,0
2309237,474.24,1104,778,0
2309248,456.94,1104,775,0
2309257,442.04,1104,777,0
2309267,428.40,1104,776,0
2309277,417.22,1104,778,0
2309287,407.73,1104,775,0
2309297,401.21,1104,777,0
2309307,396.56,1104,776,0
2309317,394.85,1104,778,0
2309327,394.68,1104,775,0
2309337,396.92,1104,777,0
2309347,399.99,1104,776,0
2309357,404.58,1104,778,0
2309367,408.86,1104,775,0
2309377,413.49,1104,776,0
2309387,416.98,1104,776,0
2309397,420.07,1104,778,0
2309407,421.30,1104,775,0
2309417,421.59,1104,777,0
2309427,419.70,1104,776,0
2309437,417.00,1104,778,0
2309447,412.37,1104,775,0
2309457,407.21,1104,777,0
2309467,400.67,1104,776,0
2309477,394.30,1104,777,0
2309487,387.31,1104,775,0
2309497,381.13,1104,777,0
2309507,374.83,1104,776,0
2309517,369.87,1104,778,0
2309527,365.02,1104,775,0
2309537,361.67,1104,778,0
2309548,358.77,1104,774,0
2309558,357.34,1104,778,0
2309568,356.08,1104,773,0
2309578,355.97,1104,778,0
2309588,355.77,1104,772,0
2309598,356.52,1104,778,0
2309608,356.88,1104,773,0
2309618,357.77,1104,777,0
2309628,358.06,1104,772,0
2309638,359.07,1104,778,0
2309648,359.52,1104,773,0
2309658,360.52,1104,777,0
2309668,361.01,1104,772,0
2309678,362.16,1104,778,0
2309688,362.63,1104,773,0
2309698,363.55,1104,777,0
2309708,363.64,1104,772,0
2309719,364.18,1104,778,0
2309729,364.00,1104,771,0
2309739,364.34,1104,778,0
2309749,363.90,1104,770,0
2309760,364.01,1104,778,0
2309769,363.54,1104,771,0
2309779,363.55,1104,777,0
2309789,363.00,1104,770,0
2309799,362.91,1104,778,0
2309809,362.17,1104,771,0
2309819,361.86,1104,777,0
2309829,360.92,1104,770,0
2309839,360.38,1104,778,0
2309849,359.33,1104,771,0
2309859,358.67,1104,777,0
2309869,357.48,1104,770,0
2309879,356.82,1104,778,0
2309889,355.72,1104,771,0
2309899,355.29,1104,778,0
2309909,354.52,1104,771,0
2309919,354.45,1104,778,0
2309929,354.18,1104,770,0
2309939,354.69,1104,777,0
2309949,354.87,1104,771,0
2309959,355.72,1104,777,0
2309969,356.23,1104,770,0
2309979,357.41,1104,777,0
2309989,358.18,1104,771,0
2309999,359.41,1104,778,0
2310009,360.23,1104,770,0
2310019,361.62,1104,777,0
2310029,362.42,1104,771,0
2310039,363.62,1104,777,0
2310049,364.25,1104,770,0
2310060,365.38,1104,778,0
2310070,366.42,1104,770,0
2310080,368.65,1104,777,0
2310090,372.27,1104,769,0
2310100,379.39,1104,777,0
2310119,390.33,1155,776,0
2310122,408.06,1155,778,0
2310132,433.41,1155,769,0
2310142,467.15,1155,777,0
2310152,506.27,1155,769,0
2310162,548.11,1155,777,0
2310172,589.86,1155,769,0
2310182,629.72,1155,778,0
2310192,664.52,1155,768,0
2310202,692.30,1155,777,0
2310212,712.23,1155,769,0
2310222,726.17,1155,778,0
2310232,735.98,1155,768,0
2310242,742.80,1155,777,0
2310252,747.57,1155,769,0
2310262,748.94,1155,778,0
2310273,745.79,1155,769,0
2310283,737.37,1155,777,0
2310293,723.54,1155,770,0
2310303,704.27,1155,777,0
2310313,680.06,1155,771,0
2310323,651.28,1155,777,0
2310333,620.47,1155,770,0
2310343,589.56,1155,777,0
2310353,560.25,1155,771,0
2310363,533.09,1155,777,0
2310373,508.72,1155,771,0
2310383,486.99,1155,777,0
2310393,468.01,1155,771,0
2310403,451.46,1155,778,0
2310413,437.39,1155,771,0
2310423,425.40,1155,777,0
2310433,415.73,1155,771,0
2310444,408.09,1155,777,0
2310454,402.79,1155,773,0
2310464,399.38,1155,777,0
2310474,398.20,1155,773,0
2310484,398.74,1155,777,0
2310494,401.00,1155,772,0
2310504,404.34,1155,777,0
2310514,408.66,1155,773,0
2310524,413.04,1155,777,0
2310534,417.45,1155,772,0
2310544,420.83,1155,777,0
2310554,423.36,1155,773,0
2310564,424.20,1155,777,0
2310574,423.75,1155,772,0
2310584,421.47,1155,777,0
2310594,417.94,1155,773,0
2310604,412.86,1155,777,0
2310615,407.07,1155,774,0
2310625,400.28,1155,777,0
2310635,393.55,1155,775,0
2310645,386.32,1155,777,0
2310656,379.75,1155,776,0
2310665,373.27,1155,777,0
2310675,367.92,1155,775,0
2310685,363.06,1155,777,0
2310695,359.48,1155,776,0
2310705,356.51,1155,777,0
2310715,354.94,1155,775,0
2310725,353.80,1155,777,0
2310735,353.78,1155,776,0
2310745,353.97,1155,777,0
2310755,355.09,1155,775,0
2310765,356.14,1155,777,0
2310775,357.72,1155,775,0
2310785,358.92,1155,777,0
2310795,360.57,1155,774,0
2310805,361.94,1155,777,0
2310815,363.68,1155,776,0
2310825,364.97,1155,777,0
2310835,366.48,1155,774,0
2310845,367.54,1155,777,0
2310855,369.05,1155,775,0
2310865,369.85,1155,777,0
2310875,370.88,1155,774,0
2310885,371.26,1155,777,0
2310895,371.61,1155,775,0
2310905,371.30,1155,777,0
2310915,371.12,1155,774,0
2310925,370.23,1155,777,0
2310935,369.65,1155,775,0
2310945,368.47,1155,777,0
2310956,367.60,1155,776,0
2310966,366.26,1155,777,0
2310976,365.54,1155,777,0
2310986,364.35,1155,776,0
2310996,363.69,1155,777,0
2311006,362.54,1155,777,0
2311016,361.86,1155,777,0
2311026,360.92,1155,776,0
2311036,360.81,1155,777,0
2311046,360.48,1155,777,0
2311056,360.85,1155,777,0
2311066,360.81,1155,776,0
2311076,361.60,1155,777,0
2311086,362.15,1155,777,0
2311096,363.13,1155,776,0
2311106,363.52,1155,776,0
2311116,364.26,1155,777,0
2311127,364.36,1155,775,0
2311137,364.85,1155,777,0
2311147,364.94,1155,774,0
2311157,366.07,1155,777,0
2311168,367.68,1155,772,0
2311177,371.72,1155,777,0
2311187,378.10,1155,774,0
2311197,389.34,1155,777,0
2311217,406.04,1097,776,0
2311220,430.71,1097,778,0
2311230,462.94,1097,768,0
2311240,501.32,1097,778,0
2311250,542.28,1097,768,0
2311260,583.98,1097,777,0
2311270,623.54,1097,768,0
2311280,659.17,1097,777,0
2311290,688.00,1097,768,0
2311300,709.13,1097,777,0
2311310,723.96,1097,768,0
2311320,734.39,1097,778,0
2311330,740.96,1097,768,0
2311340,742.81,1097,777,0
2311350,738.54,1097,768,0
2311360,727.88,1097,777,0
2311370,710.43,1097,768,0
2311380,686.56,1097,777,0
2311390,656.65,1097,769,0
2311400,622.47,1097,777,0
2311410,586.24,1097,769,0
2311420,550.94,1097,777,0
2311430,517.62,1097,769,0
2311440,487.90,1097,777,0
2311450,462.00,1097,769,0
2311460,440.44,1097,777,0
2311470,422.74,1097,769,0
2311480,409.10,1097,777,0
2311490,398.87,1097,769,0
2311500,392.31,1097,777,0
2311511,388.75,1097,769,0
2311521,388.22,1097,777,0
2311531,390.17,1097,769,0
2311541,394.36,1097,777,0
2311552,400.21,1097,769,0
2311561,407.52,1097,778,0
2311571,415.46,1097,769,0
2311581,423.60,1097,777,0
2311591,431.30,1097,769,0
2311601,438.07,1097,777,0
2311611,443.28,1097,769,0
2311621,446.79,1097,777,0
2311631,448.10,1097,769,0
2311641,447.38,1097,777,0
2311651,444.57,1097,769,0
2311661,439.77,1097,777,0
2311671,433.32,1097,769,0
2311681,425.68,1097,777,0
2311691,417.08,1097,769,0
2311701,408.14,1097,777,0
2311711,399.06,1097,769,0
2311721,390.42,1097,778,0
2311731,382.45,1097,769,0
2311741,375.33,1097,777,0
2311751,369.23,1097,769,0
2311761,364.11,1097,777,0
2311771,359.87,1097,769,0
2311781,356.83,1097,777,0
2311791,354.78,1097,769,0
2311801,353.69,1097,777,0
2311811,353.35,1097,769,0
2311821,353.72,1097,777,0
2311831,354.66,1097,769,0
2311841,356.13,1097,778,0
2311852,357.81,1097,770,0
2311862,359.54,1097,778,0
2311872,361.30,1097,770,0
2311882,363.01,1097,778,0
2311892,364.72,1097,771,0
2311902,366.31,1097,778,0
2311912,367.84,1097,770,0
2311922,369.18,1097,777,0
2311932,370.49,1097,771,0
2311942,371.59,1097,777,0
2311952,372.66,1097,770,0
2311962,373.49,1097,777,0
2311972,374.20,1097,771,0
2311982,374.61,1097,777,0
2311992,374.81,1097,770,0
2312002,374.70,1097,777,0
2312012,374.40,1097,771,0
2312023,373.72,1097,777,0
2312033,372.86,1097,772,0
2312043,371.83,1097,777,0
2312053,371.07,1097,773,0
2312064,370.58,1097,777,0
2312073,371.00,1097,771,0
2312083,372.97,1097,777,0
2312093,377.91,1097,773,0
2312103,386.77,1097,777,0
2312122,400.98,906,776,0
2312125,422.07,906,777,0
2312134,451.36,906,774,0
2312144,487.68,906,777,0
2312154,528.06,906,772,0
2312164,569.62,906,778,0
2312174,610.06,906,774,0
2312184,647.20,906,777,0
2312194,678.64,906,772,0
2312204,702.66,906,777,0
2312214,719.52,906,773,0
2312224,731.36,906,777,0
2312235,739.66,906,774,0
2312244,743.49,906,777,0
2312254,742.06,906,773,0
2312264,734.32,906,777,0
2312274,720.30,906,774,0
2312284,699.85,906,777,0
2312294,673.45,906,774,0
2312304,641.26,906,777,0
2312314,606.30,906,775,0
2312324,570.55,906,777,0
2312334,536.49,906,774,0
2312344,504.54,906,777,0
2312354,476.09,906,775,0
2312364,450.99,906,778,0
2312374,430.00,906,774,0
2312384,412.13,906,777,0
2312394,397.90,906,775,0
2312404,386.45,906,777,0
2312414,378.51,906,774,0
2312424,373.13,906,777,0
2312434,370.91,906,775,0
2312444,371.02,906,778,0
2312454,373.97,906,774,0
2312464,378.61,906,777,0
2312474,385.24,906,775,0
2312484,392.63,906,777,0
2312494,400.75,906,774,0
2312504,408.33,906,777,0
2312514,415.43,906,775,0
2312524,420.74,906,777,0
2312535,424.76,906,775,0
2312545,426.33,906,777,0
2312555,426.23,906,777,0
2312565,423.59,906,777,0
2312576,419.43,906,777,0
2312585,413.21,906,777,0
2312595,406.29,906,776,0
2312605,397.89,906,777,0
2312615,389.57,906,777,0
2312625,380.61,906,777,0
2312635,372.58,906,776,0
2312645,364.74,906,777,0
2312655,358.22,906,777,0
2312665,352.28,906,777,0
2312675,348.08,906,776,0
2312685,344.63,906,777,0
2312695,342.90,906,778,0
2312705,341.77,906,777,0
2312715,342.18,906,776,0
2312725,342.98,906,777,0
2312735,344.92,906,777,0
2312745,346.79,906,776,0
2312755,349.46,906,776,0
2312765,351.77,906,777,0
2312775,354.67,906,777,0
2312785,356.82,906,776,0
2312795,359.32,906,776,0
2312805,361.02,906,777,0
2312815,362.95,906,777,0
2312825,364.03,906,776,0
2312835,365.31,906,776,0
2312845,365.73,906,777,0
2312855,366.37,906,777,0
2312865,366.09,906,776,0
2312876,365.97,906,777,0
2312886,365.21,906,775,0
2312896,364.85,906,777,0
2312906,363.91,906,774,0
2312916,363.46,906,778,0
2312926,362.68,906,775,0
2312936,362.61,906,778,0
2312946,362.17,906,774,0
2312956,362.37,906,777,0
2312966,362.13,906,775,0
2312976,362.52,906,777,0
2312986,362.37,906,774,0
2312996,362.73,906,777,0
2313006,362.42,906,775,0
2313016,362.77,906,778,0
2313026,362.45,906,774,0
2313036,362.57,906,778,0
2313047,361.84,906,772,0
2313057,361.55,906,778,0
2313067,360.48,906,772,0
2313077,360.00,906,778,0
2313088,359.14,906,771,0
2313097,359.78,906,778,0
2313107,361.69,906,771,0
2313117,367.53,906,777,0
2313127,377.70,906,770,0
2313146,394.97,1024,771,0
2313149,420.70,1024,769,0
2313159,455.93,1024,778,0
2313169,496.62,1024,768,0
2313179,540.49,1024,778,0
2313189,584.23,1024,769,0
2313199,625.78,1024,778,0
2313209,662.23,1024,768,0
2313219,691.17,1024,778,0
2313229,711.44,1024,768,0
2313239,725.66,1024,777,0
2313249,735.58,1024,768,0
2313260,742.52,1024,778,0
2313270,747.38,1024,768,0
2313280,750.82,1024,777,0
2313290,753.19,1024,768,0
2313300,753.78,1024,778,0
2313310,750.97,1024,768,0
2313320,743.87,1024,777,0
2313330,731.56,1024,768,0
2313340,713.91,1024,778,0
2313350,690.84,1024,768,0
2313360,662.86,1024,777,0
2313370,630.97,1024,769,0
2313380,597.55,1024,778,0
2313390,563.96,1024,769,0
2313400,531.66,1024,778,0
2313410,500.94,1024,769,0
2313420,472.59,1024,778,0
2313431,446.74,1024,769,0
2313441,424.02,1024,777,0
2313451,404.60,1024,770,0
2313461,388.69,1024,778,0
2313472,376.44,1024,771,0
2313481,368.08,1024,777,0
2313491,363.43,1024,770,0
2313501,362.23,1024,778,0
2313511,364.17,1024,771,0
2313521,368.49,1024,778,0
2313531,374.69,1024,770,0
2313541,381.94,1024,778,0
2313551,389.89,1024,771,0
2313561,397.72,1024,777,0
2313571,404.79,1024,770,0
2313581,410.47,1024,777,0
2313591,414.48,1024,770,0
2313601,416.70,1024,777,0
2313611,416.83,1024,770,0
2313621,414.78,1024,777,0
2313631,411.08,1024,770,0
2313641,405.87,1024,777,0
2313651,399.65,1024,770,0
2313661,392.64,1024,777,0
2313671,385.29,1024,771,0
2313681,378.05,1024,777,0
2313691,371.30,1024,770,0
2313701,365.00,1024,777,0
2313711,359.51,1024,771,0
2313721,354.86,1024,778,0
2313731,351.22,1024,770,0
2313741,348.49,1024,777,0
2313751,346.72,1024,770,0
2313761,345.69,1024,778,0
2313772,345.48,1024,771,0
2313782,345.81,1024,777,0
2313792,346.68,1024,772,0
2313802,347.93,1024,777,0
2313812,349.58,1024,773,0
2313822,351.42,1024,777,0
2313832,353.57,1024,772,0
2313842,355.58,1024,777,0
2313852,357.81,1024,773,0
2313862,359.84,1024,777,0
2313872,361.86,1024,772,0
2313882,363.40,1024,777,0
2313892,364.87,1024,772,0
2313902,365.81,1024,777,0
2313912,366.68,1024,772,0
2313922,366.99,1024,777,0
2313932,367.16,1024,772,0
2313943,366.73,1024,777,0
2313953,366.34,1024,774,0
2313963,365.38,1024,777,0
2313973,364.54,1024,774,0
2313984,363.13,1024,777,0
2313993,361.81,1024,773,0
2314003,360.19,1024,777,0
2314013,359.02,1024,774,0
2314023,357.69,1024,777,0
2314033,356.97,1024,773,0
2314043,356.16,1024,777,0
2314053,356.16,1024,774,0
2314063,356.24,1024,777,0
2314073,356.94,1024,773,0
2314083,357.60,1024,777,0
2314093,358.75,1024,774,0
2314103,359.51,1024,777,0
2314113,360.60,1024,773,0
2314123,361.28,1024,777,0
2314133,362.14,1024,774,0
2314143,362.40,1024,777,0
2314153,362.88,1024,775,0
2314163,363.00,1024,777,0
2314173,363.94,1024,774,0
2314183,365.72,1024,777,0
2314193,370.09,1024,775,0
2314203,377.65,1024,777,0
2314222,390.91,1076,776,0
2314225,411.51,1076,775,0
2314235,441.96,1076,778,0
2314245,479.55,1076,776,0
2314255,521.56,1076,777,0
2314265,564.85,1076,775,0
2314275,607.45,1076,778,0
2314285,646.49,1076,776,0
2314295,679.26,1076,777,0
2314305,703.09,1076,775,0
2314315,719.78,1076,778,0
2314326,731.46,1076,773,0
2314335,739.68,1076,777,0
2314345,745.43,1076,775,0
2314355,749.46,1076,778,0
2314365,752.28,1076,773,0
2314375,754.30,1076,777,0
2314385,753.14,1076,775,0
2314395,747.91,1076,778,0
2314405,737.18,1076,774,0
2314415,721.53,1076,777,0
2314425,700.07,1076,775,0
2314435,673.60,1076,778,0
2314445,641.92,1076,774,0
2314455,608.73,1076,777,0
2314465,574.91,1076,776,0
2314475,542.97,1076,777,0
2314485,512.12,1076,775,0
2314496,484.23,1076,778,0
2314505,458.49,1076,776,0
2314515,436.14,1076,777,0
2314525,415.91,1076,775,0
2314535,399.27,1076,778,0
2314545,385.13,1076,776,0
2314555,374.93,1076,777,0
2314565,367.63,1076,775,0
2314575,364.39,1076,777,0
2314585,363.85,1076,776,0
2314595,366.72,1076,777,0
2314605,371.26,1076,775,0
2314615,377.96,1076,777,0
2314625,384.91,1076,776,0
2314635,392.48,1076,777,0
2314645,398.72,1076,775,0
2314655,404.25,1076,778,0
2314665,407.56,1076,774,0
2314675,409.53,1076,777,0
2314685,409.07,1076,775,0
2314695,407.25,1076,778,0
2314705,403.19,1076,774,0
2314715,398.33,1076,777,0
2314725,391.85,1076,775,0
2314735,385.29,1076,778,0
2314745,377.71,1076,774,0
2314755,370.68,1076,778,0
2314765,363.49,1076,776,0
2314775,357.56,1076,778,0
2314785,351.73,1076,774,0
2314796,347.40,1076,777,0
2314806,343.38,1076,773,0
2314816,341.08,1076,777,0
2314826,339.17,1076,772,0
2314836,338.78,1076,777,0
2314846,338.59,1076,773,0
2314856,339.78,1076,778,0
2314866,340.96,1076,772,0
2314876,343.33,1076,778,0
2314886,345.63,1076,773,0
2314896,348.83,1076,778,0
2314906,351.49,1076,772,0
2314916,354.69,1076,777,0
2314926,357.27,1076,773,0
2314936,360.36,1076,777,0
2314946,362.61,1076,772,0
2314956,365.13,1076,777,0
2314967,366.76,1076,771,0
2314977,368.59,1076,777,0
2314987,369.57,1076,770,0
2314997,370.60,1076,777,0
2315008,370.72,1076,770,0
2315017,371.06,1076,777,0
2315027,370.27,1076,770,0
2315037,369.55,1076,778,0
2315047,367.97,1076,770,0
2315057,366.61,1076,778,0
2315067,364.54,1076,770,0
2315077,362.75,1076,777,0
2315087,360.51,1076,770,0
2315097,358.99,1076,777,0
2315107,357.19,1076,771,0
2315117,356.15,1076,777,0
2315127,354.90,1076,770,0
2315137,354.46,1076,778,0
2315147,353.77,1076,771,0
2315157,353.66,1076,777,0
2315167,353.17,1076,770,0
2315177,353.16,1076,777,0
2315187,352.73,1076,771,0
2315197,352.76,1076,777,0
2315207,352.32,1076,770,0
2315217,352.44,1076,778,0
2315227,352.05,1076,771,0
2315237,352.21,1076,777,0
2315247,352.14,1076,770,0
2315257,352.79,1076,778,0
2315267,353.41,1076,771,0
2315277,355.26,1076,778,0
2315287,357.97,1076,770,0
2315297,363.42,1076,777,0
2315308,372.04,1076,769,0
2315318,386.17,1076,777,0
2315328,406.65,1076,768,0
2315347,435.38,1125,767,0
2315351,471.74,1125,770,0
2315361,513.00,1125,777,0
2315371,555.99,1125,770,0
2315381,598.46,1125,778,0
2315392,637.54,1125,771,0
2315401,671.28,1125,777,0
2315411,697.59,1125,769,0
2315421,716.02,1125,777,0
2315431,728.91,1125,771,0
2315441,737.94,1125,777,0
2315451,744.26,1125,769,0
2315461,747.74,1125,777,0
2315471,746.44,1125,770,0
2315481,739.03,1125,777,0
2315491,724.79,1125,769,0
2315501,703.42,1125,777,0
2315511,675.23,1125,771,0
2315521,640.83,1125,777,0
2315531,601.92,1125,770,0
2315541,561.70,1125,778,0
2315551,522.71,1125,772,0
2315561,486.49,1125,777,0
2315571,454.29,1125,771,0
2315581,426.73,1125,777,0
2315591,404.05,1125,772,0
2315601,386.17,1125,777,0
2315611,373.17,1125,771,0
2315621,364.72,1125,778,0
2315631,360.95,1125,771,0
2315641,361.26,1125,777,0
2315651,365.17,1125,770,0
2315661,371.93,1125,778,0
2315671,381.34,1125,771,0
2315681,392.29,1125,777,0
2315692,404.29,1125,772,0
2315702,416.08,1125,777,0
2315712,427.32,1125,773,0
2315722,437.00,1125,777,0
2315732,445.06,1125,774,0
2315742,450.31,1125,777,0
2315752,453.09,1125,773,0
2315762,452.98,1125,777,0
2315772,450.54,1125,774,0
2315782,445.71,1125,778,0
2315792,439.32,1125,773,0
2315802,431.08,1125,777,0
2315812,422.10,1125,774,0
2315822,412.26,1125,778,0
2315832,402.41,1125,773,0
2315842,392.39,1125,777,0
2315852,383.01,1125,774,0
2315863,373.88,1125,777,0
2315873,366.03,1125,775,0
2315883,358.91,1125,777,0
2315893,353.32,1125,776,0
2315904,348.55,1125,777,0
2315913,345.43,1125,775,0
2315923,343.07,1125,777,0
2315933,342.32,1125,775,0
2315943,342.10,1125,777,0
2315953,343.31,1125,775,0
2315963,344.89,1125,777,0
2315973,347.54,1125,775,0
2315983,350.12,1125,778,0
2315993,353.51,1125,775,0
2316003,356.74,1125,777,0
2316013,360.55,1125,775,0
2316023,363.73,1125,778,0
2316033,367.02,1125,775,0
2316043,369.63,1125,777,0
2316053,372.40,1125,775,0
2316063,374.25,1125,778,0
2316073,376.06,1125,776,0
2316083,376.86,1125,777,0
2316093,377.59,1125,775,0
2316103,377.32,1125,777,0
2316113,377.06,1125,776,0
2316123,375.92,1125,777,0
2316133,374.96,1125,775,0
2316143,373.30,1125,777,0
2316153,372.14,1125,776,0
2316163,370.68,1125,777,0
2316173,370.09,1125,775,0
2316183,369.81,1125,777,0
2316193,371.49,1125,776,0
2316204,375.07,1125,777,0
2316214,382.81,1125,777,0
2316224,395.12,1125,776,0
2316234,414.50,1125,778,0
2316254,441.09,906,777,0
2316257,476.08,906,778,0
2316266,515.61,906,770,0
2316276,557.51,906,778,0
2316286,598.67,906,769,0
2316296,637.17,906,778,0
2316306,670.25,906,769,0
2316316,696.79,906,778,0
2316326,715.37,906,769,0
2316336,728.41,906,777,0
2316346,737.50,906,770,0
2316356,743.44,906,778,0
2316366,743.82,906,769,0
2316376,738.35,906,778,0
2316386,725.30,906,770,0
2316396,705.11,906,777,0
2316406,677.43,906,770,0
2316417,643.53,906,777,0
2316427,603.94,906,769,0
2316437,563.12,906,778,0
2316447,522.33,906,769,0
2316457,484.81,906,777,0
2316467,450.80,906,770,0
2316477,422.02,906,778,0
2316487,397.58,906,769,0
2316497,378.38,906,777,0
2316507,363.35,906,770,0
2316517,353.13,906,778,0
2316527,346.75,906,769,0
2316537,344.72,906,777,0
2316547,345.84,906,770,0
2316557,350.64,906,778,0
2316567,358.04,906,769,0
2316577,368.22,906,778,0
2316588,379.81,906,769,0
2316598,392.51,906,777,0
2316608,404.92,906,769,0
2316618,416.86,906,777,0
2316628,426.80,906,768,0
2316638,434.79,906,778,0
2316648,439.69,906,769,0
2316658,441.71,906,777,0
2316668,440.51,906,769,0
2316678,436.59,906,778,0
2316688,429.73,906,769,0
2316698,420.94,906,778,0
2316708,410.20,906,769,0
2316718,398.78,906,778,0
2316728,386.85,906,769,0
2316738,375.32,906,777,0
2316748,364.38,906,769,0
2316759,354.88,906,778,0
2316769,346.86,906,769,0
2316779,340.73,906,777,0
2316789,336.18,906,770,0
2316800,333.47,906,778,0
2316809,332.22,906,769,0
2316819,332.49,906,778,0
2316829,333.89,906,770,0
2316839,336.06,906,778,0
2316849,338.79,906,769,0
2316859,341.85,906,777,0
2316869,345.15,906,770,0
2316879,348.54,906,778,0
2316889,351.68,906,769,0
2316899,354.64,906,777,0
2316909,357.32,906,769,0
2316919,359.71,906,778,0
2316929,361.77,906,769,0
2316939,363.34,906,777,0
2316949,364.48,906,769,0
2316959,365.36,906,778,0
2316969,366.07,906,770,0
2316979,366.69,906,778,0
2316989,367.17,906,769,0
2316999,367.55,906,778,0
2317009,367.98,906,770,0
2317019,368.29,906,777,0
2317029,368.33,906,769,0
2317039,368.02,906,778,0
2317049,367.54,906,770,0
2317059,366.86,906,778,0
2317069,366.00,906,769,0
2317079,365.10,906,778,0
2317089,364.64,906,770,0
2317100,365.31,906,777,0
2317110,368.00,906,770,0
2317120,373.96,906,778,0
2317130,385.07,906,771,0
2317140,403.09,906,778,0
2317150,429.25,906,770,0
2317169,464.19,916,768,0
2317172,504.63,916,775,0
2317181,547.69,916,777,0
2317191,590.68,916,771,0
2317201,630.85,916,778,0
2317211,665.82,916,772,0
2317221,693.73,916,777,0
2317231,713.31,916,771,0
2317241,727.02,916,777,0
2317251,736.61,916,772,0
2317261,743.33,916,778,0
2317271,748.03,916,770,0
2317281,751.32,916,777,0
2317291,753.62,916,772,0
2317301,753.61,916,778,0
2317312,749.61,916,773,0
2317321,740.30,916,777,0
2317331,725.21,916,772,0
2317341,703.89,916,777,0
2317351,676.79,916,773,0
2317361,644.03,916,777,0
2317371,608.02,916,772,0
2317381,570.81,916,777,0
2317391,534.70,916,773,0
2317401,500.50,916,777,0
2317411,469.45,916,773,0
2317421,441.37,916,777,0
2317431,417.13,916,773,0
2317441,396.26,916,777,0
2317451,379.60,916,772,0
2317461,366.61,916,777,0
2317471,357.98,916,773,0
2317481,353.10,916,777,0
2317491,352.30,916,772,0
2317501,354.65,916,777,0
2317511,360.11,916,773,0
2317521,367.32,916,777,0
2317531,376.10,916,772,0
2317541,384.98,916,777,0
2317551,393.82,916,773,0
2317561,401.37,916,777,0
2317571,407.56,916,772,0
2317581,411.51,916,777,0
2317591,413.63,916,773,0
2317601,413.14,916,777,0
2317612,410.74,916,774,0
2317622,405.97,916,777,0
2317632,400.03,916,775,0
2317642,392.52,916,777,0
2317652,384.61,916,776,0
2317662,375.90,916,777,0
2317672,367.74,916,775,0
2317682,359.68,916,777,0
2317692,352.83,916,776,0
2317702,346.50,916,777,0
2317712,341.80,916,775,0
2317722,337.92,916,777,0
2317732,335.89,916,776,0
2317742,334.76,916,777,0
2317752,335.18,916,775,0
2317762,336.24,916,777,0
2317772,338.70,916,775,0
2317783,341.27,916,777,0
2317793,344.62,916,777,0
2317803,347.52,916,777,0
2317813,350.62,916,778,0
2317824,353.01,916,776,0
2317833,355.40,916,777,0
2317843,356.74,916,777,0
2317853,358.15,916,778,0
2317863,358.57,916,776,0
2317873,359.26,916,776,0
2317883,359.05,916,777,0
2317893,359.17,916,777,0
2317903,358.69,916,775,0
2317913,358.82,916,776,0
2317923,358.53,916,777,0
2317933,359.06,916,778,0
2317943,359.00,916,776,0
2317953,359.68,916,776,0
2317963,359.91,916,777,0
2317973,360.66,916,777,0
2317983,360.64,916,776,0
2317993,360.92,916,778,0
2318003,360.38,916,777,0
2318013,360.10,916,777,0
2318023,359.04,916,776,0
2318033,358.43,916,778,0
2318043,357.27,916,777,0
2318053,356.68,916,777,0
2318063,355.57,916,776,0
2318073,355.14,916,778,0
2318083,354.59,916,777,0
2318093,354.92,916,777,0
2318103,354.90,916,776,0
2318113,355.58,916,778,0
2318124,355.79,916,775,0
2318134,356.58,916,777,0
2318144,356.66,916,774,0
2318154,357.24,916,778,0
2318164,357.21,916,772,0
2318174,358.22,916,777,0
2318184,359.82,916,774,0
2318194,364.59,916,778,0
2318214,372.98,1044,776,0
2318217,389.02,1044,777,0
2318227,413.66,1044,769,0
2318237,448.26,1044,778,0
2318247,488.85,1044,768,0
2318257,533.21,1044,777,0
2318267,578.06,1044,768,0
2318277,621.37,1044,778,0
2318287,659.10,1044,768,0
2318297,689.03,1044,777,0
2318307,709.98,1044,768,0
2318317,724.64,1044,778,0
2318327,734.95,1044,768,0
2318337,742.16,1044,778,0
2318347,747.22,1044,768,0
2318357,750.75,1044,778,0
2318367,753.23,1044,768,0
2318377,754.96,1044,778,0
2318387,756.17,1044,768,0
2318397,757.02,1044,778,0
2318407,757.61,1044,768,0
2318417,758.03,1044,778,0
2318427,756.52,1044,768,0
2318437,751.35,1044,778,0
2318447,740.79,1044,768,0
2318457,724.05,1044,777,0
2318467,700.68,1044,769,0
2318477,670.69,1044,777,0
2318487,634.05,1044,769,0
2318497,593.24,1044,778,0
2318508,550.65,1044,769,0
2318518,509.06,1044,778,0
2318528,470.17,1044,769,0
2318538,435.53,1044,778,0
2318548,406.14,1044,770,0
2318558,382.96,1044,777,0
2318568,366.04,1044,769,0
2318578,355.49,1044,777,0
2318588,350.71,1044,769,0
2318598,351.14,1044,778,0
2318608,355.64,1044,769,0
2318618,363.29,1044,777,0
2318628,372.80,1044,769,0
2318638,383.28,1044,778,0
2318648,393.39,1044,769,0
2318658,402.40,1044,777,0
2318668,409.53,1044,769,0
2318679,414.47,1044,778,0
2318689,416.81,1044,770,0
2318699,416.70,1044,777,0
2318709,414.00,1044,771,0
2318720,409.33,1044,778,0
2318729,403.06,1044,770,0
2318739,395.67,1044,777,0
2318749,387.67,1044,771,0
2318759,379.41,1044,778,0
2318769,371.45,1044,770,0
2318779,364.11,1044,778,0
2318789,357.69,1044,770,0
2318799,352.17,1044,778,0
2318809,347.71,1044,770,0
2318819,344.24,1044,778,0
2318829,341.94,1044,770,0
2318839,340.54,1044,778,0
2318849,340.08,1044,770,0
2318859,340.40,1044,778,0
2318869,341.56,1044,770,0
2318879,343.24,1044,777,0
2318889,345.44,1044,771,0
2318899,347.88,1044,778,0
2318909,350.49,1044,770,0
2318919,353.08,1044,778,0
2318929,355.54,1044,771,0
2318939,357.61,1044,778,0
2318949,359.48,1044,770,0
2318959,360.88,1044,777,0
2318969,361.95,1044,771,0
2318979,362.60,1044,777,0
2318989,362.85,1044,770,0
2318999,362.64,1044,777,0
2319009,362.32,1044,771,0
2319020,361.67,1044,777,0
2319030,361.04,1044,771,0
2319040,360.21,1044,777,0
2319050,359.59,1044,773,0
2319060,358.77,1044,777,0
2319070,358.15,1044,771,0
2319080,357.38,1044,777,0
2319090,356.84,1044,773,0
2319100,356.07,1044,777,0
2319110,355.41,1044,771,0
2319120,354.39,1044,778,0
2319130,353.76,1044,773,0
2319140,352.89,1044,778,0
2319150,352.23,1044,771,0
2319160,351.44,1044,777,0
2319170,351.05,1044,773,0
2319180,350.69,1044,778,0
2319191,350.91,1044,773,0
2319201,351.11,1044,777,0
2319211,351.93,1044,774,0
2319221,352.73,1044,777,0
2319232,353.96,1044,775,0
2319241,354.96,1044,777,0
2319251,356.43,1044,775,0
2319261,357.42,1044,777,0
2319271,358.75,1044,775,0
2319281,359.55,1044,778,0
2319291,360.54,1044,774,0
2319301,361.15,1044,777,0
2319311,362.48,1044,775,0
2319321,364.05,1044,778,0
2319331,367.55,1044,774,0
2319341,373.47,1044,777,0
2319361,384.17,1147,776,0
2319364,401.31,1147,773,0
2319374,427.70,1147,778,0
2319384,462.46,1147,771,0
2319394,502.91,1147,778,0
2319404,545.96,1147,772,0
2319414,589.39,1147,778,0
2319424,630.37,1147,771,0
2319434,666.26,1147,777,0
2319444,694.00,1147,770,0
2319454,713.45,1147,778,0
2319464,727.08,1147,771,0
2319474,736.65,1147,778,0
2319484,743.36,1147,770,0
2319494,748.05,1147,778,0
2319504,751.33,1147,771,0
2319514,753.63,1147,778,0
2319524,755.24,1147,770,0
2319534,755.13,1147,778,0
2319544,750.68,1147,771,0
2319554,741.52,1147,778,0
2319564,726.36,1147,770,0
