Time,PPG,IBI,GSR,GSR_Event
1278375,327.88,944,755,0
1278385,323.24,944,756,0
1278395,317.60,944,755,0
1278405,311.63,944,756,0
1278415,306.39,944,755,0
1278425,301.77,944,756,0
1278435,298.24,944,755,0
1278445,296.75,944,756,0
1278455,300.43,944,755,0
1278465,305.61,944,756,0
1278475,311.34,944,755,0
1278485,316.51,944,756,0
1278495,320.99,944,755,0
1278505,324.25,944,756,0
1278515,326.96,944,755,0
1278525,328.77,944,756,0
1278535,330.68,944,755,0
1278545,332.92,944,756,0
1278555,336.63,944,755,0
1278574,342.66,943,755,0
1278577,355.23,943,757,0
1278586,373.80,943,757,0
1278596,398.85,943,757,0
1278606,429.75,943,757,0
1278616,466.64,943,757,0
1278626,507.63,943,758,0
1278636,550.86,943,757,0
1278646,590.93,943,757,0
1278656,627.12,943,757,0
1278666,658.37,943,758,0
1278676,683.59,943,757,0
1278686,700.77,943,757,0
1278696,710.14,943,757,0
1278706,711.60,943,757,0
1278716,706.45,943,757,0
1278726,695.08,943,757,0
1278736,678.47,943,757,0
1278746,657.55,943,757,0
1278756,634.62,943,757,0
1278766,610.65,943,757,0
1278776,587.66,943,757,0
1278786,565.73,943,758,0
1278796,545.93,943,757,0
1278807,527.69,943,757,0
1278817,511.93,943,757,0
1278827,497.29,943,757,0
1278837,484.00,943,757,0
1278848,470.63,943,756,0
1278857,458.01,943,757,0
1278867,445.07,943,758,0
1278877,432.96,943,757,0
1278887,420.67,943,757,0
1278897,409.76,943,757,0
1278907,399.50,943,757,0
1278917,391.34,943,757,0
1278927,384.08,943,757,0
1278937,379.13,943,757,0
1278947,375.19,943,757,0
1278957,373.25,943,757,0
1278967,371.89,943,757,0
1278977,372.05,943,757,0
1278987,372.55,943,757,0
1278997,374.31,943,757,0
1279007,375.80,943,757,0
1279017,378.01,943,757,0
1279027,379.46,943,757,0
1279037,380.99,943,757,0
1279047,381.17,943,757,0
1279057,380.82,943,757,0
1279067,378.64,943,757,0
1279077,375.92,943,757,0
1279087,371.53,943,757,0
1279097,367.17,943,757,0
1279107,361.76,943,757,0
1279117,356.86,943,757,0
1279127,351.59,943,757,0
1279137,347.60,943,757,0
1279148,343.69,943,757,0
1279158,341.13,943,757,0
1279168,338.52,943,757,0
1279178,337.25,943,758,0
1279188,335.93,943,756,0
1279198,335.57,943,757,0
1279208,334.58,943,757,0
1279218,334.28,943,758,0
1279228,333.34,943,756,0
1279238,333.02,943,757,0
1279248,331.94,943,757,0
1279258,331.45,943,757,0
1279268,330.20,943,757,0
1279278,329.80,943,757,0
1279288,329.09,943,757,0
1279298,329.40,943,757,0
1279308,329.32,943,757,0
1279319,330.34,943,758,0
1279329,331.01,943,756,0
1279339,332.89,943,758,0
1279349,334.34,943,756,0
1279360,336.59,943,758,0
1279369,338.13,943,757,0
1279379,340.19,943,758,0
1279389,341.21,943,757,0
1279399,342.52,943,758,0
1279409,342.62,943,757,0
1279419,343.03,943,757,0
1279429,342.59,943,756,0
1279439,343.23,943,758,0
1279449,344.45,943,757,0
1279459,348.60,943,757,0
1279469,355.53,943,756,0
1279479,367.72,943,758,0
1279498,384.60,924,757,0
1279501,408.72,924,759,0
1279510,438.85,924,756,0
1279520,475.02,924,758,0
1279531,514.36,924,756,0
1279540,555.27,924,757,0
1279550,594.57,924,756,0
1279560,631.17,924,758,0
1279570,661.93,924,756,0
1279580,686.38,924,758,0
1279590,702.47,924,756,0
1279600,711.07,924,758,0
1279610,711.78,924,756,0
1279620,706.32,924,757,0
1279630,694.61,924,756,0
1279640,678.18,924,758,0
1279650,657.17,924,756,0
1279660,634.36,924,758,0
1279670,610.00,924,756,0
1279680,586.17,924,758,0
1279690,562.20,924,756,0
1279700,540.03,924,757,0
1279710,518.85,924,756,0
1279720,499.82,924,758,0
1279730,481.75,924,756,0
1279740,465.71,924,758,0
1279750,450.84,924,756,0
1279760,438.29,924,758,0
1279770,426.72,924,756,0
1279780,417.29,924,758,0
1279790,409.06,924,756,0
1279800,403.21,924,758,0
1279810,398.56,924,756,0
1279820,396.17,924,758,0
1279831,394.79,924,756,0
1279841,395.28,924,758,0
1279851,396.18,924,756,0
1279861,398.10,924,758,0
1279872,399.78,924,756,0
1279881,401.91,924,758,0
1279891,403.09,924,756,0
1279901,403.96,924,758,0
1279911,403.50,924,756,0
1279921,402.58,924,758,0
1279931,400.26,924,756,0
1279941,397.40,924,758,0
1279951,393.25,924,756,0
1279961,388.93,924,758,0
1279971,383.85,924,756,0
1279981,379.01,924,758,0
1279991,373.65,924,756,0
1280001,369.00,924,758,0
1280011,364.28,924,756,0
1280021,360.38,924,758,0
1280031,356.50,924,756,0
1280041,353.43,924,758,0
1280051,350.52,924,756,0
1280061,348.65,924,758,0
1280071,346.95,924,756,0
1280081,346.15,924,758,0
1280091,345.42,924,756,0
1280101,345.60,924,758,0
1280111,345.80,924,756,0
1280121,346.72,924,758,0
1280131,347.45,924,756,0
1280141,348.77,924,758,0
1280151,349.74,924,756,0
1280161,351.02,924,758,0
1280172,351.74,924,756,0
1280182,352.59,924,758,0
1280192,352.80,924,756,0
1280202,353.03,924,758,0
1280212,352.59,924,756,0
1280222,352.33,924,758,0
1280232,351.67,924,755,0
1280242,351.30,924,758,0
1280252,351.38,924,756,0
1280262,353.02,924,758,0
1280272,356.62,924,755,0
1280282,363.46,924,758,0
1280292,374.29,924,756,0
1280302,390.49,924,758,0
1280312,412.50,924,755,0
1280322,440.89,924,758,0
1280342,474.74,843,757,0
1280345,513.13,843,759,0
1280354,553.08,843,756,0
1280364,592.18,843,758,0
1280374,628.34,843,756,0
1280385,660.13,843,758,0
1280395,685.89,843,756,0
1280405,703.92,843,757,0
1280415,713.85,843,757,0
1280425,716.12,843,757,0
1280435,712.14,843,756,0
1280445,702.16,843,757,0
1280455,687.24,843,757,0
1280465,667.88,843,757,0
1280475,646.66,843,756,0
1280485,624.18,843,758,0
1280495,602.39,843,757,0
1280505,580.98,843,757,0
1280515,561.18,843,756,0
1280525,542.53,843,757,0
1280535,525.61,843,757,0
1280545,509.19,843,757,0
1280556,493.79,843,756,0
1280566,478.42,843,757,0
1280576,464.07,843,757,0
1280586,449.86,843,757,0
1280596,436.92,843,757,0
1280606,424.60,843,757,0
1280616,414.31,843,757,0
1280626,405.34,843,757,0
1280636,399.15,843,757,0
1280646,394.61,843,757,0
1280656,392.67,843,757,0
1280666,391.82,843,757,0
1280676,392.82,843,757,0
1280686,394.12,843,757,0
1280696,396.27,843,757,0
1280706,397.56,843,757,0
1280716,398.89,843,757,0
1280727,398.84,843,757,0
1280737,398.24,843,757,0
1280747,395.77,843,757,0
1280757,392.50,843,757,0
1280768,387.46,843,756,0
1280777,382.01,843,757,0
1280787,375.15,843,757,0
1280797,368.33,843,757,0
1280807,360.73,843,756,0
1280817,354.00,843,757,0
1280827,347.23,843,757,0
1280837,341.93,843,757,0
1280847,336.85,843,757,0
1280857,333.47,843,757,0
1280867,330.54,843,757,0
1280877,329.22,843,757,0
1280887,328.13,843,756,0
1280897,328.39,843,757,0
1280907,328.61,843,757,0
1280917,330.06,843,757,0
1280927,331.20,843,756,0
1280937,333.28,843,757,0
1280947,335.00,843,757,0
1280957,337.36,843,758,0
1280967,339.09,843,756,0
1280977,341.21,843,758,0
1280987,342.39,843,757,0
1280997,343.64,843,757,0
1281007,343.58,843,756,0
1281017,343.49,843,758,0
1281027,342.23,843,757,0
1281037,341.17,843,758,0
1281047,339.02,843,756,0
1281057,337.22,843,758,0
1281068,334.75,843,756,0
1281078,333.07,843,758,0
1281088,330.82,843,756,0
1281098,329.46,843,758,0
1281108,327.56,843,756,0
1281118,326.80,843,758,0
1281128,325.87,843,756,0
1281138,326.60,843,758,0
1281148,328.39,843,756,0
1281158,333.50,843,758,0
1281168,341.75,843,756,0
1281178,355.67,843,758,0
1281198,375.10,856,757,0
1281201,402.41,856,760,0
1281210,436.36,856,756,0
1281220,476.88,856,758,0
1281230,520.12,856,756,0
1281240,563.84,856,758,0
1281250,605.03,856,756,0
1281260,642.22,856,758,0
1281270,672.97,856,756,0
1281281,696.94,856,758,0
1281291,713.75,856,756,0
1281301,725.53,856,758,0
1281311,732.31,856,756,0
1281321,734.23,856,758,0
1281331,731.25,856,755,0
1281341,723.93,856,758,0
1281351,712.21,856,756,0
1281361,696.63,856,758,0
1281371,677.46,856,756,0
1281381,656.79,856,758,0
1281391,635.30,856,756,0
1281401,614.34,856,758,0
1281411,593.71,856,755,0
1281421,574.38,856,758,0
1281431,555.67,856,756,0
1281441,537.81,856,758,0
1281452,520.25,856,755,0
1281462,503.63,856,758,0
1281472,487.42,856,756,0
1281482,472.20,856,758,0
1281492,457.83,856,755,0
1281502,445.19,856,758,0
1281512,434.21,856,756,0
1281522,425.27,856,758,0
1281532,418.46,856,755,0
1281542,414.04,856,758,0
1281552,411.71,856,756,0
1281562,411.24,856,758,0
1281572,412.07,856,755,0
1281582,413.98,856,758,0
1281592,416.21,856,756,0
1281602,418.33,856,758,0
1281612,419.82,856,755,0
1281623,420.39,856,758,0
1281633,419.76,856,756,0
1281643,417.77,856,758,0
1281653,414.46,856,756,0
1281664,409.99,856,758,0
1281673,404.68,856,756,0
1281683,398.82,856,758,0
1281693,392.74,856,756,0
1281703,386.65,856,758,0
1281713,380.88,856,756,0
1281723,375.39,856,758,0
1281733,370.60,856,756,0
1281743,366.18,856,758,0
1281753,362.31,856,756,0
1281763,358.70,856,758,0
1281773,355.62,856,756,0
1281783,352.86,856,757,0
1281793,350.89,856,756,0
1281803,349.38,856,758,0
1281813,348.75,856,756,0
1281823,348.74,856,758,0
1281833,349.68,856,756,0
1281843,351.10,856,758,0
1281853,353.21,856,756,0
1281863,355.34,856,757,0
1281873,357.68,856,756,0
1281883,359.79,856,758,0
1281893,361.69,856,756,0
1281903,362.94,856,757,0
1281913,363.99,856,756,0
1281923,364.68,856,758,0
1281933,365.37,856,756,0
1281943,365.61,856,758,0
1281953,365.77,856,756,0
1281964,365.49,856,758,0
1281974,365.39,856,756,0
1281984,364.71,856,757,0
1281994,364.11,856,757,0
1282004,363.27,856,757,0
1282014,363.61,856,756,0
1282024,365.53,856,757,0
1282034,371.03,856,757,0
1282044,380.71,856,757,0
1282054,396.74,856,757,0
1282064,419.53,856,757,0
1282083,450.36,886,756,0
1282086,487.71,886,758,0
1282095,528.72,886,757,0
1282105,570.21,886,757,0
1282115,610.09,886,757,0
1282125,645.89,886,757,0
1282135,676.05,886,757,0
1282145,699.14,886,757,0
1282155,715.30,886,757,0
1282165,726.61,886,757,0
1282176,734.52,886,757,0
1282185,739.12,886,757,0
1282195,740.12,886,757,0
1282205,736.52,886,757,0
1282215,728.78,886,757,0
1282225,716.42,886,757,0
1282235,700.09,886,757,0
1282245,679.49,886,757,0
1282255,656.29,886,757,0
1282265,631.22,886,757,0
1282275,606.34,886,757,0
1282285,581.21,886,757,0
1282295,557.19,886,757,0
1282305,533.56,886,757,0
1282315,511.41,886,757,0
1282325,489.64,886,757,0
1282335,469.39,886,757,0
1282345,449.95,886,757,0
1282355,432.73,886,757,0
1282365,417.04,886,757,0
1282375,404.26,886,757,0
1282385,393.68,886,757,0
1282395,386.83,886,757,0
1282405,382.55,886,757,0
1282415,381.75,886,757,0
1282425,382.59,886,756,0
1282435,385.72,886,757,0
1282445,389.14,886,757,0
1282455,393.26,886,757,0
1282465,396.18,886,756,0
1282476,398.57,886,757,0
1282486,398.87,886,757,0
1282496,398.18,886,757,0
1282506,395.08,886,756,0
1282516,391.24,886,758,0
1282526,385.69,886,757,0
1282536,379.74,886,758,0
1282546,372.49,886,756,0
1282556,365.53,886,758,0
1282566,358.08,886,757,0
1282576,351.67,886,758,0
1282586,344.87,886,756,0
1282596,339.30,886,758,0
1282606,333.94,886,757,0
1282616,330.31,886,757,0
1282626,327.18,886,756,0
1282636,325.88,886,758,0
1282647,325.10,886,756,0
1282657,326.23,886,758,0
1282667,327.53,886,756,0
1282677,330.20,886,758,0
1282688,332.50,886,756,0
1282697,335.56,886,758,0
1282707,337.67,886,756,0
1282717,339.99,886,758,0
1282727,340.90,886,756,0
1282737,341.78,886,758,0
1282747,341.38,886,756,0
1282757,341.14,886,758,0
1282767,339.81,886,757,0
1282777,338.97,886,758,0
1282787,337.48,886,756,0
1282797,336.95,886,758,0
1282807,335.98,886,756,0
1282817,335.94,886,758,0
1282827,335.44,886,756,0
1282837,335.78,886,758,0
1282847,335.51,886,757,0
1282857,335.83,886,758,0
1282867,335.28,886,756,0
1282877,335.28,886,758,0
1282887,334.34,886,756,0
1282897,333.81,886,758,0
1282907,332.45,886,757,0
1282917,331.80,886,758,0
1282927,331.00,886,757,0
1282937,332.03,886,758,0
1282947,334.25,886,756,0
1282957,340.43,886,758,0
1282967,350.85,886,756,0
1282977,368.12,886,758,0
1282997,392.04,914,757,0
1283000,424.47,914,759,0
1283009,463.89,914,756,0
1283019,507.81,914,758,0
1283030,552.39,914,756,0
1283039,595.56,914,758,0
1283049,634.35,914,756,0
1283059,667.54,914,758,0
1283069,693.14,914,756,0
1283079,711.10,914,758,0
1283089,723.67,914,756,0
1283099,731.61,914,758,0
1283109,733.96,914,756,0
1283119,731.35,914,758,0
1283129,723.19,914,756,0
1283139,710.06,914,758,0
1283149,691.66,914,756,0
1283159,668.96,914,758,0
1283169,642.57,914,756,0
1283179,615.53,914,758,0
1283189,587.86,914,756,0
1283200,561.54,914,758,0
1283209,536.35,914,756,0
1283219,513.53,914,758,0
1283229,492.03,914,756,0
1283239,472.69,914,758,0
1283249,454.48,914,756,0
1283259,438.18,914,758,0
1283269,422.78,914,756,0
1283279,409.18,914,757,0
1283289,396.57,914,756,0
1283299,386.15,914,758,0
1283309,377.32,914,756,0
1283319,370.93,914,758,0
1283329,366.23,914,756,0
1283339,364.23,914,758,0
1283349,363.82,914,756,0
1283359,365.38,914,758,0
1283369,367.58,914,756,0
1283379,370.83,914,758,0
1283389,373.97,914,756,0
1283399,377.32,914,758,0
1283409,379.71,914,756,0
1283419,381.55,914,758,0
1283429,381.86,914,756,0
1283439,381.34,914,758,0
1283449,379.18,914,756,0
1283459,376.34,914,758,0
1283469,372.00,914,756,0
1283479,366.94,914,758,0
1283489,360.74,914,756,0
1283500,354.61,914,758,0
1283510,347.91,914,756,0
1283520,341.64,914,758,0
1283530,335.10,914,756,0
1283540,329.29,914,758,0
1283550,323.67,914,756,0
1283560,318.97,914,758,0
1283570,314.78,914,756,0
1283580,311.59,914,758,0
1283590,309.01,914,756,0
1283600,307.64,914,758,0
1283610,306.97,914,756,0
1283620,307.37,914,758,0
1283630,308.24,914,756,0
1283640,309.80,914,758,0
1283650,311.53,914,756,0
1283660,313.69,914,758,0
1283671,315.75,914,756,0
1283681,317.97,914,758,0
1283691,319.95,914,756,0
1283701,321.76,914,758,0
1283712,323.21,914,756,0
1283721,324.64,914,758,0
1283731,325.74,914,756,0
1283741,326.50,914,758,0
1283751,326.74,914,756,0
1283761,326.73,914,758,0
1283771,326.47,914,756,0
1283781,326.07,914,758,0
1283791,325.54,914,756,0
1283801,325.03,914,758,0
1283811,324.72,914,756,0
1283821,324.76,914,758,0
1283831,325.09,914,756,0
1283841,325.79,914,758,0
1283851,326.84,914,756,0
1283861,328.39,914,758,0
1283871,330.80,914,756,0
1283881,334.72,914,758,0
1283891,341.10,914,756,0
1283901,351.23,914,758,0
1283920,366.50,923,757,0
1283923,388.72,923,758,0
1283932,418.51,923,756,0
1283942,455.21,923,758,0
1283952,496.93,923,757,0
1283962,540.67,923,758,0
1283972,583.71,923,756,0
1283982,623.70,923,758,0
1283992,658.03,923,757,0
1284002,685.41,923,757,0
1284012,705.69,923,756,0
1284022,719.88,923,758,0
1284032,729.04,923,756,0
1284042,732.59,923,758,0
1284052,730.65,923,756,0
1284062,723.04,923,758,0
1284072,709.92,923,756,0
1284082,691.30,923,758,0
1284092,667.85,923,756,0
1284102,640.60,923,758,0
1284112,612.00,923,756,0
1284122,583.07,923,757,0
1284132,555.28,923,756,0
1284142,529.18,923,758,0
1284152,505.34,923,756,0
1284162,483.42,923,757,0
1284172,463.80,923,756,0
1284183,445.77,923,757,0
1284193,429.94,923,757,0
1284203,415.82,923,757,0
1284213,403.91,923,756,0
1284224,393.87,923,757,0
1284233,386.32,923,757,0
1284243,380.70,923,757,0
1284253,377.87,923,757,0
1284263,376.71,923,757,0
1284273,377.61,923,757,0
1284283,379.44,923,758,0
1284293,382.70,923,757,0
1284303,385.79,923,757,0
1284313,389.07,923,756,0
1284323,391.27,923,757,0
1284333,393.12,923,757,0
1284343,393.47,923,757,0
1284353,392.94,923,756,0
1284363,390.39,923,757,0
1284373,386.97,923,757,0
1284383,382.09,923,757,0
1284393,376.75,923,757,0
1284403,370.27,923,757,0
1284413,363.72,923,756,0
1284423,356.43,923,757,0
1284433,349.87,923,757,0
1284443,343.40,923,757,0
1284453,337.96,923,756,0
1284463,332.75,923,757,0
1284473,328.79,923,757,0
1284483,325.26,923,757,0
1284493,323.08,923,757,0
1284503,321.21,923,757,0
1284513,320.46,923,757,0
1284524,319.72,923,757,0
1284534,320.02,923,757,0
1284544,320.10,923,757,0
1284554,320.97,923,757,0
1284564,321.49,923,757,0
1284574,322.63,923,757,0
1284584,323.34,923,757,0
1284594,324.70,923,757,0
1284604,325.52,923,757,0
1284614,326.95,923,757,0
1284624,327.91,923,757,0
1284634,329.43,923,757,0
1284644,330.38,923,757,0
1284654,331.89,923,757,0
1284664,332.78,923,757,0
1284674,334.13,923,757,0
1284684,334.61,923,757,0
1284695,335.37,923,757,0
1284705,335.21,923,756,0
1284715,335.54,923,758,0
1284725,335.20,923,756,0
1284736,336.09,923,758,0
1284745,337.60,923,756,0
1284755,342.31,923,758,0
1284765,350.14,923,756,0
1284775,363.94,923,758,0
1284785,383.37,923,756,0
1284804,410.82,884,755,0
1284807,445.67,884,757,0
1284816,486.74,884,758,0
1284826,530.06,884,756,0
1284836,573.50,884,758,0
1284846,613.94,884,756,0
1284856,650.13,884,758,0
1284866,679.70,884,756,0
1284876,701.69,884,758,0
1284886,717.08,884,757,0
1284896,727.86,884,758,0
1284907,733.69,884,756,0
1284916,734.90,884,758,0
1284926,730.34,884,756,0
1284936,720.64,884,758,0
1284946,705.19,884,756,0
1284956,685.25,884,758,0
1284966,660.49,884,756,0
1284976,633.77,884,758,0
1284986,605.42,884,756,0
1284996,578.47,884,758,0
1285006,552.40,884,756,0
1285016,529.01,884,758,0
1285026,506.76,884,756,0
1285036,486.95,884,758,0
1285046,468.19,884,757,0
1285056,451.63,884,758,0
1285066,435.89,884,756,0
1285076,422.29,884,758,0
1285086,409.73,884,757,0
1285096,399.70,884,758,0
1285106,391.05,884,756,0
1285116,385.16,884,758,0
1285126,380.91,884,756,0
1285136,379.44,884,758,0
1285146,379.18,884,756,0
1285156,381.01,884,758,0
1285166,383.28,884,756,0
1285176,386.84,884,758,0
1285186,389.76,884,756,0
1285196,392.83,884,758,0
1285207,394.34,884,756,0
1285217,395.22,884,758,0
1285227,394.08,884,756,0
1285237,392.00,884,758,0
1285248,388.02,884,756,0
1285257,383.55,884,758,0
1285267,377.77,884,756,0
1285277,372.10,884,758,0
1285287,365.85,884,756,0
1285297,360.46,884,758,0
1285307,355.05,884,756,0
1285317,350.79,884,758,0
1285327,346.70,884,756,0
1285337,343.92,884,758,0
1285347,341.28,884,756,0
1285357,339.83,884,758,0
1285367,338.42,884,756,0
1285377,338.17,884,758,0
1285387,337.77,884,756,0
1285397,338.14,884,758,0
1285407,337.93,884,756,0
1285417,338.38,884,758,0
1285427,338.44,884,756,0
1285437,339.12,884,758,0
1285447,339.30,884,756,0
1285457,339.98,884,758,0
1285467,340.24,884,756,0
1285477,341.37,884,758,0
1285487,342.16,884,756,0
1285497,343.40,884,758,0
1285507,344.14,884,756,0
1285517,345.42,884,758,0
1285527,346.28,884,756,0
1285537,347.65,884,758,0
1285548,348.40,884,756,0
1285558,349.48,884,758,0
1285568,350.02,884,756,0
1285578,350.92,884,758,0
1285588,351.20,884,756,0
1285598,351.70,884,757,0
1285608,351.49,884,756,0
1285618,351.51,884,758,0
1285628,351.23,884,756,0
1285638,351.89,884,758,0
1285648,353.25,884,756,0
1285658,357.16,884,758,0
1285678,364.36,873,757,0
1285681,377.62,873,759,0
1285690,398.31,873,756,0
1285700,427.61,873,758,0
1285710,464.63,873,756,0
1285720,506.61,873,758,0
1285730,550.36,873,756,0
1285740,593.62,873,758,0
1285750,633.21,873,756,0
1285761,666.70,873,757,0
1285771,692.59,873,756,0
1285781,710.71,873,758,0
1285791,723.40,873,757,0
1285801,732.28,873,757,0
1285811,738.50,873,757,0
1285821,742.85,873,758,0
1285831,744.99,873,756,0
1285841,743.50,873,757,0
1285851,738.08,873,756,0
1285861,728.11,873,758,0
1285871,713.59,873,756,0
1285881,694.26,873,757,0
1285891,670.48,873,756,0
1285901,643.08,873,758,0
1285911,614.04,873,756,0
1285921,584.03,873,757,0
1285932,554.36,873,757,0
1285942,525.15,873,757,0
1285952,497.46,873,757,0
1285962,471.10,873,757,0
1285972,447.11,873,757,0
1285982,425.52,873,758,0
1285992,407.15,873,757,0
1286002,391.42,873,757,0
1286012,379.38,873,757,0
1286022,370.18,873,757,0
1286032,364.51,873,757,0
1286042,361.19,873,757,0
1286052,360.74,873,757,0
1286062,361.76,873,758,0
1286072,364.71,873,757,0
1286082,368.01,873,757,0
1286092,372.03,873,757,0
1286103,375.41,873,757,0
1286113,378.63,873,757,0
1286123,380.11,873,757,0
1286133,380.76,873,757,0
1286144,379.59,873,757,0
1286153,377.79,873,757,0
1286163,374.55,873,757,0
1286173,371.09,873,757,0
1286183,366.35,873,757,0
1286193,362.04,873,757,0
1286203,357.31,873,757,0
1286213,353.53,873,757,0
1286223,349.39,873,757,0
1286233,346.19,873,757,0
1286243,342.70,873,757,0
1286253,340.48,873,757,0
1286263,338.02,873,757,0
1286273,336.34,873,757,0
1286283,334.27,873,757,0
1286293,333.12,873,757,0
1286303,331.54,873,757,0
1286313,330.91,873,757,0
1286323,329.82,873,757,0
1286333,329.62,873,757,0
1286343,329.22,873,757,0
1286353,329.62,873,757,0
1286363,329.48,873,757,0
1286373,329.89,873,757,0
1286383,329.62,873,757,0
1286393,329.99,873,757,0
1286403,329.74,873,757,0
1286413,330.07,873,757,0
1286423,329.79,873,757,0
1286433,330.33,873,757,0
1286444,330.49,873,757,0
1286454,331.41,873,758,0
1286464,331.76,873,757,0
1286474,332.86,873,758,0
1286484,333.42,873,756,0
1286494,334.79,873,758,0
1286504,335.54,873,756,0
1286514,337.18,873,758,0
1286524,338.28,873,756,0
1286534,340.34,873,757,0
1286544,341.74,873,756,0
1286554,343.66,873,758,0
1286564,344.75,873,757,0
1286574,346.49,873,757,0
1286584,347.50,873,757,0
1286594,349.41,873,758,0
1286604,351.39,873,756,0
1286624,356.16,947,755,0
1286627,364.47,947,756,0
1286636,379.16,947,758,0
1286646,400.49,947,756,0
1286657,430.77,947,758,0
1286667,468.43,947,756,0
1286677,511.03,947,758,0
1286687,555.03,947,756,0
1286697,597.92,947,758,0
1286707,636.65,947,756,0
1286717,669.58,947,758,0
1286727,694.61,947,756,0
1286737,712.12,947,758,0
1286747,724.39,947,756,0
1286757,732.97,947,758,0
1286767,738.98,947,756,0
1286777,743.19,947,758,0
1286787,745.23,947,756,0
1286797,744.13,947,758,0
1286807,738.31,947,756,0
1286817,727.67,947,758,0
1286828,711.57,947,756,0
1286838,690.40,947,758,0
1286848,663.92,947,756,0
1286858,633.60,947,758,0
1286868,601.06,947,756,0
1286878,568.95,947,758,0
1286888,537.50,947,756,0
1286898,508.17,947,758,0
1286908,480.95,947,756,0
1286918,456.92,947,758,0
1286928,435.81,947,756,0
1286938,418.08,947,758,0
1286948,403.36,947,756,0
1286958,392.24,947,758,0
1286968,384.19,947,756,0
1286978,379.51,947,758,0
1286988,377.43,947,756,0
1286999,377.98,947,758,0
1287009,380.39,947,756,0
1287019,384.17,947,758,0
1287029,388.62,947,756,0
1287040,393.23,947,758,0
1287049,397.28,947,756,0
1287059,400.62,947,758,0
1287069,402.84,947,756,0
1287079,403.70,947,758,0
1287089,403.10,947,756,0
1287099,401.06,947,758,0
1287109,397.87,947,756,0
1287119,393.58,947,758,0
1287129,388.35,947,756,0
1287139,382.37,947,758,0
1287149,376.13,947,756,0
1287159,369.71,947,758,0
1287169,363.45,947,756,0
1287179,357.70,947,758,0
1287189,352.65,947,756,0
1287199,348.30,947,758,0
1287209,344.82,947,756,0
1287219,342.09,947,758,0
1287229,340.13,947,756,0
1287239,338.85,947,758,0
1287249,338.30,947,756,0
1287259,338.34,947,758,0
1287269,338.83,947,756,0
1287279,339.61,947,758,0
1287289,340.71,947,756,0
1287299,342.13,947,758,0
1287309,343.63,947,756,0
1287319,344.86,947,758,0
1287329,345.93,947,756,0
1287340,346.81,947,758,0
1287350,347.64,947,756,0
1287360,348.09,947,758,0
1287370,348.53,947,757,0
1287380,348.63,947,757,0
1287390,348.83,947,756,0
1287400,348.75,947,758,0
1287410,348.83,947,757,0
1287420,348.32,947,757,0
1287430,347.97,947,756,0
1287440,347.25,947,757,0
1287450,346.87,947,757,0
1287460,346.31,947,757,0
1287470,346.09,947,756,0
1287480,345.72,947,758,0
1287490,345.89,947,757,0
1287500,345.88,947,758,0
1287511,346.30,947,757,0
1287521,346.73,947,757,0
1287531,348.14,947,757,0
1287541,350.71,947,757,0
1287552,356.28,947,757,0
1287561,365.54,947,758,0
1287580,380.76,956,756,0
1287583,403.33,956,757,0
1287592,434.91,956,757,0
1287602,473.42,956,758,0
1287612,516.11,956,757,0
1287622,559.66,956,757,0
1287632,602.11,956,757,0
1287642,640.60,956,757,0
1287652,672.82,956,757,0
1287662,696.88,956,757,0
1287672,713.71,956,757,0
1287682,725.50,956,757,0
1287692,733.79,956,757,0
1287702,739.60,956,757,0
1287712,743.66,956,757,0
1287723,744.49,956,757,0
1287732,741.56,956,757,0
1287742,733.55,956,757,0
1287752,720.61,956,757,0
1287762,702.21,956,757,0
1287772,679.31,956,757,0
1287782,651.57,956,757,0
1287792,622.00,956,757,0
1287802,591.23,956,757,0
1287812,561.97,956,757,0
1287822,533.91,956,757,0
1287832,508.48,956,757,0
1287842,484.42,956,757,0
1287852,463.04,956,757,0
1287862,443.06,956,757,0
1287872,425.60,956,757,0
1287882,409.35,956,757,0
1287892,395.66,956,758,0
1287902,383.59,956,757,0
1287912,374.50,956,757,0
1287922,367.45,956,757,0
1287932,363.80,956,758,0
1287942,362.40,956,757,0
1287952,364.12,956,757,0
1287962,367.43,956,757,0
1287972,372.87,956,758,0
1287982,378.70,956,757,0
1287992,385.00,956,757,0
1288002,389.76,956,757,0
1288012,393.65,956,758,0
1288023,394.91,956,757,0
1288033,394.59,956,758,0
1288043,391.42,956,757,0
1288053,386.88,956,758,0
1288064,380.23,956,757,0
1288073,373.26,956,758,0
1288083,365.08,956,756,0
1288093,357.51,956,758,0
1288103,349.56,956,756,0
1288113,343.01,956,758,0
1288123,336.66,956,757,0
1288133,331.92,956,758,0
1288143,327.49,956,757,0
1288153,324.60,956,758,0
1288163,322.02,956,757,0
1288173,320.94,956,758,0
1288183,319.80,956,757,0
1288193,319.82,956,758,0
1288203,319.62,956,756,0
1288213,320.33,956,758,0
1288223,320.36,956,757,0
1288233,320.85,956,758,0
1288243,320.51,956,756,0
1288253,320.49,956,758,0
1288263,319.27,956,756,0
1288273,318.16,956,758,0
1288283,315.97,956,756,0
1288293,314.31,956,758,0
1288303,311.90,956,756,0
1288313,310.13,956,758,0
1288323,307.99,956,756,0
1288333,307.05,956,758,0
1288343,306.05,956,757,0
1288353,306.12,956,758,0
1288364,305.83,956,756,0
1288374,306.31,956,758,0
1288384,306.26,956,756,0
1288394,306.57,956,758,0
1288404,305.71,956,756,0
1288414,304.77,956,758,0
1288424,302.52,956,756,0
1288434,300.22,956,758,0
1288444,296.77,956,756,0
1288454,293.37,956,758,0
1288464,289.10,956,756,0
1288474,285.86,956,758,0
1288484,283.20,956,756,0
1288494,283.48,956,760,0
1288504,286.94,956,757,0
1288514,296.60,956,758,0
1288524,312.92,956,757,0
1288535,338.92,956,760,0
1288554,374.30,974,764,0
1288557,419.08,974,764,0
1288566,468.64,974,767,0
1288577,520.13,974,769,0
1288587,569.72,974,770,0
1288597,615.23,974,770,0
1288607,653.48,974,771,0
1288617,683.16,974,770,0
1288627,703.90,974,771,0
1288637,718.37,974,770,0
1288647,728.50,974,771,0
1288657,735.55,974,770,0
1288667,740.53,974,771,0
1288677,744.01,974,770,0
1288687,746.45,974,771,0
1288697,748.16,974,770,0
1288707,749.40,974,771,0
1288717,750.31,974,771,0
1288727,750.94,974,771,0
1288737,751.39,974,770,0
1288748,751.74,974,771,0
1288758,751.99,974,770,0
1288768,752.17,974,771,0
1288778,750.66,974,769,0
1288788,745.23,974,771,0
1288798,734.06,974,770,0
1288808,716.22,974,771,0
1288818,690.99,974,769,0
1288828,659.20,974,771,0
1288838,621.47,974,770,0
1288848,580.53,974,771,0
1288858,539.44,974,769,0
1288868,501.55,974,771,0
1288878,468.34,974,769,0
1288888,441.75,974,771,0
1288898,421.17,974,769,0
1288908,407.02,974,771,0
1288919,398.06,974,768,0
1288929,394.14,974,771,0
1288939,393.45,974,768,0
1288949,395.93,974,771,0
1288960,399.68,974,767,0
1288969,404.88,974,771,0
1288979,409.63,974,768,0
1288989,414.15,974,771,0
1288999,417.02,974,767,0
1289009,418.90,974,771,0
1289019,418.59,974,768,0
1289029,417.04,974,771,0
1289039,413.51,974,767,0
1289049,409.29,974,771,0
1289059,403.89,974,768,0
1289069,398.48,974,771,0
1289079,392.29,974,767,0
1289089,386.50,974,771,0
1289099,380.31,974,768,0
1289109,374.65,974,772,0
1289119,368.49,974,768,0
1289129,362.69,974,771,0
1289139,356.40,974,768,0
1289149,350.62,974,772,0
1289159,344.35,974,767,0
1289169,338.63,974,771,0
1289179,332.53,974,768,0
1289189,326.97,974,771,0
1289199,321.02,974,767,0
1289209,315.66,974,771,0
1289219,310.02,974,768,0
1289229,305.13,974,771,0
1289239,300.12,974,768,0
1289249,295.97,974,771,0
1289260,292.08,974,767,0
1289270,289.27,974,771,0
1289280,286.79,974,767,0
1289290,285.31,974,771,0
1289300,284.10,974,767,0
1289310,283.81,974,771,0
1289320,283.57,974,767,0
1289330,284.04,974,771,0
1289340,284.41,974,767,0
1289350,285.32,974,771,0
1289360,286.04,974,767,0
1289370,287.53,974,771,0
1289380,289.47,974,767,0
1289390,293.31,974,771,0
1289400,299.31,974,767,0
1289410,309.76,974,771,0
1289420,325.56,974,767,0
1289431,349.18,974,771,0
1289441,380.92,974,767,0
1289451,421.83,974,771,0
1289461,468.08,974,767,0
1289481,516.83,926,766,0
1289484,564.75,926,771,0
1289493,609.48,926,771,0
1289503,648.17,926,769,0
1289513,679.23,926,771,0
1289523,701.28,926,768,0
1289533,716.75,926,771,0
1289543,727.63,926,769,0
1289553,735.24,926,771,0
1289563,740.57,926,768,0
1289573,744.30,926,771,0
1289583,745.92,926,769,0
1289593,743.85,926,771,0
1289603,737.33,926,768,0
1289613,725.66,926,771,0
1289623,708.28,926,768,0
1289633,685.05,926,771,0
1289644,656.02,926,769,0
1289654,622.37,926,771,0
1289664,586.48,926,770,0
1289674,549.43,926,771,0
1289684,512.92,926,770,0
1289694,478.14,926,771,0
1289704,446.17,926,770,0
1289714,417.75,926,771,0
1289724,393.82,926,770,0
1289734,374.76,926,771,0
1289744,361.33,926,769,0
1289754,353.13,926,771,0
1289764,350.22,926,770,0
1289774,351.83,926,771,0
1289784,357.45,926,769,0
1289794,365.59,926,771,0
1289804,375.48,926,770,0
1289815,385.58,926,771,0
1289825,395.35,926,770,0
1289835,403.43,926,771,0
1289845,409.64,926,771,0
1289856,412.97,926,771,0
1289865,413.83,926,770,0
1289875,411.65,926,771,0
1289885,407.22,926,771,0
1289895,400.16,926,771,0
1289905,391.67,926,770,0
1289915,381.61,926,771,0
1289925,371.14,926,771,0
1289935,360.13,926,771,0
1289945,349.68,926,770,0
1289955,339.62,926,771,0
1289965,330.99,926,771,0
1289975,323.28,926,771,0
1289985,317.19,926,770,0
1289995,312.29,926,771,0
1290005,309.12,926,771,0
1290015,306.94,926,771,0
1290025,306.36,926,771,0
1290035,306.59,926,771,0
1290045,308.09,926,771,0
1290055,309.95,926,771,0
1290065,312.62,926,771,0
1290075,315.31,926,771,0
1290085,318.34,926,771,0
1290095,320.90,926,771,0
1290105,323.50,926,771,0
1290115,325.62,926,771,0
1290125,327.88,926,771,0
1290135,329.41,926,771,0
1290145,330.88,926,771,0
1290156,331.90,926,771,0
1290166,333.09,926,771,0
1290176,333.92,926,770,0
1290186,335.27,926,771,0
1290196,337.29,926,770,0
1290206,341.70,926,771,0
1290216,349.12,926,770,0
1290226,361.56,926,771,0
1290236,379.86,926,770,0
1290246,405.79,926,771,0
1290256,439.02,926,770,0
1290266,478.92,926,771,0
1290286,521.88,805,770,0
1290289,565.46,805,773,0
1290298,606.68,805,768,0
1290308,643.63,805,772,0
1290318,674.21,805,768,0
1290328,697.72,805,771,0
1290338,714.13,805,768,0
1290348,725.62,805,771,0
1290358,731.56,805,768,0
1290369,732.12,805,771,0
1290379,726.52,805,767,0
1290389,715.26,805,771,0
1290399,697.83,805,767,0
1290409,674.95,805,771,0
1290419,646.68,805,767,0
1290429,615.92,805,771,0
1290439,583.84,805,767,0
1290449,552.69,805,771,0
1290459,522.48,805,767,0
1290469,494.57,805,771,0
1290479,468.43,805,767,0
1290489,444.81,805,771,0
1290499,423.05,805,767,0
1290509,403.84,805,771,0
1290519,386.62,805,767,0
1290529,372.29,805,771,0
1290540,360.63,805,767,0
1290550,352.51,805,771,0
1290560,347.47,805,767,0
1290570,345.96,805,771,0
1290580,347.09,805,766,0
1290590,350.96,805,771,0
1290600,356.24,805,766,0
1290610,362.77,805,771,0
1290620,369.14,805,767,0
1290630,375.01,805,771,0
1290640,379.17,805,766,0
1290650,381.60,805,771,0
1290660,381.64,805,767,0
1290670,379.99,805,771,0
1290680,376.39,805,766,0
1290690,372.20,805,771,0
1290700,368.24,805,767,0
1290711,366.20,805,771,0
1290721,366.78,805,767,0
1290731,371.13,805,771,0
1290741,379.15,805,767,0
1290752,391.19,805,771,0
1290761,406.13,805,767,0
1290771,422.85,805,771,0
1290781,439.05,805,767,0
1290791,452.97,805,771,0
1290801,462.96,805,766,0
1290811,468.37,805,771,0
1290821,468.13,805,767,0
1290831,462.14,805,771,0
1290841,450.57,805,766,0
1290851,435.01,805,771,0
1290861,416.66,805,767,0
1290871,397.27,805,771,0
1290881,377.94,805,767,0
1290891,360.60,805,771,0
1290901,346.36,805,767,0
1290911,336.18,805,771,0
1290921,330.43,805,768,0
1290931,329.57,805,771,0
1290941,333.09,805,767,0
1290951,340.47,805,771,0
1290961,350.53,805,768,0
1290971,362.24,805,771,0
1290981,374.43,805,767,0
1290991,386.17,805,771,0
1291001,396.11,805,767,0
1291011,403.62,805,771,0
1291021,407.97,805,767,0
1291031,409.27,805,771,0
1291041,407.34,805,768,0
1291052,402.70,805,771,0
1291062,395.33,805,768,0
1291072,386.10,805,771,0
1291082,375.40,805,769,0
1291092,364.10,805,771,0
1291102,352.71,805,768,0
1291112,342.55,805,771,0
1291122,334.84,805,768,0
1291132,330.99,805,771,0
1291142,332.49,805,768,0
1291152,341.00,805,771,0
1291162,357.93,805,769,0
1291172,384.01,805,771,0
1291182,418.68,805,768,0
1291192,460.60,805,771,0
1291202,506.36,805,769,0
1291212,552.71,805,772,0
1291232,596.68,947,770,0
1291235,635.78,947,772,0
1291244,668.25,947,771,0
1291254,693.46,947,771,0
1291265,710.12,947,771,0
1291275,718.78,947,771,0
1291285,720.48,947,771,0
1291295,715.36,947,770,0
1291305,704.50,947,771,0
1291315,688.32,947,771,0
1291325,667.74,947,771,0
1291335,644.16,947,770,0
1291345,620.07,947,771,0
1291355,596.09,947,771,0
1291365,573.78,947,771,0
1291375,552.67,947,770,0
1291385,533.40,947,771,0
1291395,515.24,947,771,0
1291405,498.41,947,771,0
1291415,481.70,947,771,0
1291425,465.55,947,771,0
1291436,449.18,947,770,0
1291446,433.49,947,771,0
1291456,417.95,947,769,0
1291466,403.57,947,771,0
1291476,390.07,947,769,0
1291486,378.73,947,771,0
1291496,368.91,947,769,0
1291506,361.57,947,771,0
1291516,355.87,947,769,0
1291526,352.74,947,771,0
1291536,351.10,947,769,0
1291546,351.59,947,771,0
1291556,352.95,947,769,0
1291566,355.92,947,771,0
1291576,359.12,947,770,0
1291586,362.85,947,771,0
1291596,365.60,947,769,0
1291607,367.90,947,771,0
1291617,368.58,947,768,0
1291627,368.32,947,771,0
1291637,366.08,947,768,0
1291648,362.97,947,771,0
1291657,358.44,947,769,0
1291667,353.59,947,771,0
1291677,347.76,947,768,0
1291687,342.04,947,771,0
1291697,335.86,947,768,0
1291707,330.37,947,771,0
1291717,324.73,947,768,0
1291727,319.97,947,771,0
1291737,315.31,947,768,0
1291747,311.83,947,771,0
1291757,308.62,947,768,0
1291767,306.64,947,771,0
1291777,304.86,947,768,0
1291787,304.13,947,772,0
1291797,303.45,947,768,0
1291807,303.61,947,771,0
1291817,303.52,947,767,0
1291827,303.96,947,771,0
1291837,303.89,947,768,0
1291847,304.09,947,771,0
1291857,303.72,947,767,0
1291867,303.68,947,772,0
1291877,303.09,947,768,0
1291887,303.10,947,771,0
1291897,302.94,947,767,0
1291907,303.69,947,772,0
1291917,304.55,947,768,0
1291927,306.45,947,771,0
1291937,308.24,947,768,0
1291948,310.83,947,771,0
1291958,312.93,947,767,0
1291968,315.48,947,771,0
1291978,317.44,947,767,0
1291988,319.92,947,771,0
1291998,322.43,947,767,0
1292008,326.76,947,771,0
1292018,332.87,947,767,0
1292028,342.77,947,771,0
1292038,356.34,947,767,0
1292048,375.14,947,771,0
1292067,398.54,835,770,0
1292070,427.09,835,772,0
1292079,458.86,835,767,0
1292089,492.72,835,772,0
1292099,525.80,835,767,0
1292109,556.89,835,772,0
1292119,583.41,835,767,0
1292129,604.50,835,771,0
1292139,618.36,835,767,0
1292149,625.33,835,771,0
1292160,625.36,835,767,0
1292169,619.89,835,771,0
1292179,609.17,835,767,0
1292189,595.06,835,771,0
1292199,578.11,835,767,0
1292209,560.29,835,771,0
1292219,541.86,835,767,0
1292229,524.16,835,771,0
1292239,506.97,835,767,0
1292249,491.34,835,771,0
1292259,476.36,835,767,0
1292269,462.50,835,771,0
1292279,448.89,835,767,0
1292289,436.02,835,771,0
1292299,423.12,835,767,0
1292309,410.70,835,772,0
1292319,398.19,835,767,0
1292329,386.52,835,771,0
1292339,375.56,835,767,0
1292349,366.05,835,772,0
1292359,357.59,835,767,0
1292369,351.03,835,771,0
1292379,345.96,835,767,0
1292389,343.06,835,772,0
1292399,341.54,835,767,0
1292409,341.68,835,771,0
1292419,342.55,835,767,0
1292429,344.48,835,771,0
1292439,346.40,835,767,0
1292449,348.55,835,771,0
1292460,350.14,835,767,0
1292470,351.51,835,772,0
1292480,352.09,835,768,0
1292490,352.28,835,771,0
1292500,351.72,835,768,0
1292510,350.95,835,772,0
1292520,349.59,835,768,0
1292530,347.79,835,771,0
1292540,345.36,835,768,0
1292550,342.51,835,771,0
1292560,339.06,835,768,0
1292570,335.23,835,771,0
1292580,330.96,835,768,0
1292590,326.73,835,771,0
1292600,322.61,835,768,0
1292610,319.00,835,771,0
1292620,315.87,835,768,0
1292631,313.59,835,771,0
1292641,312.00,835,769,0
1292651,311.14,835,771,0
1292661,310.76,835,769,0
1292672,310.87,835,771,0
1292681,311.13,835,769,0
1292691,311.52,835,771,0
1292701,311.92,835,769,0
1292711,312.29,835,771,0
1292721,312.50,835,769,0
1292731,312.61,835,771,0
1292741,312.90,835,769,0
1292751,313.23,835,771,0
1292761,313.76,835,768,0
1292771,314.43,835,771,0
1292781,315.24,835,769,0
1292791,316.16,835,771,0
1292801,317.05,835,768,0
1292811,317.77,835,771,0
1292821,318.44,835,769,0
1292831,318.91,835,771,0
1292841,319.15,835,770,0
1292851,319.10,835,771,0
1292861,318.86,835,769,0
1292871,318.39,835,771,0
1292881,317.93,835,770,0
1292891,317.78,835,771,0
1292901,318.19,835,769,0
1292911,319.55,835,771,0
1292921,322.77,835,769,0
1292931,328.07,835,771,0
1292941,335.93,835,769,0
1292960,346.24,893,768,0
1292963,359.02,893,771,0
1292972,373.67,893,771,0
1292982,389.37,893,770,0
1292992,404.69,893,771,0
1293002,419.10,893,771,0
1293012,431.37,893,771,0
1293022,441.24,893,770,0
1293032,447.94,893,771,0
1293042,451.99,893,770,0
1293052,453.36,893,771,0
1293062,452.91,893,770,0
1293072,450.79,893,771,0
1293082,447.94,893,770,0
1293092,444.15,893,771,0
1293102,440.29,893,770,0
1293112,436.04,893,771,0
1293122,432.05,893,771,0
1293132,427.79,893,771,0
1293143,423.61,893,771,0
1293153,419.14,893,771,0
1293163,414.90,893,771,0
1293173,410.13,893,771,0
1293184,405.46,893,771,0
1293193,400.39,893,771,0
1293203,395.69,893,771,0
1293213,390.81,893,771,0
1293223,386.50,893,771,0
1293233,382.15,893,771,0
1293243,378.59,893,771,0
1293253,375.28,893,771,0
1293263,372.97,893,771,0
1293273,370.96,893,771,0
1293283,369.90,893,771,0
1293293,368.99,893,771,0
1293303,368.86,893,771,0
1293313,368.82,893,771,0
1293323,369.26,893,771,0
1293333,369.31,893,771,0
1293343,369.65,893,771,0
1293353,369.45,893,770,0
1293363,369.44,893,771,0
1293373,368.88,893,771,0
1293383,368.49,893,771,0
1293393,367.53,893,770,0
1293403,366.98,893,771,0
1293413,366.00,893,771,0
1293423,365.32,893,771,0
1293433,364.24,893,770,0
1293443,363.52,893,771,0
1293453,362.47,893,771,0
1293463,361.81,893,771,0
1293473,360.67,893,771,0
1293484,359.82,893,771,0
1293494,358.68,893,770,0
1293504,357.87,893,771,0
1293514,356.80,893,769,0
1293524,356.00,893,771,0
1293534,354.97,893,770,0
1293544,354.38,893,771,0
1293554,353.45,893,769,0
1293564,353.15,893,771,0
1293574,352.63,893,770,0
1293584,352.61,893,771,0
1293594,352.30,893,770,0
1293604,352.34,893,771,0
1293614,351.89,893,770,0
1293624,351.58,893,771,0
1293634,350.29,893,769,0
1293644,348.92,893,771,0
1293655,346.67,893,769,0
1293665,344.41,893,771,0
1293675,341.42,893,768,0
1293685,338.89,893,771,0
1293696,336.27,893,768,0
1293705,334.64,893,771,0
1293715,333.21,893,768,0
1293725,332.85,893,771,0
1293735,332.81,893,768,0
1293745,333.85,893,771,0
1293755,334.97,893,768,0
1293765,337.16,893,771,0
1293775,339.69,893,768,0
1293785,343.55,893,771,0
1293795,347.89,893,768,0
1293805,353.66,893,771,0
1293815,359.94,893,768,0
1293825,367.45,893,771,0
1293835,374.99,893,769,0
1293854,382.88,894,767,0
1293857,390.03,894,767,0
1293867,397.05,894,771,0
1293876,402.61,894,768,0
1293886,407.44,894,771,0
1293896,410.48,894,767,0
1293906,412.82,894,771,0
1293916,413.73,894,768,0
1293926,413.98,894,771,0
1293936,412.92,894,768,0
1293946,411.61,894,771,0
1293956,409.46,894,768,0
1293966,407.65,894,771,0
1293976,405.27,894,768,0
1293986,403.43,894,771,0
1293996,401.54,894,768,0
1294006,400.44,894,771,0
1294016,399.41,894,767,0
1294026,399.33,894,771,0
1294036,399.14,894,767,0
1294046,399.66,894,771,0
1294056,399.80,894,768,0
1294066,400.25,894,771,0
1294076,400.09,894,767,0
1294086,399.98,894,771,0
1294096,398.95,894,768,0
1294106,398.03,894,771,0
1294116,396.43,894,767,0
1294126,395.06,894,771,0
1294136,393.11,894,768,0
1294146,391.49,894,771,0
1294156,389.63,894,767,0
1294167,388.33,894,771,0
1294177,386.73,894,767,0
1294187,385.57,894,771,0
1294197,384.20,894,767,0
1294208,383.28,894,771,0
1294217,382.17,894,767,0
1294227,381.30,894,771,0
1294237,379.93,894,767,0
1294247,378.66,894,771,0
1294257,376.71,894,767,0
1294267,374.82,894,771,0
1294277,372.39,894,767,0
1294287,370.09,894,771,0
1294297,367.53,894,767,0
1294307,365.62,894,771,0
1294317,363.89,894,767,0
1294327,363.06,894,771,0
1294337,362.23,894,767,0
1294347,362.29,894,772,0
1294357,362.46,894,767,0
1294367,363.18,894,772,0
1294377,363.64,894,766,0
1294387,364.35,894,772,0
1294397,364.71,894,767,0
1294407,365.53,894,771,0
1294417,365.97,894,766,0
1294427,366.92,894,772,0
1294437,367.72,894,767,0
1294447,368.96,894,771,0
1294457,370.00,894,766,0
1294467,371.54,894,772,0
1294477,372.79,894,767,0
1294487,374.36,894,771,0
1294497,375.41,894,766,0
1294508,376.70,894,771,0
1294518,377.69,894,767,0
1294528,378.81,894,771,0
1294538,379.60,894,767,0
1294548,380.57,894,771,0
1294558,381.26,894,767,0
1294568,382.12,894,771,0
1294578,382.69,894,767,0
1294588,383.34,894,771,0
1294598,383.84,894,767,0
1294608,384.53,894,771,0
1294618,385.18,894,767,0
1294638,386.20,783,766,0
1294641,387.73,783,771,0
1294650,389.95,783,771,0
1294660,392.79,783,769,0
1294670,396.20,783,771,0
1294680,400.04,783,769,0
1294690,404.14,783,771,0
1294700,408.47,783,769,0
1294710,412.44,783,771,0
1294721,416.12,783,770,0
1294731,419.13,783,771,0
1294741,421.75,783,770,0
1294751,423.45,783,771,0
1294761,424.90,783,771,0
1294771,425.53,783,771,0
1294781,425.76,783,770,0
1294791,425.19,783,771,0
1294801,424.45,783,771,0
1294811,423.45,783,771,0
1294821,422.80,783,770,0
1294831,421.83,783,771,0
1294841,421.20,783,771,0
1294851,420.58,783,771,0
1294861,420.41,783,770,0
1294871,420.11,783,771,0
1294881,419.95,783,771,0
1294892,419.37,783,771,0
1294902,418.96,783,771,0
1294912,418.11,783,771,0
1294922,417.35,783,771,0
1294932,416.17,783,770,0
1294942,415.31,783,771,0
1294952,414.06,783,771,0
1294962,413.18,783,771,0
1294972,411.93,783,770,0
1294982,411.22,783,771,0
1294992,410.25,783,771,0
1295002,409.75,783,771,0
1295012,408.88,783,770,0
1295022,408.49,783,771,0
1295032,407.83,783,771,0
1295042,407.67,783,771,0
1295052,407.04,783,770,0
1295063,406.64,783,771,0
1295073,405.63,783,770,0
1295083,404.76,783,771,0
1295093,403.07,783,769,0
1295104,401.42,783,771,0
1295113,399.28,783,770,0
1295123,397.44,783,771,0
1295133,395.38,783,769,0
1295143,394.24,783,771,0
1295153,393.31,783,770,0
1295163,393.43,783,771,0
1295173,393.64,783,769,0
1295183,394.57,783,771,0
1295193,395.17,783,770,0
1295203,395.89,783,771,0
1295213,395.58,783,769,0
1295223,395.06,783,771,0
1295233,393.80,783,770,0
1295243,392.70,783,771,0
1295253,391.08,783,769,0
1295263,390.07,783,771,0
1295273,389.11,783,769,0
1295283,389.20,783,771,0
1295293,389.53,783,769,0
1295303,390.78,783,771,0
1295313,391.96,783,769,0
1295323,393.90,783,771,0
1295333,395.52,783,770,0
1295343,397.51,783,771,0
1295353,398.72,783,769,0
1295363,400.05,783,771,0
1295373,400.34,783,769,0
1295383,400.58,783,771,0
1295393,399.59,783,769,0
1295404,398.51,783,772,0
1295414,396.52,783,768,0
1295424,394.65,783,771,0
1295434,391.97,783,768,0
1295444,389.71,783,772,0
1295454,386.79,783,769,0
1295464,384.50,783,771,0
1295474,382.03,783,768,0
1295484,380.57,783,772,0
1295494,379.37,783,769,0
1295504,379.26,783,771,0
1295514,379.14,783,768,0
1295524,380.12,783,772,0
1295534,381.20,783,769,0
1295544,383.03,783,772,0
1295554,384.39,783,768,0
1295564,386.20,783,772,0
1295575,387.43,783,768,0
1295585,389.10,783,771,0
1295595,390.35,783,767,0
1295605,392.31,783,772,0
1295616,394.10,783,767,0
1295625,396.77,783,772,0
1295635,399.24,783,767,0
1295645,402.64,783,772,0
1295655,405.96,783,767,0
1295665,410.00,783,772,0
1295675,413.47,783,767,0
1295685,417.10,783,772,0
1295695,419.99,783,767,0
1295705,422.90,783,772,0
1295715,424.90,783,767,0
1295725,426.82,783,772,0
1295735,427.90,783,767,0
1295745,429.05,783,771,0
1295764,429.46,1127,770,0
1295767,430.31,1127,772,0
1295777,431.07,1127,767,0
1295788,432.08,1127,771,0
1295798,432.91,1127,768,0
1295808,433.84,1127,771,0
1295818,434.49,1127,768,0
1295828,435.16,1127,771,0
1295838,434.98,1127,768,0
1295848,434.26,1127,772,0
1295858,433.19,1127,768,0
1295868,431.85,1127,771,0
1295878,430.48,1127,767,0
1295888,429.18,1127,772,0
1295898,427.75,1127,768,0
1295908,426.59,1127,771,0
1295918,425.68,1127,767,0
1295928,425.05,1127,771,0
1295938,424.56,1127,768,0
1295948,424.05,1127,771,0
1295959,423.35,1127,769,0
1295969,422.69,1127,771,0
1295979,421.92,1127,769,0
1295989,420.96,1127,771,0
1296000,419.82,1127,770,0
1296009,418.71,1127,772,0
1296019,417.64,1127,770,0
1296029,416.55,1127,771,0
1296039,415.83,1127,770,0
1296049,415.24,1127,771,0
1296059,414.87,1127,769,0
1296069,414.43,1127,771,0
1296079,414.00,1127,770,0
1296089,413.23,1127,772,0
1296099,412.48,1127,769,0
1296109,411.39,1127,771,0
1296119,410.29,1127,770,0
1296129,409.09,1127,772,0
1296139,408.12,1127,769,0
1296149,407.27,1127,771,0
1296159,406.76,1127,770,0
1296169,406.40,1127,771,0
1296179,406.54,1127,769,0
1296189,406.85,1127,771,0
1296199,407.41,1127,770,0
1296209,407.80,1127,772,0
1296219,407.95,1127,769,0
1296229,407.88,1127,771,0
1296239,407.87,1127,770,0
1296249,407.35,1127,772,0
1296259,406.78,1127,769,0
1296269,405.94,1127,771,0
1296279,405.23,1127,770,0
1296289,404.48,1127,771,0
1296300,404.03,1127,770,0
1296310,403.25,1127,771,0
1296320,402.75,1127,771,0
1296330,401.92,1127,772,0
1296340,401.22,1127,771,0
1296350,400.17,1127,771,0
1296360,399.22,1127,771,0
1296370,397.87,1127,771,0
1296380,396.88,1127,771,0
1296390,395.76,1127,771,0
1296400,395.02,1127,771,0
1296410,394.11,1127,771,0
1296420,393.73,1127,771,0
1296430,393.34,1127,771,0
1296440,393.45,1127,771,0
1296450,393.36,1127,771,0
1296460,393.64,1127,771,0
1296471,393.66,1127,771,0
1296481,394.11,1127,771,0
1296491,394.16,1127,771,0
1296501,394.63,1127,772,0
1296512,394.78,1127,770,0
1296521,395.45,1127,771,0
1296531,395.78,1127,771,0
1296541,396.62,1127,772,0
1296551,397.12,1127,770,0
1296561,398.24,1127,771,0
1296571,398.98,1127,770,0
1296581,400.27,1127,772,0
1296591,401.31,1127,770,0
1296601,403.06,1127,771,0
1296611,404.75,1127,770,0
1296621,407.14,1127,772,0
1296631,409.33,1127,770,0
1296641,412.27,1127,771,0
1296651,415.02,1127,771,0
1296661,418.27,1127,772,0
1296680,421.02,916,770,0
1296684,424.23,916,772,0
1296692,427.03,916,770,0
1296702,429.81,916,772,0
1296712,431.54,916,769,0
1296722,433.18,916,772,0
1296732,433.85,916,770,0
1296742,434.54,916,772,0
1296752,434.08,916,769,0
1296762,433.54,916,772,0
1296772,432.52,916,770,0
1296782,432.15,916,772,0
1296792,431.46,916,769,0
1296802,431.45,916,771,0
1296812,431.27,916,770,0
1296822,431.75,916,772,0
1296832,431.87,916,769,0
1296842,432.38,916,772,0
1296852,432.18,916,769,0
1296862,432.17,916,772,0
1296872,431.35,916,769,0
1296882,430.60,916,772,0
1296892,429.18,916,769,0
1296902,428.14,916,772,0
1296912,426.64,916,770,0
1296922,425.80,916,772,0
1296932,424.62,916,769,0
1296942,424.18,916,772,0
1296952,423.31,916,770,0
1296962,422.96,916,772,0
1296972,422.07,916,769,0
1296983,421.58,916,772,0
1296993,420.42,916,768,0
1297003,419.69,916,772,0
1297013,418.41,916,768,0
1297024,417.65,916,772,0
1297033,416.64,916,768,0
1297043,416.23,916,772,0
1297053,415.65,916,768,0
1297063,415.75,916,772,0
1297073,415.53,916,768,0
1297083,415.76,916,772,0
1297093,415.49,916,768,0
1297103,415.51,916,772,0
1297113,415.06,916,769,0
1297123,414.87,916,772,0
1297133,414.09,916,768,0
1297143,413.81,916,772,0
1297153,413.14,916,769,0
1297163,413.18,916,772,0
1297173,412.87,916,768,0
1297183,413.04,916,772,0
1297193,412.73,916,768,0
1297203,412.94,916,771,0
1297213,412.57,916,768,0
1297223,412.53,916,772,0
1297233,411.81,916,768,0
1297243,411.44,916,771,0
1297253,410.54,916,768,0
1297263,410.12,916,771,0
1297273,409.23,916,768,0
1297283,408.94,916,771,0
1297293,408.23,916,768,0
1297303,407.95,916,771,0
1297313,407.11,916,768,0
1297324,406.56,916,772,0
1297334,405.49,916,767,0
1297344,404.79,916,771,0
1297354,403.35,916,767,0
1297364,402.39,916,771,0
1297374,401.20,916,767,0
1297384,400.88,916,771,0
1297394,400.58,916,767,0
1297404,401.05,916,772,0
1297414,401.55,916,767,0
1297424,402.88,916,771,0
1297434,403.99,916,767,0
1297444,405.32,916,772,0
1297454,405.95,916,767,0
1297464,406.65,916,771,0
1297474,406.63,916,767,0
1297484,406.61,916,771,0
1297495,406.13,916,767,0
1297505,406.05,916,771,0
1297515,406.03,916,767,0
1297525,406.71,916,771,0
1297536,407.74,916,767,0
1297545,409.75,916,771,0
1297555,412.09,916,767,0
1297565,415.15,916,771,0
1297575,418.19,916,767,0
1297585,421.56,916,771,0
1297595,424.65,916,767,0
1297605,427.63,916,772,0
1297625,429.75,944,770,0
1297628,431.46,944,771,0
1297637,433.03,944,768,0
1297647,434.52,944,771,0
1297657,435.61,944,769,0
1297667,436.63,944,771,0
1297677,437.17,944,768,0
1297687,437.63,944,771,0
1297697,437.74,944,769,0
1297708,437.13,944,771,0
1297718,436.24,944,770,0
1297728,435.18,944,771,0
1297738,434.10,944,770,0
1297748,433.08,944,771,0
1297758,432.37,944,769,0
1297768,431.92,944,771,0
1297778,431.77,944,770,0
1297788,431.50,944,771,0
1297798,431.30,944,769,0
1297808,430.83,944,771,0
1297818,430.45,944,770,0
1297828,429.80,944,771,0
1297838,429.35,944,770,0
1297848,428.86,944,771,0
1297858,428.86,944,770,0
1297868,429.07,944,771,0
1297879,429.99,944,771,0
1297889,431.07,944,771,0
1297899,432.76,944,771,0
1297909,434.25,944,771,0
1297920,435.93,944,771,0
1297929,437.07,944,771,0
1297939,437.95,944,771,0
1297949,438.13,944,771,0
1297959,438.05,944,771,0
1297969,437.18,944,771,0
1297979,436.22,944,771,0
1297989,434.53,944,771,0
1297999,432.91,944,771,0
1298009,430.92,944,771,0
1298019,428.93,944,771,0
1298029,426.55,944,771,0
1298039,424.46,944,771,0
1298049,422.18,944,771,0
1298059,420.41,944,771,0
1298069,418.49,944,771,0
1298079,416.93,944,772,0
1298089,415.19,944,771,0
1298099,414.06,944,771,0
1298109,412.80,944,771,0
1298119,412.00,944,771,0
1298129,411.06,944,771,0
1298139,410.66,944,771,0
1298149,410.24,944,771,0
1298159,410.47,944,771,0
1298169,410.50,944,771,0
1298179,411.04,944,771,0
1298189,411.33,944,771,0
1298199,411.96,944,771,0
1298209,412.14,944,771,0
1298220,412.53,944,771,0
1298230,412.41,944,771,0
1298240,412.55,944,772,0
1298250,412.08,944,770,0
1298260,411.84,944,771,0
1298270,410.99,944,771,0
1298280,410.44,944,772,0
1298290,409.28,944,770,0
1298300,408.51,944,771,0
1298310,407.33,944,771,0
1298320,406.63,944,771,0
1298330,405.63,944,770,0
1298340,405.27,944,771,0
1298350,404.80,944,771,0
1298360,405.07,944,771,0
1298370,405.18,944,770,0
1298380,405.90,944,772,0
1298391,406.40,944,770,0
1298401,407.35,944,771,0
1298411,407.93,944,769,0
1298421,408.81,944,771,0
1298432,409.30,944,768,0
1298441,410.24,944,771,0
1298451,410.81,944,769,0
1298461,411.89,944,772,0
1298471,412.61,944,769,0
1298481,413.93,944,771,0
1298491,415.02,944,770,0
1298501,416.73,944,772,0
1298511,418.01,944,769,0
1298521,419.89,944,771,0
1298531,421.43,944,770,0
1298541,423.57,944,771,0
1298551,425.24,944,769,0
1298561,427.35,944,771,0
1298571,428.92,944,769,0
1298590,430.92,966,768,0
1298593,432.57,966,768,0
1298603,434.63,966,771,0
1298612,435.94,966,768,0
1298622,437.37,966,772,0
1298632,438.07,966,768,0
1298642,438.95,966,771,0
1298652,439.27,966,768,0
1298662,439.57,966,772,0
1298672,439.19,966,768,0
1298682,439.30,966,772,0
1298692,439.13,966,768,0
1298702,439.60,966,772,0
1298712,439.72,966,768,0
1298722,440.19,966,772,0
1298732,440.13,966,768,0
1298742,440.48,966,772,0
1298752,440.34,966,768,0
1298762,440.58,966,772,0
1298772,440.15,966,768,0
1298782,440.15,966,772,0
1298792,439.72,966,768,0
1298802,439.76,966,771,0
1298812,439.45,966,768,0
1298822,439.57,966,772,0
1298832,439.18,966,768,0
1298842,439.04,966,771,0
1298852,438.17,966,768,0
1298862,437.48,966,772,0
1298872,436.05,966,768,0
1298882,434.71,966,772,0
1298892,432.74,966,768,0
1298903,431.06,966,771,0
1298913,429.03,966,767,0
1298923,427.60,966,772,0
1298933,426.01,966,767,0
1298944,425.19,966,772,0
1298953,424.23,966,767,0
1298963,423.99,966,772,0
1298973,423.48,966,767,0
1298983,423.42,966,772,0
1298993,422.95,966,767,0
1299003,422.80,966,772,0
1299013,422.26,966,767,0
1299023,422.14,966,772,0
1299033,421.58,966,767,0
1299043,421.62,966,771,0
1299053,421.61,966,767,0
1299063,422.20,966,772,0
1299073,422.65,966,767,0
1299083,423.53,966,772,0
1299093,424.01,966,767,0
1299103,424.87,966,772,0
1299113,425.29,966,767,0
1299123,425.93,966,771,0
1299133,426.04,966,767,0
1299143,426.24,966,772,0
1299153,425.87,966,767,0
1299163,425.69,966,772,0
1299173,424.80,966,767,0
1299183,423.92,966,772,0
1299193,422.44,966,767,0
1299203,421.15,966,772,0
1299213,419.44,966,767,0
1299223,418.02,966,772,0
1299233,416.38,966,767,0
1299244,415.33,966,772,0
1299254,414.16,966,767,0
1299264,413.30,966,771,0
1299274,412.35,966,767,0
1299284,411.77,966,771,0
1299294,410.98,966,767,0
1299304,410.35,966,771,0
1299314,409.43,966,767,0
1299324,408.91,966,771,0
1299334,408.38,966,767,0
1299344,408.18,966,772,0
1299354,407.96,966,767,0
1299364,408.27,966,772,0
1299374,408.62,966,767,0
1299384,409.46,966,772,0
1299394,410.27,966,767,0
1299404,411.51,966,772,0
1299415,412.86,966,767,0
1299425,414.57,966,772,0
1299435,416.29,966,768,0
1299445,418.47,966,772,0
1299456,420.90,966,768,0
1299465,423.76,966,772,0
1299475,426.87,966,768,0
1299485,430.34,966,771,0
1299495,434.14,966,768,0
1299505,438.25,966,772,0
1299515,442.64,966,768,0
1299525,447.37,966,771,0
1299545,452.28,954,770,0
1299548,457.34,954,772,0
1299557,462.59,954,770,0
1299567,467.17,954,771,0
1299577,471.28,954,770,0
1299587,474.49,954,771,0
1299597,476.79,954,770,0
1299607,477.97,954,771,0
1299617,478.11,954,770,0
1299628,477.00,954,771,0
1299638,475.84,954,771,0
1299648,474.13,954,771,0
1299658,472.51,954,771,0
1299668,470.56,954,771,0
1299678,469.23,954,771,0
1299688,467.92,954,771,0
1299698,467.09,954,771,0
1299708,466.20,954,771,0
1299718,465.89,954,771,0
1299728,465.45,954,771,0
1299738,465.36,954,771,0
1299748,464.52,954,771,0
1299758,463.85,954,771,0
1299768,462.61,954,771,0
1299778,461.36,954,771,0
1299788,459.41,954,771,0
1299799,457.53,954,772,0
1299809,455.10,954,771,0
1299819,453.10,954,772,0
1299829,450.62,954,770,0
1299840,448.68,954,772,0
1299849,446.55,954,771,0
1299859,445.14,954,772,0
1299869,443.64,954,770,0
1299879,442.89,954,772,0
1299889,441.94,954,771,0
1299899,441.70,954,772,0
1299909,441.15,954,770,0
1299919,440.93,954,772,0
1299929,440.22,954,771,0
1299939,439.90,954,771,0
1299949,439.24,954,770,0
1299959,439.04,954,772,0
1299969,438.47,954,771,0
1299979,438.42,954,772,0
1299989,438.03,954,770,0
1299999,438.20,954,772,0
1300009,437.97,954,770,0
1300019,438.10,954,772,0
1300029,437.73,954,770,0
1300039,437.73,954,772,0
1300049,437.08,954,770,0
1300059,436.88,954,772,0
1300069,436.06,954,770,0
1300079,435.53,954,772,0
1300089,434.47,954,770,0
1300099,433.90,954,772,0
1300109,432.94,954,770,0
1300119,432.53,954,772,0
1300129,431.73,954,770,0
1300140,431.47,954,772,0
1300150,430.90,954,769,0
1300160,430.76,954,772,0
1300170,430.14,954,768,0
1300180,429.84,954,772,0
1300190,429.12,954,769,0
1300200,428.74,954,772,0
1300210,427.79,954,769,0
1300220,427.21,954,772,0
1300230,426.12,954,769,0
1300240,425.57,954,772,0
1300250,424.76,954,769,0
1300260,424.53,954,772,0
1300270,423.90,954,769,0
1300280,423.89,954,772,0
1300290,423.58,954,769,0
1300300,423.92,954,772,0
1300311,423.90,954,768,0
1300321,424.36,954,772,0
1300331,424.34,954,768,0
1300341,424.92,954,772,0
1300352,425.12,954,767,0
1300361,425.68,954,772,0
1300371,425.73,954,768,0
1300381,426.03,954,772,0
1300391,425.72,954,767,0
1300401,425.63,954,772,0
1300411,424.93,954,768,0
1300421,424.61,954,772,0
1300431,423.95,954,767,0
1300441,423.92,954,772,0
1300451,423.65,954,768,0
1300461,424.22,954,772,0
1300471,425.14,954,767,0
1300481,427.46,954,772,0
1300491,430.58,954,768,0
1300501,435.68,954,772,0
1300511,442.07,954,767,0
1300531,450.84,986,766,0
1300534,461.56,986,768,0
1300543,474.38,986,772,0
1300553,487.81,986,767,0
1300563,501.79,986,772,0
1300573,514.80,986,767,0
1300583,526.86,986,772,0
1300593,536.76,986,767,0
1300603,544.12,986,772,0
1300613,548.50,986,767,0
1300623,550.75,986,772,0
1300633,550.69,986,767,0
1300643,549.16,986,772,0
1300653,546.11,986,767,0
1300663,542.65,986,771,0
1300673,539.03,986,767,0
1300683,535.93,986,772,0
1300694,533.25,986,767,0
1300703,531.38,986,772,0
1300713,529.94,986,767,0
1300723,529.27,986,772,0
1300733,528.59,986,767,0
1300743,527.85,986,772,0
1300753,526.44,986,767,0
1300763,524.64,986,772,0
1300773,522.05,986,767,0
1300783,519.20,986,772,0
1300793,515.71,986,767,0
1300803,512.24,986,772,0
1300813,508.66,986,767,0
1300823,505.59,986,771,0
1300833,502.58,986,767,0
1300843,500.35,986,772,0
1300853,498.53,986,767,0
1300864,497.51,986,771,0
1300873,496.89,986,767,0
1300883,496.84,986,772,0
1300893,496.80,986,767,0
1300903,497.20,986,772,0
1300913,497.27,986,767,0
1300923,497.36,986,772,0
1300933,496.95,986,767,0
1300943,496.32,986,771,0
1300953,494.90,986,767,0
1300963,493.26,986,771,0
1300973,490.99,986,767,0
1300983,488.64,986,772,0
1300993,485.83,986,767,0
1301003,483.10,986,771,0
1301013,480.11,986,767,0
1301023,477.55,986,771,0
1301033,475.16,986,767,0
1301043,473.18,986,771,0
1301053,471.24,986,767,0
1301063,469.67,986,772,0
1301073,468.05,986,767,0
1301083,466.67,986,771,0
1301093,465.05,986,767,0
1301103,463.41,986,772,0
1301113,461.57,986,767,0
1301123,459.94,986,771,0
1301133,458.12,986,767,0
1301143,456.54,986,772,0
1301153,454.96,986,767,0
1301164,453.69,986,771,0
1301174,452.45,986,768,0
1301184,451.37,986,771,0
1301194,450.36,986,768,0
1301204,449.52,986,771,0
1301214,448.72,986,768,0
1301224,448.04,986,772,0
1301234,447.43,986,768,0
1301244,446.91,986,771,0
1301254,446.47,986,768,0
1301264,446.03,986,772,0
1301274,445.59,986,768,0
1301284,445.03,986,771,0
1301294,444.42,986,768,0
1301304,443.69,986,771,0
1301314,442.84,986,768,0
1301324,442.03,986,771,0
1301335,441.29,986,769,0
1301345,440.69,986,771,0
1301355,440.31,986,769,0
1301365,439.96,986,771,0
1301376,439.80,986,770,0
1301385,439.78,986,772,0
1301395,439.80,986,769,0
1301405,439.77,986,771,0
1301415,440.01,986,770,0
1301425,440.61,986,771,0
1301435,442.23,986,769,0
1301445,445.12,986,771,0
1301455,450.35,986,770,0
1301465,458.26,986,771,0
1301475,469.67,986,769,0
1301494,484.51,964,768,0
1301497,503.34,964,771,0
1301506,525.27,964,772,0
1301516,549.49,964,771,0
1301526,574.07,964,772,0
1301536,598.13,964,772,0
1301547,619.82,964,772,0
1301556,638.52,964,771,0
1301566,652.55,964,772,0
1301576,662.03,964,771,0
1301586,666.78,964,771,0
1301596,667.83,964,771,0
1301606,665.39,964,771,0
1301616,660.78,964,771,0
1301626,654.16,964,771,0
1301636,646.91,964,770,0
1301646,639.18,964,772,0
1301656,631.88,964,771,0
1301666,624.72,964,772,0
1301676,618.33,964,770,0
1301686,612.23,964,771,0
1301696,606.76,964,771,0
1301706,601.22,964,771,0
1301716,596.14,964,771,0
1301726,590.83,964,771,0
1301736,585.69,964,770,0
1301746,580.21,964,771,0
1301756,574.75,964,771,0
1301766,569.00,964,771,0
1301776,563.51,964,771,0
1301786,557.74,964,771,0
1301796,552.33,964,771,0
1301806,547.09,964,771,0
1301816,542.52,964,770,0
1301826,538.38,964,771,0
1301836,535.22,964,771,0
1301847,532.58,964,771,0
1301857,530.87,964,771,0
1301867,529.19,964,771,0
1301877,527.89,964,772,0
1301888,526.08,964,770,0
1301897,524.39,964,771,0
1301907,521.96,964,771,0
1301917,519.40,964,772,0
1301927,515.94,964,770,0
1301937,512.65,964,771,0
1301947,508.86,964,771,0
1301957,505.39,964,771,0
1301967,501.24,964,770,0
1301977,497.36,964,771,0
1301987,493.09,964,771,0
1301997,489.42,964,771,0
1302007,485.65,964,770,0
1302017,482.37,964,771,0
1302027,479.09,964,771,0
1302037,476.79,964,772,0
1302047,474.45,964,770,0
1302057,472.69,964,771,0
1302067,470.55,964,771,0
1302077,468.72,964,771,0
1302087,466.36,964,771,0
1302097,464.11,964,771,0
1302107,461.08,964,771,0
1302117,458.18,964,772,0
1302127,454.74,964,771,0
1302137,451.65,964,772,0
1302147,448.02,964,771,0
1302157,445.02,964,772,0
1302167,442.10,964,771,0
1302177,439.93,964,772,0
1302188,437.68,964,770,0
1302198,436.10,964,772,0
1302208,434.36,964,769,0
1302218,433.35,964,771,0
1302228,432.09,964,769,0
1302238,431.12,964,772,0
1302248,429.88,964,769,0
1302258,429.23,964,772,0
1302268,428.22,964,769,0
1302278,427.73,964,772,0
1302288,426.69,964,770,0
1302298,426.10,964,772,0
1302308,424.96,964,769,0
1302318,424.15,964,772,0
1302328,422.78,964,769,0
1302338,421.77,964,772,0
1302348,420.21,964,769,0
1302359,419.16,964,772,0
1302369,417.57,964,768,0
1302379,416.50,964,772,0
1302389,414.85,964,768,0
1302400,413.74,964,772,0
1302409,412.40,964,769,0
1302419,411.90,964,772,0
1302429,411.63,964,768,0
1302439,413.02,964,772,0
1302449,415.76,964,769,0
1302459,421.57,964,772,0
1302469,430.45,964,768,0
1302479,444.07,964,772,0
1302489,461.96,964,769,0
1302508,485.07,1014,767,0
1302511,512.52,1014,767,0
1302521,544.12,1014,772,0
1302531,577.34,1014,767,0
1302541,610.33,1014,772,0
1302551,640.83,1014,767,0
1302561,668.14,1014,772,0
1302572,690.47,1014,767,0
1302582,707.08,1014,772,0
1302592,717.00,1014,767,0
1302602,721.12,1014,772,0
1302612,720.22,1014,768,0
1302622,715.27,1014,772,0
1302632,706.66,1014,767,0
1302642,695.71,1014,772,0
1302652,683.19,1014,768,0
1302662,670.54,1014,772,0
1302672,658.12,1014,767,0
1302682,646.68,1014,772,0
1302692,636.11,1014,768,0
1302702,626.77,1014,772,0
1302712,617.93,1014,767,0
1302722,609.59,1014,772,0
1302732,601.10,1014,768,0
1302743,592.50,1014,772,0
1302753,583.48,1014,768,0
1302763,574.21,1014,772,0
1302773,564.67,1014,769,0
1302784,555.39,1014,771,0
1302793,546.40,1014,768,0
1302803,538.31,1014,771,0
1302813,531.23,1014,769,0
1302823,525.29,1014,771,0
1302833,520.49,1014,768,0
1302843,516.91,1014,772,0
1302853,514.32,1014,769,0
1302863,512.64,1014,772,0
1302873,511.25,1014,768,0
1302883,510.10,1014,772,0
1302893,508.91,1014,769,0
1302903,507.48,1014,771,0
1302913,505.32,1014,768,0
1302923,502.61,1014,772,0
1302933,499.04,1014,769,0
1302943,494.87,1014,771,0
1302953,489.90,1014,769,0
1302963,484.61,1014,771,0
1302973,478.94,1014,769,0
1302983,473.22,1014,771,0
1302993,467.41,1014,769,0
1303003,461.84,1014,772,0
1303013,456.58,1014,769,0
1303023,451.77,1014,771,0
1303033,447.13,1014,769,0
1303043,442.89,1014,772,0
1303053,438.98,1014,768,0
1303063,435.47,1014,771,0
1303073,432.24,1014,769,0
1303084,429.30,1014,772,0
1303094,426.72,1014,770,0
1303104,424.45,1014,772,0
1303114,422.51,1014,770,0
1303124,420.82,1014,772,0
1303134,419.29,1014,769,0
1303144,417.83,1014,772,0
1303154,416.51,1014,770,0
1303164,415.03,1014,772,0
1303174,413.56,1014,769,0
1303184,411.85,1014,771,0
1303194,410.22,1014,770,0
1303204,408.40,1014,772,0
1303214,406.78,1014,769,0
1303224,405.05,1014,771,0
1303234,403.53,1014,770,0
1303244,401.92,1014,772,0
1303255,400.66,1014,770,0
1303265,399.13,1014,771,0
1303275,397.85,1014,771,0
1303285,396.31,1014,772,0
1303296,395.14,1014,771,0
1303305,393.86,1014,771,0
1303315,392.96,1014,771,0
1303325,391.86,1014,772,0
1303335,391.26,1014,771,0
1303345,390.71,1014,771,0
1303355,390.62,1014,771,0
1303365,390.48,1014,771,0
1303375,391.06,1014,771,0
1303385,392.29,1014,771,0
1303395,395.63,1014,771,0
1303405,401.01,1014,772,0
1303415,410.05,1014,771,0
1303425,423.24,1014,771,0
1303435,441.94,1014,771,0
1303445,466.04,1014,772,0
1303464,495.90,956,770,0
1303468,529.74,956,770,0
1303476,565.86,956,772,0
1303486,601.48,956,771,0
1303496,634.98,956,772,0
1303506,664.43,956,771,0
1303516,689.03,956,772,0
1303526,707.88,956,771,0
1303536,721.37,956,772,0
1303546,730.30,956,770,0
1303556,735.31,956,772,0
1303566,736.20,956,771,0
1303576,733.40,956,772,0
1303586,726.72,956,771,0
1303596,716.78,956,772,0
1303606,703.39,956,770,0
1303616,687.63,956,772,0
1303626,669.95,956,770,0
1303636,652.01,956,772,0
1303646,633.84,956,770,0
1303656,616.53,956,772,0
1303666,599.44,956,770,0
1303676,583.49,956,771,0
1303686,567.96,956,771,0
1303696,553.40,956,772,0
1303706,538.97,956,770,0
1303716,525.43,956,772,0
1303726,512.23,956,771,0
1303736,500.33,956,772,0
1303746,489.05,956,770,0
1303756,479.39,956,772,0
1303767,470.70,956,769,0
1303777,463.98,956,772,0
1303787,458.50,956,769,0
1303797,454.83,956,771,0
1303808,452.01,956,768,0
1303817,450.55,956,772,0
1303827,449.36,956,769,0
1303837,448.95,956,772,0
1303847,448.02,956,768,0
1303857,447.12,956,772,0
1303867,445.02,956,770,0
1303877,442.53,956,772,0
1303887,438.60,956,769,0
1303897,434.13,956,772,0
1303907,428.27,956,770,0
1303917,422.14,956,772,0
1303927,414.86,956,769,0
1303937,407.83,956,772,0
1303947,400.38,956,770,0
1303957,393.67,956,772,0
1303967,386.91,956,769,0
1303977,381.32,956,772,0
1303987,376.17,956,770,0
1303997,372.52,956,772,0
1304007,369.45,956,769,0
1304017,367.56,956,772,0
1304027,365.98,956,770,0
1304037,365.43,956,771,0
1304047,364.91,956,769,0
1304057,365.15,956,772,0
1304067,365.15,956,770,0
1304077,365.66,956,772,0
1304087,365.85,956,769,0
1304097,366.54,956,772,0
1304108,366.80,956,769,0
1304118,367.59,956,772,0
1304128,367.89,956,768,0
1304138,368.65,956,772,0
1304148,368.75,956,768,0
1304158,369.21,956,772,0
1304168,368.98,956,768,0
1304178,368.90,956,772,0
1304188,367.94,956,768,0
1304198,367.02,956,772,0
1304208,365.30,956,768,0
1304218,363.79,956,772,0
1304228,361.80,956,768,0
1304238,360.53,956,772,0
1304248,359.09,956,768,0
1304258,358.46,956,772,0
1304268,357.76,956,768,0
1304279,357.71,956,772,0
1304289,357.32,956,768,0
1304299,357.27,956,772,0
1304309,356.37,956,767,0
1304320,355.45,956,772,0
1304329,353.64,956,768,0
1304339,352.04,956,772,0
1304349,349.67,956,768,0
1304359,347.71,956,772,0
1304369,345.44,956,768,0
1304379,344.37,956,772,0
1304389,344.64,956,768,0
1304399,348.01,956,772,0
1304409,354.39,956,768,0
1304419,365.89,956,772,0
1304429,382.59,956,768,0
1304449,406.03,984,766,0
1304452,436.02,984,769,0
1304461,472.10,984,772,0
1304471,511.58,984,768,0
1304481,552.68,984,772,0
1304492,592.46,984,768,0
1304502,629.27,984,772,0
1304512,661.03,984,769,0
1304522,685.66,984,772,0
1304532,702.18,984,769,0
1304542,711.25,984,771,0
1304552,713.45,984,769,0
1304562,709.80,984,772,0
1304572,701.12,984,769,0
1304582,688.35,984,771,0
1304592,672.90,984,769,0
1304602,656.18,984,772,0
1304612,638.94,984,769,0
1304622,622.41,984,771,0
1304632,606.78,984,769,0
1304642,592.36,984,772,0
1304652,578.96,984,769,0
1304663,566.42,984,771,0
1304673,554.29,984,770,0
1304683,542.50,984,771,0
1304693,530.61,984,770,0
1304704,518.77,984,771,0
1304713,507.18,984,770,0
1304723,496.16,984,771,0
1304733,485.78,984,770,0
1304743,475.99,984,771,0
1304753,467.04,984,769,0
1304763,459.01,984,771,0
1304773,452.24,984,770,0
1304783,446.25,984,771,0
1304793,441.16,984,770,0
1304803,436.87,984,771,0
1304813,433.74,984,770,0
1304823,431.24,984,771,0
1304833,429.33,984,770,0
1304843,427.60,984,771,0
1304853,426.09,984,770,0
1304863,424.14,984,771,0
1304873,421.82,984,771,0
1304883,418.92,984,772,0
1304893,415.69,984,770,0
1304903,411.92,984,771,0
1304913,407.79,984,771,0
1304923,403.22,984,772,0
1304933,398.53,984,770,0
1304943,393.61,984,771,0
1304953,388.67,984,771,0
1304963,383.58,984,772,0
1304973,378.69,984,770,0
1304983,373.86,984,771,0
1304993,369.53,984,771,0
1305004,365.56,984,771,0
1305014,362.35,984,771,0
1305024,359.50,984,771,0
1305034,357.55,984,771,0
1305044,356.18,984,771,0
1305054,355.83,984,771,0
1305064,355.97,984,771,0
1305074,357.13,984,771,0
1305084,358.59,984,771,0
1305094,360.77,984,771,0
1305104,362.90,984,771,0
1305114,365.11,984,771,0
1305124,366.67,984,771,0
1305134,367.97,984,771,0
1305144,368.32,984,771,0
1305154,368.39,984,771,0
1305164,367.63,984,771,0
1305175,366.80,984,772,0
1305185,365.45,984,771,0
1305195,364.37,984,772,0
1305205,362.89,984,770,0
1305216,361.76,984,772,0
1305225,360.42,984,771,0
1305235,359.57,984,772,0
1305245,358.24,984,771,0
1305255,357.22,984,772,0
1305265,355.66,984,771,0
1305275,354.22,984,772,0
1305285,352.14,984,771,0
1305295,350.12,984,772,0
1305305,347.77,984,771,0
1305315,346.38,984,772,0
1305325,346.01,984,771,0
1305335,348.37,984,772,0
1305345,353.87,984,771,0
1305355,364.19,984,772,0
1305365,379.69,984,771,0
1305384,401.60,936,769,0
1305388,429.32,936,768,0
1305396,462.65,936,772,0
1305406,499.27,936,770,0
1305416,538.06,936,772,0
1305426,575.97,936,769,0
1305436,611.64,936,771,0
1305446,642.00,936,770,0
1305456,666.09,936,772,0
1305466,682.22,936,769,0
1305476,691.37,936,771,0
1305486,692.89,936,770,0
1305496,688.55,936,772,0
1305506,678.48,936,769,0
1305516,665.18,936,771,0
1305526,649.18,936,770,0
1305536,632.54,936,772,0
1305546,615.24,936,769,0
1305556,598.92,936,771,0
1305566,583.39,936,770,0
1305576,569.43,936,772,0
1305586,555.89,936,769,0
1305596,543.23,936,771,0
1305606,530.56,936,770,0
1305616,518.31,936,772,0
1305626,505.36,936,769,0
1305636,492.31,936,772,0
1305646,478.59,936,770,0
1305656,465.25,936,772,0
1305666,451.85,936,769,0
1305676,439.47,936,772,0
1305687,427.58,936,769,0
1305697,417.55,936,772,0
1305707,408.77,936,768,0
1305717,402.20,936,772,0
1305728,397.00,936,768,0
1305737,394.08,936,772,0
1305747,392.09,936,768,0
1305757,391.59,936,772,0
1305767,391.24,936,768,0
1305777,391.47,936,772,0
1305787,391.03,936,768,0
1305797,390.63,936,771,0
1305807,389.03,936,768,0
1305817,387.18,936,772,0
1305827,384.17,936,768,0
1305837,381.07,936,772,0
1305847,377.07,936,768,0
1305857,373.23,936,772,0
1305867,368.53,936,768,0
1305877,364.22,936,772,0
1305887,359.39,936,768,0
1305897,355.16,936,772,0
1305907,350.57,936,768,0
1305917,346.71,936,772,0
1305927,342.73,936,768,0
1305937,339.68,936,772,0
1305947,336.65,936,768,0
1305957,334.65,936,772,0
1305967,332.74,936,768,0
1305977,331.75,936,772,0
1305987,330.88,936,768,0
1305997,330.79,936,772,0
1306007,330.55,936,768,0
1306017,331.03,936,772,0
1306028,331.19,936,768,0
1306038,331.91,936,772,0
1306048,332.32,936,768,0
1306058,333.21,936,772,0
1306068,333.79,936,767,0
1306078,334.88,936,772,0
1306088,335.39,936,768,0
1306098,336.13,936,772,0
1306108,336.22,936,767,0
1306118,336.71,936,772,0
1306128,336.63,936,768,0
1306138,336.78,936,772,0
1306148,336.42,936,767,0
1306158,336.42,936,772,0
1306168,336.04,936,767,0
1306178,336.15,936,772,0
1306188,335.94,936,767,0
1306199,336.17,936,772,0
1306209,336.16,936,767,0
1306219,336.63,936,772,0
1306229,336.87,936,767,0
1306240,337.59,936,772,0
1306249,337.97,936,767,0
1306259,338.58,936,772,0
1306269,338.75,936,767,0
1306279,339.25,936,771,0
1306289,339.91,936,767,0
1306299,341.95,936,772,0
1306309,345.48,936,767,0
1306329,352.23,944,766,0
1306332,363.18,944,770,0
1306341,379.45,944,771,0
1306351,401.13,944,769,0
1306361,428.44,944,772,0
1306371,460.06,944,768,0
1306381,495.19,944,772,0
1306391,531.52,944,769,0
1306401,566.85,944,771,0
1306412,599.21,944,769,0
1306422,626.96,944,772,0
1306432,648.49,944,770,0
1306442,663.34,944,771,0
1306452,671.30,944,770,0
1306462,672.92,944,771,0
1306472,668.83,944,770,0
1306482,660.14,944,771,0
1306492,648.01,944,770,0
1306502,633.91,944,772,0
1306512,618.85,944,770,0
1306522,603.55,944,771,0
1306532,588.69,944,770,0
1306542,574.55,944,772,0
1306552,561.36,944,770,0
1306562,548.86,944,771,0
1306572,536.95,944,770,0
1306583,525.18,944,771,0
1306593,513.60,944,771,0
1306603,501.59,944,771,0
1306613,489.45,944,771,0
1306624,476.98,944,771,0
1306633,465.03,944,771,0
1306643,453.49,944,771,0
1306653,443.06,944,771,0
1306663,433.74,944,771,0
1306673,426.32,944,771,0
1306683,420.52,944,771,0
1306693,416.81,944,771,0
1306703,414.29,944,771,0
1306713,413.18,944,771,0
1306723,412.70,944,771,0
1306733,412.92,944,771,0
1306743,412.90,944,771,0
1306753,412.84,944,771,0
1306763,411.99,944,771,0
1306773,410.58,944,771,0
1306783,408.09,944,772,0
1306793,405.15,944,771,0
1306803,401.29,944,771,0
1306813,397.22,944,771,0
1306823,392.44,944,771,0
1306833,387.59,944,771,0
1306843,382.53,944,771,0
1306853,377.83,944,771,0
1306863,372.99,944,772,0
1306873,368.71,944,771,0
1306883,364.60,944,771,0
1306893,361.12,944,771,0
1306903,357.78,944,772,0
1306913,355.15,944,771,0
1306924,352.75,944,771,0
1306934,351.28,944,772,0
1306944,350.00,944,771,0
1306954,349.44,944,772,0
1306964,349.01,944,770,0
1306974,349.43,944,772,0
1306984,349.69,944,771,0
1306994,350.43,944,772,0
1307004,350.64,944,770,0
1307014,351.13,944,772,0
1307024,351.01,944,771,0
1307034,351.01,944,772,0
1307044,350.23,944,770,0
1307054,349.86,944,772,0
1307064,349.18,944,771,0
1307074,348.99,944,772,0
1307084,348.65,944,770,0
1307095,348.97,944,772,0
1307105,349.24,944,770,0
1307115,350.19,944,772,0
1307125,350.69,944,769,0
1307136,351.56,944,772,0
1307145,352.08,944,770,0
1307155,352.87,944,772,0
1307165,353.12,944,769,0
1307175,353.68,944,772,0
1307185,354.04,944,770,0
1307195,355.53,944,772,0
1307205,357.73,944,769,0
1307215,362.31,944,772,0
1307225,369.20,944,770,0
1307235,380.33,944,772,0
1307254,395.66,926,770,0
1307257,416.72,926,771,0
1307266,442.47,926,768,0
1307276,473.19,926,772,0
1307286,506.43,926,768,0
1307296,541.53,926,772,0
1307307,575.40,926,767,0
1307316,606.95,926,772,0
1307326,633.19,926,768,0
1307336,653.71,926,772,0
1307346,666.87,926,767,0
1307356,673.72,926,772,0
1307366,673.72,926,768,0
1307376,668.70,926,772,0
1307386,658.81,926,767,0
1307396,646.31,926,772,0
1307406,631.52,926,768,0
1307416,616.36,926,772,0
1307426,600.65,926,768,0
1307436,586.01,926,772,0
1307446,571.70,926,768,0
1307456,558.54,926,772,0
1307466,545.35,926,767,0
1307476,532.99,926,772,0
1307486,520.35,926,768,0
1307496,508.16,926,772,0
1307506,495.25,926,768,0
1307516,482.66,926,772,0
1307526,469.82,926,768,0
1307536,457.75,926,772,0
1307546,445.65,926,768,0
1307556,434.70,926,772,0
1307566,424.29,926,769,0
1307576,415.55,926,772,0
1307586,407.80,926,768,0
1307596,401.99,926,772,0
1307607,397.36,926,768,0
1307617,394.77,926,772,0
1307627,393.04,926,768,0
1307637,392.77,926,772,0
1307648,392.75,926,768,0
1307657,393.47,926,772,0
1307667,393.59,926,768,0
1307677,393.71,926,772,0
1307687,392.81,926,767,0
1307697,391.75,926,772,0
1307707,389.60,926,767,0
1307717,387.19,926,772,0
1307727,383.83,926,768,0
1307737,380.54,926,772,0
1307747,376.61,926,768,0
1307757,372.87,926,772,0
1307767,368.66,926,768,0
1307777,364.91,926,772,0
1307787,360.95,926,768,0
1307797,357.58,926,772,0
1307807,354.02,926,768,0
1307817,351.19,926,772,0
1307827,348.52,926,768,0
1307837,346.73,926,772,0
1307847,345.01,926,768,0
1307857,344.45,926,772,0
1307867,343.97,926,768,0
1307877,344.32,926,772,0
1307887,344.57,926,769,0
1307897,345.30,926,772,0
1307907,345.72,926,770,0
1307917,346.58,926,772,0
1307927,346.79,926,770,0
1307937,347.32,926,772,0
1307948,347.44,926,769,0
1307958,347.95,926,772,0
1307968,348.01,926,770,0
1307978,348.35,926,772,0
1307988,348.29,926,769,0
1307998,348.59,926,772,0
1308008,348.54,926,769,0
1308018,348.98,926,772,0
1308028,349.11,926,769,0
1308038,349.72,926,772,0
1308048,349.85,926,769,0
1308058,350.28,926,772,0
1308068,350.15,926,769,0
1308078,350.24,926,772,0
1308088,349.86,926,768,0
1308098,350.33,926,772,0
1308108,351.43,926,768,0
1308119,354.99,926,772,0
1308129,361.29,926,768,0
1308139,372.05,926,772,0
1308158,387.63,904,770,0
1308162,409.39,904,771,0
1308171,436.83,904,770,0
1308181,469.41,904,772,0
1308191,505.03,904,771,0
1308201,542.05,904,772,0
1308211,578.08,904,770,0
1308221,611.18,904,772,0
1308231,638.94,904,771,0
1308241,659.79,904,771,0
1308251,673.31,904,770,0
1308261,679.52,904,772,0
1308271,678.89,904,770,0
1308281,672.15,904,771,0
1308291,660.66,904,770,0
1308301,645.76,904,771,0
1308311,628.86,904,770,0
1308321,610.99,904,771,0
1308332,593.55,904,771,0
1308342,576.80,904,771,0
1308352,561.65,904,771,0
1308362,547.52,904,771,0
1308372,534.72,904,771,0
1308382,522.55,904,771,0
1308392,511.11,904,771,0
1308402,499.29,904,771,0
1308412,487.51,904,772,0
1308422,475.18,904,771,0
1308432,462.96,904,771,0
1308442,450.58,904,771,0
1308452,438.84,904,772,0
1308462,427.66,904,771,0
1308472,418.03,904,771,0
1308482,409.88,904,771,0
1308492,403.62,904,771,0
1308503,398.89,904,771,0
1308513,396.01,904,771,0
1308523,394.38,904,771,0
1308533,394.09,904,772,0
1308544,394.32,904,771,0
1308553,395.21,904,772,0
1308563,395.83,904,771,0
1308573,396.44,904,772,0
1308583,396.14,904,771,0
1308593,395.41,904,771,0
1308603,393.49,904,771,0
1308613,391.03,904,772,0
1308623,387.46,904,771,0
1308633,383.77,904,772,0
1308643,379.55,904,771,0
1308653,375.70,904,771,0
1308663,371.76,904,771,0
1308673,368.45,904,772,0
1308683,365.31,904,771,0
1308693,362.82,904,772,0
1308703,360.22,904,771,0
1308713,358.18,904,772,0
1308723,355.81,904,771,0
1308733,353.81,904,772,0
1308743,351.47,904,770,0
1308753,349.57,904,772,0
1308763,347.56,904,771,0
1308773,346.36,904,772,0
1308783,345.14,904,770,0
1308793,344.93,904,772,0
1308803,344.82,904,771,0
1308813,345.64,904,772,0
1308823,346.01,904,770,0
1308833,346.82,904,772,0
1308844,347.00,904,769,0
1308854,347.56,904,772,0
1308864,347.43,904,769,0
1308874,347.52,904,772,0
1308884,346.89,904,768,0
1308894,346.88,904,772,0
1308904,346.49,904,769,0
1308914,346.68,904,772,0
1308924,346.44,904,768,0
1308934,346.91,904,772,0
1308944,347.28,904,769,0
1308954,348.99,904,772,0
1308964,351.52,904,769,0
1308974,356.47,904,772,0
1308984,363.66,904,769,0
1308994,374.99,904,772,0
1309004,390.29,904,769,0
1309015,411.12,904,772,0
1309034,436.37,876,770,0
1309037,466.52,876,771,0
1309046,499.57,876,767,0
1309057,534.42,876,772,0
1309067,568.06,876,767,0
1309077,599.12,876,772,0
1309087,624.80,876,767,0
1309097,644.57,876,772,0
1309107,656.79,876,768,0
1309117,661.99,876,772,0
1309127,660.24,876,768,0
1309137,653.35,876,772,0
1309147,641.80,876,768,0
1309157,627.55,876,772,0
1309167,611.10,876,769,0
1309177,594.10,876,772,0
1309187,576.75,876,769,0
1309197,560.37,876,772,0
1309207,544.45,876,769,0
1309217,529.91,876,772,0
1309228,516.10,876,770,0
1309238,503.72,876,772,0
1309248,491.89,876,770,0
1309258,481.12,876,772,0
1309268,470.42,876,771,0
1309278,460.31,876,772,0
1309288,449.84,876,770,0
1309298,439.95,876,772,0
1309308,429.81,876,770,0
1309318,420.61,876,772,0
1309328,411.77,876,770,0
1309338,404.47,876,771,0
1309348,398.33,876,770,0
1309358,394.46,876,772,0
1309368,392.01,876,769,0
1309378,391.66,876,771,0
1309388,392.45,876,769,0
1309399,394.41,876,771,0
1309409,396.43,876,769,0
1309419,398.32,876,771,0
1309429,399.21,876,769,0
1309440,399.02,876,771,0
1309449,397.25,876,768,0
1309459,394.18,876,771,0
1309469,389.88,876,769,0
1309479,384.86,876,772,0
1309489,379.59,876,768,0
1309499,374.44,876,771,0
1309509,369.85,876,769,0
1309519,366.04,876,772,0
1309529,362.90,876,768,0
1309539,360.44,876,771,0
1309549,358.38,876,769,0
1309559,356.47,876,772,0
1309569,354.36,876,768,0
1309579,352.06,876,771,0
1309589,349.47,876,769,0
1309599,346.76,876,771,0
1309609,344.09,876,769,0
1309619,341.83,876,771,0
1309629,340.21,876,769,0
1309639,339.55,876,772,0
1309649,339.81,876,769,0
1309659,341.03,876,772,0
1309669,342.95,876,769,0
1309679,345.23,876,772,0
1309689,347.61,876,769,0
1309699,349.70,876,772,0
1309709,351.16,876,768,0
1309719,351.88,876,772,0
1309729,351.79,876,769,0
1309740,351.04,876,772,0
1309750,349.78,876,770,0
1309760,348.26,876,772,0
1309770,346.77,876,771,0
1309780,345.60,876,771,0
1309790,344.77,876,770,0
1309800,344.50,876,772,0
1309810,344.69,876,771,0
1309820,345.51,876,771,0
1309830,346.99,876,770,0
1309840,349.26,876,771,0
1309850,352.91,876,771,0
1309860,358.85,876,771,0
1309870,367.68,876,770,0
1309880,380.38,876,771,0
1309899,397.79,865,770,0
1309902,420.44,865,771,0
1309911,448.47,865,771,0
1309921,480.34,865,771,0
1309931,514.48,865,771,0
1309941,549.09,865,771,0
1309952,582.07,865,772,0
1309961,611.15,865,772,0
1309971,634.63,865,771,0
1309981,651.03,865,771,0
1309991,660.49,865,772,0
1310001,663.13,865,772,0
1310011,659.53,865,771,0
1310021,650.67,865,771,0
1310031,637.96,865,771,0
1310041,622.46,865,771,0
1310051,605.60,865,771,0
1310061,588.11,865,771,0
1310071,571.02,865,771,0
1310081,554.86,865,771,0
1310091,540.24,865,771,0
1310101,526.76,865,771,0
1310111,514.66,865,771,0
1310121,503.23,865,771,0
1310131,492.96,865,771,0
1310141,482.99,865,771,0
1310151,473.39,865,771,0
1310161,463.42,865,771,0
1310171,453.73,865,771,0
1310181,443.74,865,771,0
1310191,434.22,865,771,0
1310201,424.90,865,771,0
1310211,416.66,865,771,0
1310221,409.35,865,771,0
1310231,403.76,865,771,0
1310241,399.33,865,771,0
1310252,396.83,865,772,0
1310262,395.51,865,771,0
1310272,395.44,865,771,0
1310282,395.70,865,771,0
1310292,396.52,865,772,0
1310302,396.96,865,771,0
1310312,397.32,865,771,0
1310322,396.58,865,771,0
1310332,395.29,865,772,0
1310342,392.80,865,771,0
1310352,389.78,865,771,0
1310362,385.69,865,771,0
1310372,381.41,865,772,0
1310382,376.70,865,771,0
1310392,372.38,865,771,0
1310402,368.06,865,771,0
1310412,364.49,865,772,0
1310423,361.13,865,770,0
1310433,358.60,865,771,0
1310443,356.02,865,770,0
1310453,354.00,865,772,0
1310464,351.90,865,769,0
1310473,350.34,865,771,0
1310483,348.66,865,770,0
1310493,347.52,865,772,0
1310503,346.16,865,769,0
1310513,345.56,865,772,0
1310523,344.87,865,770,0
1310533,344.91,865,772,0
1310543,344.72,865,769,0
1310553,345.24,865,771,0
1310563,345.42,865,770,0
1310573,346.11,865,772,0
1310583,346.29,865,769,0
1310593,346.76,865,772,0
1310603,346.58,865,770,0
1310613,346.53,865,772,0
1310623,345.56,865,769,0
1310633,344.70,865,772,0
1310643,343.25,865,770,0
1310653,342.19,865,772,0
1310663,340.63,865,769,0
1310673,339.54,865,771,0
1310683,338.39,865,770,0
1310693,338.06,865,772,0
1310703,337.61,865,769,0
1310713,337.90,865,772,0
1310723,338.02,865,770,0
1310733,339.08,865,772,0
1310743,340.56,865,769,0
1310753,343.69,865,771,0
1310764,348.33,865,769,0
1310774,356.33,865,772,0
1310784,367.59,865,768,0
1310803,383.91,904,767,0
1310807,405.15,904,768,0
1310815,431.93,904,772,0
1310825,462.30,904,767,0
1310835,495.55,904,772,0
1310845,528.90,904,767,0
1310855,561.37,904,772,0
1310865,589.98,904,768,0
1310875,613.30,904,772,0
1310885,629.58,904,767,0
1310895,639.39,904,772,0
1310905,642.15,904,767,0
1310915,639.27,904,771,0
1310925,631.05,904,767,0
1310935,619.68,904,772,0
1310945,605.80,904,767,0
1310955,591.25,904,772,0
1310965,576.09,904,767,0
1310976,561.88,904,772,0
1310985,548.41,904,768,0
1310995,536.55,904,771,0
1311005,525.15,904,767,0
1311015,514.86,904,772,0
1311025,504.49,904,768,0
1311035,494.83,904,772,0
1311045,484.81,904,767,0
1311055,475.05,904,772,0
1311065,464.62,904,768,0
1311075,454.58,904,771,0
1311085,444.46,904,767,0
1311095,435.58,904,772,0
1311105,427.43,904,768,0
1311115,421.22,904,772,0
1311125,416.22,904,767,0
1311135,413.33,904,772,0
1311145,411.73,904,767,0
1311155,411.85,904,772,0
1311165,412.33,904,767,0
1311175,413.51,904,772,0
1311185,414.17,904,767,0
1311195,414.81,904,772,0
1311205,414.35,904,767,0
1311215,413.47,904,772,0
1311225,411.49,904,767,0
1311235,409.50,904,772,0
1311245,406.78,904,767,0
1311255,404.32,904,772,0
1311265,401.48,904,767,0
1311276,399.15,904,772,0
1311286,396.62,904,766,0
1311296,394.38,904,772,0
1311306,391.69,904,767,0
1311316,389.08,904,772,0
1311326,385.84,904,767,0
1311336,382.63,904,772,0
1311346,378.97,904,767,0
1311356,375.47,904,772,0
1311366,371.77,904,767,0
1311376,368.45,904,772,0
1311386,365.19,904,767,0
1311396,362.56,904,772,0
1311406,360.12,904,767,0
1311416,358.41,904,772,0
1311426,356.92,904,767,0
1311436,356.09,904,772,0
1311447,355.42,904,767,0
1311457,355.29,904,772,0
1311467,355.25,904,767,0
1311477,355.69,904,772,0
1311488,356.04,904,768,0
1311497,356.71,904,772,0
1311507,357.18,904,767,0
1311517,357.81,904,772,0
1311527,358.26,904,768,0
1311537,358.74,904,772,0
1311547,358.82,904,767,0
1311557,358.83,904,772,0
1311567,358.58,904,768,0
1311577,358.83,904,772,0
1311587,359.06,904,767,0
1311597,359.94,904,772,0
1311607,361.89,904,768,0
1311617,365.95,904,772,0
1311627,372.61,904,767,0
1311637,383.10,904,771,0
1311647,397.60,904,768,0
1311657,417.30,904,772,0
1311667,441.64,904,767,0
1311686,470.38,883,766,0
1311689,502.58,883,772,0
1311698,536.78,883,772,0
1311708,570.44,883,768,0
1311718,601.81,883,772,0
1311728,628.82,883,769,0
1311738,650.39,883,771,0
1311748,665.40,883,768,0
1311758,673.12,883,771,0
1311768,673.73,883,769,0
1311778,668.20,883,771,0
1311788,657.64,883,768,0
1311798,643.30,883,772,0
1311808,626.37,883,768,0
1311818,608.17,883,771,0
1311828,589.74,883,769,0
1311838,571.99,883,771,0
1311848,555.45,883,768,0
1311858,540.01,883,771,0
1311868,525.87,883,769,0
1311878,513.05,883,771,0
1311888,501.16,883,768,0
1311898,490.06,883,771,0
1311908,479.58,883,769,0
1311918,469.42,883,771,0
1311928,459.74,883,768,0
1311938,450.35,883,771,0
1311948,441.63,883,769,0
1311959,433.42,883,771,0
1311969,426.27,883,769,0
1311979,420.02,883,771,0
1311989,415.04,883,770,0
1312000,411.26,883,771,0
1312009,409.04,883,770,0
1312019,407.65,883,771,0
1312029,407.29,883,770,0
1312039,407.07,883,771,0
1312049,407.05,883,770,0
1312059,406.74,883,771,0
1312069,406.04,883,770,0
1312079,404.36,883,771,0
1312089,401.98,883,770,0
1312099,398.64,883,771,0
1312109,394.81,883,770,0
1312119,390.32,883,772,0
1312129,385.77,883,769,0
1312139,381.17,883,771,0
1312149,376.96,883,770,0
1312159,372.90,883,772,0
1312169,369.37,883,770,0
1312179,366.00,883,771,0
1312189,363.05,883,770,0
1312199,359.99,883,772,0
1312209,357.16,883,770,0
1312219,354.29,883,771,0
1312229,351.67,883,770,0
1312239,349.20,883,771,0
1312249,347.47,883,771,0
1312259,346.30,883,771,0
1312269,346.08,883,770,0
1312279,346.36,883,771,0
1312289,347.36,883,770,0
1312300,348.71,883,771,0
1312310,350.56,883,771,0
1312320,352.32,883,771,0
1312330,354.37,883,771,0
1312340,356.23,883,771,0
1312350,358.47,883,771,0
1312360,360.69,883,771,0
1312370,363.48,883,771,0
1312380,366.34,883,771,0
1312390,369.84,883,771,0
1312400,373.36,883,771,0
1312410,377.41,883,771,0
1312420,381.10,883,771,0
1312430,385.06,883,771,0
1312440,388.55,883,771,0
1312450,392.07,883,771,0
1312460,394.88,883,771,0
1312471,397.53,883,772,0
1312481,399.43,883,771,0
1312491,401.23,883,772,0
1312501,402.27,883,770,0
1312512,403.48,883,772,0
1312530,404.83,844,770,0
1312533,407.84,844,772,0
1312542,412.95,844,769,0
1312552,422.05,844,772,0
1312562,435.70,844,770,0
1312572,455.64,844,772,0
1312582,481.55,844,770,0
1312592,513.87,844,772,0
1312602,549.44,844,770,0
1312612,586.08,844,772,0
1312622,621.15,844,770,0
1312632,653.25,844,772,0
1312642,680.43,844,770,0
1312652,702.07,844,772,0
1312662,717.27,844,770,0
1312672,727.90,844,771,0
1312683,734.19,844,769,0
1312692,736.45,844,772,0
1312702,733.95,844,770,0
1312712,726.90,844,771,0
1312722,715.06,844,769,0
1312732,699.35,844,772,0
1312742,679.66,844,770,0
1312752,657.82,844,771,0
1312762,634.43,844,769,0
1312772,611.63,844,772,0
1312782,589.46,844,770,0
1312792,568.88,844,771,0
1312802,548.86,844,769,0
1312812,530.39,844,772,0
1312822,512.44,844,770,0
1312832,495.72,844,771,0
1312842,479.22,844,769,0
1312852,463.85,844,772,0
1312862,448.90,844,770,0
1312872,435.39,844,771,0
1312882,422.37,844,769,0
1312892,411.12,844,771,0
1312902,400.97,844,770,0
1312912,392.92,844,771,0
1312922,386.09,844,769,0
1312932,381.47,844,772,0
1312942,378.12,844,770,0
1312952,376.45,844,771,0
1312962,375.20,844,769,0
1312972,375.01,844,772,0
1312983,374.50,844,769,0
1312993,374.26,844,771,0
1313003,373.07,844,768,0
1313013,371.68,844,772,0
1313024,369.24,844,768,0
1313033,366.60,844,771,0
1313043,362.73,844,768,0
1313053,358.79,844,772,0
1313063,353.84,844,768,0
1313073,349.08,844,772,0
1313083,343.66,844,769,0
1313093,338.75,844,771,0
1313103,333.68,844,768,0
1313113,329.62,844,772,0
1313123,325.62,844,769,0
1313133,322.78,844,772,0
1313143,319.97,844,768,0
1313153,318.22,844,771,0
1313163,316.66,844,769,0
1313173,316.07,844,772,0
1313183,315.41,844,768,0
1313193,315.63,844,772,0
1313203,315.70,844,768,0
1313213,316.47,844,772,0
1313223,317.02,844,768,0
1313233,318.04,844,772,0
1313243,318.63,844,768,0
1313253,319.68,844,772,0
1313263,320.08,844,768,0
1313273,320.87,844,772,0
1313283,321.25,844,769,0
1313293,321.99,844,772,0
1313303,322.16,844,768,0
1313313,322.63,844,772,0
1313324,322.44,844,768,0
1313334,322.65,844,771,0
1313344,322.24,844,767,0
1313354,322.21,844,772,0
1313364,321.93,844,768,0
1313374,322.34,844,772,0
1313384,322.58,844,768,0
1313394,323.39,844,771,0
1313404,323.96,844,767,0
1313414,325.04,844,772,0
1313424,325.72,844,768,0
1313434,326.57,844,771,0
1313444,326.92,844,767,0
1313454,327.58,844,772,0
1313464,328.14,844,767,0
1313474,329.94,844,772,0
1313484,333.09,844,767,0
1313504,339.40,974,766,0
1313507,349.87,974,769,0
1313516,365.81,974,772,0
1313526,387.25,974,767,0
1313537,414.86,974,772,0
1313547,447.47,974,768,0
1313557,484.32,974,772,0
1313567,522.84,974,769,0
1313577,560.43,974,772,0
1313587,594.76,974,768,0
1313597,624.23,974,771,0
1313607,647.00,974,768,0
1313617,662.43,974,772,0
1313627,669.89,974,768,0
1313637,669.96,974,771,0
1313647,663.55,974,768,0
1313657,651.85,974,772,0
1313667,636.13,974,768,0
1313677,617.87,974,771,0
1313687,598.28,974,768,0
1313697,578.70,974,771,0
1313708,559.89,974,769,0
1313718,542.39,974,771,0
1313728,526.50,974,769,0
1313738,512.12,974,771,0
1313748,499.36,974,770,0
1313758,487.81,974,771,0
1313768,477.19,974,769,0
1313778,467.15,974,771,0
1313788,457.59,974,770,0
1313798,448.46,974,771,0
1313808,439.88,974,769,0
1313818,431.73,974,771,0
1313828,424.35,974,770,0
1313838,417.78,974,771,0
1313848,412.40,974,769,0
1313858,408.29,974,772,0
1313868,405.42,974,770,0
1313879,403.75,974,771,0
1313889,403.05,974,770,0
1313899,402.87,974,771,0
1313909,403.29,974,771,0
1313920,403.55,974,771,0
1313929,403.64,974,770,0
1313939,403.06,974,772,0
1313949,401.93,974,771,0
1313959,399.76,974,771,0
1313969,397.26,974,770,0
1313979,393.88,974,771,0
1313989,390.32,974,771,0
1313999,386.11,974,771,0
1314009,382.01,974,770,0
1314019,377.37,974,772,0
1314029,373.06,974,771,0
1314039,368.37,974,771,0
1314049,363.93,974,770,0
1314059,359.41,974,772,0
1314069,355.30,974,771,0
1314079,351.01,974,771,0
1314089,347.19,974,771,0
1314099,343.66,974,772,0
1314109,340.94,974,771,0
1314119,338.51,974,771,0
1314129,336.94,974,771,0
1314139,335.93,974,772,0
1314149,336.08,974,771,0
1314159,336.74,974,771,0
1314169,338.11,974,771,0
1314179,339.49,974,772,0
1314189,341.14,974,771,0
1314199,342.30,974,771,0
1314209,343.28,974,771,0
1314220,343.45,974,772,0
1314230,343.53,974,772,0
1314240,343.03,974,771,0
1314250,342.63,974,772,0
1314260,341.97,974,771,0
1314270,341.72,974,771,0
1314280,341.29,974,771,0
1314290,341.25,974,771,0
1314300,341.09,974,771,0
1314310,341.23,974,772,0
1314320,340.99,974,771,0
1314330,341.08,974,772,0
1314340,340.80,974,771,0
1314350,341.37,974,772,0
1314360,342.55,974,771,0
1314370,345.73,974,771,0
1314380,351.29,974,771,0
1314391,361.11,974,772,0
1314401,375.47,974,770,0
1314420,396.03,916,768,0
1314423,422.12,916,769,0
1314433,454.01,916,772,0
1314443,489.20,916,768,0
1314453,526.47,916,772,0
1314463,562.58,916,768,0
1314473,596.01,916,772,0
1314483,623.73,916,768,0
1314493,644.94,916,772,0
1314503,657.82,916,767,0
1314513,663.49,916,772,0
1314523,661.58,916,768,0
1314533,653.99,916,772,0
1314543,641.10,916,767,0
1314553,625.12,916,772,0
1314563,606.66,916,768,0
1314573,587.95,916,772,0
1314583,569.02,916,767,0
1314593,551.49,916,772,0
1314604,534.97,916,767,0
1314614,520.36,916,772,0
1314624,506.88,916,767,0
1314634,495.05,916,772,0
1314644,483.80,916,767,0
1314654,473.62,916,772,0
1314664,463.53,916,767,0
1314674,454.20,916,772,0
1314684,445.10,916,767,0
1314694,436.97,916,772,0
1314704,429.09,916,767,0
1314714,422.46,916,772,0
1314724,416.50,916,767,0
1314734,412.06,916,772,0
1314744,408.40,916,767,0
1314754,406.18,916,772,0
1314764,404.58,916,767,0
1314775,404.32,916,772,0
1314785,404.14,916,767,0
1314795,404.57,916,772,0
1314805,404.57,916,768,0
1314816,404.53,916,772,0
1314825,403.47,916,767,0
1314835,401.83,916,772,0
1314845,398.84,916,768,0
1314855,395.11,916,772,0
1314865,390.11,916,767,0
1314875,384.68,916,772,0
1314885,378.56,916,767,0
1314895,372.48,916,772,0
1314905,366.38,916,767,0
1314915,361.08,916,772,0
1314925,356.34,916,768,0
1314935,352.81,916,772,0
1314945,349.74,916,767,0
1314955,347.67,916,772,0
1314965,345.97,916,768,0
1314975,344.95,916,772,0
1314985,343.72,916,768,0
1314995,342.78,916,772,0
1315005,341.43,916,767,0
1315015,340.40,916,772,0
1315025,339.34,916,768,0
1315035,338.85,916,772,0
1315045,338.47,916,767,0
1315055,338.76,916,772,0
1315065,339.26,916,768,0
1315075,340.38,916,772,0
1315085,341.51,916,767,0
1315095,342.81,916,772,0
1315105,343.64,916,768,0
1315116,344.22,916,772,0
1315126,344.20,916,768,0
1315136,343.92,916,772,0
1315146,343.18,916,768,0
1315156,342.31,916,772,0
1315166,341.19,916,768,0
1315176,340.45,916,771,0
1315186,339.93,916,768,0
1315196,339.73,916,772,0
1315206,339.43,916,768,0
1315216,339.43,916,771,0
1315226,339.39,916,768,0
1315236,339.23,916,772,0
1315246,338.73,916,768,0
1315256,338.17,916,772,0
1315266,337.86,916,768,0
1315276,338.50,916,772,0
1315287,340.58,916,769,0
1315297,345.16,916,772,0
1315307,353.39,916,770,0
1315326,366.08,906,769,0
1315330,384.87,906,772,0
1315339,409.81,906,771,0
1315349,440.55,906,771,0
1315359,475.70,906,771,0
1315369,514.02,906,772,0
1315379,552.97,906,771,0
1315389,590.78,906,771,0
1315399,623.80,906,772,0
1315409,650.86,906,772,0
1315419,670.36,906,771,0
1315429,682.17,906,771,0
1315439,685.46,906,771,0
1315449,681.46,906,772,0
1315459,670.78,906,771,0
1315469,655.38,906,771,0
1315479,636.11,906,771,0
1315489,615.07,906,772,0
1315500,593.19,906,771,0
1315510,572.61,906,772,0
1315520,553.40,906,770,0
1315530,536.48,906,772,0
1315540,521.51,906,770,0
1315550,508.93,906,772,0
1315560,497.51,906,770,0
1315570,487.54,906,772,0
1315580,477.61,906,770,0
1315590,468.42,906,771,0
1315600,459.00,906,770,0
1315610,450.21,906,772,0
1315620,441.28,906,770,0
1315630,433.52,906,772,0
1315640,426.34,906,770,0
1315650,420.96,906,772,0
1315660,416.39,906,770,0
1315671,413.53,906,772,0
1315681,411.14,906,769,0
1315691,410.03,906,772,0
1315701,408.91,906,768,0
1315712,408.46,906,772,0
1315721,407.42,906,769,0
1315731,406.57,906,772,0
1315741,404.90,906,769,0
1315751,403.30,906,772,0
1315761,400.98,906,769,0
1315771,398.72,906,772,0
1315781,395.67,906,769,0
1315791,392.77,906,772,0
1315801,389.28,906,769,0
1315811,386.11,906,772,0
1315821,382.39,906,769,0
1315831,378.97,906,772,0
1315841,375.17,906,769,0
1315851,371.90,906,772,0
1315861,368.38,906,769,0
1315871,365.43,906,772,0
1315881,362.13,906,768,0
1315891,359.65,906,772,0
1315901,357.01,906,769,0
1315911,355.17,906,772,0
1315921,353.02,906,768,0
1315931,351.51,906,772,0
1315941,349.77,906,769,0
1315951,348.73,906,772,0
1315961,347.18,906,768,0
1315971,346.31,906,772,0
1315981,345.58,906,769,0
1315991,345.96,906,772,0
1316001,346.40,906,768,0
1316012,347.82,906,772,0
1316022,349.25,906,768,0
1316032,351.53,906,772,0
1316042,353.43,906,768,0
1316052,355.23,906,772,0
1316062,355.80,906,768,0
1316072,356.16,906,772,0
1316082,355.26,906,768,0
1316092,354.32,906,772,0
1316102,352.68,906,768,0
1316112,351.49,906,772,0
1316122,350.14,906,768,0
1316132,349.59,906,772,0
1316142,348.94,906,768,0
1316152,349.13,906,772,0
1316162,349.05,906,768,0
1316172,349.50,906,772,0
1316183,349.57,906,768,0
1316193,350.21,906,772,0
1316203,351.26,906,767,0
1316213,354.01,906,772,0
1316224,358.68,906,767,0
1316233,366.92,906,772,0
1316243,379.03,906,767,0
1316262,396.98,936,766,0
1316265,421.28,936,769,0
1316274,451.80,936,772,0
1316284,486.92,936,767,0
1316294,525.60,936,772,0
1316304,565.15,936,768,0
1316314,603.59,936,772,0
1316324,638.00,936,767,0
1316334,666.37,936,772,0
1316344,687.04,936,768,0
1316354,700.06,936,772,0
1316364,704.63,936,767,0
1316374,702.00,936,772,0
1316384,692.83,936,768,0
1316395,678.74,936,772,0
1316404,660.60,936,767,0
1316414,640.75,936,772,0
1316424,619.95,936,767,0
1316434,600.12,936,772,0
1316444,581.53,936,767,0
1316454,565.17,936,772,0
1316464,550.42,936,767,0
1316474,537.48,936,771,0
1316484,525.55,936,767,0
1316494,514.67,936,772,0
1316504,503.97,936,767,0
1316514,493.69,936,772,0
1316524,483.11,936,767,0
1316534,473.09,936,771,0
1316544,463.29,936,767,0
1316554,454.33,936,772,0
1316564,446.13,936,768,0
1316574,439.28,936,771,0
1316584,433.41,936,767,0
1316594,429.13,936,772,0
1316604,425.75,936,767,0
1316614,423.55,936,771,0
1316624,421.72,936,767,0
1316634,420.39,936,772,0
1316644,418.81,936,767,0
1316654,417.20,936,771,0
1316664,414.82,936,767,0
1316674,412.09,936,772,0
1316684,408.72,936,767,0
1316695,405.38,936,771,0
1316705,401.58,936,768,0
1316715,397.85,936,772,0
1316725,393.95,936,768,0
1316736,390.28,936,771,0
1316745,386.38,936,768,0
1316755,382.50,936,772,0
1316765,378.23,936,768,0
1316775,374.09,936,771,0
1316785,369.78,936,768,0
1316795,365.64,936,771,0
1316805,361.68,936,768,0
1316815,358.26,936,771,0
1316825,355.44,936,768,0
1316835,353.38,936,772,0
1316845,351.85,936,768,0
1316855,351.17,936,771,0
1316865,350.99,936,768,0
1316875,351.59,936,772,0
1316885,352.61,936,768,0
1316895,354.02,936,772,0
1316905,355.38,936,769,0
1316915,356.85,936,772,0
1316925,358.01,936,768,0
1316935,358.95,936,772,0
1316945,359.35,936,769,0
1316955,359.37,936,772,0
1316965,358.79,936,768,0
1316975,357.95,936,771,0
1316985,356.64,936,769,0
1316995,355.42,936,772,0
1317005,354.39,936,768,0
1317015,353.80,936,771,0
1317025,353.61,936,769,0
1317036,353.94,936,772,0
1317046,354.77,936,769,0
1317056,355.95,936,771,0
1317066,357.30,936,770,0
1317076,358.71,936,772,0
1317086,360.25,936,769,0
1317096,362.45,936,772,0
1317106,366.17,936,770,0
1317116,372.42,936,771,0
1317126,382.49,936,769,0
1317145,397.47,883,768,0
1317148,419.23,883,772,0
1317157,447.71,883,772,0
1317167,482.12,883,770,0
1317177,520.74,883,772,0
1317187,560.76,883,771,0
1317197,599.88,883,772,0
1317207,636.00,883,770,0
1317217,666.64,883,772,0
1317227,691.18,883,771,0
1317237,708.48,883,771,0
1317248,718.37,883,771,0
1317257,721.73,883,772,0
1317267,719.15,883,771,0
1317277,710.96,883,772,0
1317287,698.12,883,771,0
1317297,680.94,883,772,0
1317307,661.33,883,770,0
1317317,640.27,883,772,0
1317327,619.06,883,771,0
1317337,598.47,883,771,0
1317347,579.30,883,770,0
1317357,561.08,883,771,0
1317367,544.09,883,771,0
1317377,527.82,883,771,0
1317387,512.57,883,770,0
1317397,497.96,883,772,0
1317407,484.04,883,771,0
1317417,470.49,883,771,0
1317427,458.00,883,770,0
1317437,446.56,883,771,0
1317447,436.75,883,771,0
1317457,428.25,883,771,0
1317467,421.62,883,770,0
1317477,416.89,883,771,0
1317487,414.52,883,771,0
1317497,413.89,883,771,0
1317507,414.95,883,770,0
1317517,416.85,883,771,0
1317527,419.68,883,771,0
1317537,422.18,883,771,0
1317548,424.01,883,771,0
1317558,424.31,883,772,0
1317568,423.14,883,771,0
1317578,419.89,883,771,0
1317588,415.29,883,771,0
1317598,409.20,883,771,0
1317608,402.59,883,772,0
1317618,395.30,883,771,0
1317628,388.18,883,771,0
1317638,381.05,883,772,0
1317648,374.61,883,772,0
1317658,368.17,883,771,0
1317668,362.25,883,771,0
1317678,356.47,883,771,0
1317688,351.40,883,771,0
1317698,346.57,883,771,0
1317708,342.71,883,772,0
1317719,339.46,883,771,0
1317729,337.56,883,772,0
1317739,336.19,883,770,0
1317749,335.92,883,772,0
1317760,336.03,883,770,0
1317769,336.92,883,772,0
1317779,337.59,883,770,0
1317789,338.61,883,772,0
1317799,339.07,883,770,0
1317809,339.99,883,772,0
1317819,340.38,883,770,0
1317829,341.08,883,771,0
1317839,341.36,883,770,0
1317849,342.06,883,772,0
1317859,342.56,883,770,0
1317869,343.63,883,772,0
1317879,344.22,883,770,0
1317889,345.27,883,772,0
1317899,345.83,883,771,0
1317909,346.61,883,772,0
1317919,346.73,883,770,0
1317929,347.07,883,772,0
1317939,346.83,883,770,0
1317949,346.84,883,772,0
1317959,346.33,883,770,0
1317969,346.27,883,772,0
1317979,346.19,883,770,0
1317989,347.08,883,772,0
1317999,348.55,883,770,0
1318009,352.16,883,772,0
1318019,358.28,883,770,0
1318029,369.13,883,772,0
1318048,385.20,903,771,0
1318051,408.58,903,772,0
1318060,439.01,903,769,0
1318070,476.55,903,772,0
1318080,517.78,903,769,0
1318090,560.36,903,772,0
1318100,601.18,903,769,0
1318110,638.50,903,772,0
1318120,669.81,903,769,0
1318130,694.46,903,772,0
1318140,711.85,903,769,0
1318150,724.07,903,772,0
1318160,732.58,903,769,0
1318170,737.93,903,772,0
1318180,739.20,903,769,0
1318190,736.82,903,772,0
1318200,729.98,903,769,0
1318210,719.10,903,772,0
1318220,703.64,903,769,0
1318231,684.20,903,772,0
1318241,661.13,903,768,0
1318251,636.53,903,772,0
1318261,610.32,903,768,0
1318272,584.34,903,772,0
1318281,558.56,903,768,0
1318291,534.35,903,772,0
1318301,511.10,903,768,0
1318311,489.94,903,772,0
1318321,470.33,903,768,0
1318331,453.30,903,772,0
1318341,438.04,903,768,0
1318351,425.26,903,772,0
1318361,414.25,903,768,0
1318371,405.99,903,772,0
1318381,399.69,903,768,0
1318391,396.36,903,772,0
1318401,394.84,903,768,0
1318411,395.74,903,772,0
1318421,397.71,903,768,0
1318431,401.01,903,772,0
1318441,404.22,903,767,0
1318451,407.45,903,772,0
1318461,409.16,903,768,0
1318471,409.93,903,772,0
1318481,408.75,903,767,0
1318491,406.55,903,772,0
1318501,402.49,903,768,0
1318511,397.71,903,772,0
1318521,391.50,903,768,0
1318531,385.13,903,772,0
1318541,377.98,903,768,0
1318551,371.17,903,772,0
1318561,363.92,903,768,0
1318572,357.34,903,772,0
1318582,350.56,903,767,0
1318592,344.77,903,772,0
1318602,339.01,903,767,0
1318612,334.30,903,772,0
1318622,329.71,903,767,0
1318632,326.19,903,772,0
1318642,323.09,903,767,0
1318652,321.05,903,772,0
1318662,319.24,903,768,0
1318672,318.48,903,772,0
1318682,317.95,903,767,0
1318692,318.26,903,772,0
1318702,318.61,903,768,0
1318712,319.46,903,772,0
1318722,320.14,903,767,0
1318732,321.38,903,772,0
1318743,322.47,903,767,0
1318753,323.87,903,772,0
1318763,325.07,903,767,0
1318773,326.67,903,772,0
1318784,328.23,903,768,0
1318793,330.47,903,772,0
1318803,332.60,903,767,0
1318813,335.25,903,772,0
1318823,337.88,903,768,0
1318833,341.00,903,772,0
1318843,344.00,903,767,0
1318853,347.34,903,772,0
1318863,350.45,903,768,0
1318873,354.00,903,772,0
1318883,357.56,903,767,0
1318893,362.02,903,772,0
1318903,367.50,903,768,0
1318913,375.06,903,772,0
1318923,385.29,903,767,0
1318942,399.73,894,766,0
1318945,419.61,894,770,0
1318955,445.91,894,772,0
1318964,478.08,894,768,0
1318974,515.04,894,772,0
1318984,554.12,894,769,0
1318994,593.08,894,772,0
1319004,629.66,894,768,0
1319014,661.60,894,771,0
1319024,687.56,894,769,0
1319034,707.20,894,772,0
1319044,720.94,894,768,0
1319054,730.51,894,771,0
1319064,737.22,894,769,0
1319074,741.39,894,772,0
1319084,742.26,894,768,0
1319094,739.40,894,772,0
1319104,732.21,894,768,0
1319114,720.62,894,772,0
1319124,704.70,894,769,0
1319134,684.56,894,772,0
1319144,660.82,894,769,0
1319154,635.08,894,772,0
1319164,608.27,894,769,0
1319174,581.62,894,771,0
1319184,555.72,894,768,0
1319194,530.90,894,772,0
1319204,507.32,894,769,0
1319214,485.36,894,772,0
1319224,464.90,894,768,0
1319234,446.24,894,772,0
1319244,429.46,894,769,0
1319255,414.79,894,771,0
1319265,402.38,894,769,0
1319275,392.67,894,772,0
1319285,385.70,894,770,0
1319296,381.72,894,771,0
1319305,380.56,894,769,0
1319315,381.98,894,772,0
1319325,385.54,894,770,0
1319335,390.39,894,771,0
1319345,395.76,894,769,0
1319355,400.63,894,772,0
1319365,404.60,894,770,0
1319375,406.99,894,772,0
1319385,407.59,894,769,0
1319395,405.96,894,772,0
1319405,402.54,894,770,0
1319415,397.19,894,772,0
1319425,390.54,894,769,0
1319435,382.92,894,772,0
1319445,374.71,894,770,0
1319455,366.01,894,772,0
1319465,357.31,894,770,0
1319475,348.86,894,772,0
1319485,341.23,894,770,0
1319495,334.43,894,771,0
1319505,328.82,894,771,0
1319515,324.37,894,772,0
1319525,321.39,894,770,0
1319535,319.60,894,772,0
1319545,319.08,894,771,0
1319555,319.40,894,772,0
1319565,320.52,894,770,0
1319575,321.86,894,772,0
1319585,323.66,894,770,0
1319596,325.56,894,772,0
1319606,327.88,894,771,0
1319616,330.10,894,772,0
1319626,332.64,894,771,0
1319636,335.11,894,772,0
1319646,337.82,894,771,0
1319656,340.27,894,771,0
1319666,342.68,894,771,0
1319676,344.66,894,772,0
1319686,346.56,894,770,0
1319696,347.89,894,771,0
1319706,349.17,894,771,0
1319716,349.80,894,771,0
1319726,350.55,894,770,0
1319736,350.90,894,771,0
1319746,351.27,894,771,0
1319756,351.32,894,772,0
1319767,351.44,894,771,0
1319777,351.01,894,771,0
1319787,350.79,894,772,0
1319797,350.08,894,771,0
1319808,350.06,894,772,0
1319817,350.60,894,771,0
1319827,353.38,894,772,0
1319837,359.01,894,771,0
1319847,369.55,894,772,0
1319857,385.37,894,771,0
1319876,408.36,934,770,0
1319879,438.64,934,770,0
1319888,476.33,934,772,0
1319898,517.59,934,770,0
1319908,559.97,934,771,0
1319918,600.65,934,770,0
1319928,637.95,934,772,0
1319938,669.73,934,771,0
1319948,694.58,934,772,0
1319958,712.02,934,770,0
1319968,724.27,934,772,0
1319979,732.85,934,769,0
1319988,738.85,934,772,0
1319998,741.81,934,770,0
1320008,741.48,934,772,0
1320018,736.88,934,769,0
1320028,728.34,934,771,0
1320038,715.26,934,770,0
1320048,697.95,934,772,0
1320058,675.94,934,769,0
1320068,651.14,934,771,0
1320078,624.14,934,770,0
1320088,596.88,934,772,0
1320098,569.06,934,769,0
1320108,542.26,934,772,0
1320118,516.04,934,770,0
1320128,491.47,934,772,0
1320138,467.89,934,770,0
1320148,446.36,934,772,0
1320158,426.54,934,770,0
1320168,409.36,934,772,0
1320178,394.21,934,770,0
1320188,382.23,934,772,0
1320198,372.95,934,771,0
1320208,367.14,934,772,0
1320218,363.62,934,770,0
1320228,362.88,934,772,0
1320238,363.77,934,771,0
1320248,366.58,934,772,0
1320258,369.84,934,770,0
1320268,373.57,934,772,0
1320279,376.31,934,769,0
1320289,378.45,934,772,0
1320299,378.79,934,768,0
1320309,377.86,934,772,0
1320320,374.69,934,768,0
1320329,370.33,934,772,0
1320339,364.49,934,769,0
1320349,358.21,934,772,0
1320359,351.29,934,768,0
1320369,344.95,934,772,0
1320379,338.66,934,769,0
1320389,333.45,934,772,0
1320399,328.43,934,768,0
1320409,324.40,934,772,0
1320419,320.55,934,769,0
1320429,317.77,934,772,0
1320439,315.14,934,768,0
1320449,313.64,934,772,0
1320459,312.59,934,769,0
1320469,312.89,934,772,0
1320479,313.78,934,768,0
1320489,316.54,934,772,0
1320499,320.07,934,769,0
1320509,325.10,934,772,0
1320519,330.56,934,768,0
1320529,337.16,934,772,0
1320539,344.06,934,769,0
1320549,351.54,934,772,0
1320559,358.23,934,768,0
1320569,364.64,934,772,0
1320579,369.50,934,769,0
1320589,373.47,934,772,0
1320599,375.17,934,768,0
1320609,375.38,934,772,0
1320620,373.46,934,768,0
1320630,370.54,934,772,0
1320640,366.13,934,767,0
1320650,361.68,934,772,0
1320660,356.80,934,767,0
1320670,353.05,934,772,0
1320680,349.69,934,767,0
1320690,347.98,934,772,0
1320700,346.96,934,767,0
1320710,347.61,934,772,0
1320720,348.93,934,767,0
1320730,351.57,934,772,0
1320740,354.74,934,767,0
1320750,359.45,934,772,0
1320760,365.23,934,767,0
1320770,373.82,934,772,0
1320780,385.27,934,767,0
1320791,401.43,934,772,0
1320801,422.47,934,767,0
1320811,449.59,934,772,0
1320821,482.20,934,767,0
1320841,519.47,964,766,0
1320844,558.24,964,769,0
1320853,596.53,964,772,0
1320863,631.90,964,769,0
1320873,663.08,964,772,0
1320883,688.56,964,768,0
1320893,707.89,964,772,0
1320903,721.42,964,769,0
1320913,730.90,964,772,0
1320923,736.58,964,768,0
1320933,738.21,964,772,0
1320943,735.62,964,768,0
1320953,728.75,964,772,0
1320963,717.77,964,768,0
1320973,703.01,964,772,0
1320983,684.28,964,768,0
1320993,662.85,964,772,0
1321004,639.71,964,769,0
1321014,615.71,964,772,0
1321024,591.37,964,770,0
1321034,567.00,964,772,0
1321044,542.53,964,770,0
1321054,518.46,964,772,0
1321064,494.62,964,769,0
1321074,471.42,964,771,0
1321084,449.14,964,770,0
1321094,428.14,964,772,0
1321104,408.90,964,769,0
1321114,391.70,964,772,0
1321124,377.05,964,770,0
1321134,365.08,964,772,0
1321144,356.18,964,769,0
1321154,350.34,964,772,0
1321164,347.45,964,770,0
1321175,347.02,964,772,0
1321185,348.90,964,770,0
1321195,352.14,964,772,0
1321205,356.60,964,771,0
1321216,361.22,964,772,0
1321225,365.78,964,770,0
1321235,369.66,964,772,0
1321245,372.72,964,771,0
1321255,374.39,964,772,0
1321265,375.00,964,770,0
1321275,374.40,964,772,0
1321285,373.17,964,771,0
1321295,370.80,964,772,0
1321305,367.95,964,770,0
1321315,364.32,964,772,0
1321325,360.54,964,771,0
1321335,356.05,964,772,0
1321345,351.41,964,770,0
1321355,346.36,964,772,0
1321365,341.71,964,771,0
1321375,336.95,964,772,0
1321385,332.77,964,771,0
1321395,328.85,964,772,0
1321405,326.11,964,771,0
1321415,323.89,964,772,0
1321425,322.72,964,771,0
1321435,322.12,964,772,0
1321445,322.47,964,771,0
1321455,323.14,964,772,0
1321465,324.51,964,771,0
1321475,326.12,964,772,0
1321485,328.35,964,771,0
1321495,330.52,964,772,0
1321505,333.02,964,771,0
1321516,335.33,964,771,0
1321526,337.89,964,771,0
1321536,339.89,964,771,0
1321546,341.81,964,772,0
1321556,342.98,964,771,0
1321566,344.23,964,772,0
1321576,344.85,964,771,0
1321586,345.58,964,772,0
1321596,345.70,964,771,0
1321606,346.26,964,771,0
1321616,346.36,964,771,0
1321626,346.76,964,772,0
1321636,346.53,964,771,0
1321646,346.46,964,771,0
1321656,346.02,964,771,0
1321666,346.49,964,772,0
1321676,347.88,964,771,0
1321687,352.12,964,772,0
1321697,359.88,964,770,0
1321707,373.59,964,772,0
1321726,393.77,886,771,0
1321730,422.42,886,772,0
1321739,458.77,886,768,0
1321749,500.28,886,772,0
1321759,543.65,886,768,0
1321769,586.53,886,772,0
1321779,625.97,886,768,0
1321789,660.44,886,772,0
1321799,687.61,886,768,0
1321809,707.18,886,772,0
1321819,720.84,886,768,0
1321829,730.40,886,772,0
1321839,736.02,886,768,0
1321849,737.47,886,772,0
1321859,733.90,886,768,0
1321869,725.45,886,772,0
1321879,711.60,886,768,0
1321889,693.12,886,772,0
1321900,669.85,886,767,0
1321910,643.80,886,772,0
1321920,616.00,886,767,0
1321930,588.53,886,772,0
1321940,561.59,886,767,0
1321950,536.60,886,772,0
1321960,512.76,886,767,0
1321970,490.76,886,772,0
1321980,469.75,886,767,0
1321990,450.49,886,772,0
1322000,432.43,886,767,0
1322010,416.40,886,772,0
1322020,402.05,886,767,0
1322030,390.47,886,772,0
1322040,381.28,886,767,0
1322050,375.33,886,772,0
1322060,371.89,886,767,0
1322071,371.19,886,772,0
1322081,372.08,886,767,0
1322091,374.33,886,772,0
1322101,376.76,886,767,0
1322112,379.32,886,772,0
1322121,380.89,886,767,0
1322131,381.78,886,772,0
1322141,381.33,886,767,0
1322151,380.25,886,772,0
1322161,378.07,886,767,0
1322171,375.48,886,772,0
1322181,372.12,886,767,0
1322191,368.57,886,772,0
1322201,364.37,886,767,0
1322211,360.06,886,772,0
1322221,355.20,886,767,0
1322231,350.47,886,772,0
1322241,345.53,886,767,0
1322251,341.04,886,772,0
1322261,336.53,886,767,0
1322271,332.56,886,772,0
1322281,328.87,886,768,0
1322291,325.74,886,772,0
1322301,322.82,886,767,0
1322311,320.60,886,772,0
1322321,318.71,886,767,0
1322331,317.55,886,772,0
1322341,316.61,886,767,0
1322351,316.22,886,772,0
1322361,316.02,886,767,0
1322371,316.36,886,772,0
1322381,316.47,886,767,0
1322391,316.75,886,772,0
1322401,316.79,886,767,0
1322412,317.15,886,772,0
1322422,317.28,886,768,0
1322432,317.54,886,772,0
1322442,317.72,886,768,0
1322452,318.23,886,772,0
1322462,318.76,886,768,0
1322472,319.69,886,772,0
1322482,320.60,886,768,0
1322492,321.79,886,772,0
1322502,323.01,886,768,0
1322512,324.29,886,772,0
1322522,325.53,886,768,0
1322532,326.62,886,772,0
1322542,327.37,886,768,0
1322552,327.99,886,772,0
1322562,328.42,886,768,0
1322572,329.02,886,772,0
1322583,329.79,886,769,0
1322593,331.05,886,772,0
1322603,333.44,886,769,0
1322613,337.59,886,772,0
1322624,344.61,886,770,0
1322642,355.62,916,768,0
1322645,372.32,916,772,0
1322654,395.88,916,772,0
1322664,426.73,916,771,0
1322674,464.27,916,772,0
1322684,506.27,916,770,0
1322694,549.61,916,772,0
1322704,591.98,916,771,0
1322714,630.52,916,772,0
1322724,663.40,916,771,0
1322734,689.47,916,772,0
1322744,708.44,916,771,0
1322754,721.68,916,771,0
1322764,730.99,916,771,0
1322774,735.71,916,772,0
1322784,735.50,916,771,0
1322795,729.86,916,771,0
1322804,719.15,916,770,0
1322814,703.20,916,772,0
1322824,682.53,916,771,0
1322834,657.17,916,771,0
1322844,629.48,916,770,0
1322854,600.79,916,772,0
1322864,572.82,916,771,0
1322874,545.49,916,771,0
1322884,519.84,916,770,0
1322894,495.59,916,772,0
1322904,473.34,916,771,0
1322914,452.63,916,771,0
1322924,434.22,916,770,0
1322934,417.78,916,772,0
1322944,404.18,916,771,0
1322954,393.11,916,771,0
1322964,385.23,916,771,0
1322974,380.02,916,772,0
1322984,377.96,916,771,0
1322994,378.06,916,772,0
1323004,380.31,916,771,0
1323014,383.77,916,772,0
1323024,388.21,916,770,0
1323034,392.52,916,772,0
1323044,396.69,916,771,0
1323054,400.00,916,772,0
1323064,402.49,916,770,0
1323074,403.37,916,771,0
1323084,402.96,916,771,0
1323095,400.78,916,772,0
1323105,397.76,916,771,0
1323115,393.25,916,771,0
1323125,388.07,916,772,0
1323136,381.84,916,771,0
1323145,375.63,916,771,0
1323155,369.18,916,772,0
1323165,363.30,916,772,0
1323175,357.30,916,771,0
1323185,352.28,916,771,0
1323195,347.39,916,771,0
1323205,343.59,916,772,0
1323215,339.86,916,771,0
1323225,336.94,916,771,0
1323235,334.30,916,772,0
1323245,332.54,916,772,0
1323255,330.96,916,771,0
1323265,330.29,916,771,0
1323275,329.90,916,772,0
1323285,330.57,916,772,0
1323295,331.47,916,771,0
1323305,333.22,916,772,0
1323315,334.95,916,772,0
1323325,337.28,916,772,0
1323335,339.51,916,771,0
1323345,342.10,916,772,0
1323355,344.30,916,771,0
1323365,346.74,916,772,0
1323375,348.62,916,771,0
1323385,350.83,916,772,0
1323395,352.64,916,772,0
1323405,354.59,916,772,0
1323415,356.00,916,771,0
1323425,357.46,916,772,0
1323436,358.22,916,771,0
1323446,358.88,916,772,0
1323456,358.83,916,770,0
1323466,359.10,916,772,0
1323476,359.45,916,770,0
1323486,361.63,916,772,0
1323496,366.07,916,770,0
1323506,375.05,916,772,0
1323516,389.22,916,770,0
1323535,410.37,893,769,0
1323538,438.76,893,770,0
1323547,475.00,893,772,0
1323557,515.29,893,769,0
1323567,557.29,893,772,0
1323577,597.91,893,769,0
1323587,635.40,893,772,0
1323597,667.55,893,769,0
1323607,693.01,893,772,0
1323617,710.84,893,769,0
1323627,723.36,893,772,0
1323637,731.48,893,769,0
1323648,734.81,893,772,0
1323657,732.64,893,770,0
1323667,725.07,893,772,0
1323677,711.55,893,769,0
1323687,692.66,893,772,0
1323697,668.46,893,770,0
1323707,640.29,893,772,0
1323717,609.56,893,769,0
1323727,578.75,893,772,0
1323737,548.40,893,769,0
1323747,520.25,893,772,0
1323757,493.73,893,769,0
1323767,469.73,893,772,0
1323777,447.69,893,770,0
1323787,428.84,893,772,0
1323797,412.26,893,769,0
1323807,398.81,893,772,0
1323817,387.90,893,768,0
1323827,380.77,893,772,0
1323837,376.51,893,769,0
1323847,375.76,893,772,0
1323857,377.16,893,769,0
1323867,381.05,893,772,0
1323877,385.97,893,769,0
1323887,391.93,893,772,0
1323897,397.27,893,769,0
1323907,402.42,893,772,0
1323917,405.85,893,769,0
1323927,408.21,893,772,0
1323937,408.49,893,769,0
1323948,407.70,893,772,0
1323958,404.96,893,768,0
1323968,401.46,893,772,0
1323978,396.31,893,768,0
1323988,390.81,893,772,0
1323998,384.31,893,768,0
1324008,377.96,893,772,0
1324018,370.90,893,768,0
1324028,364.55,893,772,0
1324038,358.17,893,768,0
1324048,352.85,893,772,0
1324058,347.96,893,768,0
1324068,344.46,893,772,0
1324078,341.54,893,768,0
1324088,340.18,893,772,0
1324098,339.18,893,767,0
1324108,339.21,893,772,0
1324119,339.41,893,767,0
1324129,340.06,893,772,0
1324139,340.38,893,767,0
1324149,341.21,893,772,0
1324160,341.83,893,767,0
1324169,343.13,893,772,0
1324179,344.33,893,767,0
1324189,346.25,893,772,0
1324199,348.27,893,767,0
1324209,350.80,893,772,0
1324219,352.88,893,767,0
1324229,355.06,893,772,0
1324239,356.50,893,767,0
1324249,357.81,893,772,0
1324259,358.12,893,767,0
1324269,358.21,893,772,0
1324279,357.59,893,767,0
1324289,357.03,893,772,0
1324299,356.08,893,767,0
1324309,356.10,893,772,0
1324319,357.44,893,767,0
1324329,362.11,893,772,0
1324339,370.69,893,767,0
1324349,385.44,893,772,0
1324359,407.21,893,767,0
1324379,437.40,843,766,0
1324382,474.91,843,769,0
1324391,516.64,843,772,0
1324401,559.30,843,768,0
1324411,600.87,843,772,0
1324421,638.58,843,767,0
1324431,670.68,843,772,0
1324441,695.42,843,768,0
1324451,712.69,843,772,0
1324461,724.74,843,767,0
1324471,733.18,843,772,0
1324481,739.08,843,768,0
1324491,743.21,843,772,0
1324502,746.11,843,768,0
1324511,747.36,843,772,0
1324521,745.50,843,768,0
1324531,739.86,843,772,0
1324541,729.87,843,768,0
1324551,715.43,843,772,0
1324561,696.06,843,768,0
1324571,671.78,843,772,0
1324581,643.35,843,768,0
1324591,612.86,843,772,0
1324601,581.49,843,768,0
1324611,550.31,843,772,0
1324621,519.75,843,768,0
1324631,491.02,843,772,0
1324641,464.53,843,768,0
1324651,441.14,843,772,0
1324661,420.83,843,768,0
1324672,403.99,843,772,0
1324681,390.58,843,768,0
1324691,381.06,843,772,0
1324701,374.96,843,768,0
1324711,372.23,843,772,0
1324721,371.99,843,768,0
1324731,373.88,843,772,0
1324741,377.04,843,768,0
1324751,380.97,843,772,0
1324761,384.71,843,768,0
1324771,387.93,843,772,0
1324781,390.05,843,768,0
1324791,390.93,843,772,0
1324801,390.48,843,768,0
1324811,388.88,843,772,0
1324821,385.96,843,768,0
1324831,382.29,843,772,0
1324841,377.79,843,769,0
1324851,372.79,843,772,0
1324861,367.41,843,768,0
1324871,362.02,843,772,0
1324881,356.61,843,769,0
1324891,351.71,843,772,0
1324901,347.00,843,768,0
1324911,342.84,843,772,0
1324921,339.29,843,769,0
1324931,336.50,843,772,0
1324941,334.25,843,768,0
1324951,332.63,843,772,0
1324961,331.41,843,769,0
1324972,330.65,843,772,0
1324982,330.24,843,769,0
1324992,330.12,843,772,0
1325002,330.47,843,770,0
1325012,331.19,843,772,0
1325022,332.29,843,769,0
1325032,333.75,843,772,0
1325042,335.49,843,770,0
1325052,337.36,843,772,0
1325062,339.22,843,769,0
1325072,340.83,843,772,0
1325082,342.16,843,770,0
1325092,343.06,843,772,0
1325102,343.60,843,769,0
1325112,343.89,843,772,0
1325122,344.18,843,770,0
1325132,344.38,843,772,0
1325143,344.74,843,770,0
1325153,344.95,843,772,0
1325163,345.31,843,771,0
1325173,345.51,843,772,0
1325184,345.66,843,771,0
1325193,345.33,843,772,0
1325203,345.15,843,771,0
1325213,344.72,843,772,0
1325223,345.40,843,771,0
1325233,347.38,843,772,0
1325243,352.41,843,771,0
1325253,361.67,843,772,0
1325273,377.20,894,770,0
1325276,400.33,894,771,0
1325285,432.50,894,772,0
1325295,471.61,894,770,0
1325305,514.84,894,772,0
1325315,559.03,894,771,0
1325325,601.75,894,772,0
1325335,640.40,894,771,0
1325345,672.59,894,772,0
1325356,696.67,894,770,0
1325366,713.53,894,772,0
1325376,725.33,894,770,0
1325386,733.63,894,772,0
1325396,739.44,894,769,0
1325406,743.51,894,772,0
1325416,746.31,894,769,0
1325426,746.39,894,772,0
1325436,742.29,894,768,0
1325446,733.93,894,772,0
1325456,720.41,894,769,0
1325466,701.90,894,772,0
1325476,677.89,894,769,0
1325486,649.16,894,772,0
1325496,617.19,894,770,0
1325506,584.39,894,772,0
1325516,550.89,894,769,0
1325527,518.52,894,772,0
1325537,487.12,894,768,0
1325547,458.24,894,772,0
1325557,431.17,894,768,0
1325568,407.33,894,772,0
1325577,386.15,894,768,0
1325587,368.83,894,772,0
1325597,354.65,894,768,0
1325607,344.64,894,772,0
1325617,337.81,894,768,0
1325627,334.78,894,772,0
1325637,334.37,894,768,0
1325647,336.88,894,772,0
1325657,340.64,894,768,0
1325667,345.89,894,772,0
1325677,351.02,894,768,0
1325687,356.25,894,772,0
1325697,360.29,894,768,0
1325707,363.37,894,772,0
1325717,364.50,894,768,0
1325727,364.61,894,772,0
1325737,362.80,894,768,0
1325747,360.20,894,772,0
1325757,356.11,894,768,0
1325767,351.66,894,772,0
1325777,346.32,894,768,0
1325787,341.30,894,772,0
1325797,335.77,894,768,0
1325807,330.86,894,772,0
1325817,325.89,894,768,0
1325827,321.85,894,772,0
1325837,318.08,894,768,0
1325847,315.49,894,772,0
1325857,313.11,894,768,0
1325868,311.92,894,772,0
1325878,311.04,894,767,0
1325888,311.07,894,772,0
1325898,311.27,894,767,0
1325908,312.13,894,772,0
1325918,312.99,894,767,0
1325928,314.54,894,772,0
1325938,315.92,894,767,0
1325948,317.87,894,772,0
1325958,319.58,894,767,0
1325968,321.72,894,772,0
1325978,323.60,894,767,0
1325988,325.91,894,772,0
1325998,327.78,894,767,0
1326008,329.95,894,772,0
1326018,331.72,894,767,0
1326028,333.86,894,772,0
1326039,335.66,894,767,0
1326049,337.73,894,772,0
1326059,339.40,894,767,0
1326069,341.38,894,772,0
1326080,343.11,894,767,0
1326089,345.09,894,772,0
1326099,346.78,894,767,0
1326109,348.69,894,772,0
1326119,350.37,894,767,0
1326129,352.14,894,772,0
1326139,353.51,894,767,0
1326149,355.16,894,772,0
1326169,356.78,896,770,0
1326172,359.76,896,772,0
1326181,364.89,896,769,0
1326191,373.41,896,772,0
1326201,386.83,896,769,0
1326211,406.59,896,772,0
1326221,433.33,896,769,0
1326231,467.86,896,772,0
1326241,507.29,896,769,0
1326252,548.69,896,772,0
1326262,589.67,896,770,0
1326272,627.70,896,772,0
1326282,660.96,896,771,0
1326292,687.89,896,772,0
1326302,707.42,896,770,0
1326312,721.09,896,772,0
1326322,730.67,896,771,0
1326332,737.32,896,772,0
1326342,740.10,896,770,0
1326352,738.10,896,772,0
1326362,730.95,896,770,0
1326372,718.20,896,771,0
1326382,700.18,896,770,0
1326392,676.77,896,772,0
1326402,648.38,896,770,0
1326412,616.98,896,771,0
1326423,584.80,896,771,0
1326433,552.80,896,772,0
1326443,522.35,896,771,0
1326453,493.32,896,771,0
1326464,466.82,896,772,0
1326473,442.87,896,771,0
1326483,422.13,896,771,0
1326493,404.05,896,771,0
1326503,389.46,896,772,0
1326513,377.84,896,772,0
1326523,369.83,896,771,0
