Time,PPG,IBI,GSR,GSR_Event
4029107,296.69,663,746,0
4029117,305.66,663,749,0
4029127,314.55,663,747,0
4029137,324.80,663,749,0
4029147,334.33,663,747,0
4029157,344.34,663,749,0
4029167,352.77,663,747,0
4029177,365.44,663,749,0
4029187,376.36,663,747,0
4029197,385.26,663,749,0
4029207,390.15,663,747,0
4029217,392.33,663,749,0
4029228,390.65,663,747,0
4029238,386.81,663,750,0
4029248,380.22,663,747,0
4029258,372.66,663,749,0
4029268,363.67,663,746,0
4029278,354.94,663,750,0
4029288,345.75,663,746,0
4029298,337.55,663,749,0
4029308,329.71,663,746,0
4029318,323.33,663,750,0
4029328,317.49,663,747,0
4029338,313.23,663,749,0
4029348,310.07,663,747,0
4029358,309.58,663,750,0
4029368,311.93,663,747,0
4029378,320.05,663,750,0
4029388,335.17,663,746,0
4029399,360.83,663,750,0
4029409,397.74,663,747,0
4029419,442.52,663,750,0
4029429,491.56,663,747,0
4029440,542.35,663,750,0
4029449,591.02,663,747,0
4029468,634.85,673,747,0
4029471,670.21,673,750,0
4029480,695.22,673,751,0
4029490,712.81,673,749,0
4029500,725.21,673,751,0
4029510,733.98,673,749,0
4029520,740.20,673,751,0
4029530,744.64,673,748,0
4029540,747.75,673,751,0
4029550,749.92,673,749,0
4029560,751.23,673,751,0
4029570,747.99,673,749,0
4029580,737.88,673,751,0
4029590,719.19,673,748,0
4029600,691.40,673,751,0
4029611,654.77,673,749,0
4029620,609.84,673,751,0
4029630,557.60,673,749,0
4029640,503.12,673,751,0
4029650,450.03,673,749,0
4029660,401.55,673,751,0
4029670,359.34,673,748,0
4029680,324.48,673,751,0
4029690,297.51,673,749,0
4029700,278.58,673,751,0
4029710,267.01,673,748,0
4029720,262.51,673,752,0
4029730,263.81,673,749,0
4029740,269.91,673,751,0
4029750,279.49,673,748,0
4029760,291.47,673,751,0
4029770,304.70,673,749,0
4029780,318.29,673,751,0
4029790,331.02,673,748,0
4029800,342.41,673,751,0
4029810,352.02,673,749,0
4029820,359.47,673,751,0
4029830,364.51,673,748,0
4029840,367.19,673,751,0
4029850,367.65,673,749,0
4029860,366.08,673,751,0
4029870,362.76,673,748,0
4029880,358.12,673,751,0
4029890,352.64,673,749,0
4029900,346.53,673,751,0
4029911,340.24,673,749,0
4029921,333.87,673,751,0
4029931,328.00,673,749,0
4029941,322.43,673,751,0
4029952,317.63,673,749,0
4029961,313.20,673,751,0
4029971,309.71,673,749,0
4029981,306.41,673,751,0
4029991,304.14,673,749,0
4030001,302.22,673,751,0
4030011,301.42,673,749,0
4030021,301.64,673,751,0
4030031,304.88,673,749,0
4030041,311.90,673,751,0
4030051,325.77,673,749,0
4030061,348.21,673,751,0
4030071,381.96,673,749,0
4030081,424.70,673,751,0
4030091,473.22,673,749,0
4030101,523.85,673,751,0
4030120,573.96,652,750,0
4030124,620.00,652,751,0
4030132,658.91,652,750,0
4030142,687.70,652,751,0
4030152,707.84,652,749,0
4030162,721.95,652,750,0
4030172,731.82,652,749,0
4030182,738.73,652,751,0
4030192,743.57,652,749,0
4030202,746.96,652,750,0
4030212,749.37,652,749,0
4030222,751.06,652,751,0
4030232,750.23,652,749,0
4030242,743.26,652,750,0
4030252,729.00,652,749,0
4030262,705.60,652,750,0
4030272,673.36,652,749,0
4030282,631.94,652,750,0
4030292,582.63,652,749,0
4030302,527.97,652,751,0
4030312,473.38,652,749,0
4030322,420.72,652,750,0
4030332,373.96,652,750,0
4030342,333.47,652,751,0
4030352,301.27,652,749,0
4030362,276.51,652,750,0
4030372,260.24,652,749,0
4030382,250.74,652,751,0
4030392,248.50,652,749,0
4030402,251.10,652,750,0
4030412,258.65,652,749,0
4030423,268.66,652,750,0
4030433,281.32,652,749,0
4030443,293.91,652,750,0
4030453,307.05,652,749,0
4030464,318.43,652,750,0
4030473,329.06,652,749,0
4030483,336.97,652,750,0
4030493,343.54,652,749,0
4030503,347.02,652,750,0
4030513,349.16,652,749,0
4030523,348.47,652,750,0
4030533,346.96,652,750,0
4030543,343.20,652,750,0
4030553,339.20,652,749,0
4030563,333.74,652,750,0
4030573,328.84,652,749,0
4030583,323.15,652,750,0
4030593,318.60,652,749,0
4030603,313.71,652,750,0
4030613,310.20,652,749,0
4030623,306.49,652,750,0
4030633,304.25,652,749,0
4030643,301.77,652,750,0
4030653,300.64,652,750,0
4030663,299.08,652,750,0
4030673,298.67,652,750,0
4030683,297.91,652,750,0
4030693,298.84,652,750,0
4030703,300.94,652,750,0
4030713,307.65,652,750,0
4030723,319.20,652,750,0
4030733,339.62,652,750,0
4030743,369.44,652,750,0
4030753,410.06,652,750,0
4030764,457.01,652,750,0
4030774,507.71,652,750,0
4030793,557.90,673,749,0
4030796,605.50,673,752,0
4030806,646.45,673,749,0
4030815,678.89,673,751,0
4030825,701.59,673,749,0
4030835,717.53,673,751,0
4030845,728.64,673,749,0
4030855,736.46,673,751,0
4030865,741.94,673,749,0
4030875,745.81,673,751,0
4030885,747.71,673,749,0
4030895,745.70,673,751,0
4030905,736.40,673,749,0
4030915,719.27,673,751,0
4030925,692.70,673,748,0
4030935,657.91,673,750,0
4030945,614.39,673,749,0
4030955,564.52,673,751,0
4030965,510.53,673,748,0
4030976,458.17,673,751,0
4030985,408.62,673,749,0
4030995,365.66,673,751,0
4031005,328.35,673,748,0
4031015,299.36,673,751,0
4031025,277.14,673,749,0
4031035,263.47,673,751,0
4031045,255.96,673,748,0
4031055,255.54,673,751,0
4031065,259.32,673,749,0
4031075,268.10,673,751,0
4031085,278.70,673,748,0
4031095,291.90,673,751,0
4031105,304.92,673,749,0
4031115,318.61,673,751,0
4031125,330.39,673,748,0
4031135,341.46,673,751,0
4031145,349.76,673,749,0
4031155,356.82,673,751,0
4031165,360.86,673,748,0
4031175,363.56,673,751,0
4031185,363.35,673,749,0
4031195,362.34,673,751,0
4031205,359.03,673,749,0
4031215,355.50,673,751,0
4031225,350.38,673,749,0
4031235,345.64,673,751,0
4031245,339.83,673,749,0
4031255,334.95,673,751,0
4031265,329.35,673,749,0
4031276,325.09,673,751,0
4031286,320.31,673,748,0
4031296,316.87,673,752,0
4031306,313.14,673,748,0
4031316,310.70,673,752,0
4031326,307.92,673,748,0
4031336,306.48,673,751,0
4031346,305.10,673,748,0
4031356,306.10,673,752,0
4031366,309.11,673,748,0
4031376,317.61,673,751,0
4031386,332.25,673,748,0
4031396,356.78,673,752,0
4031406,390.92,673,749,0
4031416,434.10,673,751,0
4031426,482.07,673,748,0
4031436,532.41,673,752,0
4031456,580.97,663,750,0
4031459,625.46,663,751,0
4031468,662.14,663,749,0
4031478,689.91,663,751,0
4031489,709.31,663,748,0
4031499,722.93,663,751,0
4031509,732.47,663,749,0
4031519,739.18,663,751,0
4031529,743.89,663,749,0
4031539,747.18,663,751,0
4031549,745.84,663,749,0
4031559,737.74,663,751,0
4031569,721.41,663,748,0
4031579,696.38,663,751,0
4031589,662.67,663,748,0
4031599,620.64,663,751,0
4031609,571.16,663,749,0
4031619,518.87,663,751,0
4031629,467.31,663,749,0
4031639,419.05,663,751,0
4031649,376.05,663,749,0
4031660,339.35,663,751,0
4031670,309.97,663,749,0
4031680,287.61,663,751,0
4031690,272.68,663,749,0
4031700,264.25,663,750,0
4031710,262.25,663,749,0
4031720,265.17,663,751,0
4031730,272.66,663,749,0
4031740,282.79,663,750,0
4031750,295.33,663,749,0
4031760,308.39,663,751,0
4031770,321.94,663,749,0
4031780,334.22,663,751,0
4031790,345.38,663,749,0
4031800,354.14,663,751,0
4031810,361.12,663,749,0
4031820,365.42,663,751,0
4031831,367.78,663,749,0
4031841,367.42,663,751,0
4031851,365.70,663,750,0
4031861,361.94,663,750,0
4031872,357.58,663,750,0
4031881,352.01,663,751,0
4031891,346.56,663,750,0
4031901,340.31,663,750,0
4031911,334.77,663,750,0
4031921,328.88,663,751,0
4031931,324.08,663,750,0
4031941,319.04,663,750,0
4031951,315.26,663,750,0
4031961,311.32,663,751,0
4031971,308.70,663,750,0
4031981,305.87,663,750,0
4031991,304.50,663,750,0
4032001,303.58,663,751,0
4032011,305.59,663,749,0
4032021,310.77,663,750,0
4032031,322.62,663,750,0
4032041,341.98,663,751,0
4032051,371.86,663,750,0
4032061,411.76,663,750,0
4032071,458.80,663,750,0
4032081,508.88,663,751,0
4032091,559.31,663,750,0
4032110,606.19,654,748,0
4032113,647.19,654,751,0
4032122,679.45,654,751,0
4032132,702.07,654,750,0
4032142,717.86,654,750,0
4032152,728.92,654,750,0
4032162,736.66,654,750,0
4032172,742.12,654,750,0
4032182,745.90,654,750,0
4032192,747.98,654,750,0
4032202,744.69,654,750,0
4032212,734.93,654,750,0
4032222,716.90,654,750,0
4032232,690.83,654,750,0
4032242,656.04,654,750,0
4032252,613.69,654,750,0
4032262,564.28,654,750,0
4032272,513.62,654,750,0
4032282,463.12,654,750,0
4032292,416.54,654,750,0
4032302,374.12,654,750,0
4032312,338.56,654,750,0
4032322,308.90,654,750,0
4032332,287.12,654,750,0
4032343,271.18,654,750,0
4032353,262.69,654,750,0
4032363,259.31,654,750,0
4032373,261.96,654,751,0
4032384,267.84,654,749,0
4032393,277.62,654,750,0
4032403,288.32,654,750,0
4032413,301.04,654,751,0
4032423,312.98,654,749,0
4032433,325.20,654,750,0
4032443,335.26,654,750,0
4032453,344.44,654,751,0
4032463,350.82,654,749,0
4032473,356.19,654,750,0
4032483,358.57,654,750,0
4032493,359.90,654,751,0
4032503,358.60,654,749,0
4032513,356.71,654,750,0
4032523,352.94,654,750,0
4032533,349.23,654,751,0
4032543,344.02,654,749,0
4032553,339.47,654,751,0
4032563,334.01,654,750,0
4032573,329.60,654,751,0
4032583,324.53,654,749,0
4032593,320.73,654,751,0
4032603,316.52,654,750,0
4032613,313.75,654,751,0
4032623,310.53,654,750,0
4032633,308.65,654,751,0
4032643,306.53,654,750,0
4032653,306.46,654,751,0
4032663,307.56,654,750,0
4032673,313.27,654,751,0
4032684,323.86,654,749,0
4032694,343.53,654,751,0
4032704,372.77,654,749,0
4032714,412.87,654,752,0
4032724,459.24,654,749,0
4032734,509.48,654,752,0
4032753,559.48,643,750,0
4032756,606.91,643,753,0
4032765,647.69,643,749,0
4032775,679.84,643,752,0
4032785,702.30,643,749,0
4032795,718.03,643,752,0
4032805,729.03,643,749,0
4032815,736.78,643,752,0
4032825,742.16,643,749,0
4032835,745.93,643,752,0
4032845,748.56,643,749,0
4032855,750.45,643,752,0
4032865,748.77,643,749,0
4032875,741.64,643,751,0
4032885,726.58,643,749,0
4032896,703.30,643,752,0
4032905,671.24,643,749,0
4032915,631.35,643,752,0
4032925,583.33,643,749,0
4032935,531.81,643,752,0
4032945,479.41,643,749,0
4032955,430.60,643,751,0
4032965,386.32,643,748,0
4032975,349.02,643,752,0
4032985,318.12,643,749,0
4032995,295.62,643,751,0
4033005,280.01,643,749,0
4033015,271.99,643,752,0
4033025,269.38,643,749,0
4033035,272.74,643,751,0
4033045,279.37,643,748,0
4033055,289.72,643,752,0
4033065,301.20,643,749,0
4033075,314.17,643,751,0
4033085,326.16,643,749,0
4033095,337.90,643,752,0
4033105,347.36,643,748,0
4033115,355.69,643,751,0
4033125,361.14,643,748,0
4033135,364.91,643,752,0
4033145,365.88,643,748,0
4033155,365.79,643,752,0
4033165,363.37,643,749,0
4033175,360.30,643,752,0
4033185,355.54,643,749,0
4033196,350.79,643,752,0
4033206,345.15,643,748,0
4033216,339.92,643,752,0
4033226,334.25,643,748,0
4033236,329.41,643,751,0
4033246,324.36,643,748,0
4033256,320.35,643,752,0
4033266,316.22,643,748,0
4033276,312.98,643,751,0
4033286,309.73,643,748,0
4033296,307.37,643,752,0
4033306,305.46,643,748,0
4033316,305.45,643,752,0
4033326,307.67,643,748,0
4033336,315.01,643,752,0
4033346,328.98,643,748,0
4033356,352.86,643,752,0
4033367,387.70,643,749,0
4033377,431.42,643,752,0
4033387,480.19,643,749,0
4033397,531.22,643,752,0
4033417,580.83,663,750,0
4033420,626.14,663,752,0
4033429,663.55,663,750,0
4033439,690.90,663,751,0
4033449,710.04,663,750,0
4033459,723.45,663,751,0
4033469,732.87,663,750,0
4033479,739.42,663,751,0
4033489,744.01,663,750,0
4033499,747.22,663,751,0
4033509,749.51,663,750,0
4033519,749.70,663,751,0
4033529,745.03,663,749,0
4033539,733.28,663,751,0
4033549,713.31,663,749,0
4033559,684.12,663,751,0
4033569,646.37,663,749,0
4033580,600.01,663,751,0
4033590,547.94,663,750,0
4033600,493.49,663,751,0
4033610,441.05,663,750,0
4033620,392.48,663,751,0
4033630,350.81,663,750,0
4033640,315.98,663,751,0
4033650,289.76,663,750,0
4033660,270.84,663,751,0
4033670,260.22,663,750,0
4033680,255.70,663,751,0
4033690,257.84,663,750,0
4033700,263.85,663,750,0
4033710,273.97,663,750,0
4033720,285.68,663,751,0
4033730,299.40,663,750,0
4033740,312.70,663,751,0
4033751,326.03,663,750,0
4033761,337.08,663,751,0
4033771,347.17,663,750,0
4033781,354.19,663,750,0
4033792,359.62,663,750,0
4033801,361.88,663,750,0
4033811,362.68,663,750,0
4033821,360.89,663,750,0
4033831,358.61,663,750,0
4033841,354.53,663,750,0
4033851,350.64,663,750,0
4033861,345.48,663,750,0
4033871,340.96,663,750,0
4033881,335.70,663,750,0
4033891,331.42,663,750,0
4033901,326.37,663,750,0
4033911,322.31,663,750,0
4033921,317.76,663,750,0
4033931,314.58,663,750,0
4033941,311.06,663,750,0
4033951,308.94,663,750,0
4033961,306.69,663,750,0
4033971,306.74,663,749,0
4033981,308.53,663,750,0
4033991,315.79,663,750,0
4034001,328.88,663,750,0
4034011,351.59,663,749,0
4034021,384.41,663,750,0
4034031,426.97,663,750,0
4034041,474.85,663,750,0
4034051,525.64,663,750,0
4034070,575.03,654,749,0
4034073,620.67,654,751,0
4034082,658.87,654,749,0
4034092,687.71,654,750,0
4034102,707.89,654,750,0
4034112,722.03,654,751,0
4034122,731.92,654,750,0
4034132,738.84,654,751,0
4034142,743.69,654,750,0
4034152,747.08,654,751,0
4034162,749.46,654,750,0
4034172,751.12,654,751,0
4034182,749.11,654,750,0
4034192,741.54,654,751,0
4034202,725.60,654,750,0
4034212,701.25,654,751,0
4034222,667.92,654,750,0
4034232,626.67,654,751,0
4034242,577.36,654,749,0
4034252,525.09,654,751,0
4034263,472.31,654,749,0
4034273,424.00,654,751,0
4034283,380.80,654,749,0
4034293,345.42,654,751,0
4034304,317.31,654,749,0
4034313,298.31,654,751,0
4034323,286.35,654,749,0
4034333,282.43,654,751,0
4034343,283.89,654,749,0
4034353,291.16,654,751,0
4034363,301.06,654,749,0
4034373,313.85,654,751,0
4034383,326.67,654,749,0
4034393,340.18,654,752,0
4034403,351.53,654,753,0
4034413,361.74,654,756,0
4034423,368.63,654,749,0
4034433,374.01,654,755,0
4034443,375.81,654,749,0
4034453,375.87,654,751,0
4034463,372.86,654,749,0
4034473,368.96,654,752,0
4034483,362.97,654,749,0
4034493,356.94,654,751,0
4034503,349.37,654,749,0
4034513,342.49,654,752,0
4034523,334.97,654,749,0
4034533,328.59,654,751,0
4034543,321.99,654,749,0
4034553,316.85,654,752,0
4034563,311.67,654,749,0
4034573,308.29,654,751,0
4034583,304.91,654,749,0
4034593,303.13,654,752,0
4034604,301.25,654,748,0
4034614,301.22,654,752,0
4034624,302.35,654,748,0
4034634,307.78,654,752,0
4034644,318.13,654,748,0
4034654,337.16,654,752,0
4034664,365.78,654,748,0
4034674,405.66,654,752,0
4034684,452.26,654,748,0
4034694,503.01,654,752,0
4034704,553.92,654,748,0
4034723,602.16,653,747,0
4034726,644.11,653,750,0
4034735,677.38,653,752,0
4034745,700.67,653,748,0
4034755,716.97,653,752,0
4034765,728.38,653,748,0
4034775,736.36,653,753,0
4034785,741.95,653,747,0
4034795,745.87,653,752,0
4034805,748.61,653,748,0
4034816,750.53,653,752,0
4034825,751.87,653,747,0
4034835,751.35,653,752,0
4034845,745.12,653,748,0
4034855,731.02,653,752,0
4034865,707.66,653,747,0
4034875,675.02,653,752,0
4034885,632.93,653,748,0
4034895,582.16,653,752,0
4034905,525.07,653,747,0
4034915,467.15,653,752,0
4034925,411.69,653,748,0
4034935,361.90,653,752,0
4034945,319.03,653,747,0
4034955,284.86,653,752,0
4034965,259.32,653,748,0
4034975,242.85,653,752,0
4034985,234.58,653,747,0
4034995,234.02,653,752,0
4035005,239.29,653,748,0
4035015,249.36,653,752,0
4035025,262.45,653,747,0
4035035,277.92,653,752,0
4035045,293.58,653,748,0
4035055,308.62,653,752,0
4035065,321.76,653,747,0
4035075,333.02,653,752,0
4035085,341.46,653,748,0
4035095,347.23,653,752,0
4035105,350.04,653,748,0
4035116,350.54,653,752,0
4035126,348.79,653,748,0
4035136,345.30,653,751,0
4035146,340.41,653,748,0
4035156,334.89,653,751,0
4035166,328.96,653,748,0
4035176,322.85,653,752,0
4035186,316.85,653,748,0
4035196,311.24,653,751,0
4035206,306.37,653,748,0
4035216,302.01,653,752,0
4035226,298.32,653,748,0
4035236,295.06,653,751,0
4035246,292.38,653,748,0
4035256,290.21,653,752,0
4035266,288.56,653,748,0
4035276,287.58,653,751,0
4035287,288.30,653,749,0
4035297,291.81,653,752,0
4035307,300.74,653,748,0
4035317,317.32,653,751,0
4035328,344.65,653,749,0
4035337,383.84,653,752,0
4035347,431.12,653,748,0
4035357,482.94,653,751,0
4035367,536.31,653,749,0
4035386,587.43,663,748,0
4035389,633.16,663,750,0
4035398,669.67,663,751,0
4035408,695.31,663,749,0
4035418,713.26,663,751,0
4035428,725.83,663,749,0
4035438,734.62,663,751,0
4035448,740.78,663,750,0
4035458,745.04,663,751,0
4035468,748.03,663,749,0
4035478,750.12,663,751,0
4035488,751.59,663,750,0
4035499,751.88,663,751,0
4035508,748.15,663,749,0
4035518,737.04,663,751,0
4035528,717.23,663,749,0
4035538,687.46,663,751,0
4035548,648.58,663,749,0
4035558,600.41,663,751,0
4035568,545.17,663,750,0
4035578,486.28,663,751,0
4035588,429.24,663,749,0
4035598,376.24,663,751,0
4035608,330.52,663,749,0
4035618,292.01,663,751,0
4035628,262.56,663,749,0
4035638,241.18,663,750,0
4035648,228.78,663,749,0
4035658,223.32,663,751,0
4035668,224.98,663,750,0
4035678,231.20,663,750,0
4035688,241.85,663,750,0
4035698,254.46,663,751,0
4035708,268.85,663,750,0
4035718,282.78,663,750,0
4035728,296.35,663,749,0
4035738,307.64,663,751,0
4035748,317.56,663,750,0
4035758,324.59,663,750,0
4035768,329.90,663,749,0
4035778,332.25,663,751,0
4035788,333.11,663,750,0
4035799,331.54,663,750,0
4035809,329.19,663,750,0
4035819,324.98,663,750,0
4035829,320.65,663,750,0
4035840,315.19,663,750,0
4035849,310.37,663,750,0
4035859,304.99,663,750,0
4035869,300.62,663,750,0
4035879,295.85,663,750,0
4035889,292.34,663,749,0
4035899,288.68,663,750,0
4035909,286.29,663,750,0
4035919,283.67,663,750,0
4035929,282.19,663,750,0
4035939,280.59,663,750,0
4035949,280.88,663,750,0
4035959,282.42,663,750,0
4035969,287.91,663,749,0
4035979,298.09,663,750,0
4035989,316.71,663,750,0
4035999,344.82,663,750,0
4036009,385.12,663,750,0
4036019,432.65,663,751,0
4036029,484.79,663,750,0
4036039,537.57,663,750,0
4036059,588.35,672,749,0
4036062,633.16,672,749,0
4036071,669.63,672,752,0
4036081,695.11,672,748,0
4036091,712.99,672,752,0
4036101,725.51,672,749,0
4036111,734.31,672,752,0
4036121,740.43,672,748,0
4036131,744.72,672,752,0
4036141,747.72,672,749,0
4036151,748.27,672,752,0
4036161,742.58,672,748,0
4036171,729.20,672,751,0
4036182,706.39,672,748,0
4036191,674.86,672,751,0
4036201,633.97,672,748,0
4036211,585.08,672,751,0
4036221,530.16,672,749,0
4036231,474.74,672,752,0
4036241,420.86,672,748,0
4036251,372.56,672,751,0
4036261,329.66,672,748,0
4036271,294.88,672,752,0
4036281,267.14,672,749,0
4036291,247.90,672,751,0
4036301,235.63,672,749,0
4036311,231.24,672,752,0
4036321,232.15,672,749,0
4036331,238.79,672,751,0
4036341,248.46,672,749,0
4036352,261.52,672,752,0
4036361,275.21,672,749,0
4036371,290.02,672,752,0
4036381,303.51,672,748,0
4036391,316.47,672,752,0
4036401,327.04,672,749,0
4036411,336.29,672,751,0
4036421,342.50,672,749,0
4036431,347.11,672,752,0
4036441,348.70,672,749,0
4036451,349.14,672,751,0
4036461,347.17,672,748,0
4036471,344.50,672,752,0
4036481,339.98,672,749,0
4036491,335.40,672,751,0
4036501,329.71,672,749,0
4036511,324.52,672,752,0
4036521,318.58,672,748,0
4036531,313.61,672,752,0
4036541,308.15,672,748,0
4036551,303.86,672,752,0
4036561,299.58,672,748,0
4036571,296.75,672,751,0
4036581,293.91,672,748,0
4036591,292.26,672,752,0
4036601,290.39,672,748,0
4036611,290.14,672,751,0
4036621,290.57,672,748,0
4036631,294.21,672,752,0
4036641,301.09,672,748,0
4036652,314.78,672,751,0
4036662,336.15,672,748,0
4036672,368.46,672,752,0
4036682,410.41,672,748,0
4036692,459.01,672,752,0
4036702,509.97,672,748,0
4036721,560.93,663,747,0
4036724,608.05,663,750,0
4036733,649.05,663,752,0
4036743,680.75,663,747,0
4036753,702.98,663,753,0
4036763,718.54,663,748,0
4036773,729.48,663,752,0
4036783,737.14,663,748,0
4036793,742.50,663,753,0
4036803,744.19,663,748,0
4036813,740.02,663,752,0
4036823,728.27,663,747,0
4036833,708.17,663,752,0
4036843,679.02,663,747,0
4036853,641.43,663,752,0
4036864,595.62,663,748,0
4036873,544.94,663,753,0
4036883,492.50,663,748,0
4036893,441.70,663,752,0
4036903,394.39,663,748,0
4036913,353.00,663,753,0
4036923,317.73,663,748,0
4036933,289.78,663,752,0
4036943,268.55,663,748,0
4036953,254.71,663,753,0
4036963,247.04,663,747,0
4036973,245.44,663,752,0
4036983,248.48,663,748,0
4036993,255.79,663,752,0
4037003,265.76,663,748,0
4037013,277.79,663,752,0
4037023,290.32,663,747,0
4037033,303.21,663,752,0
4037043,315.28,663,747,0
4037053,326.29,663,752,0
4037063,335.29,663,747,0
4037073,342.49,663,752,0
4037083,347.31,663,747,0
4037093,350.48,663,752,0
4037103,351.58,663,747,0
4037113,351.06,663,752,0
4037123,348.60,663,747,0
4037133,345.12,663,752,0
4037143,340.41,663,747,0
4037153,335.23,663,752,0
4037164,329.38,663,748,0
4037174,323.48,663,752,0
4037184,317.68,663,748,0
4037194,312.37,663,752,0
4037204,307.55,663,748,0
4037214,303.53,663,752,0
4037224,300.20,663,748,0
4037234,297.57,663,752,0
4037244,295.60,663,748,0
4037254,294.13,663,752,0
4037264,293.24,663,748,0
4037274,292.61,663,752,0
4037284,292.34,663,748,0
4037294,292.58,663,752,0
4037304,293.99,663,748,0
4037314,297.89,663,752,0
4037324,306.03,663,748,0
4037335,320.33,663,751,0
4037345,343.29,663,748,0
4037355,376.50,663,751,0
4037365,419.21,663,749,0
4037376,467.75,663,751,0
4037394,518.61,673,750,0
4037397,568.65,673,751,0
4037406,614.92,673,749,0
4037416,654.20,673,751,0
4037426,684.31,673,748,0
4037436,705.35,673,751,0
4037446,720.11,673,749,0
4037456,730.45,673,751,0
4037466,737.69,673,748,0
4037476,742.71,673,751,0
4037486,744.98,673,749,0
4037496,741.34,673,751,0
4037506,731.04,673,748,0
4037516,712.26,673,751,0
4037526,685.09,673,749,0
4037536,649.11,673,751,0
4037547,605.40,673,749,0
4037556,555.57,673,751,0
4037566,504.57,673,749,0
4037576,453.91,673,751,0
4037586,407.18,673,749,0
4037596,365.13,673,751,0
4037606,329.86,673,749,0
4037616,300.93,673,751,0
4037626,279.52,673,749,0
4037636,264.37,673,751,0
4037646,256.16,673,749,0
4037656,253.11,673,751,0
4037666,255.56,673,749,0
4037676,261.48,673,751,0
4037686,270.94,673,749,0
4037696,281.80,673,751,0
4037706,294.37,673,749,0
4037716,306.69,673,750,0
4037726,319.17,673,749,0
4037736,329.92,673,751,0
4037746,339.63,673,749,0
4037756,346.81,673,750,0
4037766,352.48,673,749,0
4037776,355.51,673,751,0
4037786,357.07,673,749,0
4037796,356.19,673,750,0
4037806,354.38,673,749,0
4037816,350.71,673,751,0
4037826,346.72,673,749,0
4037836,341.49,673,750,0
4037847,336.42,673,749,0
4037857,330.63,673,750,0
4037867,325.77,673,749,0
4037877,320.57,673,750,0
4037888,316.63,673,750,0
4037897,312.45,673,750,0
4037907,309.53,673,749,0
4037917,306.50,673,750,0
4037927,304.81,673,750,0
4037937,302.89,673,750,0
4037947,302.07,673,749,0
4037957,300.72,673,750,0
4037967,300.42,673,750,0
4037977,299.61,673,750,0
4037987,299.68,673,749,0
4037997,299.26,673,750,0
4038007,300.43,673,750,0
4038017,302.74,673,750,0
4038027,309.25,673,750,0
4038037,320.49,673,750,0
4038047,340.23,673,750,0
4038057,369.04,673,750,0
4038067,408.85,673,750,0
4038077,455.01,673,750,0
4038096,505.10,702,749,0
4038099,555.13,702,749,0
4038108,602.75,702,750,0
4038118,644.01,702,750,0
4038128,677.14,702,750,0
4038138,700.32,702,749,0
4038148,716.60,702,750,0
4038158,727.95,702,750,0
4038168,735.93,702,750,0
4038178,741.48,702,749,0
4038188,745.41,702,750,0
4038198,747.30,702,749,0
4038208,744.98,702,750,0
4038218,735.60,702,749,0
4038228,718.62,702,751,0
4038238,692.98,702,749,0
4038248,659.43,702,750,0
4038258,617.43,702,749,0
4038268,569.47,702,751,0
4038278,518.46,702,749,0
4038288,469.25,702,750,0
4038298,422.85,702,749,0
4038308,382.35,702,751,0
4038318,347.44,702,749,0
4038328,320.57,702,750,0
4038338,300.21,702,749,0
4038348,287.46,702,751,0
4038359,280.30,702,748,0
4038369,279.65,702,751,0
4038379,283.05,702,748,0
4038389,290.92,702,751,0
4038400,300.59,702,748,0
4038409,312.54,702,751,0
4038419,324.55,702,748,0
4038429,337.20,702,751,0
4038439,348.41,702,748,0
4038449,358.96,702,751,0
4038459,367.11,702,748,0
4038469,374.15,702,751,0
4038479,378.61,702,748,0
4038489,382.02,702,751,0
4038499,383.05,702,748,0
4038509,382.99,702,751,0
4038519,380.76,702,748,0
4038529,378.13,702,751,0
4038539,373.85,702,748,0
4038549,369.52,702,751,0
4038559,363.80,702,748,0
4038569,358.46,702,751,0
4038579,352.36,702,748,0
4038589,347.24,702,751,0
4038599,341.72,702,748,0
4038609,337.26,702,751,0
4038619,332.69,702,748,0
4038629,329.35,702,751,0
4038639,325.86,702,748,0
4038649,323.67,702,751,0
4038659,321.24,702,748,0
4038669,319.93,702,751,0
4038679,318.28,702,748,0
4038689,317.72,702,751,0
4038700,317.51,702,748,0
4038710,320.18,702,752,0
4038720,326.30,702,747,0
4038730,339.28,702,752,0
4038740,360.33,702,747,0
4038750,392.37,702,752,0
4038760,433.19,702,748,0
4038770,480.10,702,752,0
4038790,529.19,693,751,0
4038793,577.86,693,751,0
4038802,622.34,693,748,0
4038812,660.08,693,752,0
4038822,688.43,693,748,0
4038832,708.32,693,752,0
4038842,722.19,693,748,0
4038852,731.91,693,751,0
4038862,738.71,693,748,0
4038872,743.51,693,752,0
4038882,746.83,693,748,0
4038892,749.11,693,751,0
4038902,746.63,693,748,0
4038913,736.97,693,751,0
4038923,718.72,693,748,0
4038933,691.16,693,751,0
4038943,654.60,693,748,0
4038953,609.29,693,751,0
4038963,556.45,693,748,0
4038973,500.86,693,751,0
4038983,446.64,693,748,0
4038993,396.26,693,751,0
4039003,352.13,693,748,0
4039013,314.97,693,751,0
4039023,286.05,693,748,0
4039033,264.87,693,751,0
4039043,251.58,693,748,0
4039053,245.19,693,751,0
4039063,245.35,693,748,0
4039073,250.51,693,751,0
4039084,259.96,693,748,0
4039094,271.89,693,750,0
4039104,285.93,693,748,0
4039114,300.40,693,751,0
4039124,314.98,693,749,0
4039134,328.40,693,751,0
4039144,340.49,693,748,0
4039154,350.16,693,751,0
4039164,357.91,693,748,0
4039174,362.70,693,751,0
4039184,365.62,693,748,0
4039194,365.77,693,751,0
4039204,364.34,693,749,0
4039214,360.94,693,750,0
4039224,356.76,693,748,0
4039234,351.30,693,750,0
4039244,345.90,693,749,0
4039255,339.63,693,750,0
4039265,334.08,693,749,0
4039275,328.40,693,750,0
4039285,323.82,693,749,0
4039296,319.29,693,750,0
4039305,316.03,693,749,0
4039315,312.94,693,750,0
4039325,311.41,693,749,0
4039335,310.05,693,749,0
4039345,309.78,693,749,0
4039355,309.20,693,750,0
4039365,309.74,693,749,0
4039375,309.73,693,750,0
4039385,310.46,693,749,0
4039395,310.66,693,750,0
4039405,312.31,693,749,0
4039415,315.43,693,750,0
4039425,322.93,693,749,0
4039435,335.76,693,750,0
4039445,357.78,693,749,0
4039455,389.60,693,750,0
4039465,430.95,693,749,0
4039475,477.59,693,750,0
4039494,527.04,705,749,0
4039497,575.59,705,749,0
4039506,620.67,705,750,0
4039516,658.53,705,750,0
4039526,687.34,705,749,0
4039536,707.47,705,749,0
4039546,721.60,705,750,0
4039556,731.45,705,750,0
4039566,738.38,705,749,0
4039576,743.20,705,749,0
4039586,746.57,705,749,0
4039596,748.88,705,750,0
4039606,747.76,705,749,0
4039616,739.86,705,750,0
4039626,724.30,705,749,0
4039636,699.40,705,749,0
4039646,666.24,705,749,0
4039656,624.29,705,749,0
4039666,575.09,705,749,0
4039676,521.41,705,749,0
4039686,468.78,705,749,0
4039696,418.71,705,750,0
4039706,375.04,705,749,0
4039716,337.23,705,749,0
4039726,307.63,705,749,0
4039736,284.98,705,750,0
4039746,270.72,705,749,0
4039756,262.74,705,749,0
4039767,261.75,705,750,0
4039777,265.08,705,749,0
4039787,273.11,705,750,0
4039797,283.32,705,748,0
4039808,296.17,705,751,0
4039817,309.15,705,749,0
4039827,322.77,705,750,0
4039837,334.93,705,748,0
4039847,346.56,705,751,0
4039857,355.74,705,749,0
4039867,363.66,705,750,0
4039877,368.52,705,748,0
4039887,372.01,705,751,0
4039897,372.65,705,749,0
4039907,372.15,705,750,0
4039917,369.28,705,748,0
4039927,365.89,705,751,0
4039937,360.96,705,749,0
4039947,356.30,705,750,0
4039957,350.68,705,748,0
4039967,345.89,705,751,0
4039977,340.52,705,748,0
4039987,336.29,705,750,0
4039997,331.79,705,748,0
4040007,328.47,705,751,0
4040017,324.99,705,748,0
4040027,322.68,705,750,0
4040037,320.12,705,748,0
4040047,318.88,705,751,0
4040057,317.29,705,748,0
4040067,316.90,705,750,0
4040077,316.03,705,748,0
4040087,316.24,705,751,0
4040097,316.68,705,748,0
4040108,319.82,705,751,0
4040118,325.96,705,748,0
4040128,338.57,705,751,0
4040138,358.54,705,748,0
4040148,389.41,705,751,0
4040158,429.31,705,748,0
4040168,475.55,705,751,0
4040187,524.24,693,751,0
4040190,572.85,693,753,0
4040199,617.73,693,747,0
4040209,656.47,693,752,0
4040219,685.81,693,747,0
4040229,706.35,693,751,0
4040239,720.69,693,747,0
4040249,730.77,693,752,0
4040259,737.82,693,747,0
4040269,742.76,693,751,0
4040279,746.18,693,748,0
4040289,748.61,693,752,0
4040299,746.37,693,747,0
4040309,737.52,693,751,0
4040320,720.18,693,747,0
4040329,694.49,693,752,0
4040339,659.97,693,747,0
4040349,617.47,693,751,0
4040359,567.23,693,747,0
4040369,514.66,693,752,0
4040379,462.43,693,747,0
4040389,414.22,693,751,0
4040399,370.95,693,747,0
4040409,334.80,693,752,0
4040419,305.54,693,747,0
4040429,284.29,693,751,0
4040439,270.11,693,747,0
4040449,263.35,693,751,0
4040459,262.34,693,747,0
4040469,266.78,693,752,0
4040479,274.78,693,747,0
4040489,285.99,693,752,0
4040499,298.46,693,747,0
4040509,311.82,693,751,0
4040519,324.56,693,747,0
4040529,336.82,693,752,0
4040539,347.25,693,747,0
4040549,356.26,693,752,0
4040559,362.87,693,747,0
4040569,367.66,693,752,0
4040579,369.99,693,747,0
4040589,370.77,693,751,0
4040599,369.38,693,747,0
4040609,366.91,693,752,0
4040620,362.86,693,747,0
4040630,358.11,693,751,0
4040640,352.67,693,747,0
4040650,347.41,693,751,0
4040660,342.02,693,747,0
4040670,337.13,693,751,0
4040680,332.33,693,747,0
4040690,328.25,693,751,0
4040700,324.70,693,747,0
4040710,321.79,693,751,0
4040720,319.28,693,747,0
4040730,317.53,693,751,0
4040740,316.21,693,747,0
4040750,315.63,693,751,0
4040760,315.19,693,747,0
4040770,315.04,693,751,0
4040780,315.20,693,747,0
4040791,316.13,693,751,0
4040801,318.70,693,747,0
4040811,324.45,693,751,0
4040821,335.24,693,748,0
4040832,353.34,693,750,0
4040841,380.15,693,747,0
4040851,416.84,693,751,0
4040861,460.69,693,748,0
4040881,508.18,693,746,0
4040884,556.34,693,749,0
4040893,601.88,693,750,0
4040903,642.16,693,749,0
4040913,674.98,693,750,0
4040923,698.73,693,748,0
4040933,715.35,693,750,0
4040943,726.99,693,749,0
4040953,735.09,693,750,0
4040963,740.77,693,748,0
4040973,741.91,693,750,0
4040983,737.14,693,749,0
4040993,724.28,693,750,0
4041004,703.20,693,748,0
4041014,673.27,693,750,0
4041024,635.34,693,749,0
4041034,589.47,693,750,0
4041044,539.91,693,749,0
4041054,489.11,693,750,0
4041064,441.16,693,749,0
4041074,396.93,693,749,0
4041084,359.15,693,748,0
4041094,327.48,693,750,0
4041104,303.59,693,749,0
4041114,286.14,693,749,0
4041124,276.16,693,748,0
4041134,271.78,693,750,0
4041144,273.69,693,748,0
4041154,279.35,693,749,0
4041164,289.19,693,748,0
4041175,300.79,693,749,0
4041185,314.70,693,749,0
4041195,328.46,693,749,0
4041205,342.59,693,749,0
4041216,354.89,693,748,0
4041225,366.28,693,749,0
4041235,374.89,693,749,0
4041245,381.91,693,749,0
4041255,385.62,693,748,0
4041265,387.71,693,749,0
4041275,386.90,693,749,0
4041285,385.04,693,749,0
4041295,381.04,693,748,0
4041305,376.70,693,749,0
4041315,370.88,693,749,0
4041325,365.51,693,749,0
4041335,359.40,693,748,0
4041345,354.48,693,749,0
4041355,349.24,693,749,0
4041365,345.31,693,749,0
4041375,341.23,693,748,0
4041385,338.59,693,750,0
4041395,335.80,693,749,0
4041405,334.23,693,749,0
4041415,332.28,693,748,0
4041425,331.42,693,750,0
4041435,330.14,693,749,0
4041445,329.93,693,749,0
4041455,329.78,693,748,0
4041465,332.07,693,750,0
4041475,336.59,693,749,0
4041485,346.74,693,749,0
4041495,363.19,693,748,0
4041505,389.19,693,750,0
4041516,424.88,693,748,0
4041526,467.77,693,750,0
4041536,514.00,693,748,0
4041555,561.44,675,747,0
4041559,606.27,675,747,0
4041567,646.26,675,751,0
4041577,678.28,675,747,0
4041587,701.08,675,751,0
4041597,717.04,675,747,0
4041607,728.22,675,751,0
4041617,735.99,675,747,0
4041627,741.40,675,751,0
4041637,745.18,675,747,0
4041647,747.82,675,751,0
4041657,746.33,675,747,0
4041667,738.99,675,751,0
4041677,723.52,675,747,0
4041687,700.01,675,751,0
4041697,667.73,675,747,0
4041707,627.53,675,751,0
4041717,579.58,675,747,0
4041728,528.54,675,751,0
4041737,477.12,675,747,0
4041747,429.47,675,751,0
4041757,386.21,675,747,0
4041767,349.81,675,751,0
4041777,319.99,675,747,0
4041787,298.14,675,751,0
4041797,283.18,675,747,0
4041807,275.54,675,751,0
4041817,273.32,675,747,0
4041827,276.78,675,751,0
4041837,283.88,675,747,0
4041847,294.54,675,751,0
4041857,306.38,675,746,0
4041867,319.68,675,751,0
4041877,332.38,675,747,0
4041887,344.86,675,751,0
4041897,355.49,675,746,0
4041907,364.73,675,751,0
4041917,371.24,675,746,0
4041927,376.10,675,751,0
4041937,378.25,675,746,0
4041947,378.99,675,751,0
4041957,377.45,675,746,0
4041967,374.92,675,751,0
4041977,370.87,675,746,0
4041987,366.49,675,751,0
4041997,361.20,675,746,0
4042007,356.17,675,751,0
4042017,350.72,675,746,0
4042028,346.05,675,751,0
4042038,341.36,675,746,0
4042048,337.48,675,751,0
4042058,333.87,675,746,0
4042068,331.25,675,751,0
4042078,328.73,675,746,0
4042088,326.88,675,751,0
4042098,324.95,675,746,0
4042108,323.55,675,751,0
4042118,322.44,675,746,0
4042128,322.99,675,751,0
4042138,326.00,675,746,0
4042148,333.71,675,751,0
4042158,347.38,675,746,0
4042168,370.07,675,751,0
4042178,402.96,675,746,0
4042188,444.46,675,751,0
4042199,490.82,675,747,0
4042209,539.09,675,751,0
4042228,585.99,673,749,0
4042231,629.11,673,750,0
4042241,664.99,673,748,0
4042251,691.69,673,750,0
4042261,710.39,673,747,0
4042271,723.47,673,750,0
4042281,732.63,673,748,0
4042291,739.04,673,750,0
4042301,743.53,673,747,0
4042311,746.67,673,750,0
4042321,748.87,673,748,0
4042331,747.07,673,750,0
4042341,739.12,673,747,0
4042351,722.97,673,750,0
4042361,698.29,673,748,0
4042371,664.99,673,750,0
4042381,623.76,673,747,0
4042391,574.85,673,750,0
4042401,523.04,673,748,0
4042412,471.30,673,750,0
4042422,423.55,673,748,0
4042432,380.91,673,749,0
4042442,345.33,673,748,0
4042452,316.56,673,749,0
4042462,296.16,673,748,0
4042472,282.96,673,749,0
4042482,277.48,673,749,0
4042492,277.42,673,749,0
4042502,282.83,673,748,0
4042512,291.28,673,749,0
4042522,302.98,673,749,0
4042532,315.20,673,749,0
4042542,328.04,673,748,0
4042552,339.39,673,750,0
4042562,350.20,673,749,0
4042572,358.75,673,749,0
4042583,366.03,673,748,0
4042593,370.48,673,749,0
4042603,373.68,673,749,0
4042613,374.37,673,749,0
4042624,374.05,673,749,0
4042633,371.68,673,749,0
4042643,368.90,673,749,0
4042653,364.65,673,749,0
4042663,360.51,673,749,0
4042673,355.30,673,750,0
4042683,350.67,673,749,0
4042693,345.58,673,749,0
4042703,341.42,673,749,0
4042713,336.37,673,749,0
4042723,332.06,673,749,0
4042733,327.28,673,749,0
4042743,323.51,673,749,0
4042753,319.50,673,749,0
4042763,316.74,673,749,0
4042773,313.99,673,749,0
4042783,313.61,673,750,0
4042793,314.84,673,748,0
4042803,320.37,673,749,0
4042813,330.63,673,749,0
4042823,349.21,673,750,0
4042833,376.79,673,749,0
4042843,415.17,673,749,0
4042853,459.90,673,750,0
4042863,508.66,673,750,0
4042883,557.66,654,749,0
4042886,604.56,654,753,0
4042895,645.45,654,748,0
4042905,678.19,654,751,0
4042915,701.06,654,747,0
4042925,717.11,654,751,0
4042935,728.35,654,748,0
4042945,736.22,654,751,0
4042955,741.68,654,747,0
4042966,745.55,654,752,0
4042975,748.21,654,748,0
4042985,750.12,654,751,0
4042995,748.46,654,747,0
4043005,741.25,654,752,0
4043015,726.39,654,748,0
4043025,703.26,654,751,0
4043035,671.08,654,747,0
4043045,630.81,654,752,0
4043055,582.61,654,748,0
4043065,530.96,654,751,0
4043075,478.43,654,747,0
4043085,429.06,654,752,0
4043095,384.21,654,748,0
4043105,346.43,654,751,0
4043115,315.36,654,747,0
4043125,292.28,654,751,0
4043136,276.13,654,747,0
4043145,267.56,654,751,0
4043155,264.69,654,747,0
4043165,267.78,654,752,0
4043175,274.45,654,747,0
4043185,284.81,654,751,0
4043195,296.66,654,747,0
4043205,310.09,654,752,0
4043215,323.09,654,747,0
4043225,336.05,654,751,0
4043235,347.05,654,747,0
4043245,357.06,654,751,0
4043255,364.46,654,747,0
4043265,370.41,654,751,0
4043275,373.41,654,747,0
4043285,374.79,654,751,0
4043295,373.61,654,747,0
4043305,371.11,654,752,0
4043315,366.54,654,747,0
4043325,361.32,654,751,0
4043335,354.49,654,747,0
4043345,347.79,654,752,0
4043355,340.44,654,747,0
4043365,334.05,654,751,0
4043375,327.86,654,747,0
4043385,322.80,654,752,0
4043395,318.02,654,747,0
4043405,314.93,654,751,0
4043415,312.21,654,747,0
4043425,310.77,654,752,0
4043436,309.21,654,746,0
4043446,308.68,654,752,0
4043456,309.03,654,747,0
4043466,312.32,654,752,0
4043476,319.25,654,746,0
4043486,332.68,654,752,0
4043496,354.20,654,747,0
4043506,386.88,654,752,0
4043516,428.58,654,746,0
4043526,476.15,654,752,0
4043536,525.95,654,747,0
4043555,575.08,673,746,0
4043558,620.35,673,748,0
4043567,658.90,673,752,0
4043577,687.69,673,747,0
4043587,707.88,673,751,0
4043597,721.98,673,747,0
4043607,731.88,673,751,0
4043617,738.82,673,747,0
4043627,743.63,673,751,0
4043637,746.96,673,747,0
4043648,749.28,673,751,0
4043657,750.91,673,747,0
4043667,749.01,673,752,0
4043677,740.56,673,747,0
4043687,723.94,673,751,0
4043697,698.63,673,747,0
4043707,664.58,673,751,0
4043717,622.02,673,747,0
4043727,571.62,673,751,0
4043737,517.52,673,747,0
4043747,464.09,673,751,0
4043757,414.26,673,747,0
4043767,369.87,673,751,0
4043777,332.19,673,747,0
4043787,302.18,673,751,0
4043797,280.18,673,747,0
4043807,265.94,673,751,0
4043817,258.85,673,747,0
4043827,258.03,673,751,0
4043837,262.35,673,747,0
4043847,270.82,673,751,0
4043857,282.19,673,747,0
4043867,295.25,673,751,0
4043877,308.89,673,747,0
4043887,322.08,673,751,0
4043897,334.27,673,747,0
4043907,344.95,673,751,0
4043917,353.75,673,747,0
4043927,360.38,673,751,0
4043937,364.85,673,747,0
4043948,367.12,673,751,0
4043958,367.69,673,748,0
4043968,366.28,673,750,0
4043978,363.63,673,748,0
4043988,359.49,673,750,0
4043998,354.80,673,748,0
4044008,349.38,673,750,0
4044018,344.04,673,748,0
4044028,338.41,673,750,0
4044038,333.36,673,748,0
4044048,328.54,673,750,0
4044058,324.73,673,748,0
4044068,321.13,673,751,0
4044078,318.43,673,748,0
4044088,315.90,673,750,0
4044098,314.30,673,748,0
4044108,312.80,673,750,0
4044119,312.13,673,748,0
4044129,312.05,673,750,0
4044139,314.61,673,748,0
4044149,320.72,673,750,0
4044160,333.54,673,748,0
4044169,354.07,673,750,0
4044179,385.68,673,748,0
4044189,426.49,673,750,0
4044199,473.57,673,749,0
4044209,523.07,673,750,0
4044228,572.38,673,749,0
4044231,617.65,673,749,0
4044240,656.67,673,749,0
4044250,686.04,673,749,0
4044260,706.64,673,749,0
4044270,721.02,673,750,0
4044280,731.13,673,749,0
4044290,738.16,673,749,0
4044300,743.08,673,749,0
4044310,746.53,673,750,0
4044320,748.99,673,749,0
4044331,750.66,673,749,0
4044340,749.18,673,749,0
4044350,740.98,673,750,0
4044360,725.09,673,749,0
4044370,699.82,673,749,0
4044380,666.23,673,748,0
4044390,623.73,673,750,0
4044400,573.80,673,749,0
4044410,519.26,673,749,0
4044420,465.87,673,748,0
4044430,415.21,673,749,0
4044440,371.04,673,749,0
4044450,332.63,673,749,0
4044460,302.53,673,748,0
4044470,279.53,673,750,0
4044480,264.88,673,749,0
4044490,256.56,673,749,0
4044500,255.45,673,749,0
4044510,258.96,673,750,0
4044520,267.54,673,748,0
4044530,278.44,673,749,0
4044540,292.02,673,748,0
4044550,305.90,673,749,0
4044560,320.67,673,749,0
4044570,333.46,673,749,0
4044580,345.19,673,748,0
4044590,354.18,673,749,0
4044600,361.75,673,748,0
4044610,366.28,673,749,0
4044620,369.24,673,748,0
4044631,369.00,673,749,0
4044641,367.76,673,749,0
4044651,364.23,673,749,0
4044661,360.22,673,749,0
4044672,354.45,673,748,0
4044681,348.92,673,749,0
4044691,342.30,673,749,0
4044701,336.51,673,749,0
4044711,330.18,673,748,0
4044721,325.16,673,749,0
4044731,320.10,673,749,0
4044741,316.60,673,749,0
4044751,313.07,673,748,0
4044761,311.04,673,749,0
4044771,308.84,673,749,0
4044781,308.07,673,749,0
4044791,306.98,673,748,0
4044801,307.07,673,749,0
4044811,307.14,673,749,0
4044821,309.62,673,749,0
4044831,314.75,673,748,0
4044841,326.05,673,750,0
4044851,343.78,673,749,0
4044861,372.00,673,749,0
4044871,410.45,673,748,0
4044881,456.30,673,750,0
4044891,505.45,673,749,0
4044910,555.46,682,748,0
4044913,602.38,682,747,0
4044922,644.31,682,751,0
4044932,677.39,682,748,0
4044942,700.58,682,750,0
4044952,716.78,682,747,0
4044962,728.16,682,751,0
4044972,736.08,682,748,0
4044982,741.63,682,750,0
4044992,745.47,682,747,0
4045002,748.20,682,751,0
4045012,748.44,682,747,0
4045022,744.15,682,750,0
4045032,732.23,682,747,0
4045042,712.11,682,751,0
4045052,682.63,682,747,0
4045062,645.11,682,750,0
4045072,599.27,682,747,0
4045082,548.06,682,751,0
4045092,494.17,682,747,0
4045102,442.82,682,750,0
4045112,395.26,682,747,0
4045122,354.81,682,751,0
4045132,320.75,682,747,0
4045143,294.94,682,750,0
4045153,276.40,682,747,0
4045163,266.17,682,751,0
4045173,262.17,682,747,0
4045184,264.74,682,751,0
4045193,271.29,682,747,0
4045203,281.96,682,751,0
4045213,294.48,682,747,0
4045223,308.61,682,751,0
4045233,322.23,682,747,0
4045243,335.62,682,751,0
4045253,347.13,682,747,0
4045263,357.46,682,751,0
4045273,365.12,682,746,0
4045283,371.17,682,751,0
4045293,374.59,682,747,0
4045303,376.43,682,751,0
4045313,375.83,682,747,0
4045323,374.08,682,751,0
4045333,370.37,682,747,0
4045343,366.02,682,751,0
4045353,360.31,682,746,0
4045363,354.82,682,751,0
4045373,348.79,682,747,0
4045383,343.37,682,751,0
4045393,337.86,682,746,0
4045403,333.40,682,751,0
4045413,329.08,682,747,0
4045423,325.84,682,751,0
4045433,322.63,682,746,0
4045443,320.51,682,751,0
4045453,318.35,682,746,0
4045463,317.08,682,751,0
4045473,315.86,682,746,0
4045484,316.37,682,752,0
4045494,319.00,682,747,0
4045504,326.46,682,751,0
4045514,340.12,682,747,0
4045524,363.23,682,751,0
4045534,396.33,682,747,0
4045544,438.40,682,751,0
4045554,485.55,682,747,0
4045564,534.97,682,751,0
4045583,583.07,673,751,0
4045586,626.93,673,751,0
4045595,663.38,673,747,0
4045605,690.70,673,751,0
4045615,709.86,673,747,0
4045625,723.27,673,751,0
4045635,732.66,673,747,0
4045645,739.28,673,751,0
4045655,743.95,673,747,0
4045665,747.22,673,751,0
4045675,749.47,673,747,0
4045685,748.60,673,751,0
4045696,741.82,673,747,0
4045705,727.52,673,751,0
4045715,704.65,673,746,0
4045725,672.95,673,751,0
4045735,632.81,673,747,0
4045745,584.95,673,751,0
4045755,532.55,673,746,0
4045765,479.72,673,751,0
4045775,429.62,673,747,0
4045785,384.47,673,751,0
4045795,345.93,673,746,0
4045805,314.58,673,751,0
4045815,291.01,673,747,0
4045825,275.02,673,751,0
4045835,266.31,673,747,0
4045845,263.78,673,751,0
4045855,266.76,673,747,0
4045865,273.86,673,751,0
4045875,284.23,673,747,0
4045885,296.42,673,751,0
4045895,309.66,673,747,0
4045905,322.66,673,751,0
4045915,334.85,673,746,0
4045925,345.48,673,751,0
4045935,354.47,673,747,0
4045945,361.23,673,751,0
4045955,365.87,673,747,0
4045965,368.18,673,751,0
4045975,368.68,673,747,0
4045985,367.24,673,751,0
4045996,364.47,673,747,0
4046006,360.13,673,750,0
4046016,355.20,673,748,0
4046026,349.44,673,750,0
4046036,343.78,673,747,0
4046046,337.93,673,750,0
4046056,332.85,673,748,0
4046066,327.71,673,750,0
4046076,323.55,673,747,0
4046086,319.66,673,750,0
4046096,316.93,673,748,0
4046106,314.34,673,750,0
4046116,312.69,673,748,0
4046126,311.03,673,750,0
4046136,310.29,673,748,0
4046146,309.86,673,750,0
4046156,311.23,673,748,0
4046167,314.93,673,750,0
4046177,324.12,673,748,0
4046187,340.12,673,750,0
4046197,366.35,673,748,0
4046208,403.58,673,749,0
4046217,448.57,673,748,0
4046227,497.69,673,750,0
4046246,548.18,663,749,0
4046249,596.26,663,749,0
4046258,639.34,663,749,0
4046268,673.74,663,750,0
4046278,697.94,663,749,0
4046288,714.85,663,749,0
4046298,726.72,663,749,0
4046308,735.03,663,750,0
4046318,740.89,663,749,0
4046328,744.95,663,749,0
4046338,747.84,663,749,0
4046348,749.82,663,750,0
4046358,751.20,663,749,0
4046368,747.97,663,749,0
4046379,738.42,663,749,0
4046388,720.42,663,750,0
4046398,693.94,663,749,0
4046408,658.13,663,749,0
4046418,614.16,663,749,0
4046428,562.38,663,749,0
4046438,508.57,663,749,0
4046448,454.91,663,749,0
4046458,405.74,663,749,0
4046468,361.63,663,749,0
4046478,325.40,663,749,0
4046488,296.27,663,749,0
4046498,275.66,663,749,0
4046508,261.87,663,750,0
4046518,255.95,663,749,0
4046528,255.41,663,749,0
4046538,260.69,663,749,0
4046548,269.10,663,749,0
4046558,280.85,663,749,0
4046568,293.33,663,749,0
4046578,307.11,663,749,0
4046588,319.77,663,749,0
4046598,332.01,663,749,0
4046608,341.86,663,749,0
4046618,350.47,663,749,0
4046628,356.29,663,749,0
4046638,360.66,663,749,0
4046648,362.09,663,749,0
4046658,362.36,663,749,0
4046668,360.28,663,749,0
4046679,357.76,663,749,0
4046689,353.54,663,748,0
4046699,349.52,663,750,0
4046709,344.39,663,748,0
4046720,339.99,663,751,0
4046729,334.94,663,748,0
4046739,330.88,663,750,0
4046749,326.33,663,748,0
4046759,322.98,663,751,0
4046769,319.25,663,748,0
4046779,316.82,663,750,0
4046789,314.17,663,748,0
4046799,312.71,663,751,0
4046809,311.00,663,748,0
4046819,310.48,663,750,0
4046829,310.00,663,748,0
4046839,311.71,663,751,0
4046849,315.27,663,748,0
4046859,324.23,663,750,0
4046869,339.42,663,748,0
4046879,364.88,663,751,0
4046889,400.96,663,747,0
4046899,445.16,663,750,0
4046909,493.50,663,748,0
4046928,543.83,682,747,0
4046931,592.01,682,747,0
4046940,635.72,682,751,0
4046950,670.86,682,748,0
4046960,695.98,682,751,0
4046970,713.51,682,747,0
4046980,725.83,682,751,0
4046990,734.41,682,748,0
4047000,740.46,682,751,0
4047010,744.65,682,747,0
4047020,747.63,682,751,0
4047030,749.67,682,748,0
4047040,751.14,682,751,0
4047050,750.11,682,747,0
4047060,744.12,682,751,0
4047070,730.63,682,748,0
4047080,708.97,682,751,0
4047090,677.95,682,747,0
4047100,638.49,682,751,0
4047110,590.77,682,747,0
4047120,538.30,682,751,0
4047130,484.21,682,747,0
4047140,432.93,682,751,0
4047150,385.85,682,747,0
4047160,346.08,682,751,0
4047170,313.44,682,747,0
4047180,289.27,682,751,0
4047191,272.56,682,747,0
4047201,263.82,682,751,0
4047211,261.22,682,746,0
4047221,264.79,682,752,0
4047232,272.23,682,746,0
4047241,283.09,682,751,0
4047251,295.23,682,747,0
4047261,308.28,682,751,0
4047271,320.49,682,746,0
4047281,332.00,682,751,0
4047291,341.43,682,747,0
4047301,349.27,682,751,0
4047311,354.63,682,746,0
4047321,358.34,682,751,0
4047331,359.65,682,747,0
4047341,359.67,682,751,0
4047351,357.80,682,746,0
4047361,355.20,682,751,0
4047371,351.24,682,747,0
4047381,346.93,682,751,0
4047391,341.76,682,746,0
4047401,336.73,682,751,0
4047411,331.29,682,746,0
4047421,326.87,682,752,0
4047431,322.02,682,746,0
4047441,317.77,682,751,0
4047451,313.68,682,746,0
4047461,310.65,682,751,0
4047471,308.10,682,746,0
4047481,306.44,682,751,0
4047491,304.38,682,746,0
4047501,303.49,682,751,0
4047511,303.17,682,746,0
4047521,304.37,682,751,0
4047532,307.47,682,747,0
4047542,314.83,682,751,0
4047552,328.38,682,747,0
4047562,351.24,682,751,0
4047572,384.94,682,747,0
4047582,427.69,682,751,0
4047592,475.87,682,747,0
4047611,526.52,683,746,0
4047614,576.29,683,749,0
4047623,622.02,683,750,0
4047633,660.24,683,747,0
4047643,688.41,683,751,0
4047653,708.13,683,748,0
4047663,721.93,683,750,0
4047673,731.60,683,747,0
4047683,738.32,683,751,0
4047693,743.02,683,748,0
4047703,746.32,683,751,0
4047713,748.62,683,747,0
4047723,750.23,683,751,0
4047733,751.36,683,748,0
4047744,748.34,683,750,0
4047753,739.15,683,747,0
4047763,721.75,683,750,0
4047773,695.42,683,747,0
4047783,659.85,683,750,0
4047793,615.97,683,747,0
4047803,564.29,683,750,0
4047813,509.78,683,747,0
4047823,455.46,683,750,0
4047833,405.01,683,747,0
4047843,360.22,683,750,0
4047853,322.95,683,747,0
4047863,293.10,683,750,0
4047873,271.34,683,747,0
4047883,257.14,683,750,0
4047893,250.41,683,747,0
4047903,249.56,683,750,0
4047913,254.11,683,747,0
4047923,262.30,683,750,0
4047933,273.44,683,747,0
4047943,285.91,683,750,0
4047953,299.14,683,747,0
4047963,311.52,683,750,0
4047973,323.07,683,747,0
4047983,332.69,683,750,0
4047993,340.63,683,747,0
4048003,346.18,683,750,0
4048013,349.73,683,747,0
4048023,350.79,683,750,0
4048033,350.38,683,747,0
4048044,348.17,683,750,0
4048054,344.99,683,747,0
4048064,340.36,683,749,0
4048074,335.50,683,747,0
4048084,329.91,683,749,0
4048094,324.75,683,747,0
4048104,319.34,683,750,0
4048114,314.74,683,748,0
4048124,310.06,683,749,0
4048134,306.61,683,747,0
4048144,303.39,683,749,0
4048154,301.47,683,747,0
4048164,299.61,683,749,0
4048174,298.79,683,747,0
4048184,297.87,683,749,0
4048194,297.99,683,747,0
4048204,297.99,683,749,0
4048215,298.94,683,748,0
4048225,300.29,683,749,0
4048235,304.53,683,748,0
4048245,312.34,683,749,0
4048256,327.24,683,748,0
4048265,350.27,683,749,0
4048275,384.69,683,748,0
4048285,427.60,683,749,0
4048295,476.27,683,748,0
4048314,526.81,703,747,0
4048317,576.66,703,750,0
4048326,621.85,703,748,0
4048336,660.12,703,749,0
4048346,688.07,703,749,0
4048356,707.68,703,748,0
4048366,721.36,703,748,0
4048376,730.98,703,749,0
4048386,737.72,703,749,0
4048396,742.47,703,748,0
4048406,745.76,703,748,0
4048416,748.10,703,748,0
4048427,749.70,703,748,0
4048436,750.82,703,747,0
4048446,748.17,703,748,0
4048456,739.64,703,748,0
4048466,722.56,703,748,0
4048476,697.19,703,747,0
4048486,662.55,703,748,0
4048496,619.78,703,748,0
4048506,568.72,703,748,0
4048516,514.63,703,747,0
4048526,460.10,703,748,0
4048536,409.80,703,748,0
4048546,364.13,703,748,0
4048556,326.12,703,747,0
4048566,295.01,703,748,0
4048576,272.85,703,748,0
4048586,257.68,703,747,0
4048596,250.66,703,748,0
4048606,249.26,703,748,0
4048616,253.86,703,748,0
4048626,261.74,703,747,0
4048636,273.22,703,748,0
4048646,285.50,703,748,0
4048656,299.06,703,748,0
4048666,311.34,703,747,0
4048676,323.24,703,748,0
4048686,332.77,703,748,0
4048696,340.85,703,748,0
4048706,345.91,703,747,0
4048716,349.45,703,748,0
4048727,350.22,703,746,0
4048737,350.41,703,749,0
4048747,348.49,703,746,0
4048757,346.07,703,749,0
4048768,342.06,703,746,0
4048777,338.14,703,749,0
4048787,332.87,703,746,0
4048797,328.02,703,749,0
4048807,321.89,703,746,0
4048817,316.61,703,749,0
4048827,311.03,703,746,0
4048837,306.56,703,749,0
4048847,301.94,703,746,0
4048857,298.87,703,749,0
4048867,295.69,703,746,0
4048877,293.94,703,749,0
4048887,292.03,703,746,0
4048897,291.29,703,749,0
4048907,290.52,703,746,0
4048917,291.05,703,749,0
4048927,291.55,703,745,0
4048937,294.38,703,749,0
4048947,299.24,703,746,0
4048957,309.50,703,749,0
4048967,325.55,703,745,0
4048977,351.01,703,749,0
4048987,385.68,703,746,0
4048997,429.40,703,749,0
4049016,477.80,702,748,0
4049019,528.39,702,751,0
4049028,577.00,702,746,0
4049038,621.61,702,750,0
4049048,658.50,702,745,0
4049058,686.68,702,750,0
4049068,706.45,702,746,0
4049078,720.33,702,750,0
4049088,730.04,702,745,0
4049098,736.89,702,750,0
4049108,741.68,702,746,0
4049118,745.07,702,750,0
4049128,747.41,702,745,0
4049138,746.00,702,750,0
4049148,737.90,702,745,0
4049158,722.50,702,750,0
4049168,698.09,702,745,0
4049178,665.24,702,750,0
4049188,623.64,702,745,0
4049198,574.72,702,750,0
4049208,521.75,702,745,0
4049218,469.92,702,750,0
4049228,420.45,702,746,0
4049239,376.55,702,750,0
4049249,338.42,702,745,0
4049259,307.86,702,750,0
4049269,284.29,702,746,0
4049280,268.47,702,750,0
4049289,258.69,702,745,0
4049299,255.44,702,750,0
4049309,257.19,702,745,0
4049319,263.74,702,750,0
4049329,273.46,702,744,0
4049339,285.83,702,750,0
4049349,299.30,702,745,0
4049359,313.52,702,750,0
4049369,326.91,702,744,0
4049379,339.45,702,750,0
4049389,350.03,702,745,0
4049399,358.68,702,750,0
4049409,364.65,702,744,0
4049419,368.70,702,750,0
4049429,370.20,702,745,0
4049439,369.93,702,750,0
4049449,367.76,702,745,0
4049459,364.88,702,750,0
4049469,360.93,702,745,0
4049479,356.49,702,750,0
4049489,351.16,702,745,0
4049499,345.80,702,750,0
4049509,340.12,702,745,0
4049519,334.68,702,750,0
4049529,329.03,702,745,0
4049539,323.88,702,750,0
4049549,318.90,702,745,0
4049559,314.77,702,750,0
4049569,311.20,702,745,0
4049580,308.65,702,749,0
4049590,306.87,702,745,0
4049600,306.10,702,750,0
4049610,306.28,702,746,0
4049620,308.21,702,749,0
4049630,312.35,702,746,0
4049640,320.52,702,749,0
4049650,334.67,702,746,0
4049660,357.14,702,749,0
4049670,389.24,702,746,0
4049680,430.18,702,750,0
4049690,476.63,702,746,0
4049700,525.64,702,749,0
4049719,574.09,703,748,0
4049722,618.76,703,749,0
4049731,656.59,703,746,0
4049741,685.51,703,749,0
4049751,705.76,703,746,0
4049761,719.93,703,749,0
4049771,729.85,703,746,0
4049781,736.80,703,749,0
4049792,741.70,703,746,0
4049801,745.13,703,749,0
4049811,747.54,703,746,0
4049821,749.22,703,749,0
4049831,746.67,703,746,0
4049841,737.47,703,749,0
4049851,720.14,703,746,0
4049861,693.66,703,748,0
4049871,658.57,703,746,0
4049881,615.07,703,749,0
4049891,564.57,703,746,0
4049901,511.17,703,749,0
4049911,458.79,703,746,0
4049921,409.78,703,749,0
4049931,366.82,703,746,0
4049941,330.14,703,749,0
4049951,301.26,703,746,0
4049961,279.15,703,749,0
4049971,264.66,703,746,0
4049981,256.54,703,748,0
4049991,255.09,703,746,0
4050001,258.41,703,749,0
4050011,266.21,703,746,0
4050021,276.39,703,749,0
4050031,288.70,703,746,0
4050041,301.13,703,749,0
4050051,313.82,703,746,0
4050061,325.02,703,749,0
4050071,335.13,703,746,0
4050081,342.89,703,749,0
4050092,349.09,703,747,0
4050102,352.62,703,748,0
4050112,354.88,703,747,0
4050122,354.79,703,748,0
4050132,353.61,703,747,0
4050142,350.60,703,748,0
4050152,347.03,703,747,0
4050162,342.01,703,748,0
4050172,337.51,703,747,0
4050182,332.17,703,748,0
4050192,327.62,703,747,0
4050202,322.63,703,749,0
4050212,318.63,703,747,0
4050222,314.80,703,748,0
4050232,312.12,703,747,0
4050242,308.87,703,748,0
4050252,306.76,703,747,0
4050263,304.43,703,748,0
4050273,303.36,703,747,0
4050283,301.97,703,748,0
4050293,301.55,703,748,0
4050304,301.30,703,747,0
4050313,303.44,703,747,0
4050323,307.68,703,748,0
4050333,317.25,703,748,0
4050343,332.77,703,747,0
4050353,357.87,703,747,0
4050363,392.84,703,748,0
4050373,436.51,703,748,0
4050383,484.70,703,748,0
4050402,534.93,683,747,0
4050405,583.25,683,747,0
4050414,627.32,683,749,0
4050424,663.70,683,747,0
4050434,690.70,683,748,0
4050444,709.61,683,748,0
4050454,722.88,683,749,0
4050464,732.13,683,747,0
4050475,738.65,683,749,0
4050484,743.21,683,748,0
4050494,746.41,683,749,0
4050504,748.60,683,747,0
4050514,750.13,683,749,0
4050524,747.05,683,748,0
4050534,737.61,683,749,0
4050544,719.38,683,746,0
4050554,692.48,683,749,0
4050564,656.51,683,747,0
4050574,612.64,683,748,0
4050584,560.68,683,746,0
4050594,506.56,683,749,0
4050604,452.73,683,747,0
4050614,403.66,683,748,0
4050624,359.75,683,747,0
4050634,323.61,683,749,0
4050644,294.28,683,746,0
4050654,273.63,683,749,0
4050664,259.77,683,747,0
4050674,253.58,683,749,0
4050684,252.72,683,746,0
4050694,257.65,683,749,0
4050704,265.55,683,747,0
4050714,276.87,683,749,0
4050724,289.13,683,746,0
4050734,302.72,683,748,0
4050744,315.19,683,747,0
4050754,327.39,683,749,0
4050764,337.30,683,746,0
4050775,346.04,683,749,0
4050785,351.86,683,746,0
4050795,356.06,683,749,0
4050805,357.45,683,746,0
4050816,357.66,683,750,0
4050825,355.45,683,746,0
4050835,352.70,683,749,0
4050845,348.03,683,746,0
4050855,343.44,683,750,0
4050865,337.69,683,746,0
4050875,332.60,683,749,0
4050885,327.15,683,746,0
4050895,322.65,683,750,0
4050905,317.74,683,746,0
4050915,314.09,683,750,0
4050925,310.42,683,746,0
4050935,308.06,683,750,0
4050945,305.43,683,746,0
4050955,303.84,683,749,0
4050965,302.13,683,746,0
4050975,301.54,683,750,0
4050985,300.82,683,746,0
4050995,301.30,683,749,0
4051005,302.50,683,746,0
4051015,307.06,683,750,0
4051025,315.57,683,745,0
4051035,331.39,683,749,0
4051045,355.70,683,746,0
4051055,391.75,683,750,0
4051065,435.67,683,746,0
4051075,484.79,683,749,0
4051094,535.30,692,749,0
4051097,584.49,692,751,0
4051106,628.75,692,746,0
4051116,665.64,692,750,0
4051126,691.97,692,746,0
4051136,710.45,692,751,0
4051146,723.39,692,746,0
4051156,732.49,692,750,0
4051166,738.90,692,745,0
4051176,743.43,692,751,0
4051186,746.60,692,745,0
4051196,748.82,692,750,0
4051206,750.33,692,745,0
4051216,747.96,692,751,0
4051226,738.59,692,745,0
4051236,721.31,692,751,0
4051246,695.16,692,745,0
4051256,660.48,692,751,0
4051266,617.10,692,746,0
4051276,566.02,692,751,0
4051287,511.33,692,746,0
4051297,457.62,692,750,0
4051307,407.12,692,747,0
4051317,362.30,692,750,0
4051328,324.06,692,746,0
4051337,293.87,692,750,0
4051347,271.45,692,746,0
4051357,256.96,692,750,0
4051367,249.73,692,746,0
4051377,248.95,692,750,0
4051387,253.38,692,746,0
4051397,261.80,692,750,0
4051407,272.96,692,746,0
4051417,285.91,692,750,0
4051427,299.48,692,746,0
4051437,312.75,692,750,0
4051447,324.83,692,746,0
4051457,335.38,692,751,0
4051467,343.79,692,746,0
4051477,350.03,692,750,0
4051487,354.00,692,746,0
4051497,355.80,692,750,0
4051507,355.48,692,746,0
4051517,353.49,692,750,0
4051527,349.91,692,746,0
4051537,345.48,692,750,0
4051547,340.32,692,747,0
4051557,334.83,692,750,0
4051567,329.31,692,746,0
4051577,323.99,692,750,0
4051587,319.15,692,746,0
4051597,314.90,692,750,0
4051607,311.29,692,746,0
4051617,308.29,692,750,0
4051628,305.93,692,747,0
4051638,304.07,692,750,0
4051648,302.97,692,746,0
4051658,302.13,692,750,0
4051668,301.87,692,747,0
4051678,301.78,692,750,0
4051688,302.23,692,747,0
4051698,303.36,692,750,0
4051708,306.77,692,747,0
4051718,313.22,692,750,0
4051728,325.37,692,746,0
4051738,345.06,692,750,0
4051748,375.17,692,747,0
4051758,415.19,692,750,0
4051768,461.80,692,746,0
4051787,511.36,693,746,0
4051790,561.31,693,748,0
4051799,608.15,693,750,0
4051809,648.90,693,747,0
4051819,680.47,693,749,0
4051829,702.58,693,748,0
4051840,718.05,693,749,0
4051849,728.87,693,747,0
4051859,736.41,693,750,0
4051869,741.69,693,748,0
4051879,745.38,693,749,0
4051889,747.97,693,747,0
4051899,748.62,693,749,0
4051909,744.58,693,747,0
4051919,733.00,693,749,0
4051929,713.37,693,746,0
4051939,684.68,693,749,0
4051949,647.57,693,747,0
4051959,602.02,693,749,0
4051969,550.84,693,747,0
4051979,497.40,693,749,0
4051989,446.50,693,747,0
4051999,399.16,693,749,0
4052009,358.31,693,747,0
4052019,323.98,693,749,0
4052029,297.97,693,747,0
4052039,278.82,693,749,0
4052049,267.65,693,747,0
4052059,262.48,693,749,0
4052069,263.92,693,747,0
4052079,269.65,693,749,0
4052089,279.69,693,747,0
4052099,291.61,693,749,0
4052109,305.49,693,747,0
4052119,319.01,693,749,0
4052129,332.55,693,747,0
4052140,344.17,693,749,0
4052150,354.58,693,748,0
4052160,362.12,693,749,0
4052170,367.87,693,747,0
4052180,370.65,693,748,0
4052190,371.87,693,748,0
4052200,370.45,693,748,0
4052210,368.04,693,747,0
4052220,363.66,693,748,0
4052230,359.05,693,747,0
4052240,353.20,693,749,0
4052250,347.87,693,747,0
4052260,341.70,693,748,0
4052270,336.52,693,748,0
4052280,330.88,693,749,0
4052290,326.33,693,747,0
4052300,321.64,693,748,0
4052311,318.15,693,748,0
4052321,314.42,693,748,0
4052331,312.07,693,748,0
4052341,309.43,693,748,0
4052352,308.06,693,749,0
4052361,306.41,693,748,0
4052371,305.90,693,748,0
4052381,305.68,693,747,0
4052391,307.96,693,749,0
4052401,312.64,693,748,0
4052411,323.21,693,748,0
4052421,340.37,693,747,0
4052431,367.99,693,749,0
4052441,405.49,693,748,0
4052451,450.65,693,748,0
4052461,499.39,693,748,0
4052481,549.42,693,746,0
4052484,596.78,693,748,0
4052493,639.15,693,750,0
4052503,672.87,693,746,0
4052513,697.17,693,751,0
4052524,714.17,693,746,0
4052534,726.08,693,751,0
4052544,734.37,693,745,0
4052554,740.17,693,751,0
4052564,744.19,693,746,0
4052574,746.96,693,750,0
4052584,745.69,693,745,0
4052594,738.28,693,751,0
4052604,722.90,693,745,0
4052614,699.40,693,750,0
4052624,667.01,693,745,0
4052634,626.46,693,751,0
4052644,577.90,693,745,0
4052654,526.07,693,751,0
4052664,473.68,693,745,0
4052674,424.45,693,751,0
4052684,379.53,693,746,0
4052695,341.14,693,750,0
4052705,309.60,693,745,0
4052715,285.98,693,750,0
4052725,269.27,693,746,0
4052736,260.10,693,750,0
4052745,257.07,693,745,0
4052755,259.84,693,750,0
4052765,267.00,693,746,0
4052775,277.50,693,750,0
4052785,289.95,693,745,0
4052795,303.64,693,750,0
4052805,317.12,693,746,0
4052815,329.94,693,750,0
4052825,341.10,693,745,0
4052835,350.37,693,750,0
4052845,357.42,693,746,0
4052855,362.18,693,750,0
4052865,364.61,693,745,0
4052875,365.03,693,750,0
4052885,363.56,693,746,0
4052895,360.78,693,750,0
4052905,356.86,693,745,0
4052915,352.27,693,750,0
4052925,347.18,693,746,0
4052935,341.81,693,750,0
4052945,336.51,693,746,0
4052955,331.43,693,750,0
4052965,326.33,693,746,0
4052975,321.60,693,750,0
4052985,317.39,693,746,0
4052995,313.85,693,750,0
4053005,310.94,693,746,0
4053015,308.64,693,750,0
4053025,306.86,693,746,0
4053036,305.70,693,750,0
4053046,305.02,693,746,0
4053056,304.71,693,750,0
4053066,305.66,693,746,0
4053076,308.72,693,749,0
4053086,315.66,693,747,0
4053096,328.40,693,750,0
4053106,349.71,693,746,0
4053116,381.17,693,750,0
4053126,422.30,693,747,0
4053136,469.27,693,750,0
4053155,519.12,675,748,0
4053158,568.45,675,750,0
4053167,614.43,675,747,0
4053177,653.56,675,749,0
4053187,683.61,675,747,0
4053197,704.64,675,749,0
4053207,719.36,675,747,0
4053217,729.67,675,750,0
4053227,736.88,675,747,0
4053237,741.89,675,749,0
4053248,745.44,675,748,0
4053257,747.92,675,750,0
4053267,748.12,675,747,0
4053277,742.64,675,749,0
4053287,730.06,675,747,0
4053297,709.17,675,750,0
4053307,679.89,675,747,0
4053317,641.82,675,749,0
4053327,596.11,675,747,0
4053337,544.69,675,749,0
4053347,492.67,675,747,0
4053357,442.15,675,749,0
4053367,396.34,675,747,0
4053377,355.86,675,749,0
4053387,322.86,675,747,0
4053397,296.67,675,749,0
4053407,278.30,675,747,0
4053417,266.38,675,749,0
4053427,261.42,675,747,0
4053437,261.55,675,749,0
4053447,266.87,675,747,0
4053457,275.10,675,749,0
4053467,286.17,675,747,0
4053477,297.99,675,749,0
4053487,310.89,675,747,0
4053497,322.75,675,749,0
4053507,333.84,675,747,0
4053517,342.76,675,749,0
4053527,350.29,675,747,0
4053537,355.17,675,749,0
4053548,358.55,675,748,0
4053558,359.03,675,749,0
4053568,358.42,675,748,0
4053578,355.64,675,749,0
4053588,352.32,675,748,0
4053598,347.59,675,749,0
4053608,343.04,675,748,0
4053618,337.59,675,749,0
4053628,332.91,675,748,0
4053638,327.71,675,748,0
4053648,323.73,675,748,0
4053658,319.56,675,749,0
4053668,316.82,675,748,0
4053678,314.09,675,749,0
4053688,312.56,675,748,0
4053698,310.85,675,749,0
4053708,310.34,675,748,0
4053719,309.59,675,748,0
4053729,309.80,675,748,0
4053739,309.52,675,748,0
4053749,310.91,675,749,0
4053760,313.93,675,747,0
4053769,321.67,675,748,0
4053779,334.71,675,748,0
4053789,356.87,675,749,0
4053799,388.84,675,748,0
4053809,430.33,675,749,0
4053819,477.07,675,749,0
4053838,526.59,683,747,0
4053841,575.06,683,746,0
4053850,620.17,683,750,0
4053860,658.00,683,747,0
4053870,686.76,683,750,0
4053880,706.85,683,746,0
4053890,720.91,683,750,0
4053900,730.71,683,747,0
4053910,737.61,683,750,0
4053920,742.40,683,746,0
4053931,745.75,683,750,0
4053940,748.05,683,747,0
4053950,747.87,683,750,0
4053960,741.56,683,746,0
4053970,728.02,683,750,0
4053980,705.69,683,747,0
4053990,674.97,683,750,0
4054000,635.42,683,746,0
4054010,588.41,683,750,0
4054020,536.00,683,747,0
4054030,483.76,683,750,0
4054040,433.30,683,746,0
4054050,388.30,683,750,0
4054060,348.78,683,747,0
4054070,317.05,683,750,0
4054080,292.13,683,747,0
4054090,275.29,683,750,0
4054100,264.83,683,747,0
4054110,261.50,683,750,0
4054120,262.85,683,747,0
4054130,269.41,683,750,0
4054140,278.89,683,747,0
4054150,291.43,683,750,0
4054160,304.42,683,747,0
4054170,318.05,683,750,0
4054180,330.29,683,747,0
4054190,341.90,683,750,0
4054200,351.10,683,747,0
4054210,358.70,683,750,0
4054220,363.21,683,747,0
4054231,366.10,683,751,0
4054241,366.28,683,746,0
4054251,365.47,683,751,0
4054261,362.63,683,746,0
4054272,359.14,683,751,0
4054281,354.08,683,746,0
4054291,349.13,683,751,0
4054301,343.43,683,746,0
4054311,338.33,683,751,0
4054321,332.70,683,746,0
4054331,327.82,683,751,0
4054341,322.86,683,746,0
4054351,319.05,683,751,0
4054361,315.26,683,746,0
4054371,312.61,683,751,0
4054381,310.11,683,746,0
4054391,308.62,683,751,0
4054401,307.15,683,747,0
4054411,306.68,683,751,0
4054421,306.43,683,746,0
4054431,308.23,683,751,0
4054441,312.36,683,746,0
4054451,321.64,683,751,0
4054461,337.22,683,746,0
4054471,362.48,683,751,0
4054481,398.12,683,746,0
4054491,442.01,683,751,0
4054501,490.27,683,747,0
4054520,540.20,682,745,0
4054523,588.23,682,748,0
4054532,631.87,682,751,0
4054542,667.53,682,746,0
4054552,693.47,682,751,0
4054562,711.63,682,747,0
4054572,724.34,682,751,0
4054582,733.24,682,746,0
4054592,739.47,682,751,0
4054602,743.83,682,747,0
4054612,746.88,682,750,0
4054622,748.41,682,746,0
4054632,745.42,682,751,0
4054642,735.26,682,746,0
4054652,716.80,682,750,0
4054662,689.52,682,746,0
4054672,653.79,682,751,0
4054682,609.80,682,747,0
4054692,559.03,682,750,0
4054702,505.79,682,746,0
4054712,454.21,682,751,0
4054722,406.66,682,746,0
4054732,365.06,682,750,0
4054743,330.24,682,746,0
4054753,303.30,682,751,0
4054763,284.35,682,747,0
4054773,272.89,682,750,0
4054784,268.34,682,747,0
4054793,269.74,682,750,0
4054803,276.46,682,747,0
4054813,287.03,682,750,0
4054823,300.31,682,747,0
4054833,314.57,682,751,0
4054843,329.02,682,747,0
4054853,342.47,682,750,0
4054863,354.71,682,747,0
4054873,364.49,682,751,0
4054883,371.93,682,747,0
4054893,376.45,682,750,0
4054903,378.67,682,747,0
4054913,378.81,682,751,0
4054923,377.11,682,747,0
4054933,373.48,682,750,0
4054943,368.79,682,747,0
4054953,363.07,682,751,0
4054963,357.18,682,747,0
4054973,351.00,682,750,0
4054983,345.17,682,747,0
4054993,339.46,682,750,0
4055003,334.48,682,747,0
4055013,329.92,682,750,0
4055023,326.22,682,747,0
4055033,322.98,682,750,0
4055043,320.63,682,747,0
4055053,318.55,682,750,0
4055063,317.36,682,747,0
4055073,316.44,682,750,0
4055084,316.56,682,747,0
4055094,317.81,682,750,0
4055104,322.37,682,747,0
4055114,331.64,682,750,0
4055124,348.55,682,748,0
4055134,374.53,682,750,0
4055144,411.61,682,747,0
4055154,455.74,682,750,0
4055164,504.29,682,748,0
4055174,553.49,682,750,0
4055193,600.61,673,749,0
4055196,642.04,673,751,0
4055205,675.63,673,748,0
4055215,699.14,673,750,0
4055225,715.60,673,748,0
4055235,727.12,673,750,0
4055245,735.23,673,748,0
4055255,740.90,673,750,0
4055265,744.92,673,748,0
4055275,747.73,673,750,0
4055285,749.74,673,748,0
4055296,748.70,673,749,0
4055305,742.75,673,748,0
4055315,729.11,673,749,0
4055325,707.18,673,748,0
4055335,676.05,673,749,0
4055345,636.91,673,748,0
4055355,589.66,673,749,0
4055365,538.25,673,748,0
4055375,485.16,673,749,0
4055385,435.14,673,748,0
4055395,389.46,673,749,0
4055405,351.00,673,748,0
4055415,319.12,673,749,0
4055425,295.43,673,747,0
4055435,278.71,673,749,0
4055445,269.84,673,748,0
4055455,266.67,673,749,0
4055465,269.60,673,748,0
4055475,275.98,673,749,0
4055485,286.18,673,748,0
4055495,297.79,673,749,0
4055505,310.96,673,748,0
4055515,323.62,673,749,0
4055525,336.16,673,748,0
4055535,346.66,673,749,0
4055545,356.02,673,748,0
4055555,362.53,673,749,0
4055565,367.43,673,748,0
4055575,369.35,673,749,0
4055585,369.68,673,748,0
4055596,367.46,673,749,0
4055606,364.28,673,748,0
4055616,359.10,673,749,0
4055626,353.97,673,748,0
4055636,347.81,673,748,0
4055646,342.46,673,748,0
4055656,336.58,673,749,0
4055666,331.86,673,748,0
4055676,326.98,673,748,0
4055686,323.68,673,749,0
4055696,320.09,673,749,0
4055706,317.62,673,748,0
4055716,314.82,673,748,0
4055726,313.33,673,748,0
4055736,311.52,673,749,0
4055746,311.36,673,748,0
4055756,312.24,673,748,0
4055767,317.31,673,749,0
4055777,327.29,673,748,0
4055787,346.06,673,750,0
4055797,374.63,673,747,0
4055808,414.00,673,751,0
4055817,459.85,673,748,0
4055827,509.66,673,750,0
4055837,559.47,673,747,0
4055857,606.86,663,746,0
4055860,647.74,663,747,0
4055869,679.75,663,751,0
4055879,702.15,663,746,0
4055889,717.88,663,752,0
4055899,728.89,663,747,0
4055909,736.59,663,751,0
4055919,741.94,663,746,0
4055929,745.69,663,752,0
4055939,748.27,663,746,0
4055949,750.07,663,751,0
4055959,751.29,663,746,0
4055969,751.33,663,751,0
4055980,746.31,663,746,0
4055990,734.09,663,751,0
4056000,712.89,663,746,0
4056010,682.71,663,751,0
4056020,643.62,663,747,0
4056030,596.68,663,751,0
4056040,543.16,663,746,0
4056050,488.47,663,751,0
4056060,436.00,663,747,0
4056070,389.03,663,751,0
4056080,348.56,663,746,0
4056090,315.91,663,751,0
4056100,291.12,663,747,0
4056110,274.59,663,751,0
4056120,265.37,663,746,0
4056130,262.94,663,751,0
4056140,265.87,663,747,0
4056151,273.37,663,750,0
4056161,284.02,663,746,0
4056171,296.40,663,750,0
4056181,309.48,663,747,0
4056192,322.23,663,750,0
4056201,333.91,663,747,0
4056211,343.96,663,750,0
4056221,351.99,663,747,0
4056231,357.52,663,750,0
4056241,360.75,663,746,0
4056251,362.20,663,751,0
4056261,361.84,663,747,0
4056271,359.49,663,750,0
4056281,355.83,663,746,0
4056291,351.12,663,750,0
4056301,346.11,663,747,0
4056311,340.85,663,750,0
4056321,335.32,663,746,0
4056331,330.08,663,751,0
4056341,325.52,663,747,0
4056351,321.25,663,750,0
4056361,317.66,663,747,0
4056371,314.38,663,751,0
4056381,311.73,663,747,0
4056391,309.24,663,750,0
4056401,307.33,663,747,0
4056411,305.94,663,751,0
4056421,306.00,663,747,0
4056431,308.44,663,750,0
4056441,315.51,663,747,0
4056451,328.99,663,750,0
4056461,351.83,663,747,0
4056471,385.91,663,750,0
4056481,428.92,663,747,0
4056492,477.42,663,750,0
4056502,528.25,663,748,0
4056521,577.93,665,746,0
4056524,623.55,665,749,0
4056534,661.62,665,749,0
4056543,689.46,665,748,0
4056553,708.95,665,750,0
4056563,722.64,665,748,0
4056573,732.17,665,749,0
4056583,738.89,665,748,0
4056593,743.55,665,750,0
4056603,746.86,665,748,0
4056613,749.13,665,750,0
4056623,750.76,665,748,0
4056633,751.86,665,750,0
4056643,750.70,665,748,0
4056653,743.29,665,749,0
4056663,728.55,665,748,0
4056673,704.43,665,749,0
4056683,671.43,665,748,0
4056693,629.17,665,750,0
4056704,578.98,665,748,0
4056713,523.35,665,750,0
4056723,468.05,665,748,0
4056733,414.98,665,749,0
4056743,368.23,665,748,0
4056753,328.04,665,749,0
4056763,296.57,665,748,0
4056773,272.92,665,749,0
4056783,258.11,665,748,0
4056793,250.19,665,749,0
4056803,249.54,665,748,0
4056813,253.70,665,749,0
4056823,262.71,665,748,0
4056833,273.98,665,749,0
4056843,287.44,665,748,0
4056853,300.55,665,749,0
4056863,313.93,665,748,0
4056873,325.31,665,749,0
4056883,335.59,665,748,0
4056893,343.17,665,749,0
4056903,348.90,665,748,0
4056913,351.76,665,749,0
4056923,353.20,665,748,0
4056933,352.03,665,749,0
4056943,350.01,665,748,0
4056953,345.76,665,749,0
4056963,341.08,665,748,0
4056973,335.22,665,749,0
4056983,329.89,665,748,0
4056993,323.83,665,749,0
4057004,318.78,665,748,0
4057014,313.45,665,749,0
4057024,309.50,665,749,0
4057034,305.54,665,749,0
4057044,303.02,665,749,0
4057054,300.23,665,749,0
4057064,298.70,665,748,0
4057074,296.65,665,749,0
4057084,295.81,665,749,0
4057094,295.14,665,749,0
4057104,296.64,665,749,0
4057114,300.26,665,749,0
4057124,309.61,665,749,0
4057134,325.33,665,749,0
4057144,351.80,665,749,0
4057154,389.28,665,749,0
4057164,435.05,665,749,0
4057175,485.13,665,748,0
4057194,537.04,673,747,0
4057197,586.70,673,748,0
4057206,631.70,673,751,0
4057217,668.01,673,747,0
4057227,693.93,673,751,0
4057237,712.08,673,747,0
4057247,724.79,673,751,0
4057257,733.64,673,746,0
4057267,739.79,673,751,0
4057277,744.09,673,747,0
4057287,747.11,673,751,0
4057297,749.18,673,746,0
4057307,750.62,673,751,0
4057317,750.14,673,747,0
4057327,744.82,673,751,0
4057337,731.72,673,746,0
4057347,710.20,673,751,0
4057357,679.24,673,746,0
4057367,639.53,673,751,0
4057377,591.20,673,746,0
4057388,537.05,673,751,0
4057398,480.89,673,746,0
4057408,427.40,673,751,0
4057418,378.34,673,746,0
4057428,336.41,673,751,0
4057438,301.87,673,746,0
4057448,275.94,673,751,0
4057458,258.00,673,746,0
4057468,248.10,673,751,0
4057478,244.90,673,746,0
4057488,247.84,673,751,0
4057498,255.05,673,746,0
4057508,265.75,673,751,0
4057518,278.25,673,746,0
4057528,291.93,673,751,0
4057538,305.32,673,745,0
4057548,318.08,673,751,0
4057559,329.07,673,747,0
4057569,338.14,673,751,0
4057579,344.87,673,746,0
4057589,349.28,673,750,0
4057600,351.25,673,747,0
4057609,351.22,673,751,0
4057619,349.14,673,746,0
4057629,345.50,673,750,0
4057639,340.89,673,747,0
4057649,335.52,673,751,0
4057659,329.84,673,746,0
4057669,323.84,673,750,0
4057679,318.15,673,747,0
4057689,312.79,673,750,0
4057699,308.10,673,746,0
4057709,303.91,673,750,0
4057719,300.38,673,747,0
4057729,297.44,673,750,0
4057739,295.25,673,746,0
4057749,293.46,673,750,0
4057759,292.25,673,747,0
4057769,291.28,673,750,0
4057779,290.85,673,746,0
4057789,291.37,673,750,0
4057799,293.96,673,747,0
4057809,300.01,673,750,0
4057819,311.45,673,746,0
4057829,330.64,673,750,0
4057839,360.24,673,747,0
4057849,400.62,673,750,0
4057859,448.01,673,747,0
4057869,498.92,673,750,0
4057888,550.24,694,749,0
4057891,598.90,694,750,0
4057900,641.62,694,747,0
4057910,675.33,694,750,0
4057920,698.93,694,748,0
4057930,715.45,694,750,0
4057940,727.02,694,748,0
4057950,735.11,694,750,0
4057960,740.78,694,747,0
4057970,744.74,694,750,0
4057980,747.52,694,748,0
4057990,749.46,694,750,0
4058000,748.17,694,747,0
4058010,740.45,694,750,0
4058020,724.80,694,747,0
4058030,700.30,694,750,0
4058040,667.04,694,747,0
4058050,624.73,694,750,0
4058060,574.54,694,747,0
4058071,519.56,694,749,0
4058081,464.88,694,748,0
4058091,412.72,694,749,0
4058101,366.09,694,748,0
4058112,325.60,694,749,0
4058121,293.41,694,748,0
4058131,268.73,694,749,0
4058141,252.65,694,748,0
4058151,243.41,694,749,0
4058161,241.53,694,748,0
4058171,244.67,694,749,0
4058181,252.83,694,748,0
4058191,263.47,694,749,0
4058201,276.61,694,748,0
4058211,289.93,694,749,0
4058221,303.66,694,748,0
4058231,315.72,694,749,0
4058241,326.65,694,748,0
4058251,334.90,694,749,0
4058261,341.40,694,748,0
4058271,344.79,694,749,0
4058281,346.57,694,748,0
4058291,345.88,694,749,0
4058301,344.29,694,748,0
4058311,340.86,694,749,0
4058321,337.05,694,748,0
4058331,332.10,694,749,0
4058341,327.62,694,747,0
4058351,322.50,694,748,0
4058361,318.19,694,748,0
4058371,313.55,694,749,0
4058381,309.96,694,748,0
4058391,306.33,694,748,0
4058401,303.87,694,748,0
4058412,301.38,694,749,0
4058422,299.98,694,748,0
4058432,298.23,694,748,0
4058442,297.43,694,748,0
4058452,296.15,694,748,0
4058462,295.63,694,748,0
4058472,294.63,694,748,0
4058482,294.74,694,748,0
4058492,295.16,694,748,0
4058502,298.20,694,747,0
4058512,304.14,694,748,0
4058522,316.74,694,748,0
4058532,337.05,694,748,0
4058542,368.15,694,748,0
4058552,408.99,694,748,0
4058562,456.61,694,748,0
4058582,507.17,693,747,0
4058585,558.16,693,750,0
4058594,605.47,693,746,0
4058604,646.60,693,750,0
4058614,678.52,693,746,0
4058625,700.91,693,750,0
4058635,716.53,693,745,0
4058645,727.47,693,751,0
4058655,735.09,693,746,0
4058665,740.42,693,751,0
4058675,744.15,693,745,0
4058685,746.76,693,751,0
4058695,744.65,693,746,0
4058705,736.14,693,751,0
4058715,719.38,693,745,0
4058725,694.03,693,750,0
4058735,659.56,693,746,0
4058745,616.88,693,750,0
4058755,566.56,693,746,0
4058765,513.80,693,750,0
4058775,461.02,693,746,0
4058785,411.69,693,751,0
4058796,367.04,693,745,0
4058806,329.23,693,751,0
4058816,298.22,693,745,0
4058826,274.67,693,750,0
4058836,258.01,693,745,0
4058846,248.66,693,750,0
4058856,245.46,693,745,0
4058866,248.32,693,750,0
4058876,255.43,693,745,0
4058886,266.36,693,750,0
4058896,279.19,693,745,0
4058906,293.32,693,750,0
4058916,307.75,693,745,0
4058926,322.14,693,751,0
4058936,334.74,693,745,0
4058946,345.49,693,750,0
4058956,353.31,693,745,0
4058967,358.71,693,750,0
4058977,361.28,693,746,0
4058987,360.98,693,750,0
4058997,357.94,693,746,0
4059008,353.12,693,750,0
4059017,347.00,693,746,0
4059027,340.36,693,750,0
4059037,333.56,693,746,0
4059047,326.92,693,749,0
4059057,320.95,693,746,0
4059067,315.60,693,750,0
4059077,311.22,693,746,0
4059087,307.64,693,750,0
4059097,304.92,693,746,0
4059107,303.02,693,750,0
4059117,301.94,693,746,0
4059127,301.27,693,749,0
4059137,301.06,693,746,0
4059147,301.17,693,750,0
4059157,301.55,693,746,0
4059167,302.03,693,750,0
4059177,303.09,693,746,0
4059187,305.42,693,750,0
4059197,310.91,693,746,0
4059207,321.01,693,750,0
4059217,337.89,693,746,0
4059227,363.30,693,750,0
4059237,399.08,693,746,0
4059247,442.73,693,750,0
4059257,491.02,693,746,0
4059276,540.39,695,745,0
4059279,587.97,695,748,0
4059288,630.67,695,749,0
4059298,666.17,695,747,0
4059308,692.22,695,750,0
4059318,710.45,695,746,0
4059328,723.22,695,749,0
4059338,732.15,695,747,0
4059348,738.36,695,749,0
4059358,742.71,695,746,0
4059368,745.76,695,749,0
4059378,745.14,695,746,0
4059388,738.20,695,749,0
4059398,724.00,695,746,0
4059408,700.81,695,749,0
4059418,669.03,695,746,0
4059428,628.43,695,749,0
4059438,580.35,695,746,0
4059448,528.00,695,749,0
4059458,475.84,695,746,0
4059468,425.75,695,749,0
4059479,381.64,695,747,0
4059489,343.30,695,748,0
4059499,312.70,695,747,0
4059509,289.00,695,748,0
4059520,273.19,695,747,0
4059529,263.79,695,748,0
4059539,261.11,695,746,0
4059549,262.88,695,748,0
4059559,269.86,695,747,0
4059569,279.63,695,747,0
4059579,292.08,695,746,0
4059589,305.04,695,748,0
4059599,318.49,695,746,0
4059609,331.07,695,748,0
4059619,341.72,695,746,0
4059629,350.12,695,748,0
4059639,354.28,695,743,0
4059649,356.04,695,745,0
4059659,356.54,695,744,0
4059669,355.78,695,745,0
4059679,354.09,695,744,0
4059689,353.16,695,745,0
4059699,350.89,695,740,0
4059709,350.41,695,744,0
4059719,351.66,695,744,0
4059729,353.82,695,745,0
4059739,355.71,695,744,0
4059749,355.20,695,742,0
4059759,353.47,695,743,0
4059769,352.43,695,745,0
4059779,352.94,695,745,0
4059789,348.97,695,745,0
4059799,343.20,695,744,0
4059809,335.29,695,744,0
4059820,331.78,695,746,0
4059830,327.77,695,744,0
4059840,321.88,695,744,0
4059850,314.68,695,745,0
4059860,311.77,695,745,0
4059870,311.67,695,746,0
4059880,318.20,695,746,0
4059890,327.70,695,746,0
4059900,345.92,695,746,0
4059910,374.70,695,746,0
4059920,414.39,695,746,0
4059930,460.13,695,746,0
4059950,508.99,673,745,0
4059953,557.08,673,744,0
4059962,602.57,673,748,0
4059972,642.17,673,744,0
4059982,674.69,673,747,0
4059992,697.45,673,744,0
4060002,713.43,673,747,0
4060012,724.57,673,744,0
4060022,732.37,673,747,0
4060033,737.83,673,744,0
4060043,741.70,673,748,0
4060053,744.36,673,743,0
4060063,744.17,673,748,0
4060073,738.20,673,744,0
4060083,725.67,673,748,0
4060093,704.55,673,744,0
4060103,674.56,673,748,0
4060113,635.26,673,744,0
4060123,587.48,673,747,0
4060133,533.25,673,743,0
4060143,480.29,673,749,0
4060153,430.19,673,744,0
4060163,386.03,673,749,0
4060173,348.01,673,744,0
4060183,317.88,673,749,0
4060193,295.11,673,744,0
4060204,280.98,673,749,0
4060214,271.00,673,744,0
4060224,265.64,673,749,0
4060234,263.91,673,744,0
4060244,266.51,673,749,0
4060254,271.97,673,744,0
4060264,280.55,673,749,0
4060274,290.54,673,744,0
4060284,301.91,673,749,0
4060294,312.95,673,744,0
4060304,323.76,673,749,0
4060314,333.31,673,744,0
4060324,341.61,673,749,0
4060334,347.77,673,744,0
4060344,352.38,673,749,0
4060354,354.88,673,744,0
4060364,356.03,673,749,0
4060375,356.45,673,745,0
4060385,356.14,673,749,0
4060395,354.60,673,745,0
4060405,351.89,673,749,0
4060416,347.85,673,745,0
4060425,343.01,673,749,0
4060435,337.22,673,745,0
4060445,330.00,673,749,0
4060455,322.07,673,745,0
4060465,314.33,673,749,0
4060475,307.33,673,745,0
4060485,301.32,673,749,0
4060495,296.51,673,745,0
4060505,293.19,673,749,0
4060515,291.12,673,745,0
4060525,290.18,673,749,0
4060535,290.47,673,745,0
4060545,292.13,673,749,0
4060555,295.69,673,745,0
4060565,302.30,673,749,0
4060575,313.95,673,745,0
4060585,332.91,673,749,0
4060595,361.39,673,745,0
4060605,400.53,673,749,0
4060615,446.66,673,746,0
4060625,496.69,673,749,0
4060644,547.57,695,749,0
4060647,595.91,695,749,0
4060656,638.67,695,746,0
4060666,672.97,695,749,0
4060676,696.98,695,746,0
4060686,713.78,695,749,0
4060696,725.55,695,746,0
4060706,733.78,695,749,0
4060716,739.55,695,747,0
4060726,743.58,695,750,0
4060736,746.41,695,747,0
4060746,748.39,695,750,0
4060756,749.77,695,747,0
4060766,750.74,695,750,0
4060776,750.52,695,746,0
4060786,745.31,695,749,0
4060796,733.00,695,746,0
4060806,712.21,695,749,0
4060816,682.71,695,747,0
4060826,644.39,695,749,0
4060836,598.20,695,746,0
4060846,545.69,695,749,0
4060856,492.04,695,746,0
4060866,440.64,695,748,0
4060876,394.59,695,746,0
4060887,355.03,695,749,0
4060897,323.56,695,746,0
4060907,299.82,695,748,0
4060917,284.53,695,747,0
4060928,276.44,695,748,0
4060937,275.11,695,746,0
4060947,278.63,695,748,0
4060957,286.67,695,747,0
4060967,296.93,695,748,0
4060977,309.04,695,746,0
4060987,320.81,695,748,0
4060997,332.70,695,746,0
4061007,342.90,695,748,0
4061017,351.89,695,746,0
4061027,358.22,695,748,0
4061037,362.91,695,747,0
4061047,364.91,695,748,0
4061057,365.58,695,746,0
4061067,363.73,695,748,0
4061077,360.77,695,747,0
4061087,356.04,695,748,0
4061097,350.97,695,747,0
4061107,344.94,695,748,0
4061117,339.30,695,746,0
4061127,333.08,695,748,0
4061137,327.74,695,747,0
4061147,322.51,695,748,0
4061157,318.41,695,746,0
4061167,314.43,695,748,0
4061177,311.73,695,747,0
4061187,309.28,695,748,0
4061197,308.38,695,747,0
4061207,307.71,695,749,0
4061217,308.05,695,747,0
4061228,308.08,695,748,0
4061238,308.91,695,747,0
4061248,309.37,695,748,0
4061258,311.49,695,748,0
4061268,315.11,695,749,0
4061278,323.31,695,748,0
4061288,337.44,695,750,0
4061298,361.65,695,749,0
4061308,396.77,695,749,0
4061318,440.43,695,748,0
4061328,488.60,695,750,0
4061347,538.86,703,748,0
4061350,587.42,703,748,0
4061359,631.69,703,749,0
4061369,667.61,703,749,0
4061379,693.36,703,750,0
4061389,711.38,703,749,0
4061399,724.04,703,750,0
4061409,732.85,703,749,0
4061419,739.07,703,749,0
4061429,743.38,703,749,0
4061440,746.39,703,749,0
4061449,748.42,703,748,0
4061459,749.84,703,748,0
4061469,746.80,703,748,0
4061479,737.82,703,749,0
4061489,720.81,703,748,0
4061499,695.58,703,748,0
4061509,661.42,703,748,0
4061519,619.34,703,749,0
4061529,569.35,703,748,0
4061539,516.96,703,748,0
4061549,464.17,703,748,0
4061559,415.09,703,749,0
4061569,370.49,703,748,0
4061579,333.83,703,748,0
4061589,304.27,703,748,0
4061599,283.19,703,749,0
4061609,268.86,703,747,0
4061619,262.34,703,748,0
4061629,261.13,703,749,0
4061639,265.76,703,749,0
4061649,272.78,703,748,0
4061659,282.74,703,749,0
4061669,293.28,703,749,0
4061679,305.15,703,749,0
4061689,315.91,703,748,0
4061699,326.61,703,748,0
4061709,335.21,703,748,0
4061719,342.82,703,748,0
4061729,347.80,703,747,0
4061740,351.63,703,749,0
4061750,352.77,703,746,0
4061760,352.88,703,749,0
4061770,350.82,703,746,0
4061780,348.26,703,750,0
4061790,344.15,703,747,0
4061800,340.21,703,749,0
4061810,335.26,703,746,0
4061820,330.98,703,750,0
4061830,326.23,703,746,0
4061840,322.39,703,749,0
4061850,318.16,703,746,0
4061860,314.94,703,750,0
4061870,311.40,703,746,0
4061880,308.97,703,749,0
4061890,306.19,703,746,0
4061900,304.38,703,750,0
4061911,302.21,703,746,0
4061921,301.07,703,749,0
4061931,300.15,703,746,0
4061941,300.32,703,750,0
4061952,300.44,703,745,0
4061961,302.45,703,749,0
4061971,306.21,703,745,0
4061981,314.64,703,749,0
4061991,329.66,703,745,0
4062001,353.16,703,749,0
4062011,384.83,703,744,0
4062021,426.06,703,750,0
4062041,472.80,693,750,0
4062044,522.40,693,751,0
4062053,571.14,693,746,0
4062063,615.33,693,750,0
4062073,652.51,693,746,0
4062083,682.23,693,751,0
4062093,703.08,693,746,0
4062103,717.71,693,750,0
4062113,728.00,693,746,0
4062124,735.16,693,750,0
4062134,740.12,693,746,0
4062144,740.90,693,750,0
4062154,735.02,693,746,0
4062164,720.27,693,748,0
4062174,695.93,693,746,0
4062184,664.02,693,749,0
4062194,625.06,693,746,0
4062204,579.70,693,749,0
4062214,531.06,693,746,0
4062224,482.01,693,748,0
4062234,435.25,693,745,0
4062244,394.63,693,749,0
4062254,359.64,693,749,0
4062264,330.44,693,749,0
4062274,307.42,693,750,0
4062284,289.77,693,755,0
4062295,278.35,693,749,0
4062305,272.54,693,748,0
4062315,270.54,693,749,0
4062325,270.81,693,745,0
4062336,273.35,693,746,0
4062345,277.27,693,748,0
4062355,283.45,693,746,0
4062365,290.21,693,748,0
4062375,298.04,693,745,0
4062385,305.18,693,747,0
4062395,311.94,693,744,0
4062405,317.62,693,746,0
4062415,324.85,693,745,0
4062425,331.41,693,748,0
4062435,337.33,693,745,0
4062445,342.29,693,747,0
4062455,347.09,693,745,0
4062465,350.87,693,748,0
4062475,354.34,693,746,0
4062485,353.72,693,748,0
4062495,351.28,693,746,0
4062505,346.91,693,748,0
4062515,341.36,693,746,0
4062525,333.97,693,748,0
4062535,326.22,693,746,0
4062545,317.28,693,748,0
4062555,308.93,693,746,0
4062565,300.33,693,748,0
4062575,293.29,693,746,0
4062585,286.99,693,748,0
4062595,282.79,693,746,0
4062605,279.51,693,748,0
4062615,278.03,693,745,0
4062625,277.25,693,748,0
4062636,277.95,693,746,0
4062646,278.86,693,747,0
4062656,281.39,693,746,0
4062666,284.83,693,747,0
4062676,291.52,693,746,0
4062686,301.65,693,747,0
4062696,318.00,693,746,0
4062706,341.36,693,748,0
4062716,374.08,693,747,0
4062726,415.03,693,748,0
4062736,462.16,693,746,0
4062755,511.36,715,746,0
4062758,560.36,715,750,0
4062767,605.60,715,748,0
4062777,645.06,715,747,0
4062787,676.29,715,748,0
4062797,699.09,715,747,0
4062807,715.05,715,748,0
4062817,726.26,715,747,0
4062827,731.33,715,748,0
4062837,729.77,715,747,0
4062848,719.85,715,747,0
4062857,702.15,715,747,0
4062867,675.67,715,747,0
4062877,641.48,715,747,0
4062887,599.25,715,747,0
4062897,553.28,715,747,0
4062907,505.19,715,748,0
4062917,458.89,715,747,0
4062927,414.65,715,747,0
4062937,375.54,715,747,0
4062947,341.05,715,748,0
4062957,313.39,715,747,0
4062967,291.20,715,747,0
4062977,275.71,715,747,0
4062987,265.56,715,748,0
4062997,262.18,715,748,0
4063007,263.19,715,748,0
4063017,269.01,715,748,0
4063027,277.02,715,748,0
4063037,287.77,715,748,0
4063047,299.15,715,748,0
4063057,311.58,715,748,0
4063067,322.29,715,748,0
4063077,332.40,715,748,0
4063087,340.25,715,749,0
4063097,347.12,715,748,0
4063107,351.71,715,748,0
4063117,355.31,715,748,0
4063127,356.68,715,748,0
4063137,357.42,715,749,0
4063148,356.26,715,748,0
4063158,354.98,715,749,0
4063168,352.29,715,747,0
4063178,349.63,715,750,0
4063188,345.97,715,746,0
4063198,343.02,715,749,0
4063208,339.46,715,747,0
4063218,336.84,715,750,0
4063228,333.67,715,747,0
4063238,331.54,715,749,0
4063248,329.02,715,747,0
4063258,327.56,715,750,0
4063268,325.50,715,747,0
4063278,324.32,715,749,0
4063288,322.47,715,747,0
4063298,321.34,715,750,0
4063308,319.65,715,747,0
4063319,318.77,715,750,0
4063329,317.47,715,747,0
4063339,317.67,715,750,0
4063349,318.88,715,746,0
4063360,323.98,715,751,0
4063369,333.07,715,747,0
4063379,349.16,715,750,0
4063389,372.81,715,746,0
4063399,406.00,715,751,0
4063409,447.01,715,747,0
4063428,493.04,673,746,0
4063431,540.13,673,749,0
4063440,586.16,673,751,0
4063450,627.77,673,746,0
4063460,663.11,673,751,0
4063470,690.16,673,746,0
4063480,709.19,673,751,0
4063490,722.46,673,746,0
4063500,729.61,673,751,0
4063510,729.25,673,746,0
4063520,721.16,673,751,0
4063531,704.40,673,746,0
4063540,679.68,673,751,0
4063550,646.73,673,745,0
4063560,606.53,673,751,0
4063570,561.50,673,746,0
4063580,515.41,673,751,0
4063590,469.86,673,746,0
4063600,427.68,673,751,0
4063610,389.21,673,746,0
4063620,356.40,673,751,0
4063630,329.11,673,746,0
4063640,308.42,673,751,0
4063650,293.59,673,746,0
4063660,285.06,673,751,0
4063670,281.57,673,746,0
4063680,283.28,673,751,0
4063690,288.64,673,746,0
4063700,297.41,673,751,0
4063710,307.83,673,746,0
4063720,319.75,673,751,0
4063730,331.78,673,746,0
4063740,343.93,673,751,0
4063750,354.80,673,746,0
4063760,364.54,673,751,0
4063770,372.22,673,746,0
4063780,378.50,673,751,0
4063790,382.64,673,746,0
4063800,385.32,673,751,0
4063810,385.99,673,746,0
4063820,385.44,673,751,0
4063831,383.25,673,745,0
4063841,380.39,673,751,0
4063851,376.50,673,746,0
4063861,372.28,673,750,0
4063872,367.52,673,746,0
4063881,362.87,673,751,0
4063891,358.15,673,746,0
4063901,353.86,673,750,0
4063911,349.83,673,746,0
4063921,346.37,673,751,0
4063931,343.13,673,746,0
4063941,340.30,673,751,0
4063951,337.81,673,746,0
4063961,335.85,673,751,0
4063971,334.14,673,746,0
4063981,332.77,673,751,0
4063991,332.07,673,746,0
4064001,333.12,673,751,0
4064011,337.15,673,746,0
4064021,345.94,673,750,0
4064031,361.00,673,746,0
4064041,384.53,673,750,0
4064051,417.11,673,746,0
4064061,457.62,673,751,0
4064071,502.61,673,747,0
4064091,548.97,662,746,0
4064094,593.72,662,750,0
4064103,634.26,662,750,0
4064113,667.95,662,747,0
4064123,693.60,662,750,0
4064133,711.55,662,747,0
4064143,724.15,662,750,0
4064153,732.98,662,748,0
4064163,738.17,662,750,0
4064173,738.46,662,747,0
4064183,732.02,662,750,0
4064193,718.09,662,747,0
4064203,695.73,662,749,0
4064214,665.56,662,748,0
4064223,627.76,662,750,0
4064233,584.16,662,747,0
4064243,537.18,662,749,0
4064253,490.71,662,748,0
4064263,446.31,662,750,0
4064273,406.75,662,747,0
4064283,371.98,662,749,0
4064293,343.53,662,748,0
4064303,320.91,662,750,0
4064313,305.00,662,747,0
4064323,294.63,662,750,0
4064333,290.28,662,748,0
4064343,290.33,662,750,0
4064353,294.98,662,747,0
4064363,302.36,662,749,0
4064373,312.71,662,748,0
4064384,324.07,662,749,0
4064393,336.48,662,747,0
4064403,348.33,662,749,0
4064413,359.80,662,748,0
4064423,369.55,662,750,0
4064433,378.17,662,747,0
4064443,384.20,662,749,0
4064453,388.81,662,748,0
4064463,390.84,662,749,0
4064473,391.49,662,747,0
4064483,389.93,662,749,0
4064493,387.38,662,748,0
4064503,383.06,662,750,0
4064513,378.37,662,747,0
4064523,372.69,662,749,0
4064533,367.30,662,747,0
4064543,361.38,662,749,0
4064553,356.29,662,748,0
4064563,351.15,662,749,0
4064573,347.08,662,747,0
4064583,343.02,662,749,0
4064593,340.10,662,748,0
4064603,337.33,662,749,0
4064613,335.56,662,747,0
4064623,333.63,662,749,0
4064633,332.80,662,748,0
4064643,332.39,662,750,0
4064653,334.50,662,747,0
4064663,339.41,662,749,0
4064673,350.17,662,748,0
4064684,368.16,662,749,0
4064694,396.70,662,748,0
4064704,434.42,662,749,0
4064714,478.56,662,748,0
4064724,525.54,662,749,0
4064743,572.91,653,748,0
4064746,617.08,653,749,0
4064755,655.50,653,749,0
4064765,684.88,653,748,0
4064775,705.48,653,748,0
4064785,719.91,653,749,0
4064795,730.05,653,749,0
4064805,737.11,653,748,0
4064815,742.09,653,748,0
4064825,745.58,653,749,0
4064835,748.06,653,748,0
4064845,747.61,653,748,0
4064855,742.76,653,748,0
4064865,730.70,653,749,0
4064875,711.12,653,748,0
4064885,682.80,653,748,0
4064896,646.82,653,749,0
4064905,603.11,653,749,0
4064915,555.34,653,748,0
4064925,505.39,653,748,0
4064935,458.00,653,749,0
4064945,414.12,653,749,0
4064955,376.80,653,748,0
4064965,345.40,653,748,0
4064975,321.75,653,748,0
4064985,304.51,653,749,0
4064995,294.84,653,748,0
4065005,290.78,653,748,0
4065015,292.86,653,748,0
4065025,298.60,653,749,0
4065035,308.36,653,748,0
4065045,319.48,653,748,0
4065055,332.45,653,748,0
4065065,344.79,653,748,0
4065075,357.15,653,748,0
4065085,367.39,653,748,0
4065095,376.62,653,748,0
4065105,383.07,653,748,0
4065115,388.15,653,748,0
4065125,390.12,653,748,0
4065135,390.81,653,748,0
4065145,389.16,653,748,0
4065155,386.88,653,748,0
4065165,382.76,653,749,0
4065175,378.50,653,748,0
4065185,372.91,653,748,0
4065196,367.84,653,749,0
4065206,361.97,653,747,0
4065216,356.84,653,750,0
4065226,351.23,653,747,0
4065236,346.57,653,750,0
4065246,341.73,653,748,0
4065256,337.83,653,749,0
4065266,333.59,653,747,0
4065276,330.63,653,750,0
4065286,327.48,653,747,0
4065296,325.84,653,749,0
4065306,325.16,653,747,0
4065316,328.15,653,750,0
4065326,335.52,653,748,0
4065336,350.88,653,749,0
4065346,375.13,653,747,0
4065356,411.01,653,750,0
4065367,454.08,653,747,0
4065377,501.88,653,750,0
4065387,550.52,653,747,0
4065406,597.76,663,745,0
4065410,639.79,663,748,0
4065419,674.10,663,751,0
4065429,698.11,663,746,0
4065439,714.92,663,751,0
4065449,726.69,663,747,0
4065459,734.92,663,751,0
4065469,740.69,663,746,0
4065479,744.68,663,751,0
4065489,747.48,663,747,0
4065499,749.43,663,751,0
4065509,750.80,663,746,0
4065519,750.95,663,751,0
4065529,746.25,663,747,0
4065539,734.99,663,751,0
4065549,715.36,663,746,0
4065559,687.05,663,751,0
4065569,650.05,663,747,0
4065580,605.04,663,750,0
4065590,553.77,663,746,0
4065600,501.12,663,750,0
4065610,450.22,663,747,0
4065620,404.12,663,749,0
4065630,364.53,663,746,0
4065640,332.66,663,750,0
4065650,308.89,663,747,0
4065660,292.94,663,749,0
4065670,284.30,663,746,0
4065680,282.02,663,750,0
4065690,285.40,663,746,0
4065700,293.00,663,749,0
4065710,303.63,663,746,0
4065720,315.78,663,750,0
4065730,328.66,663,746,0
4065740,341.23,663,750,0
4065751,353.08,663,747,0
4065761,362.78,663,750,0
4065771,370.61,663,747,0
4065781,375.82,663,749,0
4065792,380.29,663,748,0
4065801,382.52,663,751,0
4065811,382.92,663,748,0
4065821,380.63,663,750,0
4065831,376.93,663,748,0
4065841,371.08,663,751,0
4065851,364.28,663,748,0
4065861,354.90,663,750,0
4065871,345.41,663,748,0
4065881,335.52,663,751,0
4065891,326.71,663,748,0
4065901,318.48,663,751,0
4065911,312.21,663,748,0
4065921,307.17,663,751,0
4065931,304.16,663,748,0
4065941,301.93,663,751,0
4065951,301.39,663,748,0
4065961,301.62,663,751,0
4065971,304.13,663,748,0
4065981,308.85,663,751,0
4065991,318.58,663,748,0
4066001,334.61,663,751,0
4066011,359.97,663,748,0
4066021,395.76,663,751,0
4066031,439.98,663,748,0
4066041,488.58,663,751,0
4066051,539.15,663,748,0
4066070,587.79,664,747,0
4066073,631.87,664,750,0
4066082,668.08,664,750,0
4066092,694.33,664,749,0
4066102,712.66,664,750,0
4066112,725.53,664,749,0
4066122,734.50,664,750,0
4066132,740.82,664,749,0
4066142,745.20,664,750,0
4066152,748.31,664,749,0
4066162,750.45,664,750,0
4066172,751.99,664,749,0
4066182,750.02,664,751,0
4066192,742.43,664,748,0
4066202,726.53,664,750,0
4066212,701.94,664,749,0
4066222,668.14,664,750,0
4066232,626.06,664,748,0
4066242,575.60,664,750,0
4066252,521.46,664,749,0
4066263,466.42,664,750,0
4066273,415.30,664,749,0
4066283,369.09,664,750,0
4066293,330.37,664,749,0
4066304,298.88,664,750,0
4066313,276.08,664,748,0
4066323,260.62,664,750,0
4066333,253.37,664,749,0
4066343,252.01,664,750,0
4066353,256.85,664,748,0
4066363,265.21,664,750,0
4066373,277.28,664,749,0
4066383,290.52,664,750,0
4066393,305.24,664,748,0
4066403,318.97,664,750,0
4066413,332.26,664,749,0
4066423,343.15,664,750,0
4066433,352.71,664,748,0
4066443,358.97,664,750,0
4066453,363.61,664,749,0
4066463,365.05,664,750,0
4066473,365.12,664,749,0
4066483,362.60,664,750,0
4066493,359.29,664,749,0
4066503,354.10,664,750,0
4066513,349.06,664,749,0
4066523,343.04,664,750,0
4066533,337.71,664,749,0
4066543,331.67,664,750,0
4066553,326.80,664,749,0
4066563,321.63,664,750,0
4066573,317.84,664,749,0
4066583,313.73,664,750,0
4066593,310.73,664,749,0
4066604,307.51,664,750,0
4066614,305.60,664,750,0
4066624,303.32,664,749,0
4066634,302.67,664,750,0
4066644,302.72,664,748,0
4066654,306.45,664,750,0
4066664,314.16,664,749,0
4066674,329.50,664,750,0
4066684,353.35,664,748,0
4066694,388.60,664,750,0
4066704,432.13,664,749,0
4066714,481.17,664,750,0
4066724,531.69,664,748,0
4066743,581.28,673,748,0
4066746,625.98,673,749,0
4066755,663.44,673,751,0
4066765,691.00,673,748,0
4066775,710.33,673,751,0
4066785,723.86,673,748,0
4066795,733.33,673,751,0
4066805,739.92,673,748,0
4066816,744.53,673,752,0
4066825,747.75,673,748,0
4066835,748.69,673,751,0
4066845,743.51,673,748,0
4066855,731.14,673,751,0
4066865,709.97,673,748,0
4066875,680.36,673,751,0
4066885,641.60,673,748,0
4066895,595.09,673,751,0
4066905,542.35,673,748,0
4066915,489.02,673,751,0
4066925,436.98,673,748,0
4066935,390.06,673,751,0
4066945,348.43,673,748,0
4066955,314.87,673,751,0
4066965,288.29,673,747,0
4066975,270.12,673,751,0
4066985,258.86,673,747,0
4066995,255.13,673,751,0
4067005,256.55,673,747,0
4067015,263.58,673,751,0
4067025,273.52,673,747,0
4067035,286.78,673,751,0
4067045,300.69,673,748,0
4067055,315.70,673,751,0
4067065,329.50,673,747,0
4067075,342.81,673,751,0
4067085,353.54,673,748,0
4067095,362.63,673,751,0
4067105,368.57,673,747,0
4067116,372.73,673,751,0
4067126,373.80,673,746,0
4067136,373.43,673,752,0
4067146,370.64,673,747,0
4067156,366.98,673,752,0
4067166,361.76,673,746,0
4067176,356.39,673,752,0
4067186,350.27,673,747,0
4067196,344.66,673,752,0
4067206,338.72,673,746,0
4067216,333.66,673,752,0
4067226,328.62,673,747,0
4067236,324.71,673,752,0
4067246,320.85,673,746,0
4067256,318.07,673,752,0
4067266,315.26,673,747,0
4067276,313.47,673,752,0
4067287,312.00,673,746,0
4067297,312.51,673,754,0
4067307,315.57,673,747,0
4067317,323.97,673,751,0
4067328,339.20,673,747,0
4067337,364.25,673,752,0
4067347,399.75,673,748,0
4067357,443.62,673,752,0
4067367,492.12,673,747,0
4067377,542.27,673,752,0
4067396,590.58,653,751,0
4067399,633.95,653,752,0
4067408,669.45,653,747,0
4067418,695.33,653,752,0
4067428,713.44,653,748,0
4067438,726.17,653,751,0
4067448,735.07,653,748,0
4067458,741.31,653,752,0
4067468,745.72,653,748,0
4067478,748.80,653,752,0
4067488,750.92,653,747,0
4067499,749.40,653,751,0
4067508,742.08,653,748,0
4067518,726.97,653,751,0
4067528,702.98,653,747,0
4067538,669.99,653,751,0
4067548,628.68,653,748,0
4067558,579.70,653,751,0
4067568,527.08,653,748,0
4067578,474.04,653,751,0
4067588,424.23,653,748,0
4067598,379.80,653,751,0
4067608,342.36,653,748,0
4067618,312.12,653,751,0
4067628,289.54,653,748,0
4067638,274.30,653,751,0
4067648,266.36,653,748,0
4067658,264.41,653,751,0
4067668,268.06,653,748,0
4067678,275.46,653,751,0
4067688,286.08,653,748,0
4067698,298.48,653,751,0
4067708,311.88,653,748,0
4067718,324.77,653,751,0
4067728,336.84,653,748,0
4067738,346.92,653,751,0
4067748,355.51,653,748,0
4067758,361.75,653,752,0
4067768,365.89,653,748,0
4067778,367.51,653,751,0
4067788,367.49,653,748,0
4067799,365.37,653,751,0
4067809,362.13,653,748,0
4067819,357.16,653,751,0
4067829,351.67,653,748,0
4067840,345.26,653,751,0
4067849,339.05,653,748,0
4067859,332.35,653,751,0
4067869,326.59,653,748,0
4067879,320.84,653,751,0
4067889,316.26,653,748,0
4067899,311.81,653,751,0
4067909,308.52,653,748,0
4067919,305.37,653,751,0
4067929,303.59,653,748,0
4067939,302.42,653,751,0
4067949,304.14,653,748,0
4067959,309.41,653,751,0
4067969,320.90,653,748,0
4067979,340.26,653,751,0
4067989,370.57,653,748,0
4067999,411.03,653,751,0
4068009,458.46,653,749,0
4068019,508.89,653,751,0
4068029,559.54,653,748,0
4068048,606.99,652,747,0
4068051,648.39,652,750,0
4068060,680.55,652,750,0
4068070,703.10,652,749,0
4068080,718.84,652,750,0
4068090,729.90,652,749,0
4068100,737.60,652,750,0
4068110,743.04,652,749,0
4068120,746.80,652,750,0
4068130,749.43,652,749,0
4068140,747.63,652,750,0
4068150,739.73,652,749,0
4068160,723.65,652,750,0
4068170,699.24,652,749,0
4068180,665.78,652,750,0
4068190,624.53,652,748,0
4068200,575.43,652,750,0
4068210,523.74,652,749,0
4068220,471.54,652,750,0
4068230,422.90,652,749,0
4068240,378.53,652,750,0
4068250,341.09,652,749,0
4068260,309.69,652,750,0
4068270,286.13,652,748,0
4068280,269.29,652,750,0
4068290,259.86,652,749,0
4068300,255.66,652,750,0
4068311,257.52,652,749,0
4068321,262.89,652,750,0
4068331,272.40,652,749,0
4068341,283.25,652,749,0
4068352,295.65,652,749,0
4068361,307.67,652,750,0
4068371,319.94,652,749,0
4068381,330.33,652,749,0
4068391,339.87,652,749,0
4068401,346.64,652,750,0
4068411,352.06,652,749,0
4068421,354.40,652,750,0
4068431,355.48,652,749,0
4068441,354.22,652,750,0
4068451,352.14,652,749,0
4068461,347.81,652,750,0
4068471,343.28,652,749,0
4068481,337.37,652,750,0
4068491,332.03,652,749,0
4068501,325.85,652,750,0
4068511,320.54,652,749,0
4068521,314.76,652,750,0
4068531,310.46,652,749,0
4068541,305.87,652,750,0
4068551,302.69,652,749,0
4068561,299.31,652,750,0
4068571,297.33,652,749,0
4068581,295.35,652,750,0
4068591,295.59,652,749,0
4068601,297.60,652,750,0
4068611,304.23,652,749,0
4068621,315.90,652,750,0
4068631,336.42,652,749,0
4068641,366.12,652,750,0
4068652,406.89,652,750,0
4068662,453.93,652,750,0
4068672,504.57,652,750,0
4068691,555.05,643,749,0
4068695,603.00,643,752,0
4068703,644.48,643,748,0
4068713,677.81,643,751,0
4068723,701.10,643,748,0
4068733,717.44,643,752,0
4068743,728.84,643,748,0
4068753,736.86,643,751,0
4068763,742.43,643,748,0
4068773,746.37,643,751,0
4068783,745.96,643,748,0
4068793,739.93,643,751,0
4068803,726.15,643,748,0
4068813,704.55,643,751,0
4068823,674.56,643,748,0
4068833,637.06,643,751,0
4068843,591.83,643,748,0
4068853,543.37,643,752,0
4068864,493.58,643,748,0
4068873,446.44,643,751,0
4068883,402.55,643,748,0
4068893,364.41,643,751,0
4068903,331.59,643,748,0
4068913,306.00,643,751,0
4068923,286.33,643,748,0
4068933,273.80,643,751,0
4068943,266.62,643,748,0
4068953,265.53,643,751,0
4068963,268.24,643,748,0
4068973,275.07,643,751,0
4068983,283.66,643,748,0
4068993,294.52,643,751,0
4069003,305.34,643,748,0
4069013,316.72,643,751,0
4069023,326.62,643,748,0
4069033,335.82,643,751,0
4069043,342.82,643,748,0
4069053,348.70,643,751,0
4069063,351.96,643,748,0
4069073,353.94,643,751,0
4069083,353.40,643,748,0
4069093,352.08,643,751,0
4069103,348.84,643,748,0
4069113,345.33,643,751,0
4069123,340.39,643,748,0
4069133,335.94,643,751,0
4069143,330.73,643,748,0
4069153,326.40,643,751,0
4069164,321.61,643,748,0
4069174,317.78,643,752,0
4069184,313.73,643,747,0
4069194,310.81,643,752,0
4069204,307.70,643,747,0
4069214,305.73,643,752,0
4069224,303.45,643,747,0
4069234,302.29,643,752,0
4069244,301.47,643,747,0
4069254,302.57,643,752,0
4069264,305.70,643,747,0
4069274,313.55,643,752,0
4069284,327.31,643,747,0
4069294,350.06,643,752,0
4069304,382.31,643,747,0
4069314,424.18,643,752,0
4069324,471.57,643,747,0
4069344,521.75,653,746,0
4069347,571.03,653,750,0
4069356,616.58,653,752,0
4069366,655.28,653,748,0
4069377,685.28,653,751,0
4069387,706.32,653,749,0
4069397,721.05,653,751,0
4069407,731.37,653,748,0
4069417,738.54,653,751,0
4069427,743.61,653,748,0
4069437,747.15,653,751,0
4069447,747.49,653,748,0
4069457,741.86,653,751,0
4069467,729.39,653,748,0
4069477,708.66,653,751,0
4069487,679.75,653,748,0
4069497,642.45,653,751,0
4069507,597.79,653,748,0
4069517,548.22,653,751,0
4069527,498.23,653,748,0
4069537,449.64,653,751,0
4069548,405.44,653,748,0
4069558,366.22,653,751,0
4069568,333.97,653,748,0
4069578,308.05,653,751,0
4069588,289.73,653,749,0
4069598,277.64,653,751,0
4069608,272.14,653,748,0
4069618,271.54,653,751,0
4069628,276.18,653,749,0
4069638,283.71,653,751,0
4069648,294.30,653,748,0
4069658,305.65,653,751,0
4069668,318.06,653,749,0
4069678,329.70,653,751,0
4069688,340.84,653,748,0
4069698,349.81,653,751,0
4069708,357.41,653,749,0
4069719,362.38,653,751,0
4069729,365.78,653,749,0
4069739,366.45,653,750,0
4069749,365.71,653,749,0
4069760,362.67,653,750,0
4069769,358.91,653,749,0
4069779,353.58,653,750,0
4069789,348.31,653,749,0
4069799,342.17,653,750,0
4069809,336.85,653,749,0
4069819,331.24,653,750,0
4069829,327.01,653,749,0
4069839,322.76,653,750,0
4069849,319.88,653,749,0
4069859,316.87,653,750,0
4069869,315.15,653,749,0
4069879,313.09,653,750,0
4069889,311.86,653,748,0
4069899,310.32,653,750,0
4069909,309.67,653,749,0
4069919,308.52,653,750,0
4069929,308.84,653,749,0
4069939,309.92,653,750,0
4069949,314.95,653,749,0
4069959,324.74,653,750,0
4069969,342.73,653,749,0
4069979,369.51,653,750,0
4069989,407.76,653,749,0
4069999,452.87,653,750,0
4070009,502.45,653,749,0
4070028,552.42,684,748,0
4070031,600.29,684,752,0
4070040,642.08,684,750,0
4070050,676.12,684,749,0
4070060,699.96,684,750,0
4070070,716.69,684,750,0
4070080,728.35,684,750,0
4070090,736.56,684,749,0
4070100,742.22,684,750,0
4070110,746.23,684,750,0
4070120,748.99,684,750,0
4070130,750.96,684,749,0
4070140,748.27,684,749,0
4070150,739.75,684,749,0
4070160,722.94,684,750,0
4070170,697.80,684,749,0
4070180,663.66,684,750,0
4070190,621.93,684,750,0
4070200,572.28,684,750,0
4070210,520.43,684,749,0
4070220,468.10,684,749,0
4070231,419.98,684,750,0
4070241,376.62,684,749,0
4070251,340.65,684,751,0
4070261,311.05,684,748,0
4070272,289.82,684,751,0
4070281,275.22,684,749,0
4070291,268.38,684,751,0
4070301,266.68,684,748,0
4070311,270.81,684,751,0
4070321,278.02,684,749,0
4070331,288.64,684,751,0
4070341,300.15,684,748,0
4070351,313.09,684,751,0
4070361,324.94,684,749,0
4070371,336.53,684,751,0
4070381,345.75,684,748,0
4070391,353.76,684,751,0
4070401,358.97,684,749,0
4070411,362.79,684,751,0
4070421,363.71,684,748,0
4070431,363.50,684,751,0
4070441,360.91,684,748,0
4070451,357.81,684,751,0
4070461,352.98,684,748,0
4070471,348.14,684,751,0
4070481,342.06,684,748,0
4070491,336.73,684,751,0
4070501,330.81,684,748,0
4070511,326.02,684,751,0
4070521,320.92,684,748,0
4070531,317.17,684,751,0
4070541,313.39,684,748,0
4070551,311.04,684,751,0
4070561,308.50,684,748,0
4070572,307.07,684,751,0
4070582,305.37,684,748,0
4070592,304.79,684,752,0
4070602,303.91,684,748,0
4070612,303.98,684,752,0
4070622,303.64,684,748,0
4070632,304.52,684,752,0
4070642,306.17,684,747,0
4070652,311.22,684,752,0
4070662,320.07,684,748,0
4070672,336.20,684,751,0
4070682,360.83,684,748,0
4070692,396.92,684,752,0
4070702,440.79,684,748,0
4070721,489.71,693,747,0
4070724,539.72,693,750,0
4070733,588.49,693,752,0
4070743,632.23,693,747,0
4070753,668.55,693,752,0
4070763,694.57,693,748,0
4070773,712.83,693,753,0
4070784,725.56,693,746,0
4070793,734.52,693,752,0
4070803,740.80,693,748,0
4070813,745.23,693,753,0
4070823,748.29,693,746,0
4070833,749.10,693,752,0
4070843,744.23,693,748,0
4070853,732.12,693,752,0
4070863,711.12,693,746,0
4070873,681.64,693,752,0
4070883,643.27,693,747,0
4070893,597.07,693,752,0
4070903,544.76,693,746,0
4070913,491.73,693,752,0
4070923,440.30,693,747,0
4070933,393.84,693,752,0
4070943,352.83,693,746,0
4070953,319.24,693,752,0
4070963,292.64,693,748,0
4070973,273.89,693,752,0
4070983,261.67,693,747,0
4070993,256.37,693,752,0
4071003,256.30,693,747,0
4071013,261.35,693,752,0
4071023,269.60,693,747,0
4071033,280.87,693,752,0
4071043,293.38,693,747,0
4071053,306.89,693,752,0
4071063,319.87,693,747,0
4071073,332.38,693,752,0
4071084,343.24,693,748,0
4071094,352.68,693,752,0
4071104,359.76,693,748,0
4071114,365.02,693,752,0
4071124,368.01,693,748,0
4071134,369.38,693,752,0
4071144,368.75,693,748,0
4071154,366.73,693,751,0
4071164,363.38,693,748,0
4071174,359.41,693,752,0
4071184,354.61,693,748,0
4071194,349.54,693,752,0
4071204,344.20,693,748,0
4071214,339.25,693,752,0
4071224,334.38,693,748,0
4071234,329.81,693,752,0
4071244,325.66,693,748,0
4071255,322.08,693,752,0
4071265,319.14,693,748,0
4071275,316.61,693,751,0
4071285,314.59,693,748,0
4071296,313.04,693,751,0
4071305,312.38,693,748,0
4071315,312.61,693,751,0
4071325,315.21,693,748,0
4071335,321.11,693,751,0
4071345,332.47,693,748,0
4071355,351.02,693,751,0
4071365,379.38,693,748,0
4071375,417.93,693,751,0
4071385,463.29,693,748,0
4071395,511.80,693,751,0
4071414,560.72,693,750,0
4071417,607.00,693,751,0
4071426,647.76,693,749,0
4071436,680.10,693,751,0
4071446,702.79,693,749,0
4071456,718.62,693,751,0
4071467,729.75,693,749,0
4071476,737.50,693,751,0
4071486,742.92,693,749,0
4071496,746.67,693,751,0
4071506,749.34,693,749,0
4071516,750.31,693,751,0
4071526,746.87,693,749,0
4071536,736.20,693,751,0
4071546,717.41,693,749,0
4071556,689.69,693,751,0
4071566,653.65,693,749,0
4071576,609.10,693,751,0
4071586,558.20,693,749,0
4071596,504.65,693,751,0
4071606,453.11,693,748,0
4071616,405.25,693,751,0
4071626,363.73,693,749,0
4071636,328.54,693,750,0
4071646,301.55,693,749,0
4071656,281.80,693,751,0
4071666,270.07,693,749,0
4071676,264.61,693,750,0
4071686,265.75,693,748,0
4071696,271.31,693,751,0
4071706,281.29,693,749,0
4071716,293.29,693,750,0
4071726,307.43,693,748,0
4071736,321.32,693,751,0
4071746,335.15,693,749,0
4071756,347.06,693,750,0
4071767,357.71,693,749,0
4071777,365.60,693,750,0
4071787,371.85,693,749,0
4071797,375.02,693,750,0
4071808,376.43,693,749,0
4071817,375.36,693,750,0
4071827,373.28,693,749,0
4071837,369.08,693,750,0
4071847,364.30,693,749,0
4071857,357.95,693,750,0
4071867,351.97,693,749,0
4071877,345.42,693,750,0
4071887,339.72,693,749,0
4071897,333.72,693,750,0
4071907,328.96,693,749,0
4071917,324.22,693,750,0
4071927,320.89,693,749,0
4071937,317.28,693,750,0
4071947,314.88,693,749,0
4071957,312.26,693,750,0
4071967,311.07,693,749,0
4071977,310.58,693,750,0
4071987,313.45,693,749,0
4071997,320.04,693,750,0
4072007,334.04,693,749,0
4072017,356.19,693,750,0
4072027,389.09,693,749,0
4072037,430.72,693,750,0
4072047,478.33,693,749,0
4072057,527.95,693,750,0
4072076,577.03,662,749,0
4072079,621.77,662,750,0
4072088,659.77,662,750,0
4072098,688.55,662,750,0
4072108,708.74,662,750,0
4072118,722.83,662,750,0
4072128,732.74,662,750,0
4072138,739.68,662,750,0
4072148,744.53,662,750,0
4072158,747.89,662,750,0
4072168,750.23,662,750,0
4072178,749.26,662,750,0
4072188,742.80,662,750,0
4072198,728.54,662,750,0
4072208,705.80,662,749,0
4072218,673.76,662,750,0
4072228,633.50,662,750,0
4072238,585.09,662,750,0
4072248,532.65,662,749,0
4072258,478.88,662,750,0
4072268,428.35,662,750,0
4072279,382.09,662,749,0
4072289,343.02,662,750,0
4072299,310.78,662,749,0
4072309,287.28,662,751,0
4072320,271.04,662,748,0
4072329,263.10,662,750,0
4072339,261.01,662,749,0
4072349,265.59,662,751,0
4072359,274.07,662,749,0
4072369,286.44,662,750,0
4072379,299.81,662,749,0
4072389,314.56,662,751,0
4072399,328.32,662,748,0
4072409,341.77,662,750,0
4072419,352.68,662,749,0
4072429,362.12,662,751,0
4072439,368.38,662,748,0
4072449,372.90,662,750,0
4072459,374.34,662,749,0
4072469,374.11,662,751,0
4072479,371.16,662,748,0
4072489,367.39,662,751,0
4072499,361.87,662,749,0
4072509,356.34,662,751,0
4072519,349.55,662,748,0
4072529,343.26,662,751,0
4072539,336.41,662,749,0
4072549,330.59,662,751,0
4072559,324.37,662,748,0
4072569,319.24,662,751,0
4072579,313.98,662,749,0
4072589,310.05,662,751,0
4072599,305.96,662,749,0
4072609,303.44,662,751,0
4072620,301.30,662,748,0
4072630,301.94,662,752,0
4072640,305.51,662,748,0
4072650,315.52,662,752,0
4072660,333.10,662,747,0
4072670,361.44,662,752,0
4072680,400.61,662,748,0
4072690,447.57,662,752,0
4072700,498.27,662,748,0
4072710,550.00,662,752,0
4072729,598.69,653,751,0
4072732,641.64,653,753,0
4072741,675.82,653,748,0
4072751,699.79,653,753,0
4072761,716.57,653,748,0
4072771,728.31,653,752,0
4072781,736.53,653,747,0
4072791,742.33,653,752,0
4072801,746.43,653,748,0
4072811,749.30,653,752,0
4072821,751.31,653,747,0
4072832,750.96,653,753,0
4072841,745.06,653,748,0
4072851,731.84,653,752,0
4072861,709.52,653,747,0
4072871,678.16,653,753,0
4072881,637.87,653,747,0
4072891,589.78,653,752,0
4072901,535.93,653,747,0
4072911,481.14,653,752,0
4072921,428.21,653,747,0
4072931,380.88,653,752,0
4072941,339.86,653,747,0
4072951,306.77,653,752,0
4072961,281.04,653,748,0
4072971,263.80,653,752,0
4072981,253.83,653,747,0
4072991,251.14,653,753,0
4073001,253.71,653,747,0
4073011,261.43,653,752,0
4073021,272.01,653,747,0
4073031,285.21,653,752,0
4073041,298.99,653,748,0
4073051,313.18,653,752,0
4073061,325.98,653,747,0
4073071,337.69,653,752,0
4073081,347.08,653,747,0
4073091,354.86,653,752,0
4073101,359.87,653,747,0
4073111,363.04,653,752,0
4073121,363.63,653,747,0
4073132,362.75,653,752,0
4073142,359.91,653,747,0
4073152,355.91,653,752,0
4073162,350.62,653,748,0
4073172,344.95,653,752,0
4073182,338.62,653,747,0
4073192,332.61,653,752,0
4073202,326.64,653,748,0
4073212,321.26,653,752,0
4073222,316.25,653,747,0
4073232,312.02,653,752,0
4073242,308.46,653,748,0
4073252,305.62,653,752,0
4073262,303.38,653,747,0
4073272,302.41,653,752,0
4073282,303.70,653,748,0
4073292,308.98,653,752,0
4073303,320.21,653,747,0
4073313,340.20,653,752,0
4073323,371.39,653,748,0
4073333,412.80,653,752,0
4073344,460.73,653,748,0
4073353,511.90,653,752,0
4073363,563.10,653,749,0
4073382,610.94,653,747,0
4073385,652.02,653,749,0
4073394,683.25,653,752,0
4073404,705.12,653,749,0
4073414,720.43,653,751,0
4073424,731.14,653,748,0
4073434,738.64,653,751,0
4073444,743.89,653,749,0
4073454,747.52,653,751,0
4073464,750.07,653,748,0
4073474,751.85,653,751,0
4073484,752.71,653,749,0
4073494,748.64,653,751,0
4073504,737.52,653,748,0
4073515,717.35,653,751,0
4073524,688.62,653,748,0
4073534,650.67,653,751,0
4073544,604.70,653,748,0
4073554,551.22,653,751,0
4073564,496.25,653,748,0
4073574,442.52,653,751,0
4073584,394.02,653,748,0
4073594,350.94,653,751,0
4073604,315.77,653,748,0
4073614,287.94,653,751,0
4073624,268.80,653,748,0
4073634,256.60,653,751,0
4073644,251.97,653,748,0
4073654,252.70,653,751,0
4073664,258.92,653,748,0
4073674,268.25,653,751,0
4073684,280.34,653,748,0
4073694,293.10,653,751,0
4073704,306.65,653,748,0
4073714,319.14,653,751,0
4073724,331.06,653,749,0
4073734,340.64,653,751,0
4073744,348.68,653,748,0
4073754,354.00,653,751,0
4073764,357.64,653,749,0
4073774,358.57,653,751,0
4073784,357.88,653,748,0
4073794,354.79,653,751,0
4073804,350.95,653,749,0
4073815,345.48,653,751,0
4073825,340.19,653,749,0
4073835,333.96,653,750,0
4073845,328.40,653,749,0
4073856,322.41,653,750,0
4073865,317.49,653,749,0
4073875,312.54,653,750,0
4073885,308.95,653,749,0
4073895,305.07,653,750,0
4073905,302.52,653,749,0
4073915,300.05,653,750,0
4073925,299.73,653,749,0
4073935,300.93,653,750,0
4073945,306.44,653,749,0
4073955,317.02,653,750,0
4073965,336.81,653,749,0
4073975,366.53,653,750,0
4073985,407.21,653,749,0
4073995,454.33,653,750,0
4074005,505.36,653,749,0
4074015,556.38,653,750,0
4074035,604.82,652,749,0
4074038,646.49,652,748,0
4074047,679.30,652,750,0
4074057,702.27,652,749,0
4074067,718.34,652,751,0
4074077,729.60,652,749,0
4074087,737.48,652,750,0
4074097,742.99,652,749,0
4074107,746.89,652,751,0
4074117,749.63,652,749,0
4074127,751.54,652,750,0
4074137,748.85,652,749,0
4074147,739.85,652,751,0
4074157,722.50,652,749,0
4074167,696.63,652,750,0
4074177,661.47,652,749,0
4074187,618.13,652,751,0
4074198,566.49,652,748,0
4074207,512.56,652,750,0
4074217,458.35,652,749,0
4074227,408.23,652,750,0
4074237,362.82,652,747,0
4074247,325.03,652,750,0
4074257,293.95,652,749,0
4074267,271.76,652,750,0
4074277,256.41,652,747,0
4074287,249.26,652,749,0
4074297,247.59,652,749,0
4074307,252.13,652,750,0
4074317,259.89,652,747,0
4074327,271.54,652,749,0
4074337,283.89,652,749,0
4074347,297.68,652,750,0
4074357,310.08,652,747,0
4074368,322.05,652,751,0
4074377,331.51,652,749,0
4074387,339.93,652,750,0
4074397,345.26,652,747,0
4074407,349.30,652,751,0
4074417,350.24,652,748,0
4074427,350.17,652,750,0
4074437,347.46,652,747,0
4074447,344.15,652,751,0
4074457,338.79,652,749,0
4074467,333.58,652,750,0
4074477,327.06,652,747,0
4074487,321.26,652,750,0
4074497,314.75,652,748,0
4074507,309.64,652,750,0
4074517,304.13,652,747,0
4074527,300.15,652,750,0
4074537,295.86,652,747,0
4074547,293.03,652,750,0
4074557,289.89,652,748,0
4074567,288.13,652,750,0
4074577,286.12,652,747,0
4074587,286.17,652,750,0
4074597,287.10,652,748,0
4074607,292.34,652,750,0
4074617,301.97,652,747,0
4074627,319.76,652,750,0
4074637,346.15,652,748,0
4074647,384.50,652,751,0
4074657,430.51,652,747,0
4074668,481.66,652,751,0
4074687,533.49,653,749,0
4074690,583.74,653,753,0
4074699,628.65,653,747,0
4074710,666.13,653,752,0
4074719,693.00,653,747,0
4074729,711.82,653,751,0
4074739,724.94,653,747,0
4074749,734.17,653,752,0
4074759,740.59,653,747,0
4074769,745.09,653,751,0
4074779,748.19,653,747,0
4074789,746.76,653,752,0
4074799,738.52,653,747,0
4074809,722.46,653,751,0
4074819,697.08,653,747,0
4074829,662.94,653,752,0
4074839,619.97,653,747,0
4074849,569.50,653,751,0
4074859,515.43,653,747,0
4074869,461.86,653,752,0
4074880,410.90,653,747,0
4074889,365.93,653,751,0
4074899,327.12,653,747,0
4074909,296.19,653,752,0
4074919,272.47,653,747,0
4074929,256.95,653,751,0
4074939,248.13,653,747,0
4074949,246.08,653,751,0
4074959,249.06,653,747,0
4074969,256.84,653,751,0
4074979,267.39,653,747,0
4074989,280.39,653,751,0
4074999,293.98,653,747,0
4075009,308.30,653,751,0
4075019,321.46,653,747,0
4075029,333.62,653,751,0
4075039,343.63,653,747,0
4075049,351.89,653,751,0
4075059,357.45,653,747,0
4075069,361.17,653,752,0
4075079,362.23,653,747,0
4075089,361.82,653,751,0
4075099,359.30,653,747,0
4075109,355.96,653,751,0
4075119,351.34,653,747,0
4075129,346.40,653,751,0
4075139,340.71,653,747,0
4075149,335.52,653,751,0
4075159,330.27,653,747,0
4075169,325.69,653,751,0
4075180,321.19,653,747,0
4075190,317.45,653,751,0
4075200,314.19,653,748,0
4075210,311.64,653,751,0
4075220,309.39,653,748,0
4075230,307.82,653,752,0
4075240,307.02,653,748,0
4075250,308.04,653,751,0
4075260,312.49,653,748,0
4075270,321.98,653,751,0
4075280,338.53,653,748,0
4075290,364.39,653,751,0
4075300,401.08,653,748,0
4075310,445.67,653,752,0
4075320,494.71,653,748,0
4075330,544.64,653,751,0
4075350,592.66,662,750,0
4075353,635.79,662,751,0
4075362,671.04,662,748,0
4075372,696.40,662,750,0
4075382,714.15,662,748,0
4075393,726.58,662,751,0
4075403,735.32,662,748,0
4075413,741.39,662,750,0
4075423,745.69,662,748,0
4075433,746.00,662,750,0
4075443,741.11,662,749,0
4075453,728.14,662,749,0
4075463,706.88,662,748,0
4075473,676.23,662,750,0
4075483,637.50,662,748,0
4075493,590.21,662,749,0
4075503,538.80,662,748,0
4075513,484.95,662,750,0
4075523,434.01,662,748,0
4075533,386.60,662,750,0
4075543,346.14,662,749,0
4075553,311.64,662,750,0
4075564,285.69,662,749,0
4075574,266.45,662,749,0
4075584,255.56,662,749,0
4075594,250.46,662,750,0
4075604,252.21,662,749,0
4075614,257.80,662,749,0
4075624,267.98,662,749,0
4075634,279.64,662,750,0
4075644,293.68,662,749,0
4075654,307.27,662,750,0
4075664,321.29,662,748,0
4075674,333.16,662,749,0
4075684,344.21,662,749,0
4075694,352.33,662,750,0
4075704,359.18,662,748,0
4075714,362.72,662,749,0
4075724,364.99,662,749,0
4075735,364.18,662,749,0
4075745,362.50,662,749,0
4075755,358.49,662,749,0
4075765,354.19,662,750,0
4075776,348.17,662,748,0
4075785,342.76,662,749,0
4075795,336.28,662,749,0
4075805,331.05,662,750,0
4075815,325.16,662,748,0
4075825,320.74,662,749,0
4075835,315.94,662,749,0
4075845,312.61,662,750,0
4075855,308.96,662,748,0
4075865,306.83,662,749,0
4075875,304.39,662,749,0
4075885,304.10,662,750,0
4075895,305.14,662,749,0
4075905,310.84,662,749,0
4075915,321.39,662,749,0
4075925,340.90,662,749,0
4075935,369.47,662,749,0
4075945,409.27,662,750,0
4075955,455.56,662,750,0
4075965,505.79,662,749,0
4075975,556.00,662,749,0
4075995,603.83,645,747,0
4075998,645.15,645,748,0
4076007,678.32,645,751,0
4076017,701.50,645,747,0
4076027,717.76,645,752,0
4076037,729.15,645,748,0
4076047,737.16,645,752,0
4076057,742.73,645,747,0
4076067,746.62,645,752,0
4076077,748.15,645,748,0
4076087,745.02,645,751,0
4076097,734.39,645,747,0
4076107,715.54,645,751,0
4076118,687.48,645,747,0
4076127,651.16,645,751,0
4076137,606.24,645,747,0
4076147,555.30,645,751,0
4076157,501.47,645,747,0
4076167,449.55,645,751,0
4076177,400.92,645,747,0
4076187,358.64,645,751,0
4076197,322.36,645,747,0
4076207,294.23,645,751,0
4076217,273.03,645,747,0
4076227,259.86,645,751,0
4076237,252.83,645,747,0
4076247,252.58,645,751,0
4076257,256.69,645,748,0
4076267,265.40,645,751,0
4076277,276.25,645,747,0
4076288,289.55,645,752,0
4076297,302.84,645,748,0
4076307,316.56,645,751,0
4076317,328.69,645,747,0
4076327,339.88,645,752,0
4076337,348.58,645,748,0
4076347,355.69,645,751,0
4076357,359.85,645,747,0
4076367,362.34,645,752,0
4076377,362.15,645,748,0
4076387,360.78,645,751,0
4076397,357.33,645,747,0
4076407,353.29,645,752,0
4076417,347.80,645,748,0
4076427,342.55,645,751,0
4076437,336.60,645,747,0
4076447,331.36,645,752,0
4076457,325.85,645,747,0
4076467,321.35,645,751,0
4076477,316.79,645,747,0
4076487,313.34,645,752,0
4076497,309.77,645,747,0
4076507,307.26,645,752,0
4076517,304.66,645,747,0
4076527,303.17,645,752,0
4076537,302.09,645,747,0
4076547,303.35,645,751,0
4076557,307.32,645,747,0
4076567,317.16,645,752,0
4076577,334.09,645,747,0
4076588,361.45,645,752,0
4076598,399.46,645,747,0
4076608,445.35,645,753,0
4076618,495.21,645,748,0
4076628,546.41,645,752,0
4076647,595.01,653,751,0
4076650,638.51,653,752,0
4076659,673.37,653,748,0
4076669,698.12,653,752,0
4076679,715.40,653,748,0
4076689,727.49,653,752,0
4076699,735.96,653,748,0
4076709,741.89,653,752,0
4076719,745.95,653,748,0
4076729,748.79,653,752,0
4076739,749.93,653,748,0
4076749,746.01,653,752,0
4076759,735.16,653,747,0
4076769,715.96,653,752,0
4076779,687.85,653,748,0
4076789,650.78,653,752,0
4076800,605.29,653,748,0
4076809,553.18,653,752,0
4076819,498.82,653,748,0
4076829,445.43,653,752,0
4076839,396.06,653,747,0
4076849,352.46,653,752,0
4076859,315.98,653,748,0
4076869,287.10,653,752,0
4076879,265.94,653,747,0
4076889,252.50,653,752,0
4076899,246.01,653,748,0
4076909,245.49,653,752,0
4076919,250.14,653,747,0
4076929,258.63,653,752,0
4076939,269.84,653,748,0
4076949,282.53,653,752,0
4076959,295.83,653,747,0
4076969,308.74,653,751,0
4076979,320.77,653,748,0
4076989,331.17,653,752,0
4076999,339.73,653,747,0
4077009,346.20,653,752,0
4077019,350.64,653,748,0
4077029,352.93,653,752,0
4077039,353.60,653,747,0
4077049,352.22,653,751,0
4077059,349.45,653,748,0
4077069,345.59,653,752,0
4077079,341.04,653,747,0
4077089,335.84,653,751,0
4077100,330.58,653,748,0
4077110,325.13,653,751,0
4077120,320.33,653,748,0
4077130,315.65,653,751,0
4077140,311.81,653,748,0
4077150,308.31,653,751,0
4077160,305.77,653,748,0
4077170,303.36,653,751,0
4077180,301.75,653,748,0
4077190,300.28,653,751,0
4077200,300.11,653,748,0
4077210,301.15,653,751,0
4077220,305.90,653,748,0
4077230,315.28,653,751,0
4077240,332.38,653,748,0
4077250,358.84,653,751,0
4077260,396.99,653,748,0
4077271,442.72,653,751,0
4077281,492.90,653,748,0
4077291,543.80,653,751,0
4077310,592.85,663,750,0
