Time,PPG,IBI,GSR,GSR_Event
3825201,396.08,612,754,0
3825211,388.73,612,753,0
3825221,384.14,612,752,0
3825231,385.90,612,753,0
3825241,392.61,612,751,0
3825251,405.89,612,753,0
3825261,422.85,612,751,0
3825271,444.62,612,753,0
3825281,470.49,612,751,0
3825291,494.13,612,753,0
3825301,511.11,612,751,0
3825311,522.60,612,753,0
3825321,528.12,612,751,0
3825331,532.03,612,753,0
3825341,535.49,612,752,0
3825351,543.44,612,753,0
3825361,556.51,612,751,0
3825371,575.99,612,753,0
3825381,599.56,612,752,0
3825391,626.14,612,753,0
3825411,652.54,612,754,0
3825414,677.66,612,757,0
3825423,698.42,612,753,0
3825433,712.05,612,756,0
3825443,715.21,612,753,0
3825453,708.20,612,756,0
3825463,690.18,612,753,0
3825473,662.19,612,755,0
3825483,624.50,612,753,0
3825494,578.24,612,755,0
3825503,526.48,612,753,0
3825513,474.26,612,755,0
3825523,423.57,612,753,0
3825533,377.84,612,755,0
3825543,337.56,612,753,0
3825553,304.35,612,756,0
3825563,278.10,612,753,0
3825573,259.39,612,755,0
3825583,247.23,612,753,0
3825593,242.10,612,756,0
3825603,242.46,612,753,0
3825613,248.23,612,755,0
3825623,257.59,612,753,0
3825633,270.49,612,756,0
3825643,285.08,612,752,0
3825653,301.34,612,755,0
3825664,317.83,612,753,0
3825673,334.55,612,756,0
3825683,350.16,612,753,0
3825693,364.85,612,755,0
3825703,377.58,612,753,0
3825713,388.85,612,756,0
3825723,397.77,612,753,0
3825733,404.65,612,755,0
3825743,409.04,612,753,0
3825753,411.73,612,756,0
3825763,412.28,612,753,0
3825773,411.55,612,755,0
3825783,409.20,612,753,0
3825793,406.44,612,756,0
3825803,402.62,612,753,0
3825813,398.79,612,755,0
3825823,394.57,612,753,0
3825833,390.80,612,755,0
3825843,387.22,612,753,0
3825853,384.49,612,755,0
3825863,381.86,612,753,0
3825873,380.27,612,755,0
3825883,379.08,612,753,0
3825893,378.84,612,755,0
3825903,378.97,612,753,0
3825913,379.92,612,755,0
3825923,382.00,612,753,0
3825933,387.40,612,755,0
3825943,397.40,612,753,0
3825953,414.76,612,755,0
3825964,440.51,612,753,0
3825974,474.38,612,755,0
3825984,513.40,612,753,0
3825994,555.28,612,755,0
3826004,596.89,612,754,0
3826023,635.80,613,752,0
3826026,668.64,613,754,0
3826035,693.69,613,755,0
3826045,711.23,613,754,0
3826055,723.50,613,755,0
3826065,730.04,613,753,0
3826075,729.00,613,755,0
3826085,719.74,613,754,0
3826095,701.69,613,754,0
3826105,675.13,613,753,0
3826115,639.86,613,755,0
3826125,596.92,613,754,0
3826135,548.68,613,755,0
3826145,499.41,613,753,0
3826155,451.03,613,755,0
3826165,406.28,613,754,0
3826176,365.87,613,754,0
3826185,332.01,613,753,0
3826195,304.53,613,755,0
3826205,284.49,613,754,0
3826215,270.76,613,754,0
3826225,263.80,613,753,0
3826235,262.15,613,755,0
3826245,265.87,613,754,0
3826255,272.85,613,754,0
3826265,282.84,613,753,0
3826275,294.20,613,754,0
3826285,307.26,613,753,0
3826295,320.17,613,754,0
3826305,333.23,613,753,0
3826315,345.20,613,755,0
3826325,356.67,613,754,0
3826335,366.41,613,754,0
3826345,375.07,613,753,0
3826355,381.40,613,755,0
3826365,386.59,613,753,0
3826375,389.59,613,754,0
3826385,391.51,613,754,0
3826395,391.49,613,755,0
3826405,390.61,613,753,0
3826415,388.03,613,754,0
3826425,385.11,613,753,0
3826435,381.17,613,755,0
3826445,377.44,613,753,0
3826455,372.89,613,754,0
3826465,368.98,613,753,0
3826476,364.87,613,754,0
3826486,361.95,613,754,0
3826496,358.97,613,754,0
3826506,357.22,613,754,0
3826516,355.40,613,754,0
3826526,355.15,613,753,0
3826536,355.70,613,753,0
3826546,360.25,613,754,0
3826556,369.35,613,754,0
3826566,386.56,613,753,0
3826576,412.15,613,754,0
3826586,447.55,613,754,0
3826596,488.70,613,754,0
3826606,533.70,613,754,0
3826616,578.49,613,754,0
3826626,620.82,613,754,0
3826646,657.13,622,752,0
3826649,685.76,622,756,0
3826658,705.76,622,754,0
3826668,719.80,622,754,0
3826678,726.21,622,754,0
3826689,724.77,622,754,0
3826699,713.57,622,753,0
3826709,693.26,622,754,0
3826719,663.05,622,753,0
3826729,624.42,622,755,0
3826739,577.24,622,753,0
3826749,526.72,622,755,0
3826759,474.22,622,753,0
3826769,424.74,622,755,0
3826779,378.40,622,753,0
3826789,338.64,622,755,0
3826799,304.46,622,753,0
3826809,278.31,622,755,0
3826819,258.37,622,753,0
3826829,246.82,622,755,0
3826839,241.04,622,753,0
3826849,242.66,622,755,0
3826860,248.42,622,753,0
3826870,259.48,622,755,0
3826880,272.58,622,753,0
3826890,288.95,622,755,0
3826900,305.63,622,753,0
3826910,323.70,622,755,0
3826920,340.16,622,753,0
3826930,356.57,622,755,0
3826940,370.41,622,753,0
3826950,383.40,622,755,0
3826960,392.97,622,753,0
3826970,400.78,622,755,0
3826980,404.96,622,753,0
3826990,407.67,622,755,0
3827000,407.30,622,753,0
3827010,405.88,622,755,0
3827020,402.02,622,753,0
3827031,398.07,622,755,0
3827041,392.78,622,753,0
3827051,388.26,622,755,0
3827061,383.08,622,752,0
3827072,379.16,622,755,0
3827081,374.87,622,753,0
3827091,371.95,622,755,0
3827101,368.96,622,753,0
3827111,367.35,622,755,0
3827121,365.66,622,752,0
3827131,365.29,622,755,0
3827141,364.73,622,753,0
3827151,365.75,622,755,0
3827161,367.50,622,753,0
3827171,372.88,622,755,0
3827181,382.39,622,752,0
3827191,399.71,622,755,0
3827201,424.78,622,753,0
3827211,459.01,622,755,0
3827221,498.69,622,753,0
3827231,541.94,622,755,0
3827241,585.07,622,753,0
3827251,625.94,622,755,0
3827270,660.71,625,754,0
3827273,688.23,625,756,0
3827282,707.44,625,753,0
3827292,720.94,625,756,0
3827302,727.34,625,753,0
3827312,726.08,625,754,0
3827322,715.86,625,753,0
3827332,697.13,625,755,0
3827342,669.49,625,752,0
3827352,633.69,625,754,0
3827362,589.89,625,753,0
3827372,542.48,625,755,0
3827382,493.65,625,753,0
3827392,446.79,625,754,0
3827402,402.88,625,753,0
3827412,364.04,625,755,0
3827422,330.73,625,753,0
3827432,304.20,625,755,0
3827442,283.95,625,753,0
3827452,270.60,625,755,0
3827462,263.26,625,753,0
3827472,261.94,625,754,0
3827482,265.26,625,753,0
3827492,272.81,625,755,0
3827502,282.98,625,752,0
3827512,295.50,625,755,0
3827522,309.11,625,753,0
3827532,323.56,625,755,0
3827543,337.62,625,753,0
3827553,351.28,625,754,0
3827563,363.67,625,753,0
3827573,374.74,625,754,0
3827584,383.90,625,753,0
3827593,391.26,625,754,0
3827603,396.54,625,753,0
3827613,399.89,625,755,0
3827623,401.47,625,753,0
3827633,401.46,625,755,0
3827643,400.25,625,753,0
3827653,397.90,625,755,0
3827663,394.97,625,753,0
3827673,391.47,625,755,0
3827683,387.81,625,753,0
3827693,384.10,625,755,0
3827703,380.77,625,753,0
3827713,377.92,625,754,0
3827723,375.72,625,753,0
3827733,373.87,625,755,0
3827743,372.63,625,753,0
3827753,371.67,625,754,0
3827763,371.04,625,753,0
3827773,370.56,625,755,0
3827783,370.30,625,753,0
3827793,370.60,625,754,0
3827803,372.56,625,753,0
3827813,377.84,625,755,0
3827823,388.86,625,753,0
3827833,407.50,625,755,0
3827843,434.69,625,753,0
3827853,470.01,625,755,0
3827863,510.64,625,753,0
3827873,553.69,625,755,0
3827893,596.25,623,753,0
3827896,635.26,623,755,0
3827905,668.14,623,754,0
3827915,693.43,623,754,0
3827926,709.97,623,754,0
3827935,717.05,623,754,0
3827945,715.06,623,754,0
3827955,703.09,623,754,0
3827965,682.02,623,753,0
3827975,651.84,623,754,0
3827985,613.75,623,754,0
3827995,568.78,623,754,0
3828005,521.49,623,754,0
3828015,473.51,623,755,0
3828025,428.49,623,754,0
3828035,386.77,623,754,0
3828045,350.71,623,754,0
3828055,319.73,623,754,0
3828065,295.81,623,754,0
3828075,277.82,623,754,0
3828085,267.03,623,754,0
3828096,261.54,623,754,0
3828105,262.19,623,753,0
3828115,266.80,623,754,0
3828125,276.25,623,754,0
3828135,287.96,623,754,0
3828145,302.46,623,754,0
3828155,317.19,623,754,0
3828165,332.91,623,753,0
3828175,347.33,623,754,0
3828185,361.29,623,754,0
3828195,372.90,623,754,0
3828205,383.43,623,753,0
3828215,391.10,623,754,0
3828225,397.37,623,754,0
3828235,401.12,623,754,0
3828245,404.00,623,753,0
3828255,404.60,623,754,0
3828265,404.55,623,754,0
3828275,402.71,623,754,0
3828285,400.91,623,753,0
3828295,397.94,623,754,0
3828305,395.43,623,754,0
3828315,391.96,623,755,0
3828325,389.27,623,753,0
3828335,385.93,623,754,0
3828345,383.64,623,754,0
3828355,380.96,623,754,0
3828365,379.39,623,753,0
3828375,377.39,623,754,0
3828385,376.58,623,754,0
3828396,375.47,623,754,0
3828406,375.54,623,753,0
3828416,375.12,623,754,0
3828426,376.11,623,754,0
3828436,377.49,623,754,0
3828446,381.85,623,753,0
3828456,389.09,623,754,0
3828466,402.99,623,754,0
3828476,423.48,623,754,0
3828486,452.82,623,754,0
3828496,488.58,623,754,0
3828506,528.90,623,754,0
3828526,570.29,632,753,0
3828529,610.87,632,755,0
3828538,646.91,632,754,0
3828548,677.15,632,755,0
3828558,697.94,632,753,0
3828568,709.44,632,754,0
3828578,710.55,632,753,0
3828588,702.59,632,755,0
3828598,684.67,632,753,0
3828609,658.24,632,755,0
3828619,623.11,632,753,0
3828629,582.75,632,755,0
3828639,537.74,632,753,0
3828649,492.86,632,755,0
3828659,448.29,632,753,0
3828669,407.92,632,755,0
3828679,370.96,632,753,0
3828689,340.20,632,755,0
3828699,314.21,632,753,0
3828709,295.16,632,755,0
3828719,281.36,632,753,0
3828729,274.48,632,755,0
3828739,272.06,632,753,0
3828749,275.52,632,755,0
3828759,281.96,632,753,0
3828769,292.56,632,755,0
3828780,304.61,632,753,0
3828790,318.91,632,755,0
3828800,332.99,632,753,0
3828810,347.74,632,755,0
3828820,360.97,632,753,0
3828830,373.88,632,755,0
3828840,384.29,632,753,0
3828850,393.67,632,756,0
3828860,400.41,632,753,0
3828870,406.03,632,756,0
3828880,409.07,632,753,0
3828890,410.93,632,755,0
3828900,410.52,632,753,0
3828910,409.77,632,755,0
3828920,407.18,632,753,0
3828930,404.60,632,755,0
3828940,400.99,632,753,0
3828951,398.12,632,756,0
3828961,394.87,632,753,0
3828971,392.55,632,755,0
3828981,390.12,632,753,0
3828992,388.84,632,755,0
3829001,387.60,632,753,0
3829011,387.21,632,755,0
3829021,386.59,632,753,0
3829031,386.63,632,755,0
3829041,386.48,632,753,0
3829051,387.49,632,756,0
3829061,390.05,632,753,0
3829071,396.50,632,755,0
3829081,407.88,632,753,0
3829091,427.16,632,756,0
3829101,454.63,632,753,0
3829111,489.62,632,755,0
3829121,528.82,632,753,0
3829131,570.02,632,756,0
3829141,610.00,632,753,0
3829160,646.64,635,752,0
3829164,676.84,635,754,0
3829172,699.60,635,755,0
3829182,713.56,635,753,0
3829192,718.71,635,755,0
3829202,714.85,635,753,0
3829212,702.25,635,755,0
3829222,680.75,635,752,0
3829232,650.91,635,755,0
3829242,613.39,635,753,0
3829252,570.93,635,755,0
3829262,526.25,635,753,0
3829272,481.69,635,755,0
3829282,439.01,635,753,0
3829292,400.14,635,755,0
3829302,365.81,635,753,0
3829312,336.77,635,755,0
3829322,313.39,635,753,0
3829332,296.00,635,755,0
3829342,284.52,635,753,0
3829352,278.71,635,755,0
3829362,277.98,635,753,0
3829372,281.67,635,755,0
3829382,289.01,635,753,0
3829392,299.12,635,755,0
3829402,311.26,635,753,0
3829412,324.55,635,755,0
3829422,338.19,635,753,0
3829432,351.46,635,755,0
3829442,364.09,635,753,0
3829452,375.29,635,755,0
3829463,385.02,635,753,0
3829473,392.69,635,755,0
3829483,398.74,635,753,0
3829493,402.63,635,755,0
3829504,405.06,635,753,0
3829513,405.60,635,755,0
3829523,405.12,635,753,0
3829533,403.15,635,755,0
3829543,400.79,635,753,0
3829553,397.60,635,755,0
3829563,394.68,635,754,0
3829573,391.09,635,755,0
3829583,388.06,635,753,0
3829593,384.91,635,755,0
3829603,382.58,635,753,0
3829613,380.27,635,755,0
3829623,378.86,635,753,0
3829633,377.53,635,755,0
3829643,377.20,635,753,0
3829653,376.80,635,755,0
3829663,377.59,635,753,0
3829673,379.38,635,755,0
3829683,384.54,635,753,0
3829693,394.28,635,755,0
3829703,411.51,635,753,0
3829713,436.81,635,755,0
3829723,470.68,635,754,0
3829733,509.74,635,755,0
3829743,551.90,635,754,0
3829753,593.89,635,755,0
3829772,633.05,612,754,0
3829775,666.25,612,755,0
3829784,692.06,612,754,0
3829794,710.13,612,754,0
3829804,720.50,612,754,0
3829814,721.98,612,755,0
3829824,714.83,612,754,0
3829834,698.04,612,754,0
3829844,672.87,612,754,0
3829854,639.18,612,755,0
3829864,598.28,612,754,0
3829874,552.26,612,754,0
3829884,505.76,612,754,0
3829894,459.76,612,755,0
3829904,417.75,612,754,0
3829914,379.34,612,754,0
3829924,346.97,612,754,0
3829934,319.59,612,755,0
3829944,299.18,612,754,0
3829954,284.21,612,754,0
3829964,276.22,612,754,0
3829975,273.07,612,754,0
3829985,275.71,612,754,0
3829995,281.54,612,754,0
3830005,291.62,612,754,0
3830016,303.18,612,754,0
3830025,316.97,612,754,0
3830035,330.48,612,754,0
3830045,344.95,612,754,0
3830055,357.73,612,754,0
3830065,370.33,612,754,0
3830075,380.39,612,754,0
3830085,389.83,612,754,0
3830095,396.39,612,754,0
3830105,401.89,612,754,0
3830115,404.41,612,754,0
3830125,406.30,612,754,0
3830135,405.70,612,754,0
3830145,404.89,612,754,0
3830155,402.18,612,754,0
3830165,399.90,612,754,0
3830175,396.33,612,754,0
3830185,393.66,612,754,0
3830195,390.07,612,754,0
3830205,387.74,612,754,0
3830215,384.56,612,754,0
3830225,382.76,612,754,0
3830235,380.52,612,754,0
3830245,379.76,612,754,0
3830255,378.33,612,754,0
3830265,378.28,612,754,0
3830275,377.55,612,754,0
3830285,378.67,612,754,0
3830295,380.23,612,754,0
3830305,385.77,612,754,0
3830316,395.18,612,754,0
3830326,413.00,612,754,0
3830336,438.59,612,754,0
3830346,472.91,612,755,0
3830356,512.02,612,754,0
3830366,554.36,612,754,0
3830376,595.99,612,754,0
3830395,635.21,623,753,0
3830398,667.89,623,754,0
3830407,693.25,623,755,0
3830417,710.45,623,754,0
3830427,720.13,623,755,0
3830437,720.56,623,753,0
3830447,712.85,623,755,0
3830457,695.49,623,754,0
3830467,669.97,623,755,0
3830477,635.65,623,753,0
3830487,594.91,623,755,0
3830497,548.83,623,754,0
3830507,502.64,623,755,0
3830517,456.29,623,753,0
3830528,414.37,623,755,0
3830537,375.82,623,754,0
3830547,343.73,623,755,0
3830557,316.30,623,753,0
3830567,296.28,623,755,0
3830577,281.37,623,754,0
3830587,273.54,623,755,0
3830597,269.82,623,753,0
3830607,271.89,623,755,0
3830617,276.68,623,754,0
3830627,285.78,623,755,0
3830637,296.13,623,754,0
3830647,309.25,623,755,0
3830657,322.07,623,754,0
3830667,336.24,623,755,0
3830677,348.98,623,753,0
3830687,362.10,623,755,0
3830697,372.83,623,753,0
3830707,383.25,623,755,0
3830717,390.89,623,754,0
3830727,397.82,623,755,0
3830737,401.69,623,753,0
3830747,404.91,623,755,0
3830757,405.20,623,754,0
3830767,405.05,623,755,0
3830777,402.42,623,753,0
3830787,399.89,623,755,0
3830797,395.68,623,754,0
3830807,392.39,623,755,0
3830817,387.90,623,753,0
3830828,384.85,623,755,0
3830838,381.12,623,753,0
3830848,378.98,623,755,0
3830858,376.55,623,753,0
3830868,375.78,623,756,0
3830878,374.56,623,753,0
3830888,374.86,623,755,0
3830898,374.43,623,753,0
3830908,375.55,623,755,0
3830918,376.54,623,753,0
3830928,380.54,623,755,0
3830938,387.23,623,753,0
3830948,400.79,623,756,0
3830958,420.57,623,753,0
3830968,449.88,623,755,0
3830978,485.83,623,753,0
3830988,526.73,623,756,0
3830999,568.59,623,753,0
3831018,609.73,623,751,0
3831021,646.11,623,753,0
3831030,676.98,623,756,0
3831041,699.36,623,753,0
3831051,712.28,623,755,0
3831061,715.37,623,753,0
3831071,708.70,623,755,0
3831081,692.25,623,753,0
3831091,666.84,623,755,0
3831101,632.78,623,753,0
3831111,590.97,623,755,0
3831121,544.69,623,754,0
3831131,497.30,623,755,0
3831141,450.97,623,753,0
3831151,407.78,623,755,0
3831161,368.89,623,753,0
3831171,335.54,623,755,0
3831181,308.37,623,753,0
3831191,287.73,623,755,0
3831201,273.67,623,754,0
3831212,266.06,623,755,0
3831222,264.54,623,753,0
3831232,267.93,623,755,0
3831242,275.97,623,754,0
3831252,287.21,623,754,0
3831262,301.20,623,753,0
3831272,316.53,623,755,0
3831282,332.83,623,753,0
3831292,348.69,623,754,0
3831302,364.13,623,753,0
3831312,377.72,623,755,0
3831322,390.02,623,754,0
3831332,399.78,623,754,0
3831342,407.61,623,754,0
3831352,412.74,623,755,0
3831362,416.07,623,754,0
3831372,416.95,623,755,0
3831383,416.62,623,754,0
3831393,414.29,623,755,0
3831403,411.46,623,754,0
3831413,407.25,623,754,0
3831424,403.19,623,754,0
3831433,398.42,623,755,0
3831443,394.44,623,754,0
3831453,389.93,623,754,0
3831463,386.61,623,754,0
3831473,383.04,623,755,0
3831483,380.89,623,754,0
3831493,378.56,623,754,0
3831503,377.62,623,754,0
3831513,376.58,623,755,0
3831523,377.26,623,754,0
3831533,379.03,623,755,0
3831543,384.98,623,754,0
3831553,395.40,623,755,0
3831563,413.84,623,754,0
3831573,440.24,623,755,0
3831583,475.01,623,754,0
3831593,514.57,623,755,0
3831603,556.91,623,754,0
3831613,598.38,623,755,0
3831623,637.09,623,754,0
3831643,669.55,624,753,0
3831646,694.54,624,756,0
3831655,711.99,624,754,0
3831665,723.61,624,755,0
3831675,726.98,624,754,0
3831685,722.75,624,754,0
3831695,708.94,624,754,0
3831705,686.54,624,754,0
3831715,654.88,624,754,0
3831725,615.92,624,754,0
3831735,569.48,624,754,0
3831745,521.55,624,754,0
3831755,472.40,624,754,0
3831766,426.94,624,755,0
3831775,384.79,624,754,0
3831785,349.19,624,754,0
3831795,318.45,624,754,0
3831805,295.64,624,755,0
3831815,278.78,624,755,0
3831825,269.72,624,754,0
3831835,265.64,624,754,0
3831845,268.11,624,755,0
3831855,273.99,624,754,0
3831865,284.66,624,754,0
3831875,296.81,624,754,0
3831885,311.61,624,754,0
3831895,326.21,624,754,0
3831905,342.26,624,754,0
3831915,356.67,624,754,0
3831925,371.17,624,755,0
3831936,382.86,624,754,0
3831945,393.83,624,754,0
3831955,401.51,624,754,0
3831965,408.09,624,754,0
3831975,411.23,624,754,0
3831985,413.48,624,754,0
3831995,412.86,624,754,0
3832005,411.96,624,754,0
3832015,408.72,624,754,0
3832025,405.71,624,754,0
3832035,400.96,624,754,0
3832045,397.16,624,754,0
3832055,392.22,624,754,0
3832065,388.77,624,754,0
3832075,384.64,624,754,0
3832085,382.18,624,754,0
3832095,379.21,624,754,0
3832105,378.12,624,754,0
3832115,376.50,624,754,0
3832125,376.95,624,754,0
3832135,378.03,624,754,0
3832145,383.90,624,754,0
3832155,394.17,624,754,0
3832165,413.36,624,754,0
3832175,440.68,624,754,0
3832185,476.39,624,754,0
3832195,516.60,624,754,0
3832205,559.66,624,755,0
3832215,601.47,624,755,0
3832225,640.33,624,754,0
3832245,672.24,603,753,0
3832248,696.43,603,757,0
3832257,713.31,603,754,0
3832267,725.13,603,755,0
3832278,729.68,603,753,0
3832287,727.12,603,756,0
3832297,715.43,603,753,0
3832307,695.37,603,755,0
3832317,666.07,603,753,0
3832327,629.37,603,755,0
3832337,584.56,603,753,0
3832347,537.16,603,755,0
3832357,487.78,603,753,0
3832367,441.43,603,755,0
3832377,397.72,603,753,0
3832387,360.05,603,755,0
3832397,326.99,603,753,0
3832407,301.41,603,755,0
3832417,281.36,603,753,0
3832427,269.12,603,755,0
3832437,262.10,603,753,0
3832448,262.03,603,755,0
3832457,266.00,603,753,0
3832467,275.05,603,755,0
3832477,286.17,603,753,0
3832487,300.57,603,755,0
3832497,315.22,603,753,0
3832507,331.49,603,755,0
3832517,346.43,603,753,0
3832527,361.38,603,755,0
3832537,373.87,603,753,0
3832547,385.52,603,755,0
3832557,394.15,603,753,0
3832567,401.56,603,755,0
3832577,405.68,603,753,0
3832587,408.82,603,755,0
3832597,409.09,603,753,0
3832607,408.85,603,755,0
3832617,406.32,603,753,0
3832627,403.70,603,755,0
3832637,399.24,603,753,0
3832647,395.19,603,755,0
3832657,389.73,603,753,0
3832667,385.35,603,755,0
3832677,380.02,603,753,0
3832687,376.03,603,755,0
3832697,371.78,603,753,0
3832707,369.53,603,755,0
3832717,367.18,603,753,0
3832727,366.70,603,755,0
3832737,366.23,603,753,0
3832748,368.86,603,756,0
3832758,374.18,603,753,0
3832768,385.95,603,756,0
3832778,404.61,603,753,0
3832788,433.53,603,756,0
3832798,469.71,603,753,0
3832808,511.45,603,756,0
3832818,555.08,603,753,0
3832828,598.60,603,756,0
3832838,638.10,603,753,0
3832857,671.41,612,752,0
3832860,695.80,612,754,0
3832869,712.92,612,755,0
3832879,724.86,612,753,0
3832889,732.14,612,756,0
3832899,732.36,612,753,0
3832909,724.75,612,755,0
3832919,708.41,612,752,0
3832929,683.43,612,755,0
3832939,649.70,612,753,0
3832949,608.13,612,755,0
3832960,559.97,612,752,0
3832969,510.05,612,756,0
3832979,460.36,612,753,0
3832989,413.84,612,755,0
3832999,371.54,612,753,0
3833009,335.34,612,756,0
3833019,305.24,612,753,0
3833029,282.71,612,755,0
3833039,267.07,612,752,0
3833049,258.90,612,756,0
3833059,256.88,612,753,0
3833069,260.77,612,755,0
3833079,269.02,612,753,0
3833089,281.36,612,756,0
3833099,295.70,612,753,0
3833109,311.64,612,755,0
3833119,327.61,612,753,0
3833129,343.41,612,755,0
3833139,357.86,612,753,0
3833149,371.10,612,755,0
3833159,381.91,612,753,0
3833169,390.85,612,755,0
3833179,397.11,612,753,0
3833189,401.58,612,755,0
3833199,403.72,612,753,0
3833209,404.27,612,755,0
3833219,402.91,612,753,0
3833229,400.75,612,755,0
3833239,397.48,612,753,0
3833249,393.99,612,755,0
3833260,389.97,612,753,0
3833270,386.03,612,755,0
3833280,382.30,612,753,0
3833290,378.95,612,755,0
3833300,376.01,612,753,0
3833310,373.65,612,755,0
3833320,371.65,612,753,0
3833330,370.09,612,755,0
3833340,369.16,612,753,0
3833350,368.81,612,755,0
3833360,369.81,612,753,0
3833370,373.25,612,755,0
3833380,381.36,612,753,0
3833390,396.21,612,755,0
3833400,419.72,612,753,0
3833410,452.50,612,755,0
3833420,491.65,612,754,0
3833431,534.49,612,755,0
3833441,578.18,612,754,0
3833451,619.66,612,755,0
3833470,656.10,613,754,0
3833474,685.13,613,755,0
3833483,705.49,613,754,0
3833493,719.74,613,754,0
3833503,728.31,613,754,0
3833513,728.73,613,754,0
3833523,721.31,613,754,0
3833533,704.33,613,754,0
3833543,678.73,613,754,0
3833553,643.71,613,754,0
3833563,601.11,613,754,0
3833573,551.84,613,754,0
3833583,501.61,613,754,0
3833593,450.90,613,754,0
3833603,404.39,613,754,0
3833613,361.71,613,754,0
3833623,326.19,613,754,0
3833633,296.13,613,754,0
3833644,274.36,613,754,0
3833654,258.74,613,754,0
3833664,251.32,613,754,0
3833674,249.08,613,754,0
3833684,253.51,613,754,0
3833694,261.50,613,754,0
3833704,274.29,613,754,0
3833714,288.52,613,754,0
3833724,305.34,613,754,0
3833734,321.52,613,754,0
3833744,338.55,613,754,0
3833754,353.39,613,754,0
3833764,367.67,613,754,0
3833774,378.87,613,754,0
3833784,388.89,613,754,0
3833794,395.44,613,754,0
3833804,400.88,613,754,0
3833815,403.02,613,754,0
3833825,404.38,613,755,0
3833835,402.98,613,754,0
3833845,401.32,613,755,0
3833856,397.58,613,753,0
3833865,394.40,613,755,0
3833875,389.61,613,754,0
3833885,385.83,613,755,0
3833895,380.91,613,753,0
3833905,377.42,613,755,0
3833915,373.14,613,754,0
3833925,370.31,613,755,0
3833935,366.79,613,753,0
3833945,365.01,613,755,0
3833955,362.74,613,754,0
3833965,362.17,613,755,0
3833975,361.39,613,753,0
3833985,363.33,613,755,0
3833995,367.35,613,754,0
3834005,377.49,613,755,0
3834015,393.71,613,753,0
3834025,420.11,613,756,0
3834035,454.84,613,754,0
3834045,495.94,613,755,0
3834055,539.59,613,753,0
3834065,584.03,613,755,0
3834075,625.16,613,754,0
3834094,661.24,624,753,0
3834097,688.68,624,753,0
3834106,707.98,624,756,0
3834116,721.44,624,753,0
3834126,730.05,624,756,0
3834136,731.02,624,753,0
3834146,724.20,624,755,0
3834156,708.03,624,753,0
3834166,683.25,624,755,0
3834176,649.14,624,753,0
3834186,607.19,624,755,0
3834196,557.93,624,753,0
3834206,507.34,624,755,0
3834216,456.32,624,753,0
3834226,409.25,624,755,0
3834236,366.02,624,753,0
3834246,329.80,624,755,0
3834256,299.47,624,753,0
3834266,277.60,624,755,0
3834276,262.12,624,753,0
3834286,254.89,624,755,0
3834296,253.08,624,753,0
3834306,258.07,624,755,0
3834316,266.88,624,753,0
3834327,280.46,624,756,0
3834337,295.62,624,753,0
3834347,313.22,624,756,0
3834357,330.55,624,753,0
3834368,348.43,624,756,0
3834377,364.33,624,753,0
3834387,379.45,624,756,0
3834397,391.57,624,753,0
3834407,402.03,624,756,0
3834417,409.09,624,753,0
3834427,414.38,624,755,0
3834437,416.71,624,753,0
3834447,417.61,624,756,0
3834457,415.88,624,753,0
3834467,413.48,624,756,0
3834477,409.39,624,753,0
3834487,405.50,624,756,0
3834497,400.59,624,753,0
3834507,396.60,624,756,0
3834517,392.22,624,753,0
3834527,389.07,624,756,0
3834537,385.75,624,753,0
3834547,383.90,624,756,0
3834557,381.91,624,753,0
3834567,381.12,624,756,0
3834577,380.10,624,753,0
3834587,380.97,624,755,0
3834597,383.38,624,753,0
3834607,390.51,624,756,0
3834617,403.30,624,753,0
3834627,425.24,624,756,0
3834637,456.28,624,753,0
3834647,494.13,624,756,0
3834657,535.49,624,753,0
3834668,578.50,624,756,0
3834678,619.58,624,753,0
3834688,656.26,624,756,0
3834707,685.28,613,754,0
3834711,705.68,613,756,0
3834719,719.96,613,754,0
3834729,729.96,613,756,0
3834739,736.92,613,754,0
3834749,739.13,613,755,0
3834759,734.72,613,753,0
3834769,722.37,613,755,0
3834779,701.05,613,753,0
3834789,670.78,613,755,0
3834799,632.01,613,753,0
3834809,585.30,613,755,0
3834819,533.99,613,753,0
3834829,481.41,613,755,0
3834839,430.50,613,753,0
3834849,383.76,613,755,0
3834859,342.69,613,753,0
3834869,307.98,613,755,0
3834880,280.65,613,753,0
3834889,260.78,613,756,0
3834899,248.46,613,753,0
3834909,243.31,613,755,0
3834919,244.67,613,753,0
3834929,251.46,613,756,0
3834939,262.81,613,753,0
3834949,277.18,613,755,0
3834959,293.97,613,753,0
3834969,312.02,613,755,0
3834979,330.31,613,753,0
3834989,347.79,613,755,0
3834999,363.97,613,753,0
3835009,378.12,613,755,0
3835019,389.96,613,753,0
3835029,398.80,613,755,0
3835039,404.77,613,753,0
3835049,407.63,613,755,0
3835059,408.21,613,753,0
3835069,406.60,613,755,0
3835079,403.42,613,753,0
3835089,398.92,613,755,0
3835099,393.85,613,753,0
3835109,388.19,613,755,0
3835119,382.82,613,753,0
3835129,377.26,613,755,0
3835139,372.08,613,753,0
3835149,367.26,613,755,0
3835159,363.19,613,753,0
3835169,359.58,613,755,0
3835180,357.01,613,754,0
3835190,355.20,613,755,0
3835200,355.96,613,753,0
3835210,360.30,613,755,0
3835220,371.09,613,753,0
3835230,389.92,613,755,0
3835240,419.17,613,753,0
3835250,456.71,613,755,0
3835260,499.95,613,754,0
3835270,545.57,613,755,0
3835280,590.91,613,753,0
3835290,632.25,613,755,0
3835300,667.15,613,754,0
3835319,692.90,612,752,0
3835322,710.93,612,756,0
3835331,723.55,612,755,0
3835341,732.39,612,754,0
3835351,736.09,612,755,0
3835361,733.06,612,754,0
3835371,721.30,612,755,0
3835381,700.81,612,754,0
3835392,670.91,612,754,0
3835401,632.92,612,754,0
3835411,586.57,612,755,0
3835421,535.74,612,754,0
3835431,482.89,612,755,0
3835441,432.57,612,753,0
3835451,385.60,612,755,0
3835461,345.05,612,754,0
3835471,310.10,612,755,0
3835481,282.99,612,753,0
3835491,262.55,612,755,0
3835501,250.34,612,754,0
3835511,244.15,612,755,0
3835521,244.79,612,753,0
3835531,249.74,612,755,0
3835541,259.59,612,754,0
3835551,271.76,612,755,0
3835561,286.83,612,754,0
3835571,302.22,612,755,0
3835581,318.66,612,754,0
3835591,333.80,612,755,0
3835601,348.56,612,754,0
3835611,360.99,612,755,0
3835621,372.22,612,754,0
3835631,380.34,612,755,0
3835641,387.01,612,754,0
3835651,390.78,612,755,0
3835661,393.37,612,754,0
3835671,393.35,612,755,0
3835681,392.51,612,754,0
3835692,389.62,612,755,0
3835702,386.73,612,754,0
3835712,382.27,612,754,0
3835722,378.46,612,754,0
3835732,373.65,612,754,0
3835742,369.98,612,754,0
3835752,365.79,612,754,0
3835762,363.02,612,754,0
3835772,359.89,612,754,0
3835782,358.38,612,754,0
3835792,356.47,612,755,0
3835802,356.45,612,754,0
3835812,357.18,612,754,0
3835822,361.88,612,754,0
3835832,370.79,612,754,0
3835842,388.42,612,754,0
3835852,414.78,612,754,0
3835863,450.63,612,755,0
3835873,491.97,612,754,0
3835883,536.89,612,754,0
3835893,581.71,612,754,0
3835904,624.27,612,755,0
3835922,660.23,603,753,0
3835925,688.10,603,756,0
3835934,707.62,603,753,0
3835944,721.32,603,756,0
3835954,730.09,603,754,0
3835964,732.89,603,755,0
3835974,727.01,603,753,0
3835984,712.52,603,756,0
3835994,688.28,603,754,0
3836004,655.50,603,755,0
3836014,613.39,603,753,0
3836024,564.46,603,756,0
3836034,510.96,603,754,0
3836044,458.47,603,755,0
3836054,407.72,603,753,0
3836064,362.55,603,756,0
3836075,322.31,603,753,0
3836084,290.07,603,755,0
3836094,264.47,603,754,0
3836104,247.48,603,755,0
3836114,236.88,603,753,0
3836124,234.13,603,755,0
3836134,236.28,603,753,0
3836144,244.47,603,756,0
3836154,255.55,603,753,0
3836164,270.43,603,755,0
3836174,285.99,603,753,0
3836184,303.31,603,755,0
3836194,319.41,603,753,0
3836204,335.75,603,755,0
3836214,349.45,603,753,0
3836224,362.26,603,755,0
3836234,371.91,603,753,0
3836244,380.34,603,756,0
3836254,385.55,603,753,0
3836264,389.67,603,755,0
3836274,390.93,603,753,0
3836284,391.63,603,756,0
3836294,390.12,603,754,0
3836304,388.54,603,755,0
3836314,385.16,603,753,0
3836324,382.33,603,756,0
3836334,378.29,603,753,0
3836344,375.20,603,755,0
3836354,371.24,603,753,0
3836364,368.55,603,756,0
3836375,365.26,603,753,0
3836385,363.47,603,756,0
3836395,361.18,603,753,0
3836405,360.44,603,756,0
3836416,359.92,603,752,0
3836425,362.65,603,756,0
3836435,368.28,603,753,0
3836445,380.80,603,756,0
3836455,400.53,603,753,0
3836465,430.28,603,756,0
3836475,467.57,603,753,0
3836485,510.21,603,756,0
3836495,554.42,603,753,0
3836505,598.22,603,756,0
3836515,637.76,603,753,0
3836534,671.09,612,752,0
3836537,695.79,612,754,0
3836546,713.08,612,756,0
3836556,725.14,612,753,0
3836566,730.80,612,756,0
3836576,727.95,612,752,0
3836587,716.22,612,756,0
3836596,694.81,612,752,0
3836606,664.65,612,756,0
3836616,625.37,612,752,0
3836626,578.12,612,756,0
3836636,526.01,612,753,0
3836646,473.85,612,756,0
3836656,423.32,612,752,0
3836666,377.54,612,756,0
3836676,336.66,612,753,0
3836686,303.12,612,756,0
3836696,276.30,612,752,0
3836706,257.65,612,756,0
3836716,245.80,612,753,0
3836726,241.53,612,756,0
3836736,242.87,612,752,0
3836746,250.11,612,756,0
3836756,261.13,612,753,0
3836766,276.14,612,756,0
3836776,292.64,612,752,0
3836786,310.96,612,756,0
3836796,329.06,612,752,0
3836806,347.34,612,756,0
3836816,363.78,612,753,0
3836826,378.80,612,756,0
3836836,391.03,612,753,0
3836846,401.44,612,756,0
3836856,408.64,612,753,0
3836866,413.72,612,756,0
3836876,415.86,612,753,0
3836887,416.42,612,756,0
3836897,414.88,612,753,0
3836907,412.30,612,755,0
3836917,408.35,612,753,0
3836928,403.92,612,755,0
3836937,398.76,612,753,0
3836947,393.69,612,756,0
3836957,388.34,612,752,0
3836967,383.22,612,756,0
3836977,378.10,612,753,0
3836987,373.48,612,755,0
3836997,369.35,612,753,0
3837007,366.25,612,756,0
3837017,364.63,612,753,0
3837027,366.67,612,756,0
3837037,374.05,612,753,0
3837047,389.55,612,756,0
3837057,414.29,612,753,0
3837067,448.74,612,756,0
3837077,489.53,612,753,0
3837087,534.03,612,756,0
3837097,578.81,612,753,0
3837107,621.12,612,756,0
3837117,657.56,612,753,0
3837127,686.19,612,756,0
3837147,706.23,612,754,0
3837150,720.26,612,755,0
3837159,730.08,612,754,0
3837169,733.27,612,755,0
3837179,728.52,612,754,0
3837189,714.39,612,755,0
3837199,690.87,612,753,0
3837209,657.66,612,755,0
3837219,615.80,612,754,0
3837229,565.50,612,755,0
3837239,511.65,612,754,0
3837249,457.07,612,755,0
3837259,405.66,612,754,0
3837270,358.54,612,755,0
3837279,318.18,612,753,0
3837289,284.52,612,755,0
3837299,259.17,612,754,0
3837309,241.37,612,755,0
3837319,231.83,612,753,0
3837329,228.88,612,755,0
3837339,232.95,612,753,0
3837349,241.66,612,754,0
3837359,254.84,612,753,0
3837369,270.40,612,755,0
3837379,288.49,612,753,0
3837389,306.95,612,754,0
3837399,325.82,612,753,0
3837409,343.10,612,755,0
3837419,359.36,612,753,0
3837429,373.05,612,754,0
3837440,384.95,612,753,0
3837449,393.62,612,755,0
3837459,400.21,612,753,0
3837469,403.70,612,754,0
3837479,405.46,612,753,0
3837489,404.85,612,755,0
3837499,403.23,612,753,0
3837509,399.69,612,754,0
3837519,395.88,612,753,0
3837529,390.94,612,755,0
3837539,386.46,612,753,0
3837549,381.61,612,754,0
3837559,377.83,612,753,0
3837569,374.02,612,755,0
3837579,371.40,612,753,0
3837589,368.75,612,754,0
3837599,367.41,612,753,0
3837609,366.22,612,755,0
3837619,367.09,612,753,0
3837629,370.19,612,754,0
3837639,378.96,612,753,0
3837649,394.70,612,755,0
3837659,419.95,612,753,0
3837669,454.04,612,755,0
3837679,494.61,612,753,0
3837689,538.27,612,755,0
3837699,582.72,612,753,0
3837709,624.20,612,755,0
3837719,660.14,612,753,0
3837739,688.04,592,752,0
3837742,707.62,592,754,0
3837751,721.32,592,754,0
3837761,729.32,592,754,0
3837771,729.18,592,754,0
3837782,720.90,592,754,0
3837791,703.14,592,754,0
3837801,676.74,592,753,0
3837811,640.91,592,754,0
3837821,597.22,592,754,0
3837831,547.10,592,754,0
3837841,496.11,592,754,0
3837851,445.12,592,754,0
3837861,398.28,592,754,0
3837871,355.38,592,754,0
3837881,319.57,592,754,0
3837891,289.70,592,754,0
3837901,268.15,592,754,0
3837911,252.85,592,754,0
3837921,245.56,592,754,0
3837931,243.68,592,754,0
3837941,248.49,592,754,0
3837952,257.09,592,754,0
3837961,270.17,592,754,0
3837971,284.61,592,754,0
3837981,301.48,592,754,0
3837991,317.92,592,754,0
3838001,335.05,592,753,0
3838011,350.03,592,754,0
3838021,364.34,592,754,0
3838031,375.59,592,754,0
3838041,385.70,592,753,0
3838051,392.48,592,754,0
3838061,397.95,592,754,0
3838071,400.23,592,754,0
3838081,401.62,592,753,0
3838091,400.41,592,754,0
3838101,399.00,592,754,0
3838111,395.57,592,754,0
3838121,392.49,592,754,0
3838131,388.10,592,754,0
3838141,384.64,592,754,0
3838151,380.20,592,754,0
3838161,376.97,592,754,0
3838171,373.12,592,754,0
3838181,370.77,592,754,0
3838191,367.93,592,754,0
3838201,366.62,592,753,0
3838211,364.85,592,754,0
3838221,364.98,592,754,0
3838231,365.80,592,754,0
3838241,370.92,592,753,0
3838252,380.41,592,754,0
3838262,398.63,592,754,0
3838272,425.23,592,754,0
3838282,460.95,592,754,0
3838292,501.76,592,753,0
3838302,546.02,592,754,0
3838312,589.68,592,754,0
3838322,630.71,592,754,0
3838342,665.08,603,753,0
3838345,691.59,603,757,0
3838354,710.10,603,753,0
3838364,723.05,603,755,0
3838374,729.34,603,753,0
3838384,728.59,603,755,0
3838394,718.56,603,753,0
3838404,699.49,603,755,0
3838414,670.67,603,752,0
3838424,633.48,603,755,0
3838434,587.57,603,753,0
3838444,537.34,603,755,0
3838454,484.48,603,752,0
3838465,434.02,603,756,0
3838475,386.79,603,752,0
3838485,345.75,603,755,0
3838495,310.47,603,752,0
3838505,283.11,603,756,0
3838515,262.47,603,752,0
3838525,250.11,603,755,0
3838535,244.08,603,752,0
3838545,244.95,603,756,0
3838555,250.50,603,752,0
3838565,260.89,603,755,0
3838575,273.95,603,752,0
3838585,289.82,603,756,0
3838595,306.03,603,752,0
3838605,323.04,603,755,0
3838615,338.93,603,752,0
3838625,354.21,603,756,0
3838636,367.39,603,752,0
3838646,378.97,603,755,0
3838656,387.89,603,752,0
3838666,394.91,603,755,0
3838676,399.40,603,752,0
3838686,402.15,603,755,0
3838696,402.62,603,752,0
3838706,401.66,603,755,0
3838716,399.28,603,752,0
3838726,396.28,603,755,0
3838736,392.47,603,752,0
3838746,388.34,603,755,0
3838756,383.95,603,752,0
3838766,379.98,603,755,0
3838776,376.09,603,752,0
3838786,372.72,603,755,0
3838796,369.59,603,752,0
3838807,367.14,603,755,0
3838817,365.21,603,752,0
3838827,363.82,603,755,0
3838837,363.27,603,753,0
3838848,364.48,603,754,0
3838857,368.79,603,752,0
3838867,378.28,603,755,0
3838877,395.47,603,753,0
3838887,421.73,603,755,0
3838897,456.91,603,752,0
3838907,497.78,603,755,0
3838917,541.77,603,753,0
3838927,585.86,603,755,0
3838937,627.13,603,753,0
3838956,662.32,615,751,0
3838959,689.52,615,755,0
3838968,708.57,615,755,0
3838978,721.90,615,753,0
3838988,728.14,615,755,0
3838998,726.26,615,753,0
3839008,714.82,615,755,0
3839019,693.96,615,753,0
3839028,663.80,615,755,0
3839038,625.08,615,753,0
3839048,577.74,615,754,0
3839058,526.35,615,753,0
3839068,473.83,615,755,0
3839078,423.91,615,753,0
3839088,377.74,615,755,0
3839098,337.49,615,753,0
3839108,303.27,615,755,0
3839118,277.00,615,753,0
3839128,257.80,615,755,0
3839138,246.63,615,753,0
3839148,242.03,615,755,0
3839158,244.29,615,753,0
3839168,251.15,615,755,0
3839178,262.72,615,753,0
3839188,276.64,615,754,0
3839198,292.91,615,753,0
3839208,309.31,615,755,0
3839218,326.19,615,752,0
3839228,341.64,615,754,0
3839238,356.41,615,753,0
3839248,369.06,615,755,0
3839258,380.48,615,752,0
3839268,389.30,615,754,0
3839278,396.45,615,753,0
3839288,400.94,615,755,0
3839298,404.13,615,753,0
3839308,404.82,615,754,0
3839319,404.49,615,753,0
3839329,402.07,615,754,0
3839339,399.39,615,753,0
3839349,395.33,615,754,0
3839360,391.68,615,754,0
3839369,387.19,615,754,0
3839379,383.70,615,753,0
3839389,379.72,615,754,0
3839399,377.19,615,754,0
3839409,374.30,615,754,0
3839419,372.84,615,753,0
3839429,371.05,615,754,0
3839439,370.86,615,753,0
3839449,370.90,615,754,0
3839459,373.67,615,753,0
3839469,379.13,615,754,0
3839479,391.09,615,753,0
3839489,409.71,615,755,0
3839499,437.95,615,753,0
3839509,473.49,615,754,0
3839519,514.40,615,754,0
3839529,557.23,615,754,0
3839539,599.76,615,753,0
3839549,638.32,615,754,0
3839568,671.26,612,753,0
3839571,695.87,612,754,0
3839580,713.10,612,754,0
3839590,725.07,612,754,0
3839600,730.62,612,754,0
3839610,727.35,612,754,0
3839620,715.80,612,753,0
3839630,694.43,612,754,0
3839640,664.43,612,754,0
3839650,625.13,612,754,0
3839660,578.33,612,754,0
3839670,526.72,612,754,0
3839680,475.72,612,754,0
3839690,425.70,612,754,0
3839700,380.92,612,754,0
3839710,340.87,612,754,0
3839720,308.60,612,754,0
3839730,282.53,612,754,0
3839740,264.93,612,754,0
3839750,253.51,612,754,0
3839760,249.93,612,754,0
3839770,251.45,612,754,0
3839780,259.24,612,754,0
3839790,270.14,612,754,0
3839800,285.01,612,754,0
3839810,300.78,612,754,0
3839820,318.59,612,754,0
3839831,335.38,612,754,0
3839841,352.33,612,754,0
3839851,366.67,612,754,0
3839861,380.10,612,754,0
3839872,390.40,612,753,0
3839881,399.32,612,754,0
3839891,404.88,612,754,0
3839901,409.07,612,754,0
3839911,410.17,612,753,0
3839921,410.50,612,754,0
3839931,408.34,612,754,0
3839941,406.09,612,754,0
3839951,401.95,612,753,0
3839961,398.37,612,754,0
3839971,393.58,612,754,0
3839981,389.94,612,754,0
3839991,385.37,612,753,0
3840001,382.22,612,754,0
3840011,378.42,612,754,0
3840021,376.15,612,754,0
3840031,373.24,612,753,0
3840041,372.05,612,754,0
3840051,371.05,612,754,0
3840061,373.56,612,754,0
3840071,379.39,612,753,0
3840081,392.90,612,754,0
3840091,413.80,612,754,0
3840101,445.41,612,754,0
3840111,483.47,612,753,0
3840121,526.27,612,755,0
3840131,569.99,612,754,0
3840141,612.64,612,754,0
3840151,650.03,612,753,0
3840171,680.96,602,752,0
3840174,702.70,602,754,0
3840183,717.96,602,755,0
3840193,728.56,602,752,0
3840203,732.94,602,756,0
3840214,728.80,602,752,0
3840223,716.34,602,755,0
3840233,694.00,602,752,0
3840243,663.06,602,755,0
3840253,623.01,602,752,0
3840263,575.74,602,755,0
3840273,524.00,602,752,0
3840283,472.91,602,755,0
3840293,423.27,602,752,0
3840303,379.17,602,755,0
3840313,339.91,602,752,0
3840323,308.31,602,755,0
3840333,282.93,602,752,0
3840343,265.72,602,755,0
3840353,254.79,602,752,0
3840363,251.38,602,755,0
3840373,253.07,602,752,0
3840384,260.59,602,755,0
3840393,271.08,602,752,0
3840403,285.29,602,755,0
3840413,300.59,602,752,0
3840423,317.60,602,755,0
3840433,333.70,602,752,0
3840443,349.91,602,755,0
3840453,364.03,602,752,0
3840463,377.18,602,755,0
3840473,387.24,602,752,0
3840483,395.78,602,755,0
3840493,401.25,602,752,0
3840503,405.46,602,755,0
3840513,406.82,602,752,0
3840523,407.26,602,755,0
3840533,405.47,602,752,0
3840543,403.27,602,755,0
3840553,399.46,602,752,0
3840563,395.85,602,755,0
3840573,390.92,602,752,0
3840583,386.62,602,755,0
3840593,381.59,602,752,0
3840603,377.77,602,755,0
3840613,373.64,602,752,0
3840623,370.83,602,755,0
3840633,367.80,602,752,0
3840643,366.40,602,755,0
3840653,365.08,602,752,0
3840663,366.21,602,755,0
3840673,369.84,602,752,0
3840684,379.61,602,755,0
3840694,396.40,602,752,0
3840704,423.37,602,756,0
3840714,458.53,602,752,0
3840724,499.86,602,755,0
3840734,543.83,602,752,0
3840744,588.19,602,756,0
3840754,629.24,602,752,0
3840764,664.48,602,755,0
3840783,691.08,613,754,0
3840786,709.70,613,755,0
3840795,722.73,613,752,0
3840805,730.65,613,755,0
3840815,731.66,613,752,0
3840825,724.52,613,755,0
3840835,707.99,613,752,0
3840845,682.11,613,755,0
3840855,647.28,613,752,0
3840865,604.16,613,755,0
3840875,554.36,613,752,0
3840885,501.92,613,755,0
3840896,449.92,613,752,0
3840905,401.60,613,755,0
3840915,358.30,613,752,0
3840925,321.23,613,755,0
3840935,290.99,613,752,0
3840945,268.49,613,755,0
3840955,253.34,613,752,0
3840965,245.48,613,754,0
3840975,244.05,613,752,0
3840985,248.41,613,755,0
3840995,257.24,613,752,0
3841005,269.77,613,754,0
3841015,284.67,613,752,0
3841025,301.18,613,755,0
3841035,318.01,613,752,0
3841045,334.55,613,754,0
3841055,349.99,613,752,0
3841065,364.05,613,755,0
3841075,376.03,613,752,0
3841085,386.01,613,755,0
3841095,393.68,613,752,0
3841105,399.30,613,755,0
3841115,402.64,613,752,0
3841125,404.08,613,755,0
3841135,403.75,613,752,0
3841145,402.07,613,755,0
3841155,399.26,613,752,0
3841165,395.93,613,755,0
3841175,392.22,613,752,0
3841185,388.55,613,755,0
3841196,385.13,613,752,0
3841206,381.79,613,754,0
3841216,378.85,613,752,0
3841226,375.90,613,754,0
3841236,373.23,613,753,0
3841246,370.59,613,755,0
3841256,368.27,613,752,0
3841266,366.73,613,755,0
3841276,368.01,613,752,0
3841286,373.24,613,755,0
3841296,385.08,613,752,0
3841306,405.11,613,755,0
3841316,435.16,613,753,0
3841326,472.96,613,755,0
3841336,515.66,613,753,0
3841346,559.90,613,755,0
3841356,603.13,613,753,0
3841367,642.18,613,754,0
3841386,674.44,603,753,0
3841389,698.01,603,755,0
3841398,714.55,603,753,0
3841409,724.33,603,754,0
3841419,727.01,603,753,0
3841429,720.54,603,754,0
3841439,705.29,603,753,0
3841449,680.22,603,753,0
3841459,646.90,603,753,0
3841469,604.76,603,754,0
3841479,557.43,603,754,0
3841489,506.47,603,753,0
3841499,457.26,603,753,0
3841509,410.17,603,754,0
3841519,368.97,603,753,0
3841529,332.51,603,753,0
3841539,303.69,603,753,0
3841549,280.81,603,754,0
3841559,266.12,603,753,0
3841569,257.04,603,754,0
3841580,255.27,603,753,0
3841590,257.93,603,753,0
3841600,266.27,603,753,0
3841610,277.20,603,753,0
3841620,291.93,603,754,0
3841630,307.29,603,753,0
3841640,324.39,603,753,0
3841650,340.34,603,753,0
3841660,356.61,603,753,0
3841670,370.61,603,753,0
3841680,383.84,603,753,0
3841690,393.75,603,753,0
3841700,402.40,603,753,0
3841710,407.76,603,753,0
3841720,411.86,603,753,0
3841730,412.72,603,753,0
3841740,412.63,603,753,0
3841751,410.00,603,752,0
3841761,407.30,603,754,0
3841771,402.84,603,752,0
3841781,399.07,603,754,0
3841792,394.29,603,752,0
3841801,390.99,603,754,0
3841811,387.05,603,752,0
3841821,384.72,603,754,0
3841831,382.10,603,752,0
3841841,381.30,603,754,0
3841851,380.61,603,752,0
3841861,383.13,603,754,0
3841871,388.58,603,752,0
3841881,400.96,603,754,0
3841891,420.39,603,752,0
3841901,450.14,603,754,0
3841911,486.40,603,752,0
3841921,527.64,603,754,0
3841931,570.09,603,752,0
3841941,611.76,603,755,0
3841951,648.99,603,752,0
3841961,680.02,603,755,0
3841971,702.04,603,752,0
3841990,717.50,604,750,0
3841993,728.28,604,752,0
3842002,735.87,604,755,0
3842012,737.79,604,752,0
3842022,732.97,604,754,0
3842032,719.01,604,752,0
3842042,696.21,604,754,0
3842052,664.17,604,752,0
3842062,624.09,604,754,0
3842072,575.64,604,752,0
3842082,523.72,604,755,0
3842092,470.53,604,752,0
3842102,420.83,604,754,0
3842112,375.11,604,752,0
3842122,336.03,604,755,0
3842132,303.15,604,752,0
3842142,278.63,604,754,0
3842152,261.09,604,752,0
3842162,251.89,604,755,0
3842172,248.97,604,752,0
3842182,253.09,604,754,0
3842192,261.42,604,752,0
3842202,274.41,604,755,0
3842212,289.37,604,752,0
3842222,306.96,604,754,0
3842232,324.24,604,752,0
3842242,341.91,604,755,0
3842252,357.67,604,752,0
3842263,372.60,604,755,0
3842273,384.72,604,751,0
3842283,395.17,604,755,0
3842293,402.36,604,752,0
3842304,407.74,604,754,0
3842313,410.18,604,752,0
3842323,411.15,604,755,0
3842333,409.82,604,751,0
3842343,407.52,604,755,0
3842353,403.55,604,751,0
3842363,399.44,604,755,0
3842373,394.42,604,751,0
3842383,389.67,604,755,0
3842393,384.41,604,751,0
3842403,380.00,604,755,0
3842413,375.54,604,752,0
3842423,372.12,604,755,0
3842433,368.83,604,751,0
3842443,367.64,604,755,0
3842453,368.86,604,752,0
3842463,375.50,604,754,0
3842473,388.77,604,751,0
3842483,411.72,604,755,0
3842493,444.46,604,752,0
3842503,484.40,604,755,0
3842513,527.99,604,751,0
3842523,572.99,604,755,0
3842533,615.77,604,752,0
3842543,653.59,604,755,0
3842553,683.50,604,751,0
3842563,704.48,604,755,0
3842582,719.12,592,754,0
3842585,729.37,592,754,0
3842594,736.50,592,752,0
3842604,738.45,592,755,0
3842614,732.87,592,752,0
3842624,718.81,592,755,0
3842634,695.30,592,752,0
3842644,662.72,592,754,0
3842654,621.62,592,752,0
3842664,572.79,592,755,0
3842674,519.84,592,751,0
3842684,466.96,592,755,0
3842694,416.57,592,752,0
3842704,371.36,592,755,0
3842714,332.34,592,752,0
3842724,300.43,592,754,0
3842734,275.88,592,752,0
3842744,259.24,592,755,0
3842754,249.95,592,751,0
3842764,247.70,592,755,0
3842775,251.39,592,752,0
3842785,260.06,592,754,0
3842795,272.60,592,752,0
3842805,287.72,592,754,0
3842816,304.52,592,752,0
3842825,321.80,592,754,0
3842835,338.66,592,751,0
3842845,354.19,592,754,0
3842855,368.15,592,753,0
3842865,379.80,592,755,0
3842875,389.38,592,752,0
3842885,396.21,592,755,0
3842895,400.86,592,753,0
3842905,403.26,592,755,0
3842915,403.87,592,752,0
3842925,402.45,592,755,0
3842935,399.87,592,753,0
3842945,396.14,592,755,0
3842955,391.98,592,752,0
3842965,387.23,592,755,0
3842975,382.58,592,753,0
3842985,377.73,592,754,0
3842995,373.61,592,752,0
3843005,369.79,592,755,0
3843015,366.64,592,753,0
3843025,363.70,592,755,0
3843035,361.65,592,752,0
3843045,360.47,592,755,0
3843055,361.96,592,753,0
3843065,367.16,592,754,0
3843075,378.42,592,751,0
3843085,398.22,592,752,0
3843095,428.80,592,754,0
3843105,467.05,592,757,0
3843116,510.27,592,756,0
3843126,555.45,592,758,0
3843136,599.84,592,756,0
3843146,640.35,592,758,0
3843156,673.71,592,756,0
3843175,697.63,593,741,0
3843178,707.94,593,740,0
3843187,703.07,593,726,0
3843197,698.64,593,721,0
3843207,694.33,593,729,0
3843217,691.57,593,721,0
3843227,687.37,593,696,0
3843237,682.59,593,713,0
3843247,685.16,593,743,0
3843257,698.44,593,731,0
3843267,708.33,593,739,0
3843277,715.56,593,751,0
3843287,720.62,593,720,0
3843297,724.89,593,715,0
3843307,729.13,593,736,0
3843317,731.23,593,702,0
3843328,731.16,593,700,0
3843337,730.21,593,720,0
3843347,728.78,593,715,0
3843357,725.72,593,710,0
3843367,723.27,593,710,0
3843377,720.23,593,709,0
3843387,717.59,593,708,0
3843397,716.00,593,707,0
3843407,714.33,593,707,0
3843417,712.94,593,709,0
3843427,711.93,593,710,0
3843437,711.22,593,710,0
3843447,710.86,593,714,0
3843457,710.77,593,714,0
3843467,710.88,593,714,0
3843477,711.09,593,713,0
3843487,711.32,593,713,0
3843497,711.35,593,708,0
3843507,711.33,593,709,0
3843517,711.19,593,710,0
3843527,710.96,593,711,0
3843537,710.67,593,711,0
3843547,710.39,593,711,0
3843557,710.10,593,711,0
3843567,709.98,593,711,0
3843577,709.95,593,711,0
3843587,709.92,593,712,0
3843597,709.94,593,711,0
3843607,709.96,593,712,0
3843617,710.02,593,712,0
3843628,710.10,593,712,0
3843638,710.24,593,712,0
3843648,706.91,593,712,0
3843658,698.07,593,713,0
3843668,681.59,593,712,0
3843678,658.44,593,712,0
3843688,630.24,593,712,0
3843698,600.34,593,712,0
3843708,571.05,593,712,0
3843718,548.71,593,712,0
3843728,536.67,593,712,0
3843738,538.31,593,713,0
3843748,551.12,593,713,0
3843758,572.12,593,712,0
3843768,596.99,593,712,0
3843778,622.79,593,713,0
3843788,645.23,593,713,0
3843799,661.83,593,713,0
3843809,669.21,593,712,0
3843819,668.42,593,713,0
3843829,659.16,593,712,0
3843840,642.61,593,713,0
3843849,618.69,593,712,0
3843859,589.60,593,713,0
3843869,555.86,593,712,0
3843879,520.59,593,713,0
3843889,484.20,593,712,0
3843899,449.38,593,712,0
3843909,416.31,593,712,0
3843919,387.29,593,713,0
3843929,361.70,593,711,0
3843939,341.31,593,712,0
3843949,324.97,593,712,0
3843959,313.92,593,712,0
3843969,307.00,593,711,0
3843979,304.77,593,712,0
3843989,305.23,593,712,0
3843999,309.06,593,712,0
3844009,314.70,593,711,0
3844019,323.06,593,712,0
3844029,332.43,593,712,0
3844039,343.40,593,712,0
3844049,354.08,593,711,0
3844059,365.16,593,712,0
3844069,375.05,593,711,0
3844079,384.64,593,712,0
3844089,392.20,593,710,0
3844099,398.70,593,712,0
3844109,403.03,593,712,0
3844119,406.49,593,712,0
3844129,407.20,593,710,0
3844140,406.50,593,712,0
3844150,404.04,593,711,0
3844160,401.32,593,712,0
3844170,397.80,593,711,0
3844180,394.26,593,713,0
3844190,389.68,593,712,0
3844200,385.83,593,713,0
3844210,381.34,593,711,0
3844220,376.57,593,713,0
3844230,370.57,593,712,0
3844240,364.18,593,713,0
3844250,356.76,593,711,0
3844260,350.10,593,713,0
3844270,343.64,593,712,0
3844280,339.04,593,714,0
3844290,335.25,593,711,0
3844300,333.42,593,714,0
3844311,332.95,593,712,0
3844321,335.88,593,714,0
3844331,342.00,593,711,0
3844341,354.09,593,714,0
3844352,372.75,593,712,0
3844361,399.99,593,714,0
3844371,434.80,593,712,0
3844381,474.76,593,714,0
3844391,516.53,593,712,0
3844410,558.07,0,711,0
3844412,596.11,0,712,0
3844422,628.56,0,714,0
3844432,653.59,0,712,0
3844442,671.16,0,714,0
3844452,683.02,0,711,0
3844462,688.55,0,714,0
3844472,686.58,0,712,0
3844482,677.24,0,714,0
3844492,659.85,0,712,0
3844502,634.74,0,714,0
3844512,601.69,0,712,0
3844523,561.80,0,714,0
3844532,517.80,0,712,0
3844542,473.16,0,715,0
3844552,429.10,0,712,0
3844562,388.27,0,714,0
3844572,351.46,0,712,0
3844582,320.55,0,714,0
3844592,295.91,0,712,0
3844602,285.44,0,724,0
3844612,282.09,0,720,0
3844622,279.92,0,722,0
3844632,275.02,0,720,0
3844642,266.48,0,722,0
3844652,253.95,0,720,0
3844662,238.28,0,722,0
3844672,212.87,0,719,0
3844682,185.65,0,722,0
3844692,163.60,0,719,0
3844702,150.52,0,721,0
3844712,147.32,0,719,0
3844722,154.04,0,722,0
3844732,169.16,0,719,0
3844742,190.92,0,721,0
3844752,216.83,0,719,0
3844762,245.77,0,721,0
3844772,276.14,0,719,0
3844782,306.31,0,721,0
3844792,334.07,0,719,0
3844802,358.48,0,722,0
3844812,378.65,0,719,0
3844823,394.66,0,721,0
3844833,405.64,0,720,0
3844843,411.62,0,721,0
3844853,413.36,0,719,0
3844864,412.01,0,721,0
3844873,408.32,0,720,0
3844883,403.13,0,722,0
3844893,396.66,0,720,0
3844903,389.65,0,722,0
3844913,382.42,0,720,0
3844923,375.48,0,722,0
3844933,369.00,0,720,0
3844943,363.34,0,721,0
3844953,359.25,0,720,0
3844963,358.32,0,721,0
3844973,362.12,0,720,0
3844983,372.67,0,721,0
3844993,391.24,0,720,0
3845003,419.11,0,722,0
3845013,454.48,0,720,0
3845023,494.58,0,722,0
3845033,536.36,0,720,0
3845043,576.97,0,722,0
3845053,613.53,0,720,0
3845063,643.97,0,721,0
3845073,666.48,0,720,0
3845083,682.24,0,721,0
3845093,693.18,0,720,0
3845103,699.04,0,721,0
3845113,698.34,0,720,0
3845123,690.48,0,721,0
3845142,674.70,732,720,0
3845145,650.40,732,721,0
3845154,618.52,732,720,0
3845164,579.50,732,721,0
3845174,535.63,732,720,0
3845184,490.06,732,721,0
3845194,445.21,732,720,0
3845204,403.23,732,721,0
3845214,366.18,732,719,0
3845224,334.62,732,721,0
3845234,309.49,732,720,0
3845244,290.66,732,721,0
3845254,278.38,732,720,0
3845264,272.13,732,720,0
3845274,271.71,732,720,0
3845284,276.12,732,721,0
3845294,284.32,732,720,0
3845304,294.98,732,720,0
3845314,307.71,732,720,0
3845324,321.56,732,721,0
3845335,335.83,732,720,0
3845345,349.43,732,720,0
3845355,362.16,732,720,0
3845365,373.25,732,721,0
3845376,382.78,732,720,0
3845385,390.39,732,720,0
3845395,396.14,732,720,0
3845405,399.66,732,721,0
3845415,401.43,732,720,0
3845425,408.63,732,737,0
3845435,428.07,732,747,0
3845445,437.09,732,748,0
3845455,425.96,732,747,0
3845465,400.77,732,748,0
3845475,366.26,732,749,0
3845485,325.29,732,750,0
3845495,272.83,732,748,0
3845505,204.10,732,749,0
3845515,142.87,732,747,0
3845525,100.01,732,750,0
3845535,70.01,732,749,0
3845545,49.00,732,750,0
3845555,34.30,732,750,0
3845565,24.01,732,751,0
3845575,16.81,732,748,0
3845585,11.77,732,746,0
3845595,8.24,732,746,0
3845605,5.77,732,752,0
3845615,4.04,732,751,0
3845625,2.82,732,752,0
3845635,1.98,732,750,0
3845645,6.23,732,753,0
3845655,22.74,732,751,0
3845665,53.21,732,752,0
3845676,98.57,732,750,0
3845686,159.77,732,753,0
3845696,233.94,732,751,0
3845706,317.92,732,751,0
3845716,404.00,732,752,0
3845726,482.26,732,752,0
3845736,548.82,732,751,0
3845746,599.32,732,752,0
3845756,631.28,732,751,0
3845766,645.47,732,752,0
3845776,644.26,732,751,0
3845786,629.56,732,752,0
3845796,604.71,732,752,0
3845806,570.98,732,753,0
3845816,532.16,732,752,0
3845826,489.30,732,756,0
3845836,445.19,732,753,0
3845847,400.74,732,754,0
3845857,357.61,732,754,0
3845867,314.83,732,754,0
3845877,274.64,732,754,0
3845888,236.95,732,753,0
3845897,204.35,732,754,0
3845907,176.82,732,754,0
3845917,156.56,732,754,0
3845927,142.98,732,754,0
3845937,138.14,732,754,0
3845947,140.46,732,754,0
3845957,151.25,732,753,0
3845967,167.63,732,754,0
3845977,189.94,732,754,0
3845987,215.03,732,754,0
3845997,243.56,732,754,0
3846007,272.62,732,754,0
3846017,302.61,732,754,0
3846027,330.45,732,753,0
3846037,357.02,732,754,0
3846047,379.60,732,754,0
3846057,399.39,732,754,0
3846067,414.02,732,754,0
3846077,425.28,732,754,0
3846087,431.58,732,754,0
3846097,435.01,732,754,0
3846107,434.28,732,754,0
3846117,432.01,732,754,0
3846127,426.82,732,754,0
3846137,421.56,732,755,0
3846147,414.79,732,754,0
3846157,408.77,732,754,0
3846167,401.94,732,754,0
3846177,396.47,732,754,0
3846188,390.54,732,754,0
3846198,386.22,732,756,0
3846208,381.36,732,754,0
3846218,377.91,732,755,0
3846228,375.06,732,754,0
3846238,375.99,732,754,0
3846248,380.79,732,755,0
3846258,393.80,732,758,0
3846268,415.37,732,756,0
3846278,447.53,732,758,0
3846288,486.24,732,753,0
3846298,529.41,732,757,0
3846308,573.35,732,754,0
3846318,615.93,732,756,0
3846328,653.02,732,755,0
3846338,682.76,732,759,0
3846348,703.57,732,756,0
3846359,718.14,732,755,0
3846378,728.34,0,754,0
3846380,735.53,0,756,0
3846390,740.55,0,754,0
3846401,741.25,0,755,0
3846411,735.09,0,753,0
3846421,721.56,0,756,0
3846431,699.53,0,753,0
3846441,669.67,0,755,0
3846451,632.06,0,753,0
3846461,587.98,0,755,0
3846471,540.67,0,754,0
3846481,494.66,0,755,0
3846491,451.52,0,753,0
3846501,414.25,0,756,0
3846511,382.93,0,756,0
3846521,358.87,0,755,0
3846531,341.16,0,753,0
3846541,330.61,0,755,0
3846551,325.59,0,753,0
3846561,326.05,0,756,0
3846572,330.19,0,753,0
3846582,337.59,0,755,0
3846592,346.67,0,753,0
3846602,356.97,0,754,0
3846612,367.14,0,754,0
3846622,376.91,0,755,0
3846632,385.12,0,754,0
3846642,391.73,0,755,0
3846652,396.22,0,754,0
3846662,398.86,0,755,0
3846672,399.29,0,754,0
3846682,397.70,0,754,0
3846692,394.15,0,754,0
3846702,389.30,0,755,0
3846712,383.13,0,754,0
3846722,376.06,0,754,0
3846732,368.20,0,754,0
3846743,360.25,0,755,0
3846753,352.46,0,754,0
3846763,345.04,0,754,0
3846773,338.17,0,754,0
3846784,331.99,0,755,0
3846793,326.85,0,754,0
3846803,322.57,0,754,0
3846813,319.35,0,754,0
3846823,316.72,0,755,0
3846833,315.13,0,754,0
3846843,314.02,0,755,0
3846853,313.80,0,754,0
3846863,313.82,0,755,0
3846873,314.99,0,754,0
3846883,318.08,0,755,0
3846893,325.51,0,754,0
3846903,338.94,0,755,0
3846913,360.77,0,753,0
3846923,392.30,0,755,0
3846933,433.05,0,753,0
3846943,479.45,0,755,0
3846953,528.39,0,753,0
3846972,576.36,594,752,0
3846975,620.35,594,755,0
3846984,657.53,594,755,0
3846994,685.87,594,754,0
3847004,705.67,594,755,0
3847014,719.52,594,753,0
3847024,727.55,594,755,0
3847034,728.76,594,754,0
3847044,721.76,594,755,0
3847054,706.23,594,753,0
3847064,681.39,594,755,0
3847074,648.06,594,753,0
3847084,606.21,594,755,0
3847094,558.62,594,753,0
3847104,507.86,594,755,0
3847114,457.76,594,754,0
3847124,409.70,594,754,0
3847134,366.64,594,753,0
3847144,328.56,594,755,0
3847154,297.02,594,754,0
3847164,271.17,594,754,0
3847174,251.96,594,753,0
3847184,237.79,594,755,0
3847194,229.24,594,754,0
3847204,224.32,594,754,0
3847214,223.63,594,753,0
3847224,225.75,594,755,0
3847234,231.66,594,753,0
3847244,239.90,594,754,0
3847255,251.46,594,753,0
3847265,264.69,594,754,0
3847275,280.64,594,754,0
3847285,297.34,594,754,0
3847296,315.36,594,753,0
3847305,332.48,594,754,0
3847315,349.27,594,754,0
3847325,363.50,594,754,0
3847335,375.91,594,753,0
3847345,384.68,594,754,0
3847355,390.86,594,753,0
3847365,392.92,594,754,0
3847375,392.56,594,753,0
3847385,388.79,594,754,0
3847395,383.58,594,754,0
3847405,376.25,594,754,0
3847415,368.80,594,753,0
3847425,360.72,594,754,0
3847435,353.86,594,754,0
3847445,347.17,594,754,0
3847455,342.28,594,753,0
3847465,338.00,594,754,0
3847475,335.90,594,753,0
3847485,334.38,594,754,0
3847495,334.61,594,753,0
3847505,334.99,594,754,0
3847515,336.83,594,753,0
3847525,338.43,594,754,0
3847535,341.21,594,753,0
3847545,344.19,594,754,0
3847555,349.71,594,753,0
3847565,358.19,594,754,0
3847575,373.01,594,753,0
3847585,394.86,594,754,0
3847596,426.66,594,753,0
3847606,465.51,594,754,0
3847616,509.07,594,753,0
3847626,554.00,594,754,0
3847636,598.02,594,753,0
3847655,637.61,683,752,0
3847658,670.73,683,755,0
3847667,694.85,683,752,0
3847677,711.74,683,755,0
3847687,723.56,683,753,0
3847697,730.21,683,754,0
3847707,729.33,683,752,0
3847717,720.62,683,754,0
3847727,702.82,683,753,0
3847737,676.47,683,753,0
3847747,641.10,683,752,0
3847757,597.83,683,754,0
3847767,548.38,683,753,0
3847777,497.65,683,753,0
3847787,447.06,683,752,0
3847797,400.24,683,754,0
3847808,357.48,683,751,0
3847817,321.29,683,753,0
3847827,291.12,683,752,0
3847837,268.58,683,753,0
3847847,252.42,683,751,0
3847857,243.64,683,753,0
3847867,240.32,683,751,0
3847877,243.09,683,753,0
3847887,250.14,683,751,0
3847897,262.18,683,753,0
3847907,276.31,683,751,0
3847917,292.29,683,752,0
3847927,306.47,683,749,0
3847937,320.22,683,749,0
3847947,335.20,683,748,0
3847957,354.17,683,750,0
3847967,375.46,683,749,0
3847977,397.05,683,750,0
3847987,417.01,683,749,0
3847997,437.70,683,750,0
3848007,456.01,683,749,0
3848017,470.88,683,752,0
3848027,477.30,683,750,0
3848037,474.64,683,751,0
3848047,464.72,683,748,0
3848057,450.62,683,749,0
3848067,434.32,683,749,0
3848077,420.59,683,751,0
3848087,406.49,683,750,0
3848097,393.96,683,751,0
3848108,382.65,683,748,0
3848118,375.17,683,751,0
3848128,370.41,683,749,0
3848138,366.73,683,750,0
3848148,360.72,683,748,0
3848158,355.62,683,752,0
3848168,350.76,683,749,0
3848178,347.62,683,751,0
3848188,345.59,683,749,0
3848198,345.84,683,753,0
3848208,346.79,683,751,0
3848218,347.88,683,751,0
3848228,349.20,683,748,0
3848238,354.28,683,751,0
3848248,366.71,683,748,0
3848258,388.87,683,750,0
3848268,420.24,683,748,0
3848279,459.00,683,751,0
3848289,504.00,683,749,0
3848299,551.57,683,752,0
3848309,598.03,683,746,0
3848320,639.16,683,751,0
3848329,671.60,683,748,0
3848339,694.43,683,753,0
3848349,710.37,683,747,0
3848359,721.49,683,751,0
3848369,726.74,683,748,0
3848379,725.66,683,751,0
3848389,715.61,683,747,0
3848399,696.74,683,751,0
3848418,668.96,763,750,0
3848421,632.16,763,752,0
3848430,587.24,763,747,0
3848440,537.75,763,751,0
3848450,485.88,763,748,0
3848460,437.28,763,753,0
3848470,390.74,763,746,0
3848480,347.40,763,748,0
3848491,313.17,763,745,0
3848500,290.40,763,750,0
3848510,278.54,763,746,0
3848520,276.41,763,750,0
3848530,277.87,763,744,0
3848540,285.54,763,747,0
3848550,301.66,763,746,0
3848560,323.41,763,750,0
3848570,344.07,763,745,0
3848580,362.09,763,748,0
3848590,379.64,763,742,0
3848600,400.87,763,748,0
3848610,424.35,763,748,0
3848620,444.01,763,750,0
3848630,453.82,763,745,0
3848640,461.46,763,753,0
3848650,463.85,763,750,0
3848660,456.31,763,753,0
3848670,437.79,763,750,0
3848680,409.22,763,754,0
3848690,374.40,763,750,0
3848700,338.19,763,754,0
3848710,298.11,763,750,0
3848720,260.23,763,754,0
3848730,229.05,763,750,0
3848740,206.66,763,754,0
3848750,193.35,763,750,0
3848760,189.64,763,754,0
3848770,194.34,763,750,0
3848780,206.19,763,753,0
3848791,223.49,763,750,0
3848801,244.64,763,753,0
3848811,268.19,763,750,0
3848821,292.52,763,753,0
3848832,312.17,763,745,0
3848841,331.57,763,750,0
3848851,355.87,763,750,0
3848861,386.77,763,754,0
3848871,415.47,763,748,0
3848881,442.24,763,747,0
3848891,475.34,763,747,0
3848901,516.29,763,749,0
3848911,558.55,763,748,0
3848921,595.28,763,750,0
3848931,623.74,763,748,0
3848941,652.32,763,748,0
3848951,680.42,763,749,0
3848961,700.23,763,751,0
3848971,714.17,763,749,0
3848981,724.02,763,752,0
3848991,730.83,763,747,0
3849001,735.68,763,751,0
3849011,739.16,763,749,0
3849021,738.17,763,750,0
3849031,731.90,763,749,0
3849041,717.40,763,752,0
3849051,692.21,763,748,0
3849061,658.12,763,752,0
3849071,614.37,763,749,0
3849081,559.62,763,750,0
3849091,500.42,763,749,0
3849101,441.53,763,752,0
3849111,388.10,763,749,0
3849121,342.39,763,751,0
3849132,303.44,763,750,0
3849142,272.54,763,752,0
3849152,252.02,763,750,0
3849162,238.90,763,752,0
3849172,230.79,763,751,0
3849182,225.58,763,752,0
3849192,224.25,763,750,0
3849202,226.32,763,752,0
3849212,231.92,763,750,0
3849222,240.05,763,752,0
3849232,250.96,763,750,0
3849242,263.57,763,752,0
3849252,278.53,763,750,0
3849262,294.44,763,753,0
3849272,311.88,763,751,0
3849282,328.85,763,753,0
3849292,344.96,763,751,0
3849303,358.35,763,753,0
3849313,369.13,763,751,0
3849323,376.03,763,752,0
3849333,380.48,763,751,0
3849344,381.24,763,752,0
3849353,380.39,763,752,0
3849363,377.75,763,752,0
3849373,375.47,763,752,0
3849383,372.58,763,753,0
3849393,370.57,763,751,0
3849403,368.04,763,752,0
3849413,366.27,763,752,0
3849423,363.92,763,753,0
3849433,362.31,763,751,0
3849443,360.38,763,752,0
3849453,359.45,763,752,0
3849463,358.29,763,752,0
3849473,358.20,763,751,0
3849483,358.14,763,753,0
3849493,360.11,763,752,0
3849503,364.06,763,753,0
3849513,373.00,763,752,0
3849523,387.62,763,753,0
3849533,411.30,763,752,0
3849543,444.08,763,753,0
3849553,483.70,763,752,0
3849563,526.56,763,753,0
3849573,570.66,763,751,0
3849583,612.42,763,753,0
3849593,649.84,763,752,0
3849612,679.59,1194,750,0
3849615,700.67,1194,753,0
3849624,715.42,1194,753,0
3849634,725.80,1194,752,0
3849644,733.02,1194,753,0
3849654,735.37,1194,752,0
3849664,730.29,1194,753,0
3849674,717.17,1194,752,0
3849684,694.66,1194,752,0
3849694,663.78,1194,752,0
3849704,624.12,1194,753,0
3849714,577.02,1194,752,0
3849724,525.07,1194,752,0
3849734,473.32,1194,752,0
3849744,423.04,1194,752,0
3849754,377.73,1194,752,0
3849764,337.35,1194,752,0
3849774,304.50,1194,751,0
3849784,278.38,1194,752,0
3849794,260.61,1194,751,0
3849804,249.24,1194,752,0
3849815,245.83,1194,751,0
3849825,248.45,1194,752,0
3849835,257.19,1194,751,0
3849845,269.04,1194,752,0
3849856,284.16,1194,752,0
3849865,300.05,1194,752,0
3849875,317.40,1194,751,0
3849885,333.52,1194,751,0
3849895,348.71,1194,751,0
3849905,361.52,1194,751,0
3849915,373.19,1194,751,0
3849925,383.76,1194,750,0
3849935,393.61,1194,748,0
3849945,401.18,1194,740,0
3849955,415.18,1194,756,0
3849965,426.66,1194,756,0
3849975,432.07,1194,755,0
3849985,428.37,1194,756,0
3849995,415.14,1194,756,0
3850005,392.77,1194,756,0
3850015,364.47,1194,755,0
3850025,323.61,1194,755,0
3850035,281.82,1194,755,0
3850045,244.16,1194,755,0
3850055,215.61,1194,754,0
3850065,190.01,1194,749,0
3850075,184.14,1194,755,0
3850085,195.32,1194,755,0
3850095,218.76,1194,754,0
3850105,244.11,1194,751,0
3850115,275.58,1194,754,0
3850125,309.65,1194,751,0
3850135,351.45,1194,750,0
3850145,388.73,1194,755,0
3850156,419.80,1194,756,0
3850166,445.79,1194,754,0
3850176,472.89,1194,753,0
3850186,499.84,1194,749,0
3850196,530.45,1194,753,0
3850206,563.53,1194,754,0
3850216,593.24,1194,755,0
3850226,620.64,1194,753,0
3850236,647.49,1194,755,0
3850246,674.56,1194,753,0
3850256,697.62,1194,755,0
3850266,713.89,1194,753,0
3850276,725.28,1194,755,0
3850286,733.21,1194,753,0
3850296,735.16,1194,751,0
3850306,729.54,1194,750,0
3850316,721.32,1194,753,0
3850327,708.03,1194,751,0
3850337,688.73,1194,753,0
3850347,661.98,1194,751,0
3850357,628.09,1194,754,0
3850368,590.09,1194,751,0
3850377,551.36,1194,753,0
3850387,507.54,1194,751,0
3850397,462.81,1194,753,0
3850407,418.94,1194,750,0
3850417,379.27,1194,752,0
3850427,343.83,1194,749,0
3850437,313.07,1194,749,0
3850447,290.80,1194,747,0
3850457,280.32,1194,749,0
3850467,280.61,1194,745,0
3850477,293.50,1194,751,0
3850487,314.78,1194,747,0
3850497,343.90,1194,750,0
3850507,378.65,1194,748,0
3850517,412.18,1194,750,0
3850527,440.33,1194,748,0
3850537,461.66,1194,750,0
3850547,472.26,1194,746,0
3850557,475.35,1194,749,0
3850567,471.13,1194,745,0
3850577,463.38,1194,748,0
3850587,454.78,1194,746,0
3850597,448.80,1194,750,0
3850607,443.33,1194,747,0
3850617,439.38,1194,750,0
3850627,435.58,1194,747,0
3850637,433.13,1194,751,0
3850647,429.75,1194,749,0
3850657,423.31,1194,752,0
3850668,409.55,1194,749,0
3850678,392.03,1194,752,0
3850688,370.76,1194,748,0
3850698,346.45,1194,750,0
3850708,322.53,1194,744,0
3850718,301.67,1194,751,0
3850728,287.15,1194,748,0
3850738,280.89,1194,752,0
3850748,280.88,1194,748,0
3850758,287.86,1194,752,0
3850768,300.67,1194,748,0
3850778,315.00,1194,752,0
3850788,328.80,1194,748,0
3850798,340.30,1194,752,0
3850808,349.38,1194,749,0
3850818,359.17,1194,752,0
3850828,370.90,1194,747,0
3850839,389.62,1194,752,0
3850849,417.03,1194,749,0
3850859,452.34,1194,752,0
3850869,492.82,1194,749,0
3850880,536.50,1194,752,0
3850889,580.62,1194,749,0
3850899,622.82,1194,752,0
3850909,658.49,1194,749,0
3850919,685.34,1194,752,0
3850929,704.10,1194,749,0
3850939,717.23,1194,752,0
3850949,726.03,1194,749,0
3850959,728.76,1194,752,0
3850969,724.08,1194,748,0
3850979,711.50,1194,752,0
3850989,690.52,1194,749,0
3850999,661.31,1194,752,0
3851009,624.14,1194,750,0
3851019,579.19,1194,753,0
3851029,529.76,1194,750,0
3851039,478.70,1194,753,0
3851049,428.26,1194,751,0
3851059,379.67,1194,753,0
3851069,334.77,1194,749,0
3851079,295.28,1194,753,0
3851089,263.31,1194,750,0
3851099,239.17,1194,753,0
3851109,223.14,1194,749,0
3851119,215.21,1194,753,0
3851129,215.49,1194,750,0
3851139,223.70,1194,754,0
3851149,237.03,1194,751,0
3851159,252.79,1194,753,0
3851169,270.00,1194,751,0
3851180,287.66,1194,754,0
3851190,304.35,1194,751,0
3851200,319.16,1194,753,0
3851210,331.02,1194,751,0
3851220,340.49,1194,753,0
3851230,348.83,1194,750,0
3851240,356.21,1194,753,0
3851250,362.92,1194,751,0
3851260,369.16,1194,753,0
3851270,375.49,1194,750,0
3851280,381.22,1194,752,0
3851290,387.15,1194,751,0
3851300,391.99,1194,753,0
3851310,395.94,1194,750,0
3851320,398.31,1194,753,0
3851330,399.21,1194,751,0
3851340,398.07,1194,753,0
3851351,395.69,1194,751,0
3851361,391.50,1194,753,0
3851371,387.02,1194,751,0
3851381,381.87,1194,753,0
3851392,377.45,1194,751,0
3851401,373.29,1194,753,0
3851411,370.20,1194,751,0
3851421,367.27,1194,753,0
3851431,365.22,1194,751,0
3851441,363.05,1194,753,0
3851451,361.84,1194,751,0
3851461,360.26,1194,753,0
3851471,360.01,1194,751,0
3851481,360.48,1194,753,0
3851491,363.46,1194,751,0
3851501,369.58,1194,753,0
3851511,381.79,1194,751,0
3851521,400.84,1194,753,0
3851531,429.13,1194,751,0
3851541,464.83,1194,753,0
3851551,505.73,1194,751,0
3851561,548.79,1194,753,0
3851580,591.63,0,752,0
3851583,630.83,0,754,0
3851592,664.43,0,752,0
3851602,690.02,0,752,0
3851612,707.93,0,752,0
3851622,720.21,0,753,0
3851632,725.84,0,752,0
3851642,723.02,0,752,0
3851652,712.09,0,751,0
3851662,691.79,0,752,0
3851672,663.01,0,751,0
3851682,625.38,0,752,0
3851692,580.74,0,751,0
3851702,531.74,0,752,0
3851712,482.92,0,751,0
3851722,435.46,0,752,0
3851732,392.85,0,752,0
3851742,354.84,0,752,0
3851752,323.60,0,752,0
3851762,297.88,0,752,0
3851772,279.27,0,751,0
3851782,266.38,0,752,0
3851792,259.92,0,752,0
3851802,258.02,0,752,0
3851812,261.61,0,751,0
3851822,268.58,0,752,0
3851832,279.55,0,751,0
3851842,292.37,0,751,0
3851852,307.77,0,751,0
3851863,323.36,0,751,0
3851873,339.75,0,751,0
3851883,356.07,0,751,0
3851893,372.68,0,752,0
3851904,387.00,0,752,0
3851913,399.64,0,752,0
3851923,408.54,0,751,0
3851933,415.28,0,751,0
3851943,418.66,0,752,0
3851953,419.41,0,752,0
3851963,416.76,0,752,0
3851973,412.93,0,752,0
3851983,406.91,0,752,0
3851993,400.64,0,752,0
3852003,392.99,0,752,0
3852013,385.53,0,752,0
3852023,376.72,0,753,0
3852033,368.53,0,752,0
3852043,360.10,0,752,0
3852053,353.64,0,752,0
3852063,348.05,0,753,0
3852073,344.86,0,753,0
3852083,342.63,0,753,0
3852093,342.87,0,752,0
3852103,343.85,0,753,0
3852113,346.77,0,753,0
3852123,349.71,0,753,0
3852133,353.78,0,752,0
3852143,357.49,0,753,0
3852153,362.96,0,753,0
3852163,369.74,0,753,0
3852173,381.13,0,752,0
3852183,397.98,0,753,0
3852193,423.83,0,753,0
3852204,457.74,0,753,0
3852214,497.59,0,753,0
3852224,539.97,0,752,0
3852234,583.18,0,754,0
3852254,623.62,673,752,0
3852257,659.18,673,755,0
3852266,686.55,673,751,0
3852276,705.76,673,754,0
3852286,719.16,673,751,0
3852296,728.58,673,754,0
3852306,734.02,673,752,0
3852316,733.72,673,755,0
3852326,725.23,673,751,0
3852336,708.49,673,754,0
3852346,682.37,673,751,0
3852356,647.80,673,755,0
3852366,604.62,673,751,0
3852376,555.36,673,754,0
3852386,502.97,673,751,0
3852396,452.06,673,754,0
3852406,403.74,673,751,0
3852417,361.18,673,755,0
3852427,324.52,673,751,0
3852437,295.52,673,755,0
3852447,273.51,673,751,0
3852457,259.47,673,755,0
3852467,252.22,673,751,0
3852477,251.98,673,755,0
3852487,256.96,673,751,0
3852497,266.74,673,755,0
3852507,279.55,673,751,0
3852517,294.98,673,755,0
3852527,311.40,673,751,0
3852537,328.30,673,755,0
3852547,344.24,673,751,0
3852557,359.38,673,755,0
3852567,372.51,673,751,0
3852577,383.88,673,755,0
3852588,392.75,673,751,0
3852598,399.51,673,754,0
3852608,403.98,673,751,0
3852618,406.69,673,754,0
3852628,407.51,673,751,0
3852638,407.27,673,754,0
3852648,405.82,673,751,0
3852658,403.64,673,754,0
3852668,400.84,673,751,0
3852678,397.80,673,754,0
3852688,394.52,673,751,0
3852698,390.98,673,754,0
3852708,387.34,673,751,0
3852718,383.85,673,754,0
3852728,380.60,673,751,0
3852738,377.50,673,754,0
3852748,374.78,673,751,0
3852759,372.66,673,754,0
3852769,371.31,673,751,0
3852779,370.27,673,754,0
3852789,369.85,673,752,0
3852800,369.55,673,754,0
3852809,370.07,673,751,0
3852819,371.68,673,753,0
3852829,376.10,673,752,0
3852839,384.69,673,754,0
3852849,399.95,673,751,0
3852859,423.58,673,754,0
3852869,456.58,673,752,0
3852879,495.53,673,754,0
3852889,537.97,673,752,0
3852908,580.75,655,750,0
3852911,621.41,655,753,0
3852920,657.03,655,754,0
3852930,685.14,655,752,0
3852940,704.81,655,753,0
3852950,718.62,655,752,0
3852960,728.25,655,754,0
3852971,734.95,655,752,0
3852980,736.12,655,753,0
3852990,730.43,655,752,0
3853000,716.20,655,753,0
3853010,693.60,655,752,0
3853020,662.39,655,753,0
3853030,623.27,655,752,0
3853040,576.30,655,753,0
3853050,526.28,655,752,0
3853060,475.63,655,753,0
3853070,427.91,655,752,0
3853080,384.01,655,754,0
3853090,345.91,655,752,0
3853100,313.75,655,753,0
3853110,288.92,655,752,0
3853120,270.65,655,754,0
3853130,259.78,655,752,0
3853140,254.83,655,753,0
3853150,256.00,655,752,0
3853160,261.31,655,753,0
3853170,270.95,655,752,0
3853180,282.96,655,753,0
3853190,297.50,655,752,0
3853200,312.48,655,753,0
3853210,328.15,655,752,0
3853220,342.68,655,753,0
3853230,356.79,655,752,0
3853240,368.94,655,753,0
3853250,379.88,655,752,0
3853260,388.15,655,753,0
3853271,394.79,655,752,0
3853281,398.80,655,753,0
3853291,401.64,655,752,0
3853301,402.18,655,753,0
3853312,401.70,655,752,0
3853321,399.43,655,753,0
3853331,396.90,655,752,0
3853341,393.12,655,753,0
3853351,389.61,655,752,0
3853361,385.31,655,753,0
3853371,381.70,655,752,0
3853381,377.55,655,753,0
3853391,374.51,655,752,0
3853401,371.32,655,753,0
3853411,369.46,655,752,0
3853421,367.61,655,753,0
3853431,367.08,655,752,0
3853441,366.46,655,753,0
3853451,367.09,655,752,0
3853461,367.15,655,753,0
3853471,367.96,655,752,0
3853481,368.19,655,753,0
3853491,369.59,655,752,0
3853501,371.90,655,753,0
3853511,378.23,655,752,0
3853521,389.47,655,753,0
3853531,409.00,655,752,0
3853541,437.33,655,753,0
3853551,473.70,655,753,0
3853561,514.64,655,753,0
3853580,557.99,672,752,0
3853583,600.21,672,753,0
3853592,638.97,672,753,0
3853602,671.08,672,753,0
3853612,694.97,672,753,0
3853622,711.65,672,753,0
3853632,723.33,672,753,0
3853642,731.50,672,753,0
3853652,735.81,672,753,0
3853662,733.59,672,753,0
3853672,724.12,672,753,0
3853682,705.65,672,753,0
3853692,678.80,672,753,0
3853702,643.25,672,753,0
3853712,600.06,672,752,0
3853722,550.63,672,753,0
3853732,499.95,672,753,0
3853742,449.74,672,753,0
3853752,403.83,672,752,0
3853762,362.31,672,753,0
3853772,327.72,672,753,0
3853783,299.30,672,753,0
3853793,279.07,672,753,0
3853803,265.38,672,753,0
3853813,259.35,672,754,0
3853824,258.82,672,752,0
3853833,264.49,672,753,0
3853843,273.64,672,753,0
3853853,286.91,672,754,0
3853863,301.50,672,752,0
3853873,318.07,672,753,0
3853883,333.95,672,753,0
3853893,350.08,672,754,0
3853903,364.28,672,752,0
3853913,377.57,672,753,0
3853923,388.03,672,753,0
3853933,397.02,672,754,0
3853943,402.93,672,752,0
3853953,407.41,672,753,0
3853963,408.96,672,753,0
3853973,409.31,672,754,0
3853983,407.16,672,752,0
3853993,404.37,672,754,0
3854003,399.89,672,753,0
3854013,395.72,672,754,0
3854023,390.23,672,753,0
3854033,385.02,672,754,0
3854043,378.71,672,753,0
3854053,373.06,672,754,0
3854063,366.70,672,753,0
3854073,361.17,672,754,0
3854083,354.99,672,753,0
3854093,350.28,672,754,0
3854103,345.70,672,753,0
3854113,343.00,672,754,0
3854124,340.94,672,752,0
3854134,340.88,672,755,0
3854144,341.21,672,752,0
3854154,343.12,672,754,0
3854164,345.10,672,752,0
3854174,348.84,672,755,0
3854184,353.73,672,752,0
3854194,362.38,672,755,0
3854204,375.55,672,752,0
3854214,396.34,672,755,0
3854224,425.00,672,752,0
3854234,461.90,672,755,0
3854244,503.50,672,752,0
3854263,547.66,683,751,0
3854266,590.92,683,753,0
3854275,630.89,683,755,0
3854285,664.52,683,752,0
3854295,690.55,683,755,0
3854305,708.77,683,752,0
3854315,721.53,683,755,0
3854325,729.00,683,751,0
3854336,729.98,683,755,0
3854345,723.05,683,752,0
3854355,707.82,683,755,0
3854365,683.40,683,751,0
3854375,650.45,683,755,0
3854385,609.22,683,752,0
3854395,562.14,683,755,0
3854405,512.00,683,751,0
3854415,462.45,683,755,0
3854425,415.18,683,752,0
3854435,372.99,683,755,0
3854445,336.22,683,751,0
3854455,306.37,683,755,0
3854465,282.95,683,752,0
3854475,267.10,683,755,0
3854485,257.60,683,751,0
3854495,254.72,683,755,0
3854505,256.90,683,752,0
3854515,264.09,683,755,0
3854525,274.26,683,751,0
3854535,287.43,683,755,0
3854545,301.66,683,751,0
3854555,317.02,683,755,0
3854565,331.84,683,751,0
3854575,346.25,683,755,0
3854585,359.07,683,752,0
3854595,370.79,683,755,0
3854605,380.24,683,751,0
3854615,388.18,683,755,0
3854625,393.70,683,751,0
3854636,397.69,683,755,0
3854646,399.54,683,751,0
3854656,400.06,683,755,0
3854666,398.93,683,751,0
3854676,397.02,683,755,0
3854686,393.93,683,751,0
3854696,390.65,683,755,0
3854706,386.77,683,751,0
3854716,383.02,683,755,0
3854726,379.07,683,751,0
3854736,375.54,683,755,0
3854746,372.25,683,751,0
3854756,369.52,683,755,0
3854766,367.00,683,751,0
3854776,365.20,683,755,0
3854786,363.77,683,751,0
3854796,362.94,683,754,0
3854807,362.40,683,751,0
3854817,362.28,683,754,0
3854827,362.54,683,752,0
3854837,363.11,683,754,0
3854848,364.02,683,751,0
3854857,365.94,683,754,0
3854867,370.24,683,752,0
3854877,378.53,683,754,0
3854887,392.90,683,751,0
3854897,414.66,683,754,0
3854907,445.15,683,752,0
3854917,482.60,683,755,0
3854937,524.25,673,753,0
3854940,567.08,673,754,0
3854949,608.41,673,753,0
3854959,645.32,673,754,0
3854969,675.82,673,752,0
3854979,698.37,673,754,0
3854989,714.16,673,752,0
3854999,724.18,673,754,0
3855009,727.64,673,752,0
3855020,722.91,673,754,0
3855030,709.91,673,753,0
3855040,687.65,673,753,0
3855050,657.24,673,752,0
3855060,618.51,673,753,0
3855070,574.00,673,752,0
3855080,525.87,673,753,0
3855090,478.30,673,752,0
3855100,432.44,673,753,0
3855110,391.51,673,752,0
3855120,355.10,673,753,0
3855130,325.45,673,752,0
3855140,301.40,673,753,0
3855150,284.65,673,752,0
3855160,273.74,673,753,0
3855170,269.62,673,752,0
3855180,270.16,673,753,0
3855191,276.07,673,752,0
3855201,284.88,673,753,0
3855211,297.17,673,752,0
3855221,310.62,673,752,0
3855232,325.95,673,753,0
3855241,340.75,673,753,0
3855251,355.91,673,752,0
3855261,369.39,673,753,0
3855271,382.13,673,753,0
3855281,392.29,673,753,0
3855291,401.12,673,752,0
3855301,406.91,673,753,0
3855311,411.18,673,753,0
3855321,412.63,673,753,0
3855331,412.78,673,752,0
3855341,410.53,673,753,0
3855351,407.80,673,753,0
3855361,403.36,673,753,0
3855371,399.14,673,752,0
3855381,393.87,673,753,0
3855391,389.45,673,753,0
3855401,384.77,673,752,0
3855411,381.46,673,752,0
3855421,378.02,673,752,0
3855431,376.17,673,752,0
3855441,374.28,673,752,0
3855451,374.02,673,752,0
3855461,373.46,673,752,0
3855471,373.96,673,752,0
3855481,374.02,673,753,0
3855491,375.04,673,752,0
3855501,375.97,673,752,0
3855511,379.41,673,752,0
3855521,385.54,673,753,0
3855532,398.28,673,753,0
3855542,418.17,673,752,0
3855552,448.29,673,753,0
3855562,485.02,673,752,0
3855572,526.37,673,754,0
3855582,568.90,673,752,0
3855601,610.63,665,751,0
3855604,647.81,665,752,0
3855613,678.60,665,754,0
3855623,700.23,665,751,0
3855633,715.38,665,754,0
3855643,725.98,665,752,0
3855653,733.44,665,754,0
3855663,736.31,665,751,0
3855673,733.22,665,754,0
3855683,721.97,665,751,0
3855693,702.48,665,754,0
3855703,674.18,665,751,0
3855713,637.91,665,754,0
3855723,593.58,665,751,0
3855733,544.85,665,754,0
3855744,494.11,665,750,0
3855753,445.86,665,754,0
3855763,401.12,665,751,0
3855773,362.30,665,754,0
3855783,329.25,665,750,0
3855793,303.76,665,754,0
3855803,284.76,665,751,0
3855813,273.43,665,754,0
3855823,267.90,665,750,0
3855833,268.66,665,754,0
3855843,273.52,665,751,0
3855853,282.88,665,754,0
3855863,294.53,665,750,0
3855873,308.86,665,754,0
3855883,323.56,665,751,0
3855893,338.99,665,754,0
3855903,353.31,665,751,0
3855913,367.27,665,754,0
3855923,379.06,665,751,0
3855933,389.59,665,754,0
3855943,397.38,665,750,0
3855953,403.61,665,754,0
3855963,407.20,665,751,0
3855973,409.32,665,753,0
3855983,408.93,665,751,0
3855993,407.53,665,754,0
3856003,404.29,665,751,0
3856013,400.86,665,754,0
3856023,396.14,665,751,0
3856033,391.69,665,753,0
3856044,386.64,665,751,0
3856054,382.46,665,754,0
3856064,378.12,665,750,0
3856074,374.79,665,754,0
3856084,371.42,665,750,0
3856094,369.32,665,754,0
3856104,367.26,665,750,0
3856114,366.19,665,754,0
3856124,365.23,665,750,0
3856134,365.59,665,754,0
3856144,367.04,665,750,0
3856154,371.74,665,754,0
3856164,380.86,665,750,0
3856174,397.32,665,754,0
3856184,422.12,665,750,0
3856194,456.11,665,754,0
3856204,495.72,665,750,0
3856215,538.75,665,754,0
3856225,581.94,665,750,0
3856244,622.71,643,749,0
3856247,657.99,643,751,0
3856257,685.80,643,753,0
3856267,705.23,643,751,0
3856277,718.84,643,753,0
3856287,728.36,643,751,0
3856297,734.29,643,753,0
3856307,734.98,643,751,0
3856317,728.34,643,753,0
3856327,713.54,643,751,0
3856337,689.76,643,753,0
3856347,657.78,643,751,0
3856357,617.56,643,753,0
3856367,570.80,643,751,0
3856377,520.46,643,753,0
3856387,470.65,643,751,0
3856397,423.31,643,753,0
3856407,381.13,643,751,0
3856417,344.28,643,753,0
3856428,314.37,643,751,0
3856438,290.99,643,753,0
3856448,275.39,643,751,0
3856458,266.10,643,753,0
3856468,263.50,643,752,0
3856478,265.58,643,753,0
3856488,272.22,643,752,0
3856498,281.37,643,753,0
3856508,293.34,643,752,0
3856518,305.67,643,753,0
3856528,318.97,643,752,0
3856538,331.36,643,753,0
3856548,343.81,643,752,0
3856558,354.80,643,753,0
3856568,365.14,643,752,0
3856578,373.37,643,753,0
3856588,380.76,643,752,0
3856599,385.85,643,753,0
3856609,389.92,643,752,0
3856619,391.66,643,753,0
3856629,392.53,643,752,0
3856640,391.47,643,752,0
3856649,389.96,643,752,0
3856659,386.93,643,753,0
3856669,384.04,643,752,0
3856679,380.13,643,753,0
3856689,376.83,643,752,0
3856699,372.94,643,753,0
3856709,370.21,643,752,0
3856719,367.19,643,753,0
3856729,365.29,643,752,0
3856739,363.06,643,753,0
3856749,362.01,643,752,0
3856759,360.64,643,753,0
3856769,360.45,643,752,0
3856779,360.14,643,753,0
3856789,362.16,643,752,0
3856799,366.70,643,753,0
3856809,377.24,643,752,0
3856819,394.57,643,753,0
3856829,422.21,643,752,0
3856839,457.94,643,752,0
3856849,499.57,643,752,0
3856859,543.63,643,753,0
3856869,587.84,643,752,0
3856888,628.56,644,751,0
3856891,663.62,644,754,0
3856900,689.79,644,753,0
3856910,708.15,644,753,0
3856920,720.96,644,752,0
3856930,729.93,644,753,0
3856940,736.21,644,753,0
3856950,738.16,644,752,0
3856960,732.88,644,752,0
3856970,719.89,644,753,0
3856980,697.64,644,752,0
3856990,667.45,644,753,0
3857000,628.36,644,752,0
3857010,581.75,644,752,0
3857020,530.10,644,752,0
3857030,478.81,644,753,0
3857040,428.98,644,752,0
3857050,384.54,644,752,0
3857060,344.91,644,752,0
3857070,313.01,644,752,0
3857080,287.63,644,752,0
3857090,270.69,644,752,0
3857100,260.28,644,752,0
3857111,257.58,644,753,0
3857121,260.06,644,752,0
3857131,268.32,644,753,0
3857141,279.54,644,752,0
3857152,294.20,644,754,0
3857161,309.49,644,752,0
3857171,325.93,644,753,0
3857181,341.03,644,751,0
3857191,355.68,644,754,0
3857201,367.73,644,752,0
3857211,378.57,644,753,0
3857221,386.63,644,752,0
3857231,393.30,644,754,0
3857241,397.06,644,752,0
3857251,399.66,644,753,0
3857261,399.89,644,751,0
3857271,399.45,644,754,0
3857281,397.17,644,752,0
3857291,394.72,644,753,0
3857301,390.95,644,752,0
3857311,387.49,644,754,0
3857321,383.19,644,751,0
3857331,379.53,644,753,0
3857341,375.21,644,752,0
3857351,371.85,644,754,0
3857361,368.08,644,751,0
3857371,365.49,644,753,0
3857381,362.64,644,752,0
3857391,360.99,644,754,0
3857401,359.15,644,751,0
3857411,358.68,644,753,0
3857421,357.70,644,752,0
3857431,357.92,644,754,0
3857441,358.29,644,751,0
3857452,361.29,644,753,0
3857462,367.24,644,751,0
3857472,379.81,644,754,0
3857482,399.76,644,751,0
3857492,430.30,644,754,0
3857502,468.05,644,751,0
3857512,510.89,644,754,0
3857522,555.41,644,751,0
3857542,599.35,653,750,0
3857545,638.88,653,751,0
3857554,671.83,653,754,0
3857564,695.54,653,751,0
3857574,712.14,653,754,0
3857584,723.75,653,751,0
3857594,731.93,653,754,0
3857604,734.69,653,751,0
3857614,730.37,653,754,0
3857624,717.87,653,750,0
3857634,696.78,653,754,0
3857644,666.93,653,750,0
3857654,628.77,653,754,0
3857665,582.68,653,751,0
3857675,532.50,653,754,0
3857685,481.65,653,751,0
3857695,432.77,653,754,0
3857705,387.93,653,751,0
3857715,348.65,653,754,0
3857725,315.80,653,751,0
3857735,290.01,653,754,0
3857745,271.58,653,751,0
3857755,260.18,653,754,0
3857765,255.33,653,751,0
3857775,256.08,653,754,0
3857785,261.84,653,751,0
3857795,271.41,653,754,0
3857805,284.01,653,751,0
3857815,298.28,653,753,0
3857825,313.62,653,751,0
3857836,328.99,653,754,0
3857846,344.08,653,751,0
3857856,357.60,653,753,0
3857866,369.85,653,751,0
3857876,379.79,653,753,0
3857886,388.00,653,751,0
3857896,393.70,653,753,0
3857906,397.52,653,751,0
3857916,398.91,653,753,0
3857926,398.93,653,751,0
3857936,397.03,653,753,0
3857946,394.40,653,751,0
3857956,390.34,653,753,0
3857966,386.04,653,751,0
3857976,381.10,653,753,0
3857986,376.61,653,751,0
3857996,371.93,653,753,0
3858007,368.05,653,752,0
3858017,364.13,653,752,0
3858027,361.39,653,752,0
3858037,358.70,653,753,0
3858048,357.21,653,752,0
3858057,355.69,653,752,0
3858067,355.27,653,752,0
3858077,354.63,653,753,0
3858087,355.08,653,752,0
3858097,355.53,653,752,0
3858107,358.29,653,752,0
3858117,363.39,653,753,0
3858127,374.37,653,752,0
3858137,391.83,653,752,0
3858147,419.05,653,751,0
3858157,454.52,653,753,0
3858167,496.02,653,752,0
3858177,539.99,653,753,0
3858196,584.26,655,752,0
3858199,625.11,655,753,0
3858208,660.56,655,752,0
3858219,687.52,655,752,0
3858228,706.44,655,752,0
3858238,719.64,655,753,0
3858248,728.92,655,752,0
3858258,735.41,655,752,0
3858268,737.39,655,752,0
3858278,732.04,655,752,0
3858288,718.92,655,752,0
3858298,696.48,655,752,0
3858308,666.08,655,752,0
3858318,627.06,655,752,0
3858328,580.80,655,752,0
3858338,529.86,655,752,0
3858348,479.67,655,752,0
3858358,431.43,655,752,0
3858368,388.91,655,752,0
3858378,351.53,655,752,0
3858388,322.01,655,752,0
3858398,299.34,655,752,0
3858408,285.22,655,752,0
3858418,277.65,655,752,0
3858428,277.67,655,752,0
3858438,282.70,655,752,0
3858448,293.20,655,752,0
3858458,306.30,655,752,0
3858468,322.54,655,752,0
3858478,339.09,655,752,0
3858488,356.42,655,752,0
3858498,372.07,655,752,0
3858508,386.96,655,752,0
3858519,398.89,655,752,0
3858529,409.25,655,752,0
3858539,416.12,655,752,0
3858549,421.10,655,752,0
3858560,422.65,655,752,0
3858569,422.67,655,752,0
3858579,419.81,655,752,0
3858589,416.10,655,752,0
3858599,410.15,655,752,0
3858609,403.98,655,752,0
3858619,396.49,655,752,0
3858629,389.61,655,752,0
3858639,382.01,655,752,0
3858649,375.71,655,752,0
3858659,369.28,655,752,0
3858669,364.57,655,752,0
3858679,359.98,655,752,0
3858689,357.12,655,752,0
3858699,354.30,655,752,0
3858709,353.05,655,752,0
3858719,351.58,655,752,0
3858729,351.70,655,753,0
3858739,352.22,655,752,0
3858749,356.14,655,752,0
3858759,363.73,655,752,0
3858769,378.98,655,753,0
3858779,402.09,655,752,0
3858789,435.70,655,752,0
3858799,475.65,655,752,0
3858809,520.07,655,753,0
3858819,565.18,655,752,0
3858838,608.75,642,751,0
3858841,646.88,642,751,0
3858850,677.99,642,754,0
3858860,699.76,642,752,0
3858870,715.01,642,753,0
3858880,725.63,642,751,0
3858890,733.11,642,754,0
3858900,737.71,642,751,0
3858910,737.88,642,753,0
3858920,730.80,642,751,0
3858930,716.12,642,753,0
3858940,692.38,642,751,0
3858950,660.77,642,752,0
3858960,620.64,642,751,0
3858970,573.95,642,753,0
3858980,522.96,642,751,0
3858990,472.83,642,753,0
3859000,424.50,642,751,0
3859010,381.62,642,753,0
3859020,343.59,642,751,0
3859031,312.86,642,753,0
3859041,288.64,642,751,0
3859051,272.46,642,753,0
3859061,262.60,642,751,0
3859072,259.97,642,753,0
3859081,262.38,642,751,0
3859091,270.32,642,753,0
3859101,281.63,642,751,0
3859111,296.31,642,753,0
3859121,312.07,642,751,0
3859131,329.24,642,753,0
3859141,345.67,642,750,0
3859151,361.88,642,753,0
3859161,375.97,642,750,0
3859171,388.71,642,753,0
3859181,398.53,642,750,0
3859191,406.43,642,753,0
3859201,411.18,642,750,0
3859211,414.21,642,753,0
3859221,414.45,642,750,0
3859231,413.37,642,753,0
3859241,410.13,642,750,0
3859251,406.45,642,753,0
3859261,401.56,642,750,0
3859271,396.93,642,753,0
3859281,391.90,642,750,0
3859291,387.77,642,753,0
3859301,383.47,642,750,0
3859311,380.28,642,752,0
3859321,377.16,642,749,0
3859331,375.22,642,752,0
3859341,373.01,642,749,0
3859351,371.98,642,752,0
3859361,371.17,642,749,0
3859372,372.19,642,752,0
3859382,374.62,642,749,0
3859392,380.73,642,752,0
3859402,391.61,642,749,0
3859412,410.50,642,752,0
3859422,437.27,642,749,0
3859432,472.07,642,753,0
3859442,511.48,642,749,0
3859452,553.42,642,753,0
3859462,594.87,642,750,0
3859472,633.31,642,753,0
3859491,665.74,653,751,0
3859494,690.72,653,754,0
3859503,708.20,653,749,0
3859513,720.44,653,753,0
3859523,729.01,653,750,0
3859533,733.04,653,753,0
3859543,731.14,653,750,0
3859553,721.58,653,752,0
3859563,703.71,653,749,0
3859573,677.05,653,752,0
3859584,642.24,653,750,0
3859593,599.52,653,753,0
3859603,550.85,653,749,0
3859613,499.64,653,752,0
3859623,449.35,653,750,0
3859633,402.96,653,753,0
3859643,361.31,653,749,0
3859653,325.86,653,753,0
3859663,297.36,653,750,0
3859673,276.30,653,753,0
3859683,261.94,653,749,0
3859693,253.77,653,753,0
3859703,250.45,653,750,0
3859713,252.37,653,753,0
3859723,258.05,653,749,0
3859733,266.60,653,752,0
3859743,277.69,653,750,0
3859753,291.16,653,752,0
3859763,306.32,653,749,0
3859773,322.77,653,753,0
3859783,339.00,653,750,0
3859793,354.13,653,753,0
3859803,367.72,653,749,0
3859813,379.72,653,753,0
3859823,389.02,653,750,0
3859833,395.83,653,753,0
3859843,399.43,653,749,0
3859853,400.76,653,753,0
3859863,400.40,653,750,0
3859873,398.31,653,753,0
3859884,395.35,653,751,0
3859894,391.21,653,753,0
3859904,385.54,653,751,0
3859914,378.47,653,753,0
3859924,370.75,653,751,0
3859934,362.17,653,753,0
3859944,353.76,653,751,0
3859954,344.62,653,753,0
3859964,336.72,653,750,0
3859974,330.25,653,753,0
3859984,325.97,653,750,0
3859994,323.32,653,752,0
3860004,323.57,653,750,0
3860014,326.57,653,753,0
3860024,333.60,653,750,0
3860034,345.33,653,753,0
3860044,363.96,653,750,0
3860055,391.10,653,753,0
3860065,428.06,653,751,0
3860075,470.64,653,752,0
3860085,516.35,653,751,0
3860096,562.44,653,752,0
3860105,606.37,653,751,0
3860124,645.17,633,749,0
3860127,676.41,633,752,0
3860136,698.36,633,752,0
3860146,713.81,633,752,0
3860156,724.62,633,753,0
3860166,732.23,633,752,0
3860176,737.56,633,752,0
3860186,739.88,633,751,0
3860196,735.93,633,752,0
3860206,724.64,633,751,0
3860216,704.22,633,752,0
3860226,675.82,633,751,0
3860236,639.11,633,752,0
3860246,595.27,633,751,0
3860256,545.39,633,751,0
3860267,495.05,633,751,0
3860276,446.39,633,752,0
3860286,403.63,633,751,0
3860296,365.90,633,751,0
3860306,335.07,633,751,0
3860316,310.45,633,752,0
3860326,294.16,633,752,0
3860336,283.87,633,752,0
3860346,279.88,633,752,0
3860356,278.93,633,753,0
3860366,281.78,633,752,0
3860376,286.39,633,752,0
3860386,293.39,633,752,0
3860396,300.43,633,753,0
3860406,308.70,633,752,0
3860416,316.63,633,752,0
3860426,325.91,633,752,0
3860436,334.90,633,753,0
3860446,344.83,633,752,0
3860456,353.62,633,753,0
3860466,362.39,633,752,0
3860476,369.39,633,753,0
3860486,375.66,633,752,0
3860496,379.70,633,752,0
3860506,382.92,633,752,0
3860516,383.89,633,753,0
3860526,384.31,633,752,0
3860536,383.01,633,752,0
3860546,381.77,633,752,0
3860556,379.31,633,753,0
3860567,377.29,633,752,0
3860577,374.46,633,752,0
3860587,372.35,633,752,0
3860597,369.50,633,752,0
3860608,367.85,633,751,0
3860617,366.61,633,751,0
3860627,367.58,633,751,0
3860637,369.94,633,751,0
3860647,376.26,633,751,0
3860657,387.11,633,751,0
3860667,404.78,633,751,0
3860677,429.61,633,751,0
3860687,463.07,633,749,0
3860697,501.41,633,751,0
3860707,542.77,633,750,0
3860717,583.94,633,751,0
3860727,622.70,633,750,0
3860746,656.78,622,751,0
3860749,684.40,622,755,0
3860758,703.78,622,752,0
3860768,717.43,622,753,0
3860779,727.03,622,750,0
3860788,733.71,622,750,0
3860798,738.42,622,752,0
3860808,741.94,622,750,0
3860818,742.81,622,750,0
3860828,740.04,622,752,0
3860838,729.70,622,750,0
3860848,712.73,622,750,0
3860858,689.37,622,749,0
3860868,659.77,622,751,0
3860878,622.64,622,750,0
3860888,579.76,622,751,0
3860898,532.05,622,749,0
3860908,484.85,622,750,0
3860918,438.78,622,750,0
3860928,395.05,622,751,0
3860938,354.27,622,749,0
3860948,319.61,622,752,0
3860958,290.71,622,749,0
3860968,271.64,622,751,0
3860978,260.82,622,750,0
3860988,257.83,622,752,0
3860998,261.57,622,752,0
3861008,270.65,622,752,0
3861018,281.43,622,750,0
3861028,295.14,622,752,0
3861038,307.87,622,751,0
3861048,320.17,622,752,0
3861058,330.36,622,751,0
3861068,338.57,622,752,0
3861079,344.52,622,750,0
3861089,350.45,622,753,0
3861099,354.47,622,750,0
3861109,357.29,622,753,0
3861120,358.02,622,750,0
3861129,358.18,622,753,0
3861139,356.97,622,751,0
3861149,355.57,622,753,0
3861159,353.00,622,751,0
3861169,350.34,622,753,0
3861179,347.32,622,751,0
3861189,345.17,622,753,0
3861199,342.89,622,751,0
3861209,341.72,622,753,0
3861219,340.26,622,750,0
3861229,340.06,622,753,0
3861239,340.25,622,750,0
3861249,341.25,622,753,0
3861259,341.90,622,750,0
3861269,343.73,622,753,0
3861279,346.81,622,750,0
3861289,354.88,622,753,0
3861299,368.33,622,751,0
3861309,390.69,622,753,0
3861319,423.05,622,751,0
3861329,463.28,622,753,0
3861339,507.77,622,751,0
3861349,554.21,622,753,0
3861368,598.72,622,752,0
3861371,639.22,622,754,0
3861380,672.15,622,750,0
3861390,695.63,622,752,0
3861400,712.07,622,750,0
3861410,723.62,622,753,0
3861420,731.66,622,751,0
3861430,737.29,622,753,0
3861440,741.19,622,750,0
3861450,742.89,622,753,0
3861460,739.37,622,750,0
3861470,729.19,622,753,0
3861480,710.36,622,750,0
3861490,682.99,622,753,0
3861500,646.61,622,750,0
3861510,602.46,622,753,0
3861520,551.53,622,750,0
3861530,498.40,622,753,0
3861540,445.70,622,750,0
3861550,397.49,622,753,0
3861560,354.44,622,750,0
3861570,318.57,622,753,0
3861580,289.98,622,750,0
3861591,269.59,622,753,0
3861601,256.90,622,750,0
3861611,251.66,622,753,0
3861621,251.93,622,750,0
3861632,257.65,622,752,0
3861641,267.48,622,750,0
3861651,280.15,622,754,0
3861661,294.16,622,750,0
3861671,308.56,622,753,0
3861681,322.53,622,750,0
3861691,336.00,622,754,0
3861701,347.92,622,750,0
3861711,358.10,622,753,0
3861721,366.04,622,750,0
3861731,372.24,622,754,0
3861741,376.58,622,750,0
3861751,378.94,622,753,0
3861761,379.21,622,750,0
3861771,378.08,622,754,0
3861781,375.53,622,750,0
3861791,372.07,622,753,0
3861801,367.85,622,750,0
3861811,363.35,622,754,0
3861821,358.70,622,750,0
3861831,354.25,622,753,0
3861841,349.93,622,750,0
3861851,346.27,622,753,0
3861861,343.27,622,750,0
3861871,341.22,622,753,0
3861881,340.04,622,750,0
3861891,340.11,622,754,0
3861901,340.98,622,750,0
3861911,342.66,622,753,0
3861921,345.20,622,750,0
3861932,349.94,622,753,0
3861942,358.62,622,750,0
3861952,373.69,622,753,0
3861962,397.78,622,750,0
3861972,431.75,622,753,0
3861982,472.45,622,750,0
3861992,517.27,622,753,0
3862002,563.39,622,751,0
3862022,607.72,653,749,0
3862025,647.02,653,752,0
3862034,677.95,653,752,0
3862044,699.61,653,751,0
3862054,714.77,653,752,0
3862064,725.38,653,751,0
3862074,732.72,653,752,0
3862084,737.86,653,751,0
3862094,741.46,653,752,0
3862104,742.48,653,751,0
3862114,737.49,653,752,0
3862124,725.39,653,751,0
3862134,704.31,653,752,0
3862145,674.48,653,751,0
3862155,635.38,653,751,0
3862165,588.38,653,751,0
3862175,535.34,653,751,0
3862185,481.71,653,751,0
3862195,429.51,653,752,0
3862205,382.64,653,750,0
3862215,341.61,653,751,0
3862225,308.77,653,751,0
3862235,283.25,653,751,0
3862245,266.20,653,750,0
3862255,255.99,653,751,0
3862265,253.03,653,750,0
3862275,254.78,653,750,0
3862285,262.17,653,749,0
3862295,274.64,653,749,0
3862305,293.65,653,750,0
3862316,315.44,653,750,0
3862326,338.53,653,749,0
3862336,358.86,653,749,0
3862346,379.13,653,749,0
3862356,397.26,653,750,0
3862366,412.14,653,750,0
3862376,419.68,653,750,0
3862386,422.56,653,750,0
3862396,420.94,653,750,0
3862406,418.30,653,749,0
3862416,411.61,653,750,0
3862426,402.94,653,750,0
3862436,391.43,653,750,0
3862446,380.16,653,749,0
3862456,368.33,653,750,0
3862466,358.24,653,750,0
3862476,349.21,653,751,0
3862487,343.06,653,751,0
3862497,337.34,653,751,0
3862507,333.00,653,752,0
3862517,328.07,653,750,0
3862528,323.81,653,752,0
3862537,318.72,653,751,0
3862547,314.00,653,752,0
3862557,308.35,653,750,0
3862567,303.83,653,752,0
3862577,299.72,653,751,0
3862587,298.26,653,752,0
3862597,298.66,653,750,0
3862607,303.52,653,752,0
3862617,312.83,653,751,0
3862627,330.41,653,752,0
3862637,357.12,653,751,0
3862647,395.40,653,752,0
3862657,440.62,653,751,0
3862667,490.36,653,752,0
3862677,540.78,653,751,0
3862687,589.70,653,752,0
3862697,632.99,653,750,0
3862707,668.10,653,752,0
3862717,692.67,653,751,0
3862727,709.87,653,752,0
3862747,721.91,725,751,0
3862750,730.33,725,753,0
3862759,736.23,725,750,0
3862769,740.36,725,753,0
3862779,740.90,725,750,0
3862789,735.91,725,753,0
3862799,722.87,725,750,0
3862809,701.09,725,752,0
3862819,669.95,725,749,0
3862829,630.37,725,753,0
3862839,582.17,725,750,0
3862849,529.15,725,752,0
3862859,474.42,725,750,0
3862870,422.35,725,753,0
3862879,374.42,725,750,0
3862889,333.11,725,753,0
3862899,298.40,725,750,0
3862909,271.97,725,753,0
3862919,252.86,725,750,0
3862929,241.55,725,752,0
3862939,236.80,725,749,0
3862949,238.87,725,753,0
3862959,246.15,725,750,0
3862969,258.15,725,753,0
3862979,272.81,725,749,0
3862989,289.84,725,753,0
3862999,307.07,725,749,0
3863009,324.32,725,752,0
3863019,340.08,725,749,0
3863029,354.16,725,753,0
3863040,365.51,725,749,0
3863049,374.74,725,753,0
3863059,380.78,725,749,0
3863069,384.74,725,753,0
3863079,385.89,725,749,0
3863089,385.20,725,753,0
3863099,382.27,725,749,0
3863109,378.24,725,753,0
3863119,372.94,725,749,0
3863129,367.73,725,753,0
3863139,362.11,725,749,0
3863149,357.32,725,753,0
3863159,352.90,725,749,0
3863169,349.63,725,753,0
3863179,346.44,725,749,0
3863189,343.82,725,753,0
3863199,340.83,725,749,0
3863209,338.31,725,753,0
3863219,335.47,725,749,0
3863229,333.19,725,753,0
3863239,330.86,725,749,0
3863249,329.70,725,753,0
3863259,329.15,725,749,0
3863269,330.22,725,753,0
3863279,331.91,725,749,0
3863289,334.72,725,753,0
3863299,338.06,725,749,0
3863309,343.79,725,753,0
3863319,352.77,725,749,0
3863329,367.79,725,753,0
3863340,390.48,725,749,0
3863350,423.30,725,753,0
3863360,463.15,725,750,0
3863379,507.59,633,749,0
3863383,553.44,633,750,0
3863391,598.14,633,752,0
3863401,638.38,633,750,0
3863411,671.44,633,752,0
3863421,694.96,633,750,0
3863431,711.39,633,752,0
3863441,722.84,633,750,0
3863451,730.82,633,752,0
3863461,736.36,633,749,0
3863471,736.85,633,752,0
3863481,730.04,633,749,0
3863491,714.51,633,752,0
3863501,689.93,633,749,0
3863511,656.48,633,752,0
3863521,614.46,633,749,0
3863531,564.44,633,752,0
3863541,511.12,633,750,0
3863552,457.77,633,752,0
3863561,407.44,633,750,0
3863571,361.62,633,752,0
3863581,321.02,633,748,0
3863591,287.46,633,751,0
3863601,262.63,633,749,0
3863611,246.80,633,752,0
3863621,239.88,633,748,0
3863631,240.86,633,751,0
3863641,248.83,633,749,0
3863651,263.49,633,752,0
3863661,282.50,633,749,0
3863671,302.97,633,752,0
3863681,323.03,633,750,0
3863691,341.75,633,752,0
3863701,358.20,633,749,0
3863711,371.38,633,751,0
3863721,381.38,633,749,0
3863731,388.38,633,752,0
3863741,392.94,633,749,0
3863751,394.63,633,751,0
3863761,394.27,633,750,0
3863771,392.22,633,752,0
3863781,389.79,633,749,0
3863791,386.30,633,751,0
3863801,382.31,633,750,0
3863811,377.76,633,752,0
3863821,373.72,633,749,0
3863831,369.77,633,751,0
3863841,366.71,633,750,0
3863852,363.88,633,752,0
3863862,361.56,633,749,0
3863872,358.95,633,751,0
3863882,356.87,633,750,0
3863892,354.63,633,751,0
3863902,353.16,633,749,0
3863912,351.65,633,751,0
3863922,351.11,633,749,0
3863932,350.82,633,751,0
3863942,351.78,633,749,0
3863952,352.79,633,751,0
3863962,354.74,633,749,0
3863972,356.74,633,750,0
3863982,359.95,633,749,0
3863992,364.25,633,751,0
3864002,372.49,633,749,0
3864012,385.71,633,751,0
3864023,406.93,633,749,0
3864033,436.78,633,750,0
3864043,473.96,633,749,0
3864062,515.20,683,750,0
3864066,558.55,683,752,0
3864075,600.65,683,751,0
3864085,639.07,683,751,0
3864095,670.80,683,751,0
3864105,694.26,683,751,0
3864115,710.68,683,751,0
3864125,722.26,683,751,0
3864135,730.33,683,750,0
3864145,735.97,683,751,0
3864155,736.02,683,750,0
3864165,729.46,683,751,0
3864175,714.19,683,750,0
3864185,690.61,683,751,0
3864195,658.50,683,750,0
3864205,618.66,683,751,0
3864215,570.68,683,750,0
3864225,519.99,683,751,0
3864236,468.48,683,750,0
3864246,420.08,683,752,0
3864256,374.88,683,750,0
3864266,335.27,683,752,0
3864276,300.91,683,750,0
3864286,274.23,683,752,0
3864296,254.06,683,749,0
3864306,241.87,683,752,0
3864316,236.00,683,749,0
3864326,237.67,683,752,0
3864336,244.28,683,750,0
3864346,256.28,683,752,0
3864356,270.73,683,749,0
3864366,287.82,683,751,0
3864376,304.16,683,749,0
3864386,320.91,683,751,0
3864396,336.41,683,749,0
3864407,351.84,683,751,0
3864417,365.56,683,749,0
3864427,378.81,683,751,0
3864437,389.92,683,748,0
3864448,400.87,683,752,0
3864457,409.36,683,749,0
3864467,415.33,683,752,0
3864477,417.12,683,749,0
3864487,415.76,683,752,0
3864497,410.43,683,749,0
3864507,403.40,683,752,0
3864517,393.94,683,748,0
3864527,384.44,683,752,0
3864537,374.58,683,750,0
3864547,366.01,683,752,0
3864557,358.80,683,749,0
3864567,352.65,683,752,0
3864577,346.45,683,749,0
3864587,342.16,683,752,0
3864597,338.17,683,748,0
3864607,336.15,683,752,0
3864617,335.16,683,749,0
3864627,334.94,683,752,0
3864637,336.67,683,749,0
3864647,340.07,683,753,0
3864657,342.66,683,750,0
3864667,345.94,683,753,0
3864677,348.66,683,748,0
3864687,354.72,683,752,0
3864697,366.84,683,748,0
3864707,387.89,683,751,0
3864717,419.17,683,748,0
3864727,458.50,683,752,0
3864737,502.67,683,749,0
3864748,550.21,683,752,0
3864758,596.47,683,748,0
3864777,638.03,715,748,0
3864780,671.24,715,751,0
3864790,694.61,715,753,0
3864799,710.97,715,749,0
3864809,722.42,715,752,0
3864819,730.44,715,749,0
3864829,736.09,715,752,0
3864839,738.29,715,749,0
3864849,734.52,715,752,0
3864859,722.62,715,750,0
3864869,701.52,715,752,0
3864879,671.11,715,749,0
3864889,631.60,715,752,0
3864899,583.81,715,750,0
3864909,530.12,715,753,0
3864919,474.63,715,749,0
3864929,421.21,715,752,0
3864939,372.51,715,750,0
3864949,330.27,715,752,0
3864960,295.73,715,749,0
3864969,269.11,715,752,0
3864979,250.65,715,749,0
3864989,240.25,715,752,0
3864999,237.35,715,749,0
3865009,241.10,715,752,0
3865019,249.90,715,749,0
3865029,263.09,715,752,0
3865039,279.56,715,749,0
3865049,298.46,715,752,0
3865059,317.91,715,749,0
3865069,336.37,715,752,0
3865079,352.93,715,749,0
3865089,367.18,715,752,0
3865099,378.65,715,749,0
3865109,387.80,715,752,0
3865119,394.85,715,750,0
3865129,399.35,715,753,0
3865139,401.34,715,750,0
3865149,400.56,715,753,0
3865159,397.22,715,750,0
3865169,391.24,715,753,0
3865179,382.68,715,750,0
3865189,371.85,715,753,0
3865199,360.62,715,750,0
3865209,350.11,715,753,0
3865219,341.63,715,750,0
3865229,335.57,715,753,0
3865239,331.67,715,751,0
3865249,329.11,715,752,0
3865260,328.18,715,751,0
3865270,328.04,715,753,0
3865280,329.01,715,751,0
3865290,330.42,715,752,0
3865300,332.53,715,751,0
3865310,334.85,715,753,0
3865320,338.11,715,751,0
3865330,340.99,715,752,0
3865340,344.42,715,751,0
3865350,347.64,715,753,0
3865360,351.86,715,750,0
3865370,358.03,715,752,0
3865380,369.17,715,750,0
3865390,386.90,715,752,0
3865400,414.19,715,750,0
3865410,449.87,715,752,0
3865420,491.40,715,750,0
3865431,535.76,715,752,0
3865441,580.41,715,750,0
3865460,621.94,683,749,0
3865463,657.92,683,753,0
3865473,685.41,683,751,0
3865483,704.70,683,751,0
3865493,718.16,683,751,0
3865503,727.59,683,751,0
3865513,734.14,683,751,0
3865523,738.77,683,751,0
3865533,741.07,683,750,0
3865543,739.29,683,751,0
3865553,730.25,683,751,0
3865563,712.51,683,749,0
3865573,685.79,683,749,0
3865583,652.55,683,750,0
3865593,612.10,683,750,0
3865603,566.90,683,749,0
3865613,518.80,683,749,0
3865623,472.75,683,750,0
3865633,430.78,683,750,0
3865644,395.79,683,751,0
3865654,364.87,683,751,0
3865664,339.36,683,752,0
3865674,316.80,683,751,0
3865684,298.34,683,752,0
3865694,282.30,683,750,0
3865704,270.98,683,752,0
3865714,262.20,683,751,0
3865724,257.90,683,753,0
3865734,256.56,683,751,0
3865744,259.82,683,752,0
3865754,266.34,683,751,0
3865764,277.56,683,752,0
3865774,289.99,683,751,0
3865784,303.71,683,752,0
3865794,316.39,683,751,0
3865804,329.78,683,752,0
3865815,342.14,683,750,0
3865825,354.66,683,753,0
3865835,364.70,683,751,0
3865845,372.98,683,753,0
3865856,378.13,683,750,0
3865865,381.56,683,753,0
3865875,381.69,683,751,0
3865885,380.37,683,753,0
3865895,376.49,683,750,0
3865905,372.66,683,753,0
3865915,368.30,683,750,0
3865925,365.30,683,752,0
3865935,362.68,683,749,0
3865945,362.05,683,752,0
3865955,362.03,683,750,0
3865965,363.91,683,752,0
3865975,365.65,683,749,0
3865985,368.54,683,752,0
3865995,371.04,683,750,0
3866005,374.11,683,752,0
3866015,376.01,683,749,0
3866025,377.76,683,752,0
3866035,378.09,683,750,0
3866045,378.53,683,752,0
3866055,378.93,683,750,0
3866065,381.69,683,752,0
3866075,387.10,683,750,0
3866085,399.11,683,752,0
3866095,419.01,683,750,0
3866105,449.35,683,752,0
3866115,486.44,683,750,0
3866125,527.75,683,752,0
3866144,570.04,684,751,0
3866147,611.64,684,753,0
3866156,648.74,684,750,0
3866166,679.12,684,753,0
3866176,700.34,684,750,0
3866186,715.19,684,753,0
3866196,725.59,684,750,0
3866206,732.91,684,753,0
3866216,738.00,684,750,0
3866226,740.06,684,753,0
3866236,736.01,684,750,0
3866246,724.86,684,753,0
3866256,704.76,684,750,0
3866266,676.03,684,753,0
3866276,638.31,684,750,0
3866286,593.43,684,753,0
3866296,542.69,684,750,0
3866306,490.80,684,753,0
3866316,439.39,684,750,0
3866327,392.13,684,754,0
3866337,349.75,684,750,0
3866347,314.38,684,754,0
3866357,285.04,684,750,0
3866368,263.43,684,753,0
3866377,249.20,684,750,0
3866387,243.18,684,753,0
3866397,243.81,684,750,0
3866407,250.60,684,753,0
3866417,261.65,684,750,0
3866427,276.45,684,753,0
3866437,293.20,684,750,0
3866447,310.93,684,753,0
3866457,328.05,684,750,0
3866467,344.36,684,753,0
3866477,358.95,684,750,0
3866487,371.78,684,753,0
3866497,381.88,684,750,0
3866507,389.63,684,753,0
3866517,394.67,684,750,0
3866527,397.60,684,753,0
3866537,398.23,684,750,0
3866547,397.18,684,753,0
3866557,394.51,684,750,0
3866567,391.27,684,753,0
3866577,386.86,684,750,0
3866587,382.10,684,752,0
3866597,376.80,684,749,0
3866607,371.76,684,753,0
3866617,366.69,684,749,0
3866627,362.24,684,752,0
3866637,358.14,684,749,0
3866647,355.31,684,752,0
3866657,353.33,684,749,0
3866668,352.72,684,751,0
3866678,353.02,684,749,0
3866688,354.60,684,751,0
3866698,357.93,684,749,0
3866708,362.32,684,751,0
3866718,367.41,684,750,0
3866728,372.39,684,752,0
3866738,376.82,684,750,0
3866748,379.96,684,752,0
3866758,381.51,684,750,0
3866768,381.57,684,752,0
3866778,382.73,684,750,0
3866788,387.40,684,752,0
3866798,398.93,684,750,0
3866808,419.83,684,752,0
3866818,450.82,684,750,0
3866828,489.23,684,752,0
3866848,532.11,704,750,0
3866851,576.13,704,751,0
3866860,617.96,704,750,0
3866870,654.53,704,750,0
3866881,682.91,704,750,0
3866891,702.65,704,749,0
3866901,716.39,704,748,0
3866911,725.91,704,749,0
3866921,732.54,704,749,0
3866931,737.09,704,749,0
3866941,739.16,704,750,0
3866951,734.53,704,749,0
3866961,722.24,704,749,0
3866971,701.77,704,751,0
3866981,673.25,704,751,0
3866991,635.55,704,751,0
3867001,588.67,704,751,0
3867011,533.27,704,752,0
3867021,475.85,704,751,0
3867031,418.21,704,752,0
3867041,363.03,704,751,0
3867052,311.64,704,752,0
3867062,268.16,704,751,0
3867072,233.70,704,752,0
3867082,210.39,704,752,0
3867092,196.56,704,752,0
3867102,192.96,704,751,0
3867112,197.34,704,752,0
3867122,209.50,704,752,0
3867132,225.98,704,752,0
3867142,246.38,704,752,0
3867152,267.95,704,752,0
3867162,290.85,704,752,0
3867172,312.33,704,753,0
3867182,332.67,704,753,0
3867192,349.23,704,753,0
3867202,362.83,704,753,0
3867212,371.71,704,753,0
3867223,377.45,704,753,0
3867233,378.82,704,752,0
3867243,378.14,704,753,0
3867253,374.67,704,752,0
3867264,370.83,704,754,0
3867273,365.61,704,752,0
3867283,361.14,704,753,0
3867293,356.13,704,752,0
3867303,352.40,704,754,0
3867313,348.55,704,753,0
3867323,346.20,704,753,0
3867333,343.83,704,752,0
3867343,342.85,704,754,0
3867353,341.70,704,753,0
3867363,341.87,704,753,0
3867373,341.82,704,752,0
3867383,342.82,704,754,0
3867393,343.39,704,753,0
3867403,344.86,704,753,0
3867413,345.67,704,752,0
3867423,347.31,704,754,0
3867433,348.42,704,752,0
3867443,351.08,704,753,0
3867453,355.13,704,752,0
3867463,363.75,704,754,0
3867473,377.79,704,752,0
3867483,400.78,704,753,0
3867493,432.82,704,753,0
3867503,472.39,704,754,0
3867513,515.81,704,752,0
3867532,561.04,684,752,0
3867535,604.40,684,752,0
3867544,643.62,684,754,0
3867554,675.41,684,752,0
3867564,698.43,684,754,0
3867574,714.54,684,752,0
3867584,725.82,684,754,0
3867594,733.72,684,752,0
3867604,739.25,684,754,0
3867614,743.07,684,752,0
3867624,743.44,684,754,0
3867634,737.22,684,752,0
3867644,723.53,684,754,0
3867654,701.00,684,751,0
3867664,670.31,684,754,0
3867674,631.05,684,752,0
3867684,584.40,684,754,0
3867694,533.03,684,752,0
3867704,482.15,684,754,0
3867714,433.20,684,752,0
3867724,389.60,684,754,0
3867735,351.40,684,751,0
3867745,320.81,684,754,0
3867755,297.21,684,751,0
3867765,281.63,684,754,0
3867776,272.61,684,751,0
3867785,270.72,684,754,0
3867795,273.93,684,751,0
3867805,282.22,684,754,0
3867815,293.56,684,751,0
3867825,307.62,684,754,0
3867835,322.39,684,751,0
3867845,337.79,684,754,0
3867855,352.29,684,751,0
3867865,366.18,684,754,0
3867875,377.82,684,751,0
3867885,387.78,684,754,0
3867895,395.09,684,751,0
3867905,400.67,684,754,0
3867915,403.56,684,751,0
3867925,404.72,684,754,0
3867935,403.43,684,751,0
3867945,401.16,684,754,0
3867955,397.30,684,751,0
3867965,393.01,684,754,0
3867975,387.65,684,751,0
3867985,382.44,684,755,0
3867995,376.78,684,751,0
3868005,371.83,684,754,0
3868015,366.82,684,751,0
3868025,362.63,684,754,0
3868035,358.67,684,751,0
3868045,355.73,684,754,0
3868055,353.02,684,751,0
3868065,351.39,684,754,0
3868076,349.94,684,751,0
3868086,349.49,684,754,0
3868096,349.77,684,751,0
3868106,352.15,684,754,0
3868116,357.85,684,751,0
3868126,369.30,684,754,0
3868136,388.15,684,751,0
3868146,417.12,684,754,0
3868156,454.37,684,751,0
3868166,497.12,684,755,0
3868176,542.34,684,751,0
3868186,587.19,684,754,0
3868206,628.71,673,753,0
3868209,664.02,673,754,0
3868218,690.37,673,751,0
3868228,708.82,673,754,0
3868238,721.73,673,751,0
3868248,730.73,673,754,0
3868258,737.02,673,751,0
3868268,741.43,673,754,0
3868278,743.87,673,752,0
3868289,741.04,673,753,0
3868299,731.43,673,751,0
3868309,713.34,673,753,0
3868319,686.97,673,752,0
3868329,651.71,673,753,0
3868339,608.81,673,751,0
3868349,559.02,673,753,0
3868359,507.37,673,752,0
3868369,456.22,673,752,0
3868379,409.44,673,751,0
3868389,367.69,673,753,0
3868399,333.24,673,752,0
3868409,305.36,673,753,0
3868419,285.32,673,751,0
3868429,272.20,673,753,0
3868439,266.48,673,752,0
3868449,266.04,673,753,0
3868460,271.08,673,752,0
3868470,279.41,673,753,0
3868480,291.33,673,752,0
3868490,304.82,673,752,0
3868500,320.04,673,752,0
3868510,334.86,673,753,0
3868520,349.56,673,752,0
3868530,362.21,673,752,0
3868540,373.67,673,752,0
3868550,382.30,673,752,0
3868560,389.20,673,752,0
3868570,392.91,673,752,0
3868580,395.16,673,752,0
3868590,395.07,673,752,0
3868600,394.15,673,752,0
3868610,391.41,673,752,0
3868620,388.50,673,751,0
3868631,384.23,673,752,0
3868641,380.31,673,752,0
3868651,375.37,673,752,0
3868661,371.06,673,751,0
3868672,366.46,673,752,0
3868681,363.28,673,752,0
3868691,360.11,673,752,0
3868701,358.36,673,752,0
3868711,356.41,673,752,0
3868721,355.69,673,752,0
3868731,354.45,673,752,0
3868741,354.02,673,751,0
3868751,352.81,673,752,0
3868761,352.91,673,752,0
3868771,354.09,673,752,0
3868781,359.98,673,752,0
3868791,371.56,673,752,0
3868801,392.95,673,752,0
3868811,424.63,673,753,0
3868821,464.39,673,752,0
3868831,508.46,673,752,0
3868841,554.91,673,753,0
3868860,599.76,655,751,0
3868863,640.55,655,755,0
3868872,673.51,655,751,0
3868882,696.93,655,754,0
3868892,713.28,655,752,0
3868902,724.77,655,753,0
3868912,732.77,655,752,0
3868922,738.41,655,754,0
3868932,742.40,655,752,0
3868942,745.19,655,753,0
3868952,743.42,655,751,0
3868962,735.32,655,754,0
3868972,718.90,655,752,0
3868982,694.03,655,753,0
3868992,659.86,655,751,0
3869002,617.69,655,753,0
3869012,567.68,655,751,0
3869022,515.36,655,753,0
3869032,463.14,655,752,0
3869042,414.71,655,754,0
3869052,370.53,655,752,0
3869062,333.38,655,753,0
3869072,302.24,655,752,0
3869082,279.02,655,754,0
3869092,262.52,655,752,0
3869102,254.18,655,753,0
3869112,252.50,655,754,0
3869122,258.78,655,754,0
3869132,270.71,655,752,0
3869143,289.06,655,758,0
3869153,311.03,655,752,0
3869163,336.56,655,755,0
3869173,362.71,655,752,0
3869184,389.49,655,754,0
3869193,414.20,655,752,0
3869203,437.29,655,758,0
3869213,456.36,655,755,0
3869223,472.11,655,754,0
3869233,482.75,655,754,0
3869243,489.77,655,760,0
3869253,491.89,655,758,0
3869263,490.90,655,761,0
3869273,485.91,655,753,0
3869283,478.95,655,759,0
3869293,469.28,655,758,0
3869303,458.91,655,760,0
3869313,447.07,655,757,0
3869323,435.86,655,753,0
3869333,424.29,655,753,0
3869343,413.87,655,759,0
3869353,403.67,655,753,0
3869363,395.28,655,754,0
3869373,387.35,655,755,0
3869383,381.12,655,754,0
3869393,375.08,655,753,0
3869403,370.52,655,755,0
3869413,365.99,655,753,0
3869423,362.78,655,755,0
3869433,359.80,655,751,0
3869443,359.39,655,754,0
3869453,361.72,655,752,0
3869463,370.12,655,754,0
3869473,385.85,655,752,0
3869484,412.51,655,755,0
3869494,448.14,655,752,0
3869504,490.27,655,756,0
3869514,535.28,655,751,0
3869524,580.92,655,755,0
3869534,623.50,655,752,0
3869544,660.34,655,755,0
3869554,688.05,655,751,0
3869564,707.45,655,755,0
3869574,721.03,655,752,0
3869584,730.58,655,755,0
3869594,737.22,655,751,0
3869604,741.87,655,755,0
3869614,745.12,655,752,0
3869624,747.44,655,755,0
3869634,745.34,655,751,0
3869654,736.71,793,750,0
3869657,719.05,793,753,0
3869666,692.29,793,754,0
3869676,656.12,793,751,0
3869686,610.74,793,754,0
3869697,556.95,793,752,0
3869707,499.41,793,754,0
3869717,442.16,793,752,0
3869727,388.84,793,754,0
3869737,341.57,793,752,0
3869747,301.71,793,754,0
3869757,270.51,793,752,0
3869767,247.82,793,754,0
3869777,233.90,793,752,0
3869787,227.12,793,754,0
3869797,227.17,793,752,0
3869807,232.05,793,754,0
3869817,241.03,793,752,0
3869827,252.42,793,754,0
3869837,265.92,793,752,0
3869847,279.79,793,754,0
3869857,294.25,793,752,0
3869868,307.89,793,754,0
3869878,321.08,793,752,0
3869888,332.67,793,754,0
3869898,343.40,793,753,0
3869908,352.02,793,753,0
3869918,359.52,793,752,0
3869928,364.85,793,754,0
3869938,369.01,793,752,0
3869948,370.98,793,753,0
3869958,372.18,793,752,0
3869968,371.44,793,753,0
3869978,370.15,793,752,0
3869988,367.11,793,753,0
3869998,363.69,793,752,0
3870008,359.11,793,754,0
3870018,354.66,793,752,0
3870028,349.24,793,754,0
3870039,344.28,793,752,0
3870049,338.75,793,753,0
3870059,334.28,793,753,0
3870069,329.61,793,753,0
3870080,326.34,793,752,0
3870089,323.33,793,754,0
3870099,321.69,793,753,0
3870109,320.15,793,754,0
3870119,320.88,793,752,0
3870129,323.61,793,754,0
3870139,331.70,793,753,0
3870149,345.72,793,754,0
3870159,369.42,793,753,0
3870169,402.51,793,754,0
3870179,444.44,793,753,0
3870189,491.07,793,754,0
3870199,539.99,793,753,0
3870218,587.22,565,752,0
3870221,630.23,565,755,0
3870230,665.26,565,754,0
3870240,691.58,565,753,0
3870251,710.01,565,753,0
3870260,722.90,565,753,0
3870270,731.08,565,754,0
3870280,733.20,565,753,0
3870290,726.97,565,753,0
3870300,712.53,565,753,0
3870310,688.63,565,754,0
3870320,656.17,565,753,0
3870330,614.68,565,753,0
3870340,566.64,565,753,0
3870350,514.38,565,753,0
3870360,462.79,565,753,0
3870370,412.71,565,753,0
3870380,367.88,565,753,0
3870390,327.93,565,754,0
3870400,295.43,565,753,0
3870410,269.15,565,753,0
3870420,251.28,565,754,0
3870430,239.97,565,754,0
3870440,236.08,565,753,0
3870450,237.34,565,753,0
3870460,244.52,565,754,0
3870470,255.04,565,753,0
3870480,269.47,565,753,0
3870490,284.97,565,753,0
3870500,302.04,565,754,0
3870510,318.35,565,754,0
3870520,334.53,565,753,0
3870530,348.56,565,753,0
3870540,361.63,565,753,0
3870551,371.69,565,753,0
3870561,380.10,565,754,0
3870571,385.34,565,752,0
3870581,389.18,565,754,0
3870592,390.24,565,752,0
3870601,390.25,565,754,0
3870611,387.73,565,752,0
3870621,384.51,565,754,0
3870631,379.52,565,752,0
3870641,374.73,565,754,0
3870651,368.81,565,752,0
3870661,363.64,565,754,0
3870671,357.79,565,752,0
3870681,353.10,565,754,0
3870691,348.31,565,752,0
3870701,344.92,565,755,0
3870711,341.30,565,752,0
3870721,338.81,565,754,0
3870731,335.87,565,752,0
3870741,333.98,565,754,0
3870751,331.54,565,752,0
3870761,330.01,565,755,0
3870771,328.16,565,752,0
3870781,328.59,565,754,0
3870791,331.54,565,752,0
3870801,340.63,565,755,0
3870811,356.34,565,752,0
3870821,382.60,565,755,0
3870831,419.10,565,752,0
3870841,463.17,565,755,0
3870851,510.74,565,752,0
3870870,559.37,652,751,0
3870873,605.07,652,752,0
3870882,645.85,652,755,0
3870892,677.91,652,752,0
3870902,700.39,652,755,0
3870912,716.13,652,752,0
3870922,727.19,652,755,0
3870932,734.89,652,752,0
3870942,739.25,652,755,0
3870952,737.33,652,752,0
3870962,728.36,652,755,0
3870972,710.55,652,752,0
3870982,684.63,652,755,0
3870992,649.77,652,752,0
3871002,607.07,652,755,0
3871012,557.50,652,752,0
3871022,506.40,652,755,0
3871032,455.32,652,752,0
3871042,408.08,652,755,0
3871052,364.77,652,752,0
3871063,328.11,652,755,0
3871073,297.73,652,752,0
3871083,275.27,652,755,0
3871093,259.42,652,751,0
3871104,251.06,652,755,0
3871113,248.60,652,752,0
3871123,252.24,652,755,0
3871133,260.05,652,752,0
3871143,271.86,652,755,0
3871153,285.62,652,752,0
3871163,301.25,652,755,0
3871173,316.86,652,751,0
3871183,332.42,652,755,0
3871193,346.35,652,751,0
3871203,359.02,652,755,0
3871213,369.17,652,752,0
3871223,377.39,652,755,0
3871233,382.67,652,751,0
3871243,386.16,652,755,0
3871253,387.05,652,752,0
3871263,386.39,652,755,0
3871273,383.83,652,751,0
3871283,380.67,652,755,0
3871293,376.31,652,752,0
3871303,371.80,652,755,0
3871313,366.63,652,751,0
3871323,361.90,652,755,0
3871333,357.04,652,751,0
3871343,352.66,652,755,0
3871353,348.13,652,751,0
3871363,344.54,652,755,0
3871373,341.03,652,752,0
3871383,338.41,652,755,0
3871393,336.01,652,751,0
3871404,334.55,652,755,0
3871414,333.49,652,751,0
3871424,333.60,652,755,0
3871434,335.13,652,752,0
3871444,340.36,652,755,0
3871454,350.37,652,751,0
3871464,368.09,652,755,0
3871474,395.06,652,752,0
3871484,431.94,652,755,0
3871494,475.16,652,752,0
3871504,521.83,652,755,0
3871514,568.72,652,752,0
3871534,613.16,663,751,0
3871537,651.77,663,753,0
3871546,682.14,663,754,0
3871556,703.40,663,752,0
3871566,718.28,663,755,0
3871576,728.69,663,752,0
3871586,735.64,663,754,0
3871596,737.12,663,752,0
3871606,731.09,663,754,0
3871617,716.96,663,752,0
3871627,693.87,663,753,0
3871637,662.54,663,753,0
3871647,622.69,663,754,0
3871657,575.90,663,753,0
3871667,525.40,663,754,0
3871677,475.44,663,753,0
3871687,427.35,663,754,0
3871697,384.26,663,753,0
3871707,346.04,663,754,0
3871717,314.66,663,752,0
3871727,289.26,663,754,0
3871737,271.27,663,753,0
3871747,259.40,663,754,0
3871757,254.52,663,752,0
3871767,254.58,663,754,0
3871777,260.02,663,753,0
3871788,268.71,663,753,0
3871798,280.93,663,753,0
3871808,294.28,663,754,0
3871818,309.11,663,753,0
3871828,323.22,663,753,0
3871838,337.13,663,753,0
3871848,349.00,663,754,0
3871858,360.02,663,753,0
3871868,368.50,663,753,0
3871878,375.72,663,753,0
3871888,380.00,663,754,0
3871898,383.05,663,753,0
3871908,383.46,663,753,0
3871918,383.02,663,753,0
3871928,380.27,663,753,0
3871938,377.11,663,753,0
3871948,372.27,663,753,0
3871959,367.82,663,753,0
3871969,362.43,663,753,0
3871979,358.02,663,753,0
3871989,353.17,663,753,0
3872000,349.65,663,754,0
3872009,346.11,663,754,0
3872019,344.02,663,753,0
3872029,341.83,663,753,0
3872039,341.02,663,754,0
3872049,339.99,663,754,0
3872059,340.08,663,753,0
3872069,339.63,663,753,0
3872079,340.12,663,754,0
3872089,340.13,663,753,0
3872099,341.68,663,753,0
3872109,344.39,663,753,0
3872119,351.73,663,753,0
3872129,364.07,663,753,0
3872139,385.60,663,753,0
3872149,416.41,663,753,0
3872159,455.80,663,754,0
3872169,499.87,663,753,0
3872188,546.50,655,752,0
3872191,591.61,655,752,0
3872200,633.34,655,755,0
3872210,667.69,655,752,0
3872220,693.29,655,754,0
3872230,711.16,655,753,0
3872240,723.67,655,755,0
3872250,732.38,655,752,0
3872260,738.52,655,754,0
3872270,739.05,655,753,0
3872280,732.82,655,754,0
3872290,717.96,655,752,0
3872300,695.04,655,754,0
3872310,663.27,655,752,0
3872320,623.81,655,754,0
3872330,576.46,655,752,0
3872340,526.61,655,755,0
3872350,476.20,655,753,0
3872360,429.34,655,754,0
3872370,386.04,655,752,0
3872380,349.13,655,755,0
3872390,317.80,655,753,0
3872400,294.08,655,754,0
3872410,276.44,655,752,0
3872420,266.11,655,755,0
3872430,260.98,655,753,0
3872440,261.93,655,754,0
3872450,266.62,655,752,0
3872460,275.65,655,755,0
3872471,286.60,655,752,0
3872481,300.05,655,754,0
3872491,313.70,655,752,0
3872501,328.19,655,755,0
3872512,341.51,655,752,0
3872521,354.43,655,754,0
3872531,365.14,655,752,0
3872541,374.66,655,755,0
3872551,381.49,655,752,0
3872561,387.00,655,754,0
3872571,389.83,655,752,0
3872581,391.42,655,755,0
3872591,390.70,655,752,0
3872601,389.33,655,754,0
3872611,386.27,655,752,0
3872621,382.93,655,755,0
3872631,378.28,655,752,0
3872641,374.17,655,754,0
3872651,369.45,655,752,0
3872661,365.58,655,755,0
3872671,361.42,655,752,0
3872681,358.30,655,755,0
3872691,355.16,655,752,0
3872701,353.10,655,755,0
3872711,350.67,655,752,0
3872721,349.14,655,755,0
3872731,347.21,655,752,0
3872741,346.16,655,755,0
3872751,344.66,655,752,0
3872761,343.99,655,755,0
3872771,343.13,655,752,0
3872781,344.12,655,755,0
3872791,346.83,655,752,0
3872801,354.29,655,754,0
3872812,367.53,655,752,0
3872822,390.17,655,755,0
3872832,422.39,655,752,0
3872842,462.65,655,755,0
3872852,507.15,655,752,0
3872871,553.69,683,751,0
3872874,598.66,683,753,0
3872883,639.43,683,755,0
3872893,672.56,683,752,0
3872903,696.69,683,755,0
3872913,713.58,683,752,0
3872923,725.41,683,755,0
3872933,733.69,683,752,0
3872943,736.74,683,755,0
3872953,732.57,683,752,0
3872963,720.27,683,755,0
3872973,699.15,683,752,0
3872983,669.75,683,755,0
3872993,632.02,683,751,0
3873003,586.76,683,754,0
3873013,537.42,683,752,0
3873024,487.79,683,755,0
3873033,440.20,683,752,0
3873043,397.02,683,755,0
3873053,358.79,683,752,0
3873063,326.79,683,755,0
3873073,301.06,683,751,0
3873083,281.93,683,755,0
3873093,269.09,683,752,0
3873103,262.29,683,755,0
3873113,260.53,683,752,0
3873123,263.54,683,755,0
3873133,270.28,683,752,0
3873143,280.18,683,755,0
3873153,292.08,683,751,0
3873163,305.39,683,755,0
3873173,319.07,683,752,0
3873183,332.76,683,755,0
3873193,345.65,683,752,0
3873203,357.50,683,755,0
3873213,367.55,683,752,0
3873223,375.83,683,755,0
3873233,381.88,683,752,0
3873243,386.07,683,755,0
3873253,387.98,683,751,0
3873263,387.99,683,755,0
3873273,386.40,683,752,0
3873283,384.01,683,755,0
3873293,380.79,683,751,0
3873303,377.17,683,755,0
3873313,373.22,683,752,0
3873324,369.47,683,755,0
3873334,366.03,683,752,0
3873344,362.59,683,755,0
3873354,359.33,683,752,0
3873364,356.23,683,754,0
3873374,353.67,683,752,0
3873384,351.54,683,755,0
3873394,350.01,683,752,0
3873404,348.68,683,754,0
3873414,347.96,683,751,0
3873424,347.54,683,755,0
3873434,347.64,683,752,0
3873444,347.75,683,755,0
3873454,348.25,683,751,0
3873464,349.29,683,754,0
3873474,352.29,683,752,0
3873484,358.42,683,754,0
3873495,370.08,683,752,0
