Time,PPG,IBI,GSR,GSR_Event
4748465,336.83,853,731,0
4748475,329.34,853,727,0
4748485,322.55,853,731,0
4748495,316.77,853,726,0
4748505,313.15,853,732,0
4748515,311.14,853,726,0
4748525,311.48,853,731,0
4748535,318.54,853,726,0
4748545,329.09,853,732,0
4748555,340.12,853,727,0
4748565,350.93,853,731,0
4748575,359.86,853,726,0
4748585,367.15,853,732,0
4748595,371.90,853,726,0
4748605,375.40,853,731,0
4748615,377.73,853,726,0
4748625,380.94,853,732,0
4748635,385.58,853,726,0
4748645,394.24,853,731,0
4748655,408.18,853,726,0
4748665,429.73,853,732,0
4748675,458.57,853,726,0
4748685,493.54,853,731,0
4748704,531.43,873,732,0
4748707,570.30,873,735,0
4748716,607.41,873,727,0
4748726,640.76,873,735,0
4748736,668.00,873,726,0
4748746,688.49,873,735,0
4748756,702.91,873,727,0
4748766,713.10,873,735,0
4748776,720.27,873,726,0
4748786,725.29,873,735,0
4748796,728.80,873,727,0
4748806,731.26,873,735,0
4748816,732.98,873,727,0
4748826,731.02,873,735,0
4748836,723.21,873,727,0
4748846,708.66,873,735,0
4748856,686.35,873,726,0
4748866,656.50,873,735,0
4748876,619.45,873,727,0
4748887,575.86,873,735,0
4748897,529.87,873,726,0
4748907,484.65,873,735,0
4748917,442.54,873,727,0
4748928,405.44,873,734,0
4748937,374.32,873,726,0
4748947,349.75,873,735,0
4748957,331.91,873,727,0
4748967,320.37,873,734,0
4748977,314.77,873,726,0
4748987,314.15,873,735,0
4748997,317.88,873,727,0
4749007,324.77,873,734,0
4749017,333.84,873,726,0
4749027,344.09,873,735,0
4749037,354.95,873,727,0
4749047,365.38,873,734,0
4749057,374.95,873,726,0
4749067,383.11,873,735,0
4749077,389.68,873,727,0
4749087,394.36,873,734,0
4749097,397.38,873,727,0
4749107,398.47,873,735,0
4749117,398.11,873,727,0
4749127,396.15,873,734,0
4749137,393.15,873,727,0
4749147,389.25,873,735,0
4749157,384.93,873,727,0
4749167,380.06,873,734,0
4749177,375.16,873,727,0
4749187,370.23,873,735,0
4749197,365.74,873,726,0
4749207,361.41,873,734,0
4749217,357.60,873,727,0
4749228,354.12,873,734,0
4749238,351.30,873,728,0
4749248,348.72,873,733,0
4749258,346.88,873,728,0
4749268,345.11,873,733,0
4749278,343.97,873,728,0
4749288,342.69,873,733,0
4749298,341.97,873,728,0
4749308,341.08,873,733,0
4749318,340.67,873,728,0
4749328,340.00,873,733,0
4749338,339.91,873,728,0
4749348,339.47,873,733,0
4749358,339.58,873,728,0
4749368,339.37,873,733,0
4749378,339.64,873,728,0
4749388,339.62,873,732,0
4749399,339.95,873,729,0
4749409,339.71,873,732,0
4749419,340.01,873,728,0
4749429,339.75,873,732,0
4749440,339.91,873,730,0
4749449,339.81,873,732,0
4749459,340.59,873,728,0
4749469,341.87,873,732,0
4749479,345.51,873,729,0
4749489,351.40,873,732,0
4749499,361.82,873,728,0
4749509,377.18,873,732,0
4749519,399.92,873,729,0
4749529,429.56,873,732,0
4749548,466.38,844,730,0
4749551,506.64,844,730,0
4749560,548.27,844,731,0
4749570,588.39,844,732,0
4749580,625.22,844,730,0
4749590,656.05,844,731,0
4749600,680.21,844,731,0
4749611,697.12,844,730,0
4749620,709.00,844,730,0
4749630,717.27,844,731,0
4749640,723.10,844,731,0
4749650,727.19,844,731,0
4749660,730.04,844,730,0
4749670,730.55,844,732,0
4749680,726.78,844,731,0
4749690,716.39,844,731,0
4749700,699.26,844,730,0
4749710,674.32,844,732,0
4749720,642.68,844,731,0
4749730,603.95,844,731,0
4749740,561.07,844,730,0
4749750,516.22,844,732,0
4749760,473.64,844,731,0
4749770,433.76,844,732,0
4749780,399.38,844,732,0
4749790,369.73,844,732,0
4749800,346.76,844,731,0
4749810,329.09,844,732,0
4749820,318.05,844,732,0
4749830,311.65,844,732,0
4749840,310.81,844,731,0
4749850,313.48,844,732,0
4749860,319.89,844,732,0
4749870,327.94,844,732,0
4749880,337.99,844,731,0
4749890,347.93,844,732,0
4749900,358.50,844,732,0
4749911,367.69,844,731,0
4749921,376.27,844,733,0
4749931,382.70,844,730,0
4749941,387.98,844,733,0
4749952,390.77,844,730,0
4749961,392.51,844,733,0
4749971,391.93,844,730,0
4749981,390.66,844,733,0
4749991,387.51,844,730,0
4750001,384.27,844,733,0
4750011,379.77,844,730,0
4750021,375.69,844,733,0
4750031,370.68,844,730,0
4750041,366.36,844,733,0
4750051,361.32,844,730,0
4750061,357.07,844,733,0
4750071,352.33,844,730,0
4750081,348.55,844,732,0
4750091,344.53,844,730,0
4750101,341.71,844,733,0
4750111,338.54,844,730,0
4750121,336.49,844,733,0
4750131,334.29,844,731,0
4750141,333.09,844,733,0
4750151,331.56,844,729,0
4750161,330.88,844,733,0
4750171,329.59,844,730,0
4750181,329.24,844,733,0
4750191,328.31,844,729,0
4750201,327.96,844,733,0
4750211,326.86,844,730,0
4750221,326.60,844,733,0
4750231,325.78,844,729,0
4750241,325.93,844,733,0
4750252,325.61,844,730,0
4750262,326.03,844,733,0
4750272,326.02,844,729,0
4750282,326.83,844,734,0
4750292,327.26,844,729,0
4750302,328.90,844,733,0
4750312,330.73,844,729,0
4750322,334.93,844,733,0
4750332,341.59,844,729,0
4750342,353.03,844,733,0
4750352,369.18,844,729,0
4750362,392.14,844,733,0
4750372,421.28,844,729,0
4750382,457.50,844,733,0
4750401,497.59,853,732,0
4750404,539.20,853,734,0
4750413,579.34,853,728,0
4750423,616.57,853,734,0
4750433,648.41,853,728,0
4750443,674.22,853,734,0
4750453,692.97,853,728,0
4750464,706.13,853,734,0
4750473,715.31,853,729,0
4750483,721.09,853,734,0
4750493,721.62,853,728,0
4750503,716.33,853,734,0
4750513,704.15,853,728,0
4750523,685.29,853,733,0
4750533,659.27,853,728,0
4750543,627.01,853,734,0
4750553,589.29,853,729,0
4750563,549.86,853,734,0
4750573,510.04,853,728,0
4750583,472.49,853,734,0
4750593,437.54,853,729,0
4750603,407.38,853,734,0
4750613,381.38,853,728,0
4750623,360.65,853,734,0
4750633,344.34,853,728,0
4750643,333.44,853,734,0
4750653,326.58,853,728,0
4750663,324.39,853,734,0
4750673,325.09,853,728,0
4750683,329.18,853,733,0
4750693,334.91,853,728,0
4750703,342.78,853,734,0
4750713,351.03,853,728,0
4750723,360.11,853,733,0
4750733,368.35,853,728,0
4750743,376.34,853,734,0
4750753,382.75,853,728,0
4750764,388.31,853,733,0
4750774,391.69,853,728,0
4750784,393.80,853,733,0
4750794,393.94,853,727,0
4750804,393.02,853,734,0
4750814,390.40,853,728,0
4750824,387.15,853,733,0
4750834,382.56,853,727,0
4750844,377.59,853,734,0
4750854,371.72,853,728,0
4750864,365.80,853,733,0
4750874,359.47,853,727,0
4750884,353.42,853,734,0
4750894,346.99,853,728,0
4750904,341.08,853,733,0
4750914,335.10,853,727,0
4750924,329.84,853,734,0
4750935,324.87,853,726,0
4750945,320.67,853,734,0
4750955,316.78,853,726,0
4750965,313.51,853,734,0
4750976,310.48,853,726,0
4750985,308.15,853,734,0
4750995,305.88,853,726,0
4751005,303.77,853,734,0
4751015,301.57,853,726,0
4751025,299.47,853,734,0
4751035,297.27,853,726,0
4751045,295.13,853,734,0
4751055,293.21,853,726,0
4751065,292.16,853,735,0
4751075,291.64,853,726,0
4751085,292.01,853,734,0
4751095,293.59,853,726,0
4751105,297.40,853,735,0
4751115,304.01,853,726,0
4751125,314.38,853,734,0
4751135,329.26,853,726,0
4751145,349.97,853,734,0
4751155,376.94,853,727,0
4751165,410.17,853,734,0
4751175,448.60,853,727,0
4751185,490.89,853,735,0
4751195,534.00,853,727,0
4751214,575.23,813,725,0
4751217,612.57,813,730,0
4751226,644.67,813,734,0
4751236,669.29,813,727,0
4751246,684.89,813,734,0
4751256,690.83,813,727,0
4751266,687.80,813,734,0
4751276,676.67,813,727,0
4751286,657.91,813,734,0
4751296,632.05,813,727,0
4751306,600.88,813,734,0
4751316,566.76,813,728,0
4751326,531.30,813,734,0
4751336,496.24,813,727,0
4751346,462.27,813,734,0
4751356,430.69,813,728,0
4751366,401.98,813,734,0
4751376,377.00,813,727,0
4751386,355.40,813,734,0
4751396,337.67,813,728,0
4751406,323.41,813,735,0
4751416,313.09,813,728,0
4751426,306.07,813,734,0
4751436,302.58,813,728,0
4751447,301.64,813,733,0
4751457,303.46,813,729,0
4751467,306.92,813,733,0
4751477,312.22,813,729,0
4751488,318.24,813,732,0
4751497,325.11,813,729,0
4751507,331.68,813,733,0
4751517,338.37,813,730,0
4751527,344.18,813,733,0
4751537,349.52,813,729,0
4751547,353.44,813,734,0
4751557,356.69,813,730,0
4751567,358.46,813,733,0
4751577,359.82,813,729,0
4751587,359.96,813,733,0
4751597,359.97,813,730,0
4751607,359.04,813,733,0
4751617,358.34,813,729,0
4751627,357.34,813,734,0
4751637,357.15,813,730,0
4751647,356.72,813,733,0
4751657,357.28,813,730,0
4751667,357.96,813,733,0
4751677,359.82,813,730,0
4751687,361.72,813,733,0
4751697,364.29,813,729,0
4751707,366.39,813,734,0
4751717,368.76,813,730,0
4751727,370.07,813,733,0
4751737,371.04,813,730,0
4751747,370.77,813,734,0
4751757,370.07,813,730,0
4751767,367.95,813,733,0
4751777,365.39,813,730,0
4751788,361.63,813,733,0
4751798,357.80,813,730,0
4751808,353.02,813,733,0
4751818,348.55,813,730,0
4751828,343.63,813,733,0
4751838,339.88,813,730,0
4751848,336.75,813,733,0
4751858,336.01,813,731,0
4751868,337.25,813,732,0
4751878,342.23,813,730,0
4751888,350.52,813,733,0
4751898,363.99,813,730,0
4751908,381.48,813,732,0
4751927,403.75,713,732,0
4751930,428.98,713,730,0
4751939,457.92,713,732,0
4751949,487.86,713,731,0
4751959,517.90,713,731,0
4751969,544.76,713,732,0
4751979,567.97,713,732,0
4751989,585.12,713,731,0
4752000,596.40,713,733,0
4752009,599.80,713,732,0
4752019,596.60,713,732,0
4752029,586.26,713,731,0
4752039,571.06,713,732,0
4752049,551.11,713,732,0
4752059,528.96,713,731,0
4752069,504.46,713,732,0
4752079,479.68,713,733,0
4752089,454.32,713,732,0
4752099,430.57,713,731,0
4752109,407.81,713,731,0
4752119,387.60,713,732,0
4752129,369.03,713,732,0
4752139,353.76,713,731,0
4752149,340.59,713,732,0
4752159,330.81,713,732,0
4752169,323.07,713,731,0
4752179,318.42,713,731,0
4752189,315.34,713,731,0
4752199,314.81,713,732,0
4752209,315.12,713,731,0
4752219,317.27,713,731,0
4752229,319.72,713,732,0
4752239,323.40,713,732,0
4752249,326.80,713,731,0
4752259,331.14,713,731,0
4752269,334.83,713,732,0
4752279,338.95,713,732,0
4752289,342.05,713,731,0
4752300,345.29,713,732,0
4752310,347.35,713,730,0
4752320,349.52,713,733,0
4752330,350.22,713,730,0
4752340,350.84,713,733,0
4752350,350.29,713,730,0
4752360,349.90,713,733,0
4752370,348.69,713,730,0
4752380,347.80,713,733,0
4752390,346.19,713,730,0
4752400,345.23,713,733,0
4752410,343.66,713,730,0
4752420,342.65,713,733,0
4752430,341.17,713,730,0
4752440,340.30,713,733,0
4752450,338.88,713,730,0
4752460,338.28,713,733,0
4752471,337.29,713,730,0
4752481,337.16,713,734,0
4752491,336.60,713,729,0
4752501,336.72,713,734,0
4752512,336.55,713,729,0
4752521,337.37,713,734,0
4752531,337.81,713,729,0
4752541,339.37,713,734,0
4752551,341.40,713,729,0
4752561,345.74,713,734,0
4752571,351.82,713,730,0
4752581,361.43,713,734,0
4752591,374.33,713,729,0
4752601,392.19,713,734,0
4752620,414.03,693,733,0
4752623,440.42,693,735,0
4752632,470.51,693,729,0
4752642,503.40,693,734,0
4752652,536.28,693,729,0
4752662,568.04,693,734,0
4752672,595.63,693,729,0
4752683,618.50,693,734,0
4752692,634.72,693,729,0
4752702,643.46,693,734,0
4752712,644.18,693,729,0
4752722,638.17,693,734,0
4752732,625.39,693,729,0
4752742,607.92,693,734,0
4752752,585.91,693,729,0
4752762,561.30,693,734,0
4752772,534.51,693,729,0
4752782,507.40,693,734,0
4752792,480.15,693,729,0
4752802,454.18,693,734,0
4752812,429.39,693,729,0
4752822,407.08,693,734,0
4752832,386.87,693,729,0
4752842,369.64,693,735,0
4752852,354.92,693,729,0
4752862,343.46,693,734,0
4752872,334.40,693,729,0
4752882,328.45,693,735,0
4752892,324.68,693,729,0
4752902,323.57,693,734,0
4752912,324.04,693,729,0
4752922,326.56,693,735,0
4752932,329.99,693,729,0
4752942,335.01,693,734,0
4752952,340.23,693,729,0
4752962,346.12,693,735,0
4752972,351.57,693,729,0
4752983,357.19,693,734,0
4752993,362.14,693,729,0
4753003,366.90,693,735,0
4753013,370.87,693,728,0
4753024,374.47,693,736,0
4753033,376.90,693,729,0
4753043,378.77,693,735,0
4753053,379.61,693,728,0
4753063,379.73,693,736,0
4753073,378.91,693,729,0
4753083,377.57,693,735,0
4753093,375.60,693,728,0
4753103,373.62,693,736,0
4753113,371.29,693,729,0
4753123,369.19,693,734,0
4753133,367.12,693,728,0
4753143,365.33,693,736,0
4753153,363.38,693,729,0
4753163,361.94,693,734,0
4753173,360.54,693,728,0
4753183,359.52,693,736,0
4753193,358.38,693,727,0
4753203,357.54,693,734,0
4753213,356.86,693,728,0
4753223,357.03,693,736,0
4753233,358.14,693,727,0
4753243,361.14,693,734,0
4753253,366.58,693,728,0
4753263,375.84,693,735,0
4753273,389.56,693,726,0
4753283,408.59,693,734,0
4753293,432.84,693,729,0
4753303,462.37,693,736,0
4753323,496.03,702,735,0
4753326,532.50,702,734,0
4753335,569.08,702,728,0
4753345,603.77,702,735,0
4753355,634.95,702,728,0
4753366,661.67,702,734,0
4753375,682.98,702,728,0
4753385,697.94,702,735,0
4753395,706.02,702,728,0
4753405,707.34,702,734,0
4753415,702.61,702,728,0
4753425,691.84,702,735,0
4753435,675.26,702,728,0
4753445,652.77,702,734,0
4753455,626.09,702,728,0
4753465,596.41,702,735,0
4753475,565.60,702,728,0
4753485,534.13,702,734,0
4753495,503.62,702,728,0
4753505,474.59,702,735,0
4753515,448.36,702,728,0
4753525,424.94,702,735,0
4753536,405.16,702,729,0
4753545,388.61,702,735,0
4753555,376.08,702,728,0
4753565,366.89,702,734,0
4753575,361.48,702,729,0
4753585,359.02,702,735,0
4753595,359.61,702,728,0
4753605,362.39,702,735,0
4753615,367.50,702,729,0
4753625,373.65,702,735,0
4753635,380.83,702,728,0
4753645,387.95,702,735,0
4753655,395.29,702,729,0
4753665,401.98,702,735,0
4753675,407.98,702,728,0
4753685,412.53,702,735,0
4753695,416.06,702,729,0
4753705,417.93,702,734,0
4753715,418.85,702,728,0
4753725,418.12,702,735,0
4753735,416.50,702,729,0
4753745,413.44,702,734,0
4753755,409.83,702,728,0
4753765,405.51,702,735,0
4753775,401.24,702,729,0
4753785,396.46,702,734,0
4753795,391.86,702,728,0
4753805,387.10,702,735,0
4753815,383.17,702,729,0
4753825,379.31,702,734,0
4753836,376.13,702,730,0
4753846,372.83,702,733,0
4753856,370.27,702,730,0
4753866,367.83,702,734,0
4753876,366.47,702,730,0
4753886,365.77,702,733,0
4753896,367.42,702,730,0
4753906,371.63,702,733,0
4753916,380.57,702,730,0
4753926,394.28,702,733,0
4753936,414.94,702,730,0
4753946,442.47,702,734,0
4753956,477.17,702,730,0
4753966,515.44,702,734,0
4753985,555.03,663,732,0
4753988,593.17,663,732,0
4753997,628.47,663,731,0
4754007,658.50,663,733,0
4754017,682.05,663,731,0
4754027,698.58,663,733,0
4754037,710.15,663,731,0
4754048,718.25,663,732,0
4754057,723.96,663,731,0
4754067,727.91,663,733,0
4754077,730.73,663,731,0
4754087,729.65,663,732,0
4754097,724.01,663,731,0
4754107,711.75,663,733,0
4754117,692.84,663,731,0
4754127,666.66,663,732,0
4754137,634.40,663,730,0
4754147,595.97,663,733,0
4754157,555.35,663,731,0
4754167,513.54,663,732,0
4754177,474.38,663,730,0
4754187,438.44,663,733,0
4754197,407.79,663,731,0
4754207,381.54,663,732,0
4754217,361.15,663,731,0
4754227,345.72,663,733,0
4754237,336.37,663,731,0
4754247,331.46,663,732,0
4754257,331.50,663,731,0
4754267,334.60,663,733,0
4754277,341.11,663,731,0
4754287,348.83,663,732,0
4754297,358.35,663,731,0
4754307,367.63,663,733,0
4754317,377.09,663,731,0
4754327,384.95,663,732,0
4754337,392.03,663,731,0
4754348,397.04,663,732,0
4754358,401.18,663,732,0
4754368,403.06,663,731,0
4754378,404.07,663,733,0
4754388,403.06,663,730,0
4754398,401.72,663,732,0
4754408,398.84,663,731,0
4754418,395.85,663,733,0
4754428,391.65,663,731,0
4754438,387.86,663,732,0
4754448,383.48,663,731,0
4754458,379.78,663,733,0
4754468,375.13,663,731,0
4754478,371.32,663,732,0
4754488,367.07,663,731,0
4754498,363.70,663,733,0
4754508,359.94,663,731,0
4754519,357.00,663,733,0
4754529,354.17,663,730,0
4754539,353.60,663,734,0
4754549,354.67,663,730,0
4754560,359.82,663,734,0
4754569,368.79,663,730,0
4754579,384.41,663,734,0
4754589,406.66,663,731,0
4754599,437.62,663,734,0
4754609,474.72,663,730,0
4754619,515.47,663,734,0
4754638,556.52,653,733,0
4754641,596.43,653,735,0
4754650,632.13,653,730,0
4754660,662.35,653,734,0
4754670,684.87,653,730,0
4754680,700.68,653,735,0
4754690,711.71,653,730,0
4754700,719.47,653,734,0
4754710,724.90,653,730,0
4754720,728.74,653,735,0
4754731,731.39,653,730,0
4754740,733.29,653,735,0
4754750,731.02,653,730,0
4754760,723.43,653,734,0
4754770,708.64,653,729,0
4754780,686.93,653,734,0
4754790,657.55,653,730,0
4754800,621.47,653,734,0
4754810,578.56,653,729,0
4754820,533.99,653,734,0
4754830,489.34,653,730,0
4754840,448.18,653,735,0
4754850,410.71,653,730,0
4754860,379.25,653,734,0
4754870,353.08,653,730,0
4754880,333.55,653,734,0
4754890,319.33,653,730,0
4754900,311.22,653,734,0
4754910,307.34,653,730,0
4754920,308.09,653,734,0
4754930,311.71,653,730,0
4754940,318.74,653,734,0
4754950,327.26,653,730,0
4754960,337.42,653,734,0
4754970,347.33,653,729,0
4754980,357.56,653,734,0
4754990,366.56,653,730,0
4755000,374.92,653,734,0
4755010,381.07,653,730,0
4755020,386.02,653,734,0
4755031,388.54,653,729,0
4755041,389.80,653,735,0
4755051,389.04,653,729,0
4755061,387.40,653,734,0
4755072,384.11,653,729,0
4755081,380.39,653,735,0
4755091,375.47,653,729,0
4755101,370.70,653,734,0
4755111,365.48,653,729,0
4755121,360.66,653,735,0
4755131,355.66,653,729,0
4755141,351.31,653,734,0
4755151,346.97,653,729,0
4755161,343.47,653,735,0
4755171,340.07,653,729,0
4755181,337.99,653,734,0
4755191,336.92,653,729,0
4755201,338.40,653,735,0
4755211,342.91,653,729,0
4755221,352.58,653,734,0
4755231,368.35,653,729,0
4755241,392.59,653,735,0
4755251,424.94,653,729,0
4755261,464.26,653,734,0
4755271,506.99,653,730,0
4755281,550.71,653,735,0
4755300,592.41,662,734,0
4755303,629.96,662,738,0
4755312,660.74,662,728,0
4755322,683.88,662,736,0
4755332,700.07,662,729,0
4755342,711.41,662,735,0
4755352,719.34,662,728,0
4755362,724.90,662,736,0
4755372,728.83,662,730,0
4755382,731.58,662,735,0
4755392,733.51,662,728,0
4755402,734.85,662,736,0
4755412,734.47,662,728,0
4755422,730.00,662,735,0
4755432,718.90,662,728,0
4755442,700.07,662,736,0
4755452,672.97,662,728,0
4755462,638.22,662,735,0
4755472,595.94,662,728,0
4755482,548.34,662,736,0
4755492,498.70,662,728,0
4755502,450.87,662,735,0
4755512,406.94,662,728,0
4755522,368.64,662,736,0
4755532,336.39,662,728,0
4755543,310.99,662,735,0
4755553,292.39,662,728,0
4755563,280.45,662,736,0
4755573,274.53,662,728,0
4755584,273.85,662,735,0
4755593,277.58,662,728,0
4755603,284.61,662,736,0
4755613,294.11,662,728,0
4755623,304.75,662,735,0
4755633,315.80,662,728,0
4755643,326.36,662,736,0
4755653,335.94,662,728,0
4755663,343.88,662,735,0
4755673,350.09,662,728,0
4755683,354.31,662,736,0
4755693,356.83,662,728,0
4755703,357.48,662,735,0
4755713,356.39,662,727,0
4755723,353.88,662,736,0
4755733,350.44,662,728,0
4755743,346.19,662,736,0
4755753,341.51,662,728,0
4755763,336.51,662,736,0
4755773,331.60,662,728,0
4755783,326.79,662,735,0
4755793,322.40,662,728,0
4755803,318.16,662,736,0
4755813,314.21,662,727,0
4755823,310.38,662,735,0
4755833,306.92,662,728,0
4755843,303.82,662,736,0
4755853,301.34,662,728,0
4755863,299.40,662,736,0
4755873,298.72,662,728,0
4755884,299.92,662,735,0
4755894,304.27,662,729,0
4755904,312.68,662,734,0
4755914,326.70,662,729,0
4755924,347.23,662,734,0
4755934,375.32,662,729,0
4755944,410.75,662,735,0
4755954,452.87,662,729,0
4755964,497.95,662,734,0
4755983,543.22,683,733,0
4755986,585.80,683,733,0
4755995,623.87,683,730,0
4756005,655.67,683,733,0
4756015,680.33,683,730,0
4756025,697.54,683,734,0
4756035,708.74,683,730,0
4756045,712.93,683,733,0
4756055,710.42,683,730,0
4756065,700.22,683,733,0
4756075,682.46,683,730,0
4756085,656.73,683,733,0
4756096,624.07,683,730,0
4756105,585.48,683,733,0
4756115,544.45,683,730,0
4756125,501.93,683,734,0
4756135,460.81,683,730,0
4756145,421.74,683,734,0
4756155,386.63,683,730,0
4756165,355.11,683,734,0
4756175,328.46,683,731,0
4756185,305.87,683,734,0
4756195,288.29,683,730,0
4756205,274.53,683,733,0
4756215,265.42,683,730,0
4756225,259.51,683,734,0
4756235,257.17,683,729,0
4756245,256.90,683,734,0
4756255,259.33,683,730,0
4756265,262.92,683,733,0
4756275,268.21,683,729,0
4756285,273.76,683,733,0
4756295,280.14,683,730,0
4756305,286.05,683,733,0
4756315,292.08,683,729,0
4756325,296.94,683,734,0
4756335,301.59,683,730,0
4756345,304.84,683,733,0
4756355,307.54,683,729,0
4756365,308.84,683,733,0
4756375,309.74,683,730,0
4756385,309.18,683,733,0
4756396,308.44,683,730,0
4756406,306.51,683,733,0
4756416,304.64,683,731,0
4756426,301.79,683,732,0
4756436,299.41,683,731,0
4756446,296.42,683,733,0
4756456,294.23,683,731,0
4756466,291.59,683,732,0
4756476,289.79,683,731,0
4756486,287.62,683,733,0
4756496,286.36,683,731,0
4756506,284.50,683,732,0
4756516,283.19,683,731,0
4756526,281.25,683,733,0
4756536,279.93,683,731,0
4756546,278.07,683,732,0
4756556,276.97,683,731,0
4756567,275.48,683,732,0
4756577,274.99,683,732,0
4756587,274.35,683,731,0
4756597,274.85,683,733,0
4756608,275.79,683,730,0
4756617,278.86,683,732,0
4756627,283.44,683,731,0
4756637,291.62,683,733,0
4756647,302.66,683,730,0
4756657,318.45,683,732,0
4756667,337.90,683,731,0
4756677,362.10,683,733,0
4756697,388.99,713,732,0
4756700,418.48,713,735,0
4756709,448.25,713,729,0
4756719,477.57,713,734,0
4756729,503.24,713,729,0
4756739,525.16,713,734,0
4756749,540.37,713,729,0
4756759,549.51,713,733,0
4756769,551.20,713,729,0
4756780,546.47,713,734,0
4756790,535.32,713,729,0
4756800,520.13,713,734,0
4756810,500.68,713,729,0
4756820,479.52,713,734,0
4756830,456.65,713,729,0
4756840,434.17,713,734,0
4756850,411.75,713,729,0
4756860,390.82,713,734,0
4756870,371.03,713,729,0
4756880,353.84,713,734,0
4756890,338.50,713,729,0
4756900,325.92,713,734,0
4756910,315.32,713,729,0
4756920,307.38,713,734,0
4756930,301.27,713,729,0
4756940,297.54,713,734,0
4756951,295.02,713,729,0
4756961,294.24,713,735,0
4756971,294.51,713,727,0
4756981,296.16,713,736,0
4756992,298.38,713,727,0
4757001,301.65,713,734,0
4757011,304.93,713,727,0
4757021,308.72,713,736,0
4757031,312.23,713,727,0
4757041,315.89,713,734,0
4757051,318.88,713,727,0
4757061,321.57,713,736,0
4757071,323.50,713,727,0
4757081,325.11,713,734,0
4757091,325.85,713,727,0
4757101,326.24,713,736,0
4757111,325.82,713,727,0
4757121,325.28,713,734,0
4757131,324.21,713,727,0
4757141,322.99,713,735,0
4757151,321.36,713,726,0
4757161,319.84,713,735,0
4757171,318.13,713,727,0
4757181,316.55,713,735,0
4757191,314.80,713,726,0
4757201,313.36,713,735,0
4757211,311.88,713,727,0
4757221,310.97,713,735,0
4757231,310.34,713,727,0
4757241,310.15,713,735,0
4757251,309.89,713,727,0
4757261,309.97,713,735,0
4757271,309.98,713,727,0
4757281,310.11,713,735,0
4757292,309.99,713,726,0
4757302,309.74,713,735,0
4757312,309.30,713,726,0
4757322,308.95,713,735,0
4757332,308.80,713,727,0
4757342,308.90,713,735,0
4757352,309.40,713,726,0
4757362,310.44,713,735,0
4757372,312.49,713,727,0
4757382,315.73,713,735,0
4757392,320.65,713,726,0
4757402,327.44,713,735,0
4757412,336.74,713,727,0
4757422,348.60,713,735,0
4757432,363.04,713,726,0
4757451,379.70,755,725,0
4757454,398.56,755,729,0
4757463,419.05,755,734,0
4757473,439.78,755,727,0
4757483,459.09,755,734,0
4757493,476.16,755,728,0
4757504,489.74,755,733,0
4757513,499.46,755,727,0
4757523,504.34,755,734,0
4757533,504.45,755,727,0
4757543,500.07,755,733,0
4757553,492.59,755,727,0
4757563,482.09,755,734,0
4757573,469.89,755,727,0
4757583,455.95,755,733,0
4757593,441.57,755,727,0
4757603,426.70,755,734,0
4757613,412.34,755,727,0
4757623,398.18,755,733,0
4757633,385.27,755,727,0
4757643,373.58,755,734,0
4757653,363.80,755,727,0
4757663,355.38,755,734,0
4757673,348.92,755,729,0
4757683,343.89,755,734,0
4757693,340.75,755,727,0
4757703,338.64,755,734,0
4757713,337.93,755,729,0
4757723,338.00,755,735,0
4757733,339.24,755,727,0
4757743,340.75,755,734,0
4757753,343.14,755,729,0
4757763,345.54,755,734,0
4757773,348.55,755,727,0
4757783,351.21,755,733,0
4757793,354.15,755,729,0
4757804,356.46,755,733,0
4757814,358.89,755,728,0
4757824,360.51,755,733,0
4757834,362.20,755,729,0
4757844,363.04,755,733,0
4757854,363.80,755,728,0
4757864,363.69,755,733,0
4757874,363.70,755,729,0
4757884,362.84,755,732,0
4757894,362.25,755,728,0
4757904,360.93,755,733,0
4757914,360.09,755,729,0
4757924,358.65,755,732,0
4757934,357.68,755,729,0
4757944,356.28,755,733,0
4757954,355.55,755,729,0
4757964,354.27,755,732,0
4757975,353.55,755,729,0
4757985,352.14,755,732,0
4757995,351.50,755,730,0
4758005,350.36,755,732,0
4758016,349.95,755,730,0
4758025,349.11,755,732,0
4758035,349.12,755,730,0
4758045,348.70,755,732,0
4758055,349.09,755,730,0
4758065,348.93,755,732,0
4758075,349.47,755,730,0
4758085,349.28,755,732,0
4758095,349.71,755,730,0
4758105,349.33,755,732,0
4758115,349.49,755,730,0
4758125,349.21,755,732,0
4758135,349.96,755,730,0
4758145,350.70,755,732,0
4758155,353.06,755,730,0
4758165,355.92,755,732,0
4758175,361.08,755,730,0
4758185,367.57,755,731,0
4758195,376.74,755,730,0
4758205,387.32,755,732,0
4758215,400.68,755,730,0
4758235,415.22,783,729,0
4758238,431.74,783,733,0
4758247,448.66,783,730,0
4758257,466.16,783,733,0
4758267,481.71,783,729,0
4758277,495.86,783,733,0
4758287,506.19,783,729,0
4758297,513.50,783,733,0
4758307,516.31,783,729,0
4758317,515.66,783,733,0
4758327,510.70,783,729,0
4758337,503.55,783,733,0
4758347,493.48,783,729,0
4758358,482.50,783,734,0
4758367,469.92,783,729,0
4758377,457.51,783,733,0
4758387,444.37,783,729,0
4758397,432.35,783,733,0
4758407,420.50,783,730,0
4758417,410.24,783,733,0
4758427,400.69,783,729,0
4758437,393.16,783,733,0
4758447,386.47,783,730,0
4758457,381.96,783,733,0
4758467,378.20,783,729,0
4758477,376.38,783,733,0
4758487,375.07,783,730,0
4758497,375.26,783,733,0
4758507,375.74,783,729,0
4758517,377.58,783,733,0
4758528,379.25,783,729,0
4758537,381.79,783,733,0
4758547,383.74,783,729,0
4758557,386.26,783,733,0
4758567,388.02,783,729,0
4758577,390.07,783,733,0
4758587,391.21,783,729,0
4758597,392.69,783,733,0
4758607,393.30,783,729,0
4758617,394.24,783,733,0
4758627,394.25,783,729,0
4758637,394.73,783,733,0
4758647,394.43,783,729,0
4758657,394.56,783,733,0
4758667,393.70,783,729,0
4758677,393.24,783,733,0
4758687,392.01,783,729,0
4758697,391.32,783,734,0
4758707,389.85,783,729,0
4758717,388.91,783,733,0
4758727,387.31,783,729,0
4758737,386.32,783,734,0
4758747,384.68,783,729,0
4758757,383.62,783,733,0
4758767,381.98,783,729,0
4758777,380.95,783,733,0
4758787,379.43,783,729,0
4758797,378.61,783,733,0
4758807,377.27,783,729,0
4758817,376.68,783,734,0
4758828,375.62,783,728,0
4758838,375.30,783,733,0
4758848,374.57,783,729,0
4758858,374.40,783,734,0
4758868,373.85,783,728,0
4758878,374.24,783,734,0
4758888,374.25,783,729,0
4758898,374.95,783,734,0
4758908,375.14,783,728,0
4758918,375.99,783,734,0
4758928,376.68,783,729,0
4758938,378.23,783,734,0
4758948,379.88,783,728,0
4758958,383.04,783,734,0
4758968,387.14,783,729,0
4758978,393.62,783,734,0
4758988,401.83,783,728,0
4758999,413.11,783,734,0
4759009,426.58,783,728,0
4759028,442.73,794,727,0
4759031,460.51,794,727,0
4759041,480.16,794,735,0
4759051,500.00,794,727,0
4759061,519.11,794,735,0
4759071,535.92,794,726,0
4759081,549.66,794,735,0
4759091,559.62,794,727,0
4759101,565.48,794,735,0
4759111,566.88,794,726,0
4759121,564.17,794,735,0
4759131,558.25,794,727,0
4759141,549.56,794,735,0
4759151,539.06,794,726,0
4759161,527.04,794,735,0
4759171,514.60,794,727,0
4759181,502.04,794,735,0
4759191,489.85,794,726,0
4759201,478.07,794,735,0
4759212,467.25,794,727,0
4759222,457.40,794,734,0
4759232,448.97,794,727,0
4759242,441.39,794,733,0
4759252,435.32,794,729,0
4759262,430.59,794,734,0
4759272,427.46,794,728,0
4759282,425.35,794,734,0
4759292,424.77,794,729,0
4759302,425.06,794,734,0
4759312,426.54,794,728,0
4759322,428.09,794,733,0
4759332,430.21,794,729,0
4759342,432.24,794,734,0
4759352,434.61,794,728,0
4759362,436.49,794,733,0
4759372,438.40,794,729,0
4759383,439.65,794,733,0
4759393,441.00,794,729,0
4759403,441.56,794,733,0
4759413,442.16,794,729,0
4759424,441.94,794,732,0
4759433,441.79,794,729,0
4759443,441.04,794,733,0
4759453,440.51,794,729,0
4759463,439.29,794,733,0
4759473,438.34,794,729,0
4759483,436.78,794,733,0
4759493,435.78,794,729,0
4759503,434.17,794,733,0
4759513,432.83,794,729,0
4759523,430.87,794,733,0
4759533,429.37,794,729,0
4759543,427.20,794,733,0
4759553,425.51,794,729,0
4759563,423.39,794,733,0
4759573,421.81,794,729,0
4759583,419.81,794,733,0
4759593,418.45,794,729,0
4759603,416.73,794,733,0
4759613,415.70,794,729,0
4759623,414.37,794,733,0
4759633,413.79,794,730,0
4759643,412.95,794,732,0
4759653,412.80,794,729,0
4759663,412.30,794,733,0
4759673,412.42,794,729,0
4759683,412.25,794,733,0
4759693,412.61,794,729,0
4759703,412.34,794,733,0
4759713,412.67,794,729,0
4759724,412.98,794,732,0
4759734,414.66,794,730,0
4759744,417.12,794,732,0
4759754,422.14,794,730,0
4759764,429.17,794,731,0
4759774,439.96,794,730,0
4759784,453.90,794,732,0
4759794,472.19,794,730,0
4759804,493.47,794,731,0
4759823,518.40,795,731,0
4759826,544.51,795,730,0
4759835,572.94,795,732,0
4759845,600.52,795,730,0
4759855,626.85,795,731,0
4759865,649.27,795,731,0
4759875,667.91,795,732,0
4759885,680.80,795,730,0
4759895,689.04,795,731,0
4759905,690.40,795,731,0
4759915,686.98,795,732,0
4759925,677.99,795,730,0
4759936,665.39,795,733,0
4759945,648.95,795,731,0
4759955,630.75,795,732,0
4759965,610.25,795,729,0
4759975,589.60,795,733,0
4759985,568.25,795,731,0
4759995,548.42,795,732,0
4760005,529.44,795,730,0
4760015,513.15,795,733,0
4760025,498.36,795,731,0
4760035,486.77,795,732,0
4760045,476.98,795,730,0
4760055,470.34,795,733,0
4760065,465.27,795,731,0
4760075,463.00,795,732,0
4760085,461.59,795,730,0
4760095,462.18,795,732,0
4760105,463.20,795,730,0
4760115,465.71,795,731,0
4760125,468.11,795,730,0
4760135,471.51,795,732,0
4760145,474.31,795,730,0
4760155,477.73,795,732,0
4760165,480.30,795,730,0
4760175,483.12,795,732,0
4760185,484.67,795,730,0
4760195,486.23,795,731,0
4760205,486.37,795,730,0
4760215,486.30,795,732,0
4760225,484.88,795,730,0
4760236,483.50,795,733,0
4760246,480.87,795,729,0
4760256,478.55,795,733,0
4760266,475.21,795,729,0
4760276,472.45,795,733,0
4760286,469.01,795,729,0
4760296,466.22,795,733,0
4760306,462.94,795,729,0
4760316,460.43,795,733,0
4760326,457.77,795,730,0
4760336,456.13,795,733,0
4760346,453.90,795,730,0
4760356,452.30,795,733,0
4760366,449.90,795,730,0
4760376,447.79,795,733,0
4760386,444.72,795,730,0
4760396,441.68,795,734,0
4760407,437.62,795,729,0
4760417,434.00,795,734,0
4760427,429.97,795,729,0
4760437,426.85,795,734,0
4760448,423.64,795,729,0
4760457,421.69,795,734,0
4760467,419.68,795,729,0
4760477,418.71,795,734,0
4760487,417.64,795,729,0
4760497,417.49,795,734,0
4760507,417.43,795,730,0
4760517,418.80,795,734,0
4760527,421.05,795,729,0
4760537,425.70,795,734,0
4760547,432.52,795,729,0
4760557,443.55,795,734,0
4760567,458.69,795,729,0
4760577,479.18,795,734,0
4760587,504.33,795,730,0
4760597,534.14,795,734,0
4760607,565.86,795,729,0
4760627,598.04,803,728,0
4760630,628.24,803,729,0
4760639,655.39,803,735,0
4760649,677.98,803,727,0
4760659,695.65,803,736,0
4760669,708.01,803,729,0
4760679,716.71,803,736,0
4760689,722.75,803,727,0
4760699,726.98,803,736,0
4760709,729.95,803,729,0
4760719,732.02,803,735,0
4760729,732.40,803,728,0
4760739,729.71,803,736,0
4760749,722.81,803,729,0
4760759,711.42,803,735,0
4760769,694.97,803,727,0
4760779,673.55,803,736,0
4760790,647.33,803,727,0
4760799,618.04,803,735,0
4760809,587.73,803,727,0
4760819,558.50,803,736,0
4760829,531.35,803,728,0
4760839,507.50,803,734,0
4760849,487.38,803,728,0
4760859,471.54,803,735,0
4760869,459.63,803,727,0
4760879,451.81,803,734,0
4760889,447.28,803,728,0
4760899,445.91,803,735,0
4760909,446.97,803,727,0
4760919,450.11,803,734,0
4760929,454.36,803,728,0
4760939,459.74,803,735,0
4760949,465.30,803,727,0
4760960,470.91,803,735,0
4760969,475.78,803,728,0
4760979,480.00,803,735,0
4760989,483.13,803,727,0
4760999,485.28,803,735,0
4761009,486.05,803,728,0
4761019,485.91,803,735,0
4761029,484.48,803,727,0
4761039,482.23,803,735,0
4761049,478.99,803,728,0
4761059,475.35,803,735,0
4761069,471.26,803,727,0
4761079,466.98,803,735,0
4761089,462.23,803,728,0
4761099,457.66,803,735,0
4761109,453.05,803,727,0
4761119,448.71,803,735,0
4761129,444.38,803,727,0
4761139,440.45,803,735,0
4761149,436.59,803,727,0
4761159,433.11,803,735,0
4761169,429.99,803,727,0
4761179,427.34,803,734,0
4761189,424.92,803,727,0
4761199,422.85,803,735,0
4761209,420.83,803,727,0
4761219,419.17,803,734,0
4761229,417.36,803,727,0
4761239,415.58,803,735,0
4761249,413.74,803,727,0
4761260,412.02,803,734,0
4761270,410.34,803,726,0
4761280,408.87,803,734,0
4761290,407.96,803,726,0
4761300,408.32,803,733,0
4761310,410.45,803,725,0
4761320,415.42,803,734,0
4761330,424.85,803,726,0
4761340,440.24,803,733,0
4761350,462.11,803,725,0
4761360,490.88,803,734,0
4761370,524.34,803,727,0
4761380,559.98,803,734,0
4761390,595.73,803,727,0
4761409,629.07,783,726,0
4761412,657.89,783,729,0
4761421,681.19,783,733,0
4761431,697.85,783,727,0
4761441,709.51,783,734,0
4761451,717.71,783,729,0
4761461,723.41,783,733,0
4761472,727.40,783,729,0
4761481,730.20,783,734,0
4761491,732.20,783,728,0
4761501,733.55,783,733,0
4761511,734.50,783,729,0
4761521,732.59,783,734,0
4761531,726.33,783,728,0
4761541,714.44,783,734,0
4761551,696.40,783,729,0
4761561,672.02,783,734,0
4761571,641.89,783,728,0
4761581,606.09,783,733,0
4761591,568.05,783,729,0
4761601,530.19,783,735,0
4761611,495.29,783,728,0
4761621,464.39,783,734,0
4761631,438.77,783,729,0
4761641,418.27,783,733,0
4761651,403.70,783,728,0
4761661,394.32,783,734,0
4761671,390.07,783,729,0
4761681,389.36,783,733,0
4761691,392.17,783,728,0
4761701,397.17,783,734,0
4761711,404.15,783,729,0
4761721,411.65,783,734,0
4761731,419.73,783,728,0
4761741,427.01,783,734,0
4761751,433.82,783,729,0
4761761,438.93,783,733,0
4761772,443.07,783,730,0
4761782,445.36,783,734,0
4761792,446.45,783,730,0
4761802,445.59,783,733,0
4761812,443.87,783,731,0
4761822,440.57,783,734,0
4761832,436.97,783,730,0
4761842,431.96,783,734,0
4761852,426.87,783,731,0
4761862,421.00,783,734,0
4761872,415.60,783,730,0
4761882,409.80,783,734,0
4761892,404.55,783,730,0
4761902,398.98,783,734,0
4761912,394.10,783,729,0
4761922,389.02,783,734,0
4761932,384.90,783,730,0
4761943,380.68,783,733,0
4761953,377.26,783,730,0
4761963,373.67,783,733,0
4761973,370.94,783,732,0
4761984,368.22,783,732,0
4761993,366.39,783,730,0
4762003,364.26,783,733,0
4762013,362.81,783,731,0
4762023,360.98,783,732,0
4762033,359.96,783,730,0
4762043,358.64,783,733,0
4762053,358.66,783,731,0
4762063,359.32,783,732,0
4762073,362.65,783,730,0
4762083,368.33,783,733,0
4762093,378.69,783,731,0
4762103,393.65,783,733,0
4762113,415.01,783,730,0
4762123,441.97,783,733,0
4762133,475.36,783,732,0
4762143,512.45,783,733,0
4762153,551.23,783,731,0
4762163,588.71,783,733,0
4762182,623.47,773,732,0
4762185,653.54,773,731,0
4762194,678.11,773,733,0
4762204,696.16,773,732,0
4762214,707.38,773,733,0
4762224,711.34,773,731,0
4762234,708.54,773,733,0
4762244,698.35,773,732,0
4762254,681.32,773,733,0
4762264,656.75,773,731,0
4762274,625.88,773,733,0
4762284,590.00,773,732,0
4762294,552.46,773,733,0
4762304,513.79,773,731,0
4762314,476.78,773,733,0
4762324,441.49,773,731,0
4762334,410.62,773,733,0
4762344,383.00,773,731,0
4762354,360.33,773,733,0
4762364,341.42,773,731,0
4762374,327.62,773,732,0
4762384,317.45,773,732,0
4762394,311.87,773,734,0
4762404,309.00,773,731,0
4762414,309.85,773,732,0
4762424,312.38,773,732,0
4762434,317.50,773,733,0
4762444,323.18,773,731,0
4762455,330.28,773,734,0
4762465,336.93,773,731,0
4762475,344.10,773,734,0
4762485,349.99,773,730,0
4762496,355.86,773,735,0
4762505,359.89,773,731,0
4762515,363.61,773,734,0
4762525,365.31,773,730,0
4762535,366.59,773,735,0
4762545,365.86,773,731,0
4762555,364.83,773,734,0
4762565,362.22,773,730,0
4762575,359.63,773,735,0
4762585,355.71,773,731,0
4762595,352.11,773,734,0
4762605,347.58,773,730,0
4762615,343.80,773,735,0
4762625,339.45,773,731,0
4762635,336.14,773,734,0
4762645,332.29,773,730,0
4762655,329.46,773,735,0
4762665,326.19,773,730,0
4762675,323.95,773,734,0
4762685,321.31,773,731,0
4762695,319.67,773,734,0
4762705,317.41,773,730,0
4762715,316.52,773,734,0
4762725,315.12,773,731,0
4762735,314.78,773,734,0
4762745,313.91,773,730,0
4762755,313.85,773,734,0
4762765,313.08,773,730,0
4762775,313.10,773,734,0
4762785,312.60,773,730,0
4762796,313.66,773,735,0
4762806,315.82,773,730,0
4762816,321.19,773,735,0
4762826,329.27,773,730,0
4762836,342.14,773,736,0
4762846,358.72,773,730,0
4762856,380.62,773,735,0
4762866,406.15,773,730,0
4762876,435.29,773,736,0
4762886,465.37,773,730,0
4762905,495.95,723,729,0
4762908,523.48,723,730,0
4762917,548.36,723,735,0
4762927,567.54,723,729,0
4762937,580.79,723,735,0
4762947,586.25,723,730,0
4762957,584.94,723,735,0
4762967,576.08,723,729,0
4762977,562.17,723,736,0
4762987,542.58,723,730,0
4762997,519.48,723,735,0
4763008,493.36,723,729,0
4763017,466.72,723,736,0
4763027,439.59,723,730,0
4763037,413.92,723,735,0
4763047,389.51,723,729,0
4763057,367.72,723,736,0
4763067,348.17,723,730,0
4763077,331.96,723,735,0
4763087,318.39,723,729,0
4763097,308.41,723,735,0
4763107,300.96,723,730,0
4763117,296.73,723,735,0
4763127,294.58,723,729,0
4763137,295.14,723,736,0
4763147,297.02,723,730,0
4763157,300.70,723,735,0
4763167,305.08,723,729,0
4763177,310.63,723,735,0
4763187,316.10,723,730,0
4763197,322.07,723,735,0
4763207,327.28,723,729,0
4763217,332.42,723,735,0
4763227,336.54,723,730,0
4763237,340.19,723,735,0
4763247,342.49,723,729,0
4763257,344.23,723,735,0
4763267,344.80,723,730,0
4763277,345.16,723,735,0
4763287,344.43,723,729,0
4763297,343.44,723,735,0
4763308,341.64,723,729,0
4763318,339.86,723,737,0
4763328,337.42,723,727,0
4763338,334.93,723,736,0
4763348,332.04,723,728,0
4763358,329.67,723,736,0
4763368,327.11,723,727,0
4763378,324.94,723,736,0
4763388,322.73,723,728,0
4763398,321.09,723,736,0
4763408,319.57,723,728,0
4763418,318.41,723,736,0
4763428,317.39,723,728,0
4763438,316.84,723,736,0
4763448,316.33,723,728,0
4763458,316.06,723,737,0
4763468,315.74,723,728,0
4763479,315.56,723,736,0
4763489,315.39,723,728,0
4763499,315.23,723,736,0
4763509,315.38,723,728,0
4763520,316.12,723,736,0
4763529,317.88,723,728,0
4763539,321.35,723,737,0
4763549,327.33,723,728,0
4763559,336.06,723,736,0
4763569,348.17,723,728,0
4763579,363.93,723,738,0
4763589,383.92,723,728,0
4763599,407.78,723,736,0
4763618,434.50,713,735,0
4763621,462.38,713,735,0
4763630,491.32,713,730,0
4763640,519.17,713,734,0
4763650,544.23,713,729,0
4763660,564.61,713,735,0
4763670,579.17,713,730,0
4763680,587.30,713,735,0
4763691,589.05,713,730,0
4763700,583.60,713,735,0
4763710,572.32,713,729,0
4763720,555.85,713,735,0
4763730,536.05,713,730,0
4763740,513.84,713,735,0
4763750,490.66,713,729,0
4763760,467.15,713,735,0
4763770,444.77,713,730,0
4763780,423.80,713,736,0
4763790,405.09,713,730,0
4763800,388.05,713,735,0
4763810,373.46,713,730,0
4763820,360.89,713,735,0
4763830,351.15,713,730,0
4763840,343.27,713,735,0
4763850,337.74,713,731,0
4763860,333.88,713,734,0
4763870,332.24,713,730,0
4763880,331.87,713,735,0
4763890,333.28,713,730,0
4763900,335.51,713,734,0
4763910,339.17,713,729,0
4763920,343.32,713,735,0
4763930,348.50,713,730,0
4763940,353.79,713,734,0
4763950,359.77,713,729,0
4763960,365.58,713,735,0
4763970,371.75,713,730,0
4763980,377.18,713,734,0
4763991,382.48,713,731,0
4764001,386.75,713,734,0
4764011,390.60,713,731,0
4764021,393.08,713,734,0
4764032,394.94,713,731,0
4764041,395.47,713,734,0
4764051,395.63,713,731,0
4764061,394.63,713,734,0
4764071,393.41,713,731,0
4764081,391.19,713,734,0
4764091,389.03,713,731,0
4764101,385.98,713,734,0
4764111,383.16,713,731,0
4764121,379.77,713,734,0
4764131,376.88,713,731,0
4764141,373.53,713,734,0
4764151,370.93,713,731,0
4764161,368.12,713,734,0
4764171,366.20,713,731,0
4764181,364.04,713,734,0
4764191,362.61,713,731,0
4764201,360.80,713,734,0
4764211,359.83,713,731,0
4764221,358.68,713,734,0
4764231,358.73,713,731,0
4764241,359.20,713,734,0
4764251,361.84,713,731,0
4764261,366.26,713,733,0
4764271,374.67,713,732,0
4764281,386.94,713,734,0
4764291,404.96,713,731,0
4764301,428.24,713,734,0
4764311,458.13,713,732,0
4764331,492.76,712,731,0
4764334,530.59,712,735,0
4764343,568.38,712,732,0
4764353,604.61,712,734,0
4764363,637.00,712,732,0
4764374,664.64,712,735,0
4764383,686.01,712,732,0
4764393,701.52,712,734,0
4764403,712.33,712,731,0
4764413,718.75,712,735,0
4764423,719.68,712,732,0
4764433,715.36,712,734,0
4764443,704.75,712,731,0
4764453,688.50,712,734,0
4764463,665.98,712,732,0
4764473,638.08,712,733,0
4764483,605.83,712,731,0
4764493,572.62,712,734,0
4764503,538.97,712,732,0
4764513,507.60,712,734,0
4764523,478.37,712,731,0
4764533,453.53,712,734,0
4764544,432.11,712,731,0
4764553,415.66,712,734,0
4764563,402.69,712,731,0
4764573,394.47,712,734,0
4764583,389.44,712,731,0
4764593,388.54,712,733,0
4764603,389.79,712,732,0
4764613,394.18,712,734,0
4764623,399.83,712,731,0
4764633,407.38,712,733,0
4764643,414.77,712,731,0
4764653,422.98,712,734,0
4764663,429.97,712,731,0
4764673,436.92,712,733,0
4764683,442.05,712,731,0
4764693,446.62,712,734,0
4764703,449.13,712,731,0
4764713,450.94,712,734,0
4764723,450.87,712,732,0
4764733,450.35,712,734,0
4764743,447.89,712,731,0
4764753,445.31,712,734,0
4764763,441.19,712,731,0
4764773,437.27,712,734,0
4764783,432.18,712,731,0
4764793,427.24,712,734,0
4764803,421.47,712,732,0
4764813,416.44,712,734,0
4764823,410.91,712,731,0
4764833,406.31,712,734,0
4764844,401.33,712,731,0
4764854,397.63,712,734,0
4764864,393.71,712,731,0
4764874,390.93,712,735,0
4764884,387.99,712,730,0
4764894,386.02,712,734,0
4764904,383.74,712,731,0
4764914,382.45,712,734,0
4764924,380.81,712,730,0
4764934,380.48,712,734,0
4764944,380.77,712,731,0
4764954,383.79,712,734,0
4764964,389.21,712,730,0
4764974,399.65,712,734,0
4764984,415.27,712,731,0
4764994,438.89,712,734,0
4765004,470.04,712,730,0
4765015,506.45,712,735,0
4765025,544.76,712,730,0
4765035,583.49,712,735,0
4765054,619.73,724,734,0
4765058,651.95,724,737,0
4765067,677.51,724,729,0
4765077,695.61,724,736,0
4765087,708.29,724,728,0
4765097,717.16,724,736,0
4765107,723.37,724,729,0
4765117,727.71,724,736,0
4765127,730.80,724,728,0
4765137,732.96,724,736,0
4765147,734.47,724,729,0
4765157,735.53,724,736,0
4765167,735.89,724,728,0
4765177,732.75,724,736,0
4765187,724.00,724,729,0
4765197,708.57,724,736,0
4765207,685.47,724,728,0
4765217,654.94,724,736,0
4765228,617.67,724,728,0
4765238,574.96,724,736,0
4765248,530.87,724,728,0
4765258,488.52,724,736,0
4765268,450.40,724,729,0
4765278,418.26,724,736,0
4765288,392.98,724,728,0
4765298,374.65,724,736,0
4765308,363.14,724,728,0
4765318,357.57,724,735,0
4765328,357.27,724,728,0
4765338,361.00,724,736,0
4765348,368.07,724,728,0
4765358,377.18,724,736,0
4765368,387.45,724,728,0
4765378,397.86,724,736,0
4765388,407.80,724,729,0
4765399,416.48,724,735,0
4765409,423.49,724,729,0
4765419,428.31,724,735,0
4765429,431.18,724,730,0
4765440,431.55,724,734,0
4765449,430.02,724,729,0
4765459,426.45,724,735,0
4765469,421.77,724,730,0
4765479,415.80,724,734,0
4765489,409.60,724,729,0
4765499,402.91,724,735,0
4765509,396.64,724,730,0
4765519,390.14,724,734,0
4765529,384.40,724,729,0
4765539,378.84,724,735,0
4765549,374.26,724,730,0
4765559,369.85,724,734,0
4765569,366.25,724,729,0
4765579,363.05,724,735,0
4765589,360.81,724,730,0
4765599,358.68,724,734,0
4765609,357.15,724,730,0
4765619,355.65,724,735,0
4765629,354.77,724,730,0
4765639,353.98,724,734,0
4765649,354.16,724,730,0
4765659,355.14,724,735,0
4765669,358.35,724,730,0
4765679,364.33,724,734,0
4765689,375.20,724,730,0
4765699,391.69,724,735,0
4765709,415.82,724,729,0
4765719,447.93,724,735,0
4765729,485.92,724,730,0
4765740,526.66,724,734,0
4765750,567.95,724,730,0
4765760,606.84,724,734,0
4765779,641.60,725,733,0
4765783,669.83,725,732,0
4765791,690.24,725,731,0
4765801,704.48,725,733,0
4765811,714.50,725,731,0
4765821,721.50,725,733,0
4765831,726.45,725,731,0
4765841,729.87,725,734,0
4765851,732.31,725,731,0
4765861,732.69,725,733,0
4765871,729.14,725,730,0
4765881,718.68,725,733,0
4765891,700.78,725,731,0
4765901,674.19,725,733,0
4765911,640.10,725,730,0
4765921,598.11,725,733,0
4765931,550.98,725,731,0
4765941,501.10,725,733,0
4765952,453.46,725,732,0
4765961,409.30,725,733,0
4765971,371.76,725,731,0
4765981,339.99,725,733,0
4765991,316.29,725,732,0
4766001,299.36,725,733,0
4766011,290.38,725,731,0
4766021,287.22,725,733,0
4766031,290.54,725,732,0
4766041,297.79,725,734,0
4766051,309.21,725,730,0
4766061,322.13,725,733,0
4766071,336.84,725,732,0
4766081,350.99,725,733,0
4766091,365.09,725,730,0
4766101,376.76,725,733,0
4766111,387.16,725,731,0
4766121,394.53,725,732,0
4766131,400.11,725,730,0
4766141,402.65,725,733,0
4766151,403.61,725,731,0
4766161,401.71,725,732,0
4766171,398.97,725,731,0
4766181,394.14,725,733,0
4766191,389.00,725,731,0
4766201,382.44,725,732,0
4766211,376.05,725,730,0
4766221,368.75,725,733,0
4766231,362.31,725,731,0
4766241,355.32,725,732,0
4766252,349.61,725,732,0
4766262,344.03,725,732,0
4766272,339.90,725,733,0
4766282,335.69,725,731,0
4766292,332.95,725,733,0
4766302,330.27,725,732,0
4766312,329.03,725,733,0
4766322,327.48,725,731,0
4766332,327.12,725,733,0
4766342,326.40,725,732,0
4766352,327.05,725,733,0
4766362,327.08,725,731,0
4766372,328.13,725,733,0
4766382,328.65,725,732,0
4766392,330.64,725,733,0
4766402,333.15,725,731,0
4766412,338.76,725,733,0
4766423,347.19,725,730,0
4766433,361.75,725,734,0
4766443,382.31,725,731,0
4766453,411.74,725,734,0
4766464,448.59,725,730,0
4766473,490.46,725,734,0
4766483,533.78,725,731,0
4766493,576.66,725,734,0
4766513,615.89,733,734,0
4766516,649.95,733,738,0
4766525,676.28,733,730,0
4766535,694.80,733,735,0
4766545,707.76,733,730,0
4766555,716.83,733,735,0
4766565,723.18,733,730,0
4766575,724.97,733,734,0
4766585,720.09,733,730,0
4766595,708.15,733,735,0
4766605,687.66,733,729,0
4766615,659.18,733,734,0
4766625,622.31,733,729,0
4766636,578.16,733,735,0
4766646,529.60,733,728,0
4766656,480.56,733,736,0
4766666,432.61,733,727,0
4766676,388.97,733,736,0
4766686,350.06,733,729,0
4766696,317.82,733,735,0
4766706,291.73,733,727,0
4766716,272.74,733,736,0
4766726,259.96,733,729,0
4766736,253.71,733,735,0
4766746,252.51,733,727,0
4766756,256.26,733,736,0
4766766,263.42,733,729,0
4766776,273.80,733,735,0
4766786,285.99,733,727,0
4766796,299.71,733,736,0
4766807,313.46,733,727,0
4766817,326.95,733,735,0
4766827,339.18,733,727,0
4766837,349.76,733,736,0
4766848,358.19,733,728,0
4766857,364.43,733,735,0
4766867,368.24,733,727,0
4766877,369.76,733,736,0
4766887,369.19,733,728,0
4766897,366.73,733,736,0
4766907,362.83,733,727,0
4766917,357.78,733,736,0
4766927,351.97,733,727,0
4766937,345.81,733,735,0
4766947,339.52,733,727,0
4766957,333.41,733,736,0
4766967,327.93,733,728,0
4766977,323.19,733,736,0
4766987,319.11,733,727,0
4766997,315.73,733,736,0
4767007,312.94,733,727,0
4767017,310.90,733,735,0
4767027,309.65,733,727,0
4767037,308.77,733,736,0
4767047,308.15,733,728,0
4767057,307.55,733,736,0
4767067,307.04,733,727,0
4767077,306.43,733,737,0
4767087,305.61,733,728,0
4767097,304.36,733,736,0
4767107,302.88,733,728,0
4767117,301.50,733,736,0
4767127,300.58,733,728,0
4767137,300.28,733,736,0
4767148,301.52,733,728,0
4767158,305.01,733,735,0
4767168,312.25,733,729,0
4767178,323.96,733,734,0
4767188,341.46,733,730,0
4767198,365.32,733,736,0
4767208,396.12,733,729,0
4767218,433.07,733,735,0
4767228,475.18,733,730,0
4767238,518.88,733,736,0
4767257,561.82,745,734,0
4767260,601.26,745,735,0
4767269,635.94,745,730,0
4767279,663.17,745,734,0
4767289,681.42,745,730,0
4767299,688.84,745,734,0
4767309,686.83,745,730,0
4767319,675.61,745,734,0
4767329,656.10,745,730,0
4767339,628.34,745,734,0
4767349,594.64,745,730,0
4767360,556.30,745,734,0
4767369,516.61,745,730,0
4767379,476.23,745,734,0
4767389,437.46,745,730,0
4767399,400.76,745,734,0
4767409,367.88,745,730,0
4767419,338.47,745,734,0
4767429,314.20,745,730,0
4767439,294.04,745,734,0
4767449,279.16,745,730,0
4767459,268.40,745,734,0
4767469,262.66,745,730,0
4767479,260.41,745,734,0
4767489,262.26,745,730,0
4767499,266.34,745,734,0
4767509,273.05,745,729,0
4767519,280.83,745,734,0
4767529,290.31,745,730,0
4767539,299.69,745,734,0
4767549,309.55,745,729,0
4767559,318.35,745,734,0
4767569,326.94,745,730,0
4767579,334.03,745,734,0
4767589,340.24,745,729,0
4767599,344.37,745,734,0
4767609,347.43,745,730,0
4767619,348.58,745,734,0
4767629,349.27,745,729,0
4767639,348.16,745,734,0
4767649,346.61,745,730,0
4767660,343.56,745,734,0
4767670,340.43,745,730,0
4767680,336.27,745,733,0
4767690,332.46,745,731,0
4767700,327.48,745,733,0
4767710,323.09,745,730,0
4767720,318.14,745,733,0
4767730,314.37,745,731,0
4767740,310.27,745,733,0
4767750,307.75,745,731,0
4767760,305.29,745,734,0
4767770,304.22,745,732,0
4767780,303.00,745,733,0
4767790,302.70,745,731,0
4767800,301.80,745,734,0
4767810,301.78,745,731,0
4767820,300.77,745,733,0
4767831,300.33,745,732,0
4767841,299.20,745,732,0
4767851,298.88,745,734,0
4767861,298.06,745,732,0
4767872,298.21,745,734,0
4767881,298.28,745,732,0
4767891,300.12,745,734,0
4767901,302.53,745,732,0
4767911,307.90,745,734,0
4767921,315.39,745,732,0
4767931,327.91,745,734,0
4767941,344.83,745,732,0
4767951,368.53,745,734,0
4767961,397.39,745,733,0
4767971,432.97,745,733,0
4767981,472.88,745,732,0
4768001,515.56,743,730,0
4768004,557.31,743,731,0
4768013,596.90,743,736,0
4768023,631.47,743,731,0
4768033,660.56,743,735,0
4768044,680.45,743,731,0
4768054,691.03,743,736,0
4768064,691.83,743,730,0
4768074,684.17,743,735,0
4768084,667.92,743,730,0
4768094,644.50,743,736,0
4768104,614.22,743,730,0
4768114,580.34,743,735,0
4768124,543.60,743,730,0
4768134,507.12,743,736,0
4768144,471.21,743,730,0
4768154,438.06,743,735,0
4768164,407.27,743,731,0
4768174,380.58,743,736,0
4768184,357.26,743,730,0
4768194,338.71,743,736,0
4768204,323.80,743,730,0
4768215,313.66,743,735,0
4768225,307.29,743,730,0
4768235,305.27,743,736,0
4768245,306.39,743,728,0
4768256,311.03,743,737,0
4768265,317.58,743,730,0
4768275,326.36,743,736,0
4768285,335.85,743,728,0
4768295,346.10,743,737,0
4768305,355.75,743,730,0
4768315,365.04,743,736,0
4768325,372.92,743,728,0
4768335,379.75,743,737,0
4768345,384.67,743,730,0
4768355,388.20,743,736,0
4768365,389.85,743,728,0
4768375,390.11,743,737,0
4768385,388.49,743,730,0
4768395,386.16,743,736,0
4768405,382.64,743,728,0
4768415,378.72,743,737,0
4768425,374.09,743,728,0
4768435,369.48,743,736,0
4768445,364.71,743,728,0
4768455,360.38,743,737,0
4768465,355.77,743,728,0
4768475,351.68,743,736,0
4768485,347.62,743,728,0
4768495,344.09,743,737,0
4768505,340.51,743,728,0
4768515,337.53,743,735,0
4768525,334.62,743,728,0
4768535,332.59,743,737,0
4768545,330.87,743,728,0
4768556,329.75,743,737,0
4768566,328.76,743,728,0
4768576,328.06,743,737,0
4768586,327.35,743,728,0
4768596,326.78,743,736,0
4768606,325.82,743,728,0
4768616,324.67,743,737,0
4768626,323.48,743,728,0
4768636,322.44,743,736,0
4768646,322.09,743,728,0
4768656,322.96,743,737,0
4768666,325.98,743,728,0
4768676,332.03,743,736,0
4768686,342.09,743,728,0
4768696,357.28,743,736,0
4768706,378.97,743,728,0
4768716,407.78,743,737,0
4768727,443.46,743,728,0
4768737,483.95,743,736,0
4768756,526.31,756,734,0
4768759,568.09,756,734,0
4768769,607.06,756,730,0
4768779,641.16,756,734,0
4768789,668.84,756,731,0
4768799,689.37,756,734,0
4768809,703.75,756,731,0
4768819,713.77,756,734,0
4768829,718.98,756,731,0
4768839,718.00,756,734,0
4768849,710.71,756,731,0
4768859,696.27,756,734,0
4768869,675.28,756,731,0
4768879,647.12,756,734,0
4768889,612.84,756,731,0
4768899,574.23,756,734,0
4768909,534.78,756,731,0
4768919,495.24,756,734,0
4768929,458.31,756,731,0
4768940,423.93,756,733,0
4768950,394.38,756,732,0
4768960,368.85,756,733,0
4768970,348.97,756,733,0
4768980,333.59,756,732,0
4768990,323.94,756,732,0
4769000,318.17,756,733,0
4769010,317.09,756,733,0
4769020,318.82,756,731,0
4769030,324.10,756,732,0
4769040,330.89,756,733,0
4769050,339.75,756,732,0
4769060,348.61,756,731,0
4769070,358.41,756,732,0
4769080,367.25,756,732,0
4769090,376.09,756,732,0
4769100,383.05,756,732,0
4769111,389.29,756,734,0
4769121,393.40,756,731,0
4769131,396.67,756,734,0
4769141,397.67,756,731,0
4769152,397.98,756,734,0
4769161,396.32,756,731,0
4769171,394.29,756,734,0
4769181,390.43,756,731,0
4769191,386.45,756,735,0
4769201,381.30,756,731,0
4769211,376.79,756,734,0
4769221,371.58,756,731,0
4769231,367.29,756,734,0
4769241,362.58,756,731,0
4769251,359.06,756,733,0
4769261,355.36,756,731,0
4769271,352.94,756,734,0
4769281,350.26,756,731,0
4769291,348.94,756,734,0
4769301,347.20,756,731,0
4769311,346.62,756,734,0
4769321,345.79,756,730,0
4769331,346.07,756,734,0
4769341,345.71,756,731,0
4769351,346.18,756,734,0
4769361,346.21,756,731,0
4769371,347.43,756,734,0
4769381,348.38,756,731,0
4769391,350.96,756,735,0
4769401,354.45,756,731,0
4769411,361.30,756,734,0
4769421,371.07,756,731,0
4769431,386.17,756,734,0
4769441,406.69,756,731,0
4769452,435.11,756,734,0
4769462,469.88,756,730,0
4769472,508.87,756,735,0
4769491,548.85,735,734,0
4769495,588.28,735,738,0
4769503,624.28,735,729,0
4769513,655.53,735,736,0
4769523,679.75,735,729,0
4769533,696.97,735,735,0
4769543,709.02,735,729,0
4769553,717.46,735,736,0
4769563,723.36,735,729,0
4769573,727.50,735,735,0
4769583,728.63,735,729,0
4769593,725.49,735,736,0
4769603,716.00,735,729,0
4769613,699.84,735,735,0
4769623,676.19,735,729,0
4769633,645.79,735,735,0
4769643,608.52,735,729,0
4769653,567.18,735,735,0
4769664,523.80,735,729,0
4769673,482.20,735,735,0
4769683,443.18,735,729,0
4769693,409.01,735,735,0
4769703,379.61,735,729,0
4769713,356.54,735,735,0
4769723,338.98,735,729,0
4769733,327.67,735,735,0
4769743,321.38,735,729,0
4769753,320.50,735,735,0
4769763,323.56,735,729,0
4769773,330.64,735,735,0
4769783,339.83,735,729,0
4769793,351.32,735,735,0
4769803,363.31,735,729,0
4769813,375.82,735,735,0
4769823,387.57,735,729,0
4769833,398.97,735,735,0
4769843,408.50,735,729,0
4769853,416.49,735,736,0
4769863,421.66,735,729,0
4769873,424.93,735,735,0
4769883,425.89,735,730,0
4769893,425.24,735,736,0
4769903,422.17,735,729,0
4769913,417.66,735,735,0
4769923,411.51,735,730,0
4769933,405.31,735,736,0
4769943,398.49,735,729,0
4769953,391.70,735,735,0
4769964,384.63,735,730,0
4769974,378.14,735,736,0
4769984,372.23,735,728,0
4769994,367.53,735,737,0
4770004,363.30,735,728,0
4770014,360.17,735,736,0
4770024,357.29,735,728,0
4770034,355.27,735,737,0
4770044,353.78,735,728,0
4770054,352.94,735,736,0
4770064,352.28,735,728,0
4770074,352.11,735,737,0
4770084,352.25,735,728,0
4770094,353.63,735,736,0
4770104,356.23,735,728,0
4770114,361.22,735,737,0
4770124,369.38,735,728,0
4770135,382.34,735,736,0
4770145,401.22,735,728,0
4770155,427.17,735,737,0
4770165,460.55,735,728,0
4770176,498.83,735,736,0
4770185,539.04,735,727,0
4770195,578.92,735,737,0
4770205,616.19,735,728,0
4770225,648.79,733,727,0
4770228,675.12,733,731,0
4770237,693.90,733,735,0
4770247,707.09,733,730,0
4770257,716.32,733,735,0
4770267,722.78,733,729,0
4770277,727.30,733,735,0
4770287,730.47,733,730,0
4770297,729.21,733,735,0
4770307,722.51,733,730,0
4770317,708.64,733,735,0
4770327,687.28,733,730,0
4770337,657.84,733,735,0
4770348,621.41,733,730,0
4770358,577.88,733,735,0
4770368,532.14,733,731,0
4770378,485.94,733,734,0
4770388,443.10,733,731,0
4770398,404.67,733,735,0
4770408,372.93,733,731,0
4770418,347.32,733,735,0
4770428,329.70,733,731,0
4770438,318.69,733,735,0
4770448,315.18,733,731,0
4770458,317.10,733,734,0
4770468,325.08,733,731,0
4770478,336.59,733,735,0
4770488,351.75,733,731,0
4770498,367.81,733,735,0
4770508,385.27,733,731,0
4770519,401.47,733,734,0
4770529,416.93,733,733,0
4770539,429.17,733,733,0
4770549,439.32,733,733,0
4770560,445.56,733,732,0
4770569,449.55,733,732,0
4770579,449.64,733,733,0
4770589,447.48,733,733,0
4770599,441.98,733,732,0
4770609,435.13,733,733,0
4770619,426.00,733,733,0
4770629,416.53,733,733,0
4770639,405.61,733,732,0
4770649,395.19,733,733,0
4770659,384.37,733,734,0
4770669,374.96,733,733,0
4770679,365.63,733,732,0
4770689,358.07,733,732,0
4770699,350.98,733,734,0
4770709,345.76,733,733,0
4770719,340.90,733,732,0
4770729,337.97,733,735,0
4770739,335.11,733,734,0
4770749,333.83,733,733,0
4770759,332.34,733,733,0
4770769,332.11,733,735,0
4770779,331.56,733,734,0
4770789,332.21,733,733,0
4770799,332.96,733,733,0
4770809,335.80,733,734,0
4770819,339.97,733,734,0
4770829,347.87,733,733,0
4770839,359.01,733,732,0
4770849,375.89,733,734,0
4770860,397.91,733,732,0
4770870,426.39,733,735,0
4770880,459.49,733,732,0
4770890,497.40,733,735,0
4770900,536.75,733,732,0
4770910,575.70,733,735,0
4770920,611.49,733,732,0
4770930,643.23,733,735,0
4770940,667.93,733,731,0
4770950,685.65,733,735,0
4770969,693.94,745,734,0
4770972,693.23,745,737,0
4770981,684.55,745,731,0
4770991,668.91,745,735,0
4771001,645.62,745,730,0
4771011,617.11,745,736,0
4771021,583.60,745,730,0
4771031,548.37,745,736,0
4771041,512.38,745,731,0
4771051,477.34,745,736,0
4771061,443.34,745,731,0
4771072,413.07,745,736,0
4771081,386.05,745,731,0
4771091,364.09,745,736,0
4771101,346.11,745,730,0
4771111,333.65,745,736,0
4771121,325.35,745,731,0
4771131,322.20,745,736,0
4771141,322.49,745,731,0
4771151,326.88,745,736,0
4771161,333.26,745,731,0
4771171,342.31,745,736,0
4771181,351.95,745,731,0
4771191,362.68,745,736,0
4771201,372.37,745,730,0
4771211,381.82,745,736,0
4771221,389.20,745,731,0
4771231,395.48,745,736,0
4771241,399.07,745,730,0
4771251,401.23,745,736,0
4771261,400.73,745,731,0
4771271,398.97,745,736,0
4771281,394.95,745,730,0
4771291,390.17,745,736,0
4771301,383.73,745,731,0
4771311,377.21,745,736,0
4771321,369.61,745,730,0
4771331,362.57,745,736,0
4771341,355.07,745,731,0
4771351,348.58,745,736,0
4771361,341.97,745,730,0
4771372,336.80,745,736,0
4771382,331.84,745,730,0
4771392,328.38,745,736,0
4771402,325.26,745,730,0
4771412,323.64,745,736,0
4771422,322.29,745,730,0
4771432,322.20,745,736,0
4771442,322.14,745,730,0
4771452,322.91,745,736,0
4771462,323.71,745,730,0
4771472,325.56,745,736,0
4771482,328.09,745,730,0
4771492,332.78,745,736,0
4771502,339.66,745,730,0
4771512,350.77,745,736,0
4771522,366.74,745,730,0
4771532,389.28,745,736,0
4771543,418.08,745,730,0
4771553,453.54,745,737,0
4771563,493.32,745,728,0
4771573,535.05,745,738,0
4771584,575.71,745,729,0
4771593,613.47,745,737,0
4771612,646.07,643,736,0
4771615,672.62,643,737,0
4771624,692.28,643,729,0
4771634,705.44,643,737,0
4771644,711.78,643,728,0
4771654,710.94,643,737,0
4771664,702.56,643,729,0
4771674,686.75,643,737,0
4771684,663.17,643,728,0
4771694,632.17,643,737,0
4771704,594.88,643,728,0
4771714,554.07,643,737,0
4771724,511.97,643,728,0
4771734,470.19,643,737,0
4771744,430.45,643,728,0
4771755,394.23,643,737,0
4771764,362.62,643,728,0
4771774,335.90,643,737,0
4771784,314.37,643,728,0
4771794,298.11,643,737,0
4771804,287.40,643,728,0
4771814,281.62,643,737,0
4771824,280.45,643,728,0
4771834,282.84,643,737,0
4771844,288.46,643,728,0
4771854,296.51,643,737,0
4771864,306.43,643,728,0
4771874,317.23,643,737,0
4771884,328.26,643,728,0
4771894,338.85,643,737,0
4771904,348.84,643,728,0
4771914,357.46,643,737,0
4771924,364.74,643,729,0
4771934,370.22,643,737,0
4771944,374.14,643,728,0
4771954,376.32,643,737,0
4771964,377.26,643,729,0
4771974,376.66,643,737,0
4771984,375.14,643,728,0
4771994,372.44,643,737,0
4772004,369.14,643,728,0
4772014,365.19,643,737,0
4772024,361.06,643,728,0
4772034,356.59,643,737,0
4772044,352.38,643,728,0
4772055,348.11,643,736,0
4772065,344.31,643,729,0
4772075,340.66,643,736,0
4772085,337.59,643,730,0
4772096,334.75,643,735,0
4772105,332.47,643,729,0
4772115,330.19,643,735,0
4772125,328.67,643,730,0
4772135,327.40,643,734,0
4772145,327.24,643,729,0
4772155,328.11,643,735,0
4772165,331.72,643,730,0
4772175,338.27,643,735,0
4772185,349.51,643,728,0
4772195,365.90,643,735,0
4772205,389.07,643,729,0
4772215,418.88,643,735,0
4772225,455.34,643,729,0
4772244,495.70,632,728,0
4772247,537.53,632,732,0
4772256,578.09,632,735,0
4772267,615.52,632,731,0
4772276,647.72,632,735,0
4772286,673.69,632,730,0
4772296,692.81,632,734,0
4772306,705.21,632,731,0
4772316,710.59,632,735,0
4772326,708.91,632,730,0
4772336,699.25,632,734,0
4772346,682.08,632,730,0
4772356,657.15,632,734,0
4772366,625.39,632,730,0
4772376,587.60,632,734,0
4772386,547.18,632,731,0
4772396,505.51,632,735,0
4772406,465.54,632,730,0
4772416,427.50,632,734,0
4772426,393.49,632,730,0
4772436,363.04,632,734,0
4772446,337.87,632,730,0
4772456,316.83,632,734,0
4772466,300.98,632,730,0
4772476,289.37,632,734,0
4772486,283.00,632,730,0
4772496,280.13,632,734,0
4772506,281.38,632,730,0
4772516,284.91,632,734,0
4772526,291.19,632,730,0
4772536,298.42,632,734,0
4772546,307.17,632,730,0
4772556,315.47,632,734,0
4772567,324.20,632,730,0
4772577,331.73,632,733,0
4772587,339.09,632,731,0
4772597,344.81,632,733,0
4772608,350.22,632,732,0
4772617,353.63,632,733,0
4772627,356.53,632,731,0
4772637,357.31,632,733,0
4772647,357.56,632,732,0
4772657,356.11,632,733,0
4772667,354.45,632,731,0
4772677,351.23,632,733,0
4772687,348.16,632,732,0
4772697,344.00,632,733,0
4772707,340.48,632,731,0
4772717,336.35,632,733,0
4772727,332.95,632,732,0
4772737,329.06,632,733,0
4772747,326.17,632,731,0
4772757,322.74,632,733,0
4772767,320.29,632,732,0
4772777,317.37,632,731,0
4772787,315.55,632,731,0
4772797,313.32,632,733,0
4772807,312.37,632,732,0
4772817,311.40,632,731,0
4772827,312.57,632,730,0
4772837,315.01,632,733,0
4772847,321.22,632,732,0
4772857,330.63,632,732,0
4772867,345.74,632,730,0
4772877,366.26,632,733,0
4772887,394.25,632,732,0
4772897,428.08,632,732,0
4772917,468.13,673,730,0
4772920,510.43,673,730,0
4772929,553.07,673,735,0
4772939,593.12,673,729,0
4772950,629.13,673,735,0
4772959,658.96,673,730,0
4772969,682.07,673,734,0
4772979,695.51,673,729,0
4772989,700.63,673,735,0
4772999,697.40,673,730,0
4773009,686.69,673,734,0
4773019,667.80,673,729,0
4773029,641.89,673,734,0
4773039,609.44,673,730,0
4773049,573.99,673,734,0
4773059,535.98,673,729,0
4773069,498.40,673,734,0
4773079,461.38,673,730,0
4773089,427.67,673,734,0
4773099,396.61,673,729,0
4773109,370.07,673,734,0
4773120,346.91,673,729,0
4773129,328.93,673,734,0
4773139,314.68,673,730,0
4773149,305.35,673,734,0
4773159,299.37,673,729,0
4773169,297.59,673,734,0
4773179,297.93,673,730,0
4773189,301.33,673,734,0
4773199,305.78,673,729,0
4773209,312.02,673,734,0
4773219,318.27,673,730,0
4773229,325.52,673,734,0
4773239,332.09,673,729,0
4773249,339.18,673,734,0
4773259,345.08,673,730,0
4773269,351.10,673,734,0
4773279,355.57,673,729,0
4773289,359.73,673,735,0
4773299,362.04,673,729,0
4773309,364.04,673,734,0
4773319,364.33,673,729,0
4773329,364.36,673,735,0
4773339,362.75,673,730,0
4773349,361.11,673,734,0
4773359,358.21,673,729,0
4773369,355.53,673,735,0
4773379,351.81,673,730,0
4773389,348.66,673,734,0
4773399,344.64,673,729,0
4773409,341.37,673,735,0
4773420,337.53,673,729,0
4773430,334.63,673,734,0
4773440,331.44,673,728,0
4773450,329.21,673,735,0
4773460,326.62,673,728,0
4773470,325.23,673,734,0
4773480,323.96,673,728,0
4773490,324.49,673,735,0
4773500,326.23,673,728,0
4773510,331.17,673,734,0
4773520,339.05,673,728,0
4773530,352.02,673,735,0
4773540,370.19,673,728,0
4773550,395.07,673,734,0
4773560,425.78,673,728,0
4773570,462.70,673,735,0
4773590,502.95,672,734,0
4773593,544.36,672,737,0
4773602,584.07,672,726,0
4773612,620.35,672,736,0
4773622,651.32,672,727,0
4773633,676.38,672,736,0
4773643,692.81,672,726,0
4773653,700.24,672,737,0
4773663,699.35,672,727,0
4773673,690.12,672,735,0
4773683,673.33,672,726,0
4773693,649.10,672,736,0
4773703,618.34,672,727,0
4773713,583.14,672,735,0
4773723,546.03,672,726,0
4773733,508.43,672,736,0
4773743,472.26,672,727,0
4773753,438.11,672,735,0
4773763,407.26,672,726,0
4773773,379.88,672,736,0
4773783,356.78,672,727,0
4773793,337.69,672,735,0
4773804,323.08,672,727,0
4773814,312.34,672,735,0
4773824,305.77,672,728,0
4773834,302.28,672,734,0
4773844,302.15,672,728,0
4773854,304.38,672,735,0
4773864,309.02,672,728,0
4773874,314.80,672,734,0
4773884,322.28,672,728,0
4773894,329.95,672,735,0
4773904,338.45,672,728,0
4773914,346.16,672,734,0
4773924,353.78,672,728,0
4773934,360.10,672,735,0
4773944,365.86,672,727,0
4773954,369.80,672,734,0
4773964,373.12,672,728,0
4773975,374.63,672,734,0
4773985,375.68,672,728,0
4773995,375.13,672,733,0
4774005,374.28,672,728,0
4774016,371.97,672,733,0
4774025,369.83,672,727,0
4774035,366.63,672,734,0
4774045,364.00,672,728,0
4774055,360.57,672,734,0
4774065,357.78,672,727,0
4774075,354.38,672,734,0
4774085,351.99,672,728,0
4774095,348.91,672,733,0
4774105,346.71,672,728,0
4774115,343.80,672,733,0
4774125,341.76,672,728,0
4774135,339.22,672,733,0
4774145,337.78,672,727,0
4774155,336.35,672,734,0
4774165,337.01,672,728,0
4774175,339.07,672,733,0
4774185,345.13,672,728,0
4774195,354.69,672,734,0
4774205,370.51,672,728,0
4774215,392.17,672,733,0
4774225,421.61,672,728,0
4774235,457.13,672,734,0
4774254,497.37,665,733,0
4774257,538.62,665,730,0
4774266,579.32,665,731,0
4774276,616.42,665,733,0
4774286,648.82,665,729,0
4774296,674.46,665,732,0
4774306,693.40,665,731,0
4774316,706.61,665,733,0
4774326,715.90,665,729,0
4774336,720.08,665,732,0
4774346,719.07,665,731,0
4774356,711.25,665,731,0
4774366,697.12,665,729,0
4774376,675.57,665,732,0
4774386,647.54,665,731,0
4774396,612.66,665,731,0
4774406,574.71,665,729,0
4774416,534.47,665,732,0
4774426,495.50,665,731,0
4774436,457.81,665,731,0
4774446,424.22,665,729,0
4774456,394.15,665,732,0
4774466,369.72,665,731,0
4774476,349.58,665,731,0
4774487,335.22,665,732,0
4774497,325.00,665,730,0
4774507,319.90,665,733,0
4774517,318.13,665,730,0
4774528,320.49,665,733,0
4774537,324.80,665,730,0
4774547,331.85,665,733,0
4774557,339.48,665,730,0
4774567,348.55,665,733,0
4774577,357.17,665,730,0
4774587,366.16,665,733,0
4774597,373.66,665,729,0
4774607,380.92,665,733,0
4774617,386.17,665,730,0
4774627,390.88,665,733,0
4774637,393.53,665,730,0
4774647,395.56,665,733,0
4774657,395.60,665,730,0
4774667,395.38,665,733,0
4774677,393.29,665,730,0
4774687,390.93,665,733,0
4774697,386.97,665,729,0
4774707,383.16,665,733,0
4774717,378.40,665,730,0
4774727,374.29,665,733,0
4774737,369.66,665,729,0
4774747,365.91,665,733,0
4774757,361.65,665,730,0
4774767,358.50,665,733,0
4774777,354.92,665,729,0
4774787,352.42,665,733,0
4774797,349.42,665,730,0
4774807,347.41,665,733,0
4774817,345.27,665,730,0
4774828,345.06,665,734,0
4774838,345.90,665,729,0
4774848,350.34,665,733,0
4774858,358.08,665,728,0
4774868,372.20,665,734,0
4774878,392.16,665,729,0
4774888,420.31,665,733,0
4774898,455.57,665,728,0
4774908,495.90,665,734,0
4774927,537.59,673,732,0
4774930,578.77,673,734,0
4774939,616.30,673,728,0
4774949,649.12,673,734,0
4774959,674.97,673,728,0
4774969,693.36,673,734,0
4774979,706.20,673,727,0
4774989,715.22,673,734,0
4774999,721.54,673,728,0
4775009,725.97,673,733,0
4775019,728.98,673,727,0
4775029,729.50,673,734,0
4775040,724.81,673,728,0
4775049,714.32,673,734,0
4775059,696.52,673,727,0
4775069,671.55,673,734,0
4775079,638.90,673,728,0
4775089,599.63,673,734,0
4775099,555.60,673,727,0
4775109,511.15,673,734,0
4775119,467.47,673,728,0
4775129,427.56,673,734,0
4775139,391.82,673,727,0
4775149,362.35,673,734,0
4775159,338.80,673,728,0
4775169,321.97,673,734,0
4775179,311.27,673,728,0
4775189,307.33,673,735,0
4775199,308.47,673,728,0
4775209,314.42,673,734,0
4775219,322.91,673,728,0
4775229,333.65,673,735,0
4775239,344.77,673,728,0
4775249,355.94,673,734,0
4775259,365.30,673,728,0
4775269,373.48,673,735,0
4775279,379.89,673,728,0
4775289,385.50,673,734,0
4775299,389.25,673,728,0
4775309,392.26,673,735,0
4775319,393.47,673,728,0
4775329,393.76,673,735,0
4775340,392.33,673,728,0
4775350,389.83,673,735,0
4775360,385.90,673,727,0
4775370,381.51,673,736,0
4775380,376.39,673,726,0
4775390,371.43,673,735,0
4775400,366.24,673,727,0
4775410,361.58,673,736,0
4775420,357.21,673,726,0
4775430,353.76,673,735,0
4775440,350.62,673,727,0
4775450,348.08,673,736,0
4775460,345.57,673,726,0
4775470,343.73,673,735,0
4775480,342.22,673,727,0
4775490,341.64,673,736,0
4775500,341.49,673,726,0
4775511,342.89,673,736,0
4775521,346.52,673,727,0
4775531,353.95,673,737,0
4775541,366.27,673,726,0
4775552,385.04,673,736,0
4775561,410.66,673,727,0
4775571,444.10,673,736,0
4775581,483.16,673,726,0
4775601,524.77,673,726,0
4775604,566.28,673,730,0
4775613,605.28,673,734,0
4775623,639.57,673,729,0
4775633,667.77,673,734,0
4775643,688.54,673,729,0
4775653,703.08,673,734,0
4775663,713.25,673,729,0
4775673,720.38,673,734,0
4775683,725.41,673,729,0
4775693,727.13,673,734,0
4775703,724.00,673,729,0
4775713,714.36,673,734,0
4775724,697.67,673,728,0
4775734,672.91,673,733,0
4775744,640.96,673,729,0
4775754,601.63,673,733,0
4775764,558.37,673,730,0
4775774,513.43,673,734,0
4775784,470.10,673,729,0
4775794,429.31,673,734,0
4775804,393.86,673,729,0
4775814,363.09,673,734,0
4775824,338.63,673,728,0
4775834,319.33,673,734,0
4775844,306.25,673,729,0
4775854,297.94,673,734,0
4775864,295.17,673,728,0
4775874,295.89,673,734,0
4775884,301.03,673,729,0
4775895,308.43,673,733,0
4775905,318.42,673,731,0
4775915,328.71,673,732,0
4775925,339.98,673,732,0
4775936,350.27,673,731,0
4775945,360.65,673,730,0
4775955,368.90,673,732,0
4775965,376.30,673,732,0
4775975,381.14,673,731,0
4775985,384.91,673,730,0
4775995,386.09,673,732,0
4776005,386.41,673,732,0
4776015,384.61,673,731,0
4776025,382.63,673,730,0
4776035,378.97,673,732,0
4776045,375.34,673,732,0
4776055,370.52,673,731,0
4776065,366.12,673,730,0
4776075,360.90,673,732,0
4776085,356.30,673,732,0
4776095,351.11,673,731,0
4776105,346.92,673,733,0
4776115,342.57,673,732,0
4776125,339.66,673,732,0
4776135,337.06,673,731,0
4776145,335.93,673,732,0
4776155,334.66,673,732,0
4776165,334.72,673,732,0
4776175,335.32,673,732,0
4776185,338.22,673,733,0
4776195,342.66,673,732,0
4776205,350.90,673,732,0
4776215,363.02,673,732,0
4776225,381.91,673,733,0
4776236,407.18,673,731,0
4776246,440.08,673,734,0
4776256,478.37,673,731,0
4776275,519.83,675,729,0
4776279,561.15,675,730,0
4776287,600.75,675,735,0
4776297,635.67,675,730,0
4776307,664.83,675,735,0
4776317,686.73,675,730,0
4776327,702.11,675,735,0
4776337,712.88,675,730,0
4776347,718.87,675,735,0
4776357,718.40,675,730,0
4776367,711.59,675,735,0
4776377,697.10,675,730,0
4776387,675.21,675,735,0
4776397,645.62,675,730,0
4776407,609.56,675,735,0
4776417,568.34,675,730,0
4776427,525.85,675,735,0
4776437,482.87,675,729,0
4776448,442.75,675,735,0
4776457,405.88,675,730,0
4776467,374.12,675,735,0
4776477,346.70,675,729,0
4776487,325.32,675,736,0
4776497,308.89,675,730,0
4776507,298.38,675,735,0
4776517,292.27,675,730,0
4776527,290.86,675,735,0
4776537,292.57,675,730,0
4776547,297.76,675,735,0
4776557,304.60,675,730,0
4776567,313.38,675,735,0
4776577,322.31,675,730,0
4776587,331.86,675,735,0
4776597,340.60,675,729,0
4776607,349.25,675,735,0
4776617,356.50,675,729,0
4776627,363.29,675,735,0
4776637,368.14,675,729,0
4776647,372.08,675,735,0
4776657,374.11,675,729,0
4776667,375.41,675,735,0
4776677,374.77,675,729,0
4776687,373.38,675,735,0
4776697,370.48,675,730,0
4776707,367.59,675,735,0
4776717,363.77,675,730,0
4776727,360.11,675,736,0
4776737,355.71,675,730,0
4776748,352.02,675,736,0
4776758,347.90,675,729,0
4776768,344.42,675,735,0
4776778,340.69,675,730,0
4776788,337.70,675,736,0
4776798,334.57,675,729,0
4776808,332.47,675,736,0
4776818,330.27,675,730,0
4776828,329.04,675,735,0
4776838,327.91,675,729,0
4776848,328.24,675,735,0
4776858,329.97,675,730,0
4776868,334.73,675,735,0
4776878,342.61,675,729,0
4776888,355.50,675,735,0
4776898,373.82,675,730,0
4776908,399.16,675,735,0
4776919,430.70,675,728,0
4776929,468.33,675,737,0
4776948,509.08,673,736,0
4776951,550.50,673,736,0
4776961,589.99,673,728,0
4776971,625.86,673,736,0
4776981,656.08,673,729,0
4776991,680.10,673,736,0
4777001,696.35,673,730,0
4777011,704.52,673,736,0
4777021,705.01,673,729,0
4777031,697.46,673,735,0
4777041,682.32,673,729,0
4777051,659.64,673,736,0
4777061,630.05,673,729,0
4777071,594.76,673,735,0
4777081,556.56,673,729,0
4777091,517.09,673,736,0
4777101,478.67,673,729,0
4777111,442.12,673,735,0
4777121,409.00,673,728,0
4777132,379.73,673,735,0
4777142,355.60,673,729,0
4777152,335.87,673,735,0
4777162,321.25,673,728,0
4777172,310.94,673,735,0
4777182,305.30,673,729,0
4777192,303.19,673,735,0
4777202,304.68,673,729,0
4777212,308.29,673,735,0
4777222,314.37,673,730,0
4777232,321.42,673,735,0
4777242,329.82,673,730,0
4777252,337.93,673,734,0
4777262,346.35,673,730,0
4777272,353.66,673,735,0
4777282,360.45,673,730,0
4777292,365.63,673,734,0
4777303,370.20,673,730,0
4777313,372.92,673,734,0
4777323,375.18,673,729,0
4777333,375.55,673,733,0
4777344,375.34,673,731,0
4777353,373.70,673,734,0
4777363,371.90,673,730,0
4777373,368.93,673,734,0
4777383,366.25,673,732,0
4777393,362.66,673,734,0
4777403,359.76,673,731,0
4777413,356.28,673,734,0
4777423,353.54,673,731,0
4777433,350.33,673,734,0
4777443,347.88,673,730,0
4777453,344.87,673,734,0
4777463,342.72,673,732,0
4777473,340.06,673,734,0
4777483,338.37,673,730,0
4777493,336.16,673,734,0
4777503,334.96,673,731,0
4777513,333.68,673,733,0
4777523,334.25,673,730,0
4777533,335.89,673,734,0
4777543,340.94,673,731,0
4777553,348.88,673,733,0
4777563,362.03,673,729,0
4777573,380.24,673,734,0
4777583,405.67,673,732,0
4777593,436.92,673,733,0
4777612,474.19,664,732,0
4777615,514.12,664,732,0
4777624,554.84,664,734,0
4777634,593.63,664,731,0
4777644,628.93,664,732,0
4777654,658.39,664,732,0
4777664,681.76,664,734,0
4777674,696.40,664,731,0
4777684,703.23,664,734,0
4777694,702.00,664,732,0
4777704,693.56,664,733,0
4777714,677.19,664,731,0
4777724,653.86,664,734,0
4777734,623.65,664,732,0
4777744,589.85,664,733,0
4777754,552.87,664,731,0
4777764,515.75,664,734,0
4777774,478.71,664,732,0
4777784,444.68,664,733,0
4777794,413.28,664,731,0
4777804,386.24,664,734,0
4777815,362.68,664,731,0
4777825,344.35,664,734,0
4777835,330.02,664,731,0
4777845,320.88,664,735,0
4777856,315.30,664,730,0
4777865,314.14,664,734,0
4777875,315.43,664,731,0
4777885,320.40,664,735,0
4777895,327.05,664,730,0
4777905,335.65,664,735,0
4777915,344.11,664,731,0
4777925,353.08,664,735,0
4777935,360.85,664,730,0
4777945,368.53,664,734,0
4777955,373.94,664,731,0
4777965,378.29,664,735,0
4777975,380.39,664,730,0
4777985,382.11,664,734,0
4777995,382.47,664,731,0
4778005,382.63,664,735,0
4778015,381.20,664,730,0
4778025,379.68,664,735,0
4778035,376.95,664,731,0
4778045,374.48,664,735,0
4778055,370.82,664,730,0
4778065,367.10,664,735,0
4778075,362.57,664,731,0
4778085,358.80,664,735,0
4778095,354.53,664,730,0
4778105,351.20,664,735,0
4778115,347.63,664,731,0
4778125,345.17,664,734,0
4778135,342.67,664,730,0
4778145,341.27,664,735,0
4778156,339.60,664,730,0
4778166,338.95,664,735,0
4778176,338.19,664,729,0
4778186,338.39,664,735,0
4778196,338.53,664,729,0
4778206,340.04,664,735,0
4778216,342.05,664,729,0
4778226,346.53,664,735,0
4778236,353.49,664,728,0
4778246,364.78,664,734,0
4778256,380.92,664,729,0
4778266,403.83,664,735,0
4778276,432.64,664,729,0
4778295,467.80,683,728,0
4778298,506.69,683,728,0
4778307,547.03,683,735,0
4778317,586.02,683,728,0
4778327,621.84,683,735,0
4778337,652.19,683,729,0
4778347,676.73,683,735,0
4778357,694.04,683,729,0
4778368,703.80,683,737,0
4778377,705.96,683,729,0
4778387,701.13,683,735,0
4778397,688.66,683,729,0
4778407,669.09,683,736,0
4778417,642.49,683,729,0
4778427,610.46,683,735,0
4778437,574.75,683,729,0
4778447,537.58,683,737,0
4778457,499.86,683,729,0
4778467,463.95,683,735,0
4778477,430.28,683,729,0
4778487,400.24,683,736,0
4778497,373.85,683,729,0
4778507,352.04,683,735,0
4778517,334.63,683,729,0
4778527,322.18,683,736,0
4778537,314.16,683,727,0
4778547,310.77,683,735,0
4778557,310.97,683,729,0
4778567,314.75,683,736,0
4778577,320.65,683,727,0
4778587,328.73,683,735,0
4778597,337.59,683,729,0
4778607,346.93,683,736,0
4778617,355.78,683,727,0
4778627,364.16,683,735,0
4778637,371.23,683,729,0
4778647,377.42,683,736,0
4778657,381.88,683,727,0
4778668,385.17,683,736,0
4778678,386.96,683,727,0
4778688,387.53,683,736,0
4778698,386.90,683,727,0
4778708,385.17,683,736,0
4778718,382.38,683,727,0
4778728,378.96,683,736,0
4778738,374.95,683,727,0
4778748,370.72,683,736,0
4778758,366.39,683,727,0
4778768,361.99,683,737,0
4778778,357.79,683,727,0
4778788,354.00,683,737,0
4778798,350.61,683,728,0
4778808,347.73,683,736,0
4778818,345.24,683,727,0
4778828,343.15,683,736,0
4778839,341.44,683,727,0
4778849,340.02,683,736,0
4778859,338.77,683,728,0
4778869,337.60,683,735,0
4778880,336.60,683,729,0
4778889,335.78,683,737,0
4778899,335.55,683,728,0
4778909,335.85,683,735,0
4778919,337.61,683,729,0
4778929,341.03,683,736,0
4778939,347.49,683,728,0
4778949,357.63,683,735,0
4778959,373.00,683,729,0
4778969,393.66,683,736,0
4778979,420.63,683,728,0
4778989,453.31,683,735,0
4778999,491.19,683,729,0
4779018,531.03,723,726,0
4779021,570.54,723,729,0
4779030,607.23,723,735,0
4779040,639.91,723,729,0
4779051,667.02,723,734,0
4779060,687.97,723,730,0
4779070,701.18,723,734,0
4779080,707.25,723,729,0
4779090,705.64,723,734,0
4779100,696.96,723,728,0
4779110,680.81,723,734,0
4779120,657.98,723,727,0
4779130,628.33,723,734,0
4779140,594.50,723,727,0
4779150,557.67,723,734,0
4779160,520.87,723,730,0
4779170,484.35,723,734,0
4779180,450.56,723,728,0
4779190,419.49,723,735,0
4779200,392.82,723,729,0
4779210,369.77,723,734,0
4779220,351.63,723,728,0
4779230,337.29,723,734,0
4779240,327.65,723,727,0
4779250,321.33,723,734,0
4779260,319.09,723,729,0
4779270,319.66,723,733,0
4779280,324.00,723,728,0
4779290,330.43,723,734,0
4779300,339.17,723,728,0
4779310,348.55,723,734,0
4779320,358.71,723,727,0
4779330,367.84,723,734,0
4779340,376.42,723,727,0
4779351,382.46,723,733,0
4779361,387.42,723,728,0
4779371,390.08,723,734,0
4779381,391.82,723,729,0
4779392,391.70,723,732,0
4779401,391.23,723,729,0
4779411,389.41,723,734,0
4779421,387.57,723,730,0
4779431,384.06,723,733,0
4779441,380.44,723,730,0
4779451,375.59,723,734,0
4779461,371.17,723,730,0
4779471,365.85,723,733,0
4779481,361.09,723,729,0
4779491,355.88,723,734,0
4779501,351.89,723,730,0
4779511,347.94,723,733,0
4779521,345.51,723,729,0
4779531,343.39,723,734,0
4779541,342.67,723,730,0
4779551,341.70,723,733,0
4779561,341.75,723,731,0
4779571,341.31,723,735,0
4779581,341.64,723,729,0
4779591,341.11,723,733,0
4779601,340.86,723,731,0
4779611,339.87,723,734,0
4779621,339.74,723,730,0
4779631,339.43,723,733,0
4779641,340.89,723,731,0
4779651,343.54,723,734,0
4779661,349.80,723,730,0
4779671,359.33,723,733,0
4779681,374.41,723,731,0
4779692,394.86,723,733,0
4779702,422.54,723,732,0
4779712,456.06,723,731,0
4779722,494.70,723,734,0
4779732,534.86,723,731,0
4779751,574.80,733,731,0
4779754,611.72,733,731,0
4779763,644.42,733,734,0
4779773,670.82,733,730,0
4779783,690.80,733,734,0
4779793,704.36,733,731,0
4779803,712.14,733,735,0
4779813,712.83,733,731,0
4779823,707.01,733,735,0
4779833,693.42,733,731,0
4779843,672.68,733,734,0
4779853,644.40,733,731,0
4779863,610.47,733,734,0
4779873,571.80,733,731,0
4779883,532.43,733,734,0
4779893,492.87,733,731,0
4779904,456.31,733,735,0
4779913,422.92,733,731,0
4779923,395.00,733,734,0
4779933,371.47,733,730,0
4779943,353.84,733,735,0
4779953,340.61,733,731,0
4779963,332.84,733,734,0
4779973,328.86,733,731,0
4779983,329.29,733,735,0
4779993,331.81,733,731,0
4780003,337.44,733,735,0
4780013,344.04,733,731,0
4780023,352.17,733,735,0
4780033,359.83,733,731,0
4780043,367.77,733,735,0
4780053,374.18,733,731,0
4780063,380.30,733,735,0
4780073,384.24,733,731,0
4780083,387.55,733,735,0
4780093,388.97,733,731,0
4780103,389.88,733,735,0
4780113,389.19,733,730,0
4780123,388.36,733,734,0
4780133,386.19,733,731,0
4780143,384.16,733,735,0
4780153,381.03,733,730,0
4780163,378.32,733,734,0
4780173,374.88,733,731,0
4780183,372.13,733,735,0
4780193,368.79,733,730,0
4780204,366.24,733,735,0
4780214,363.13,733,730,0
4780224,360.82,733,735,0
4780234,358.09,733,730,0
4780244,356.22,733,736,0
4780254,353.97,733,730,0
4780264,352.78,733,736,0
4780274,351.21,733,730,0
4780284,350.42,733,736,0
4780294,349.22,733,730,0
4780304,348.60,733,736,0
4780314,347.43,733,730,0
4780324,346.70,733,736,0
4780334,345.25,733,730,0
4780344,344.49,733,735,0
4780354,343.61,733,730,0
4780364,344.03,733,735,0
4780375,345.44,733,730,0
4780385,349.63,733,735,0
4780395,357.20,733,730,0
4780405,369.57,733,736,0
4780416,387.06,733,728,0
4780425,410.95,733,736,0
4780435,440.84,733,730,0
4780445,477.02,733,736,0
4780465,516.31,713,736,0
4780468,556.03,713,737,0
4780477,594.08,713,728,0
4780487,628.56,713,737,0
4780497,657.96,713,729,0
4780507,681.46,713,738,0
4780517,698.29,713,728,0
4780527,708.75,713,736,0
4780537,712.68,713,728,0
4780547,710.08,713,737,0
4780557,700.62,713,728,0
4780567,684.19,713,736,0
4780577,661.29,713,728,0
4780588,631.81,713,738,0
4780598,597.75,713,728,0
4780608,560.97,713,736,0
4780618,523.26,713,729,0
4780628,486.03,713,736,0
4780638,451.09,713,729,0
4780648,418.71,713,737,0
4780658,390.59,713,730,0
4780668,366.54,713,736,0
4780678,347.61,713,729,0
4780688,333.33,713,736,0
4780698,324.49,713,729,0
4780708,319.80,713,736,0
4780718,319.60,713,729,0
4780728,322.33,713,738,0
4780738,328.19,713,729,0
4780748,335.63,713,736,0
4780759,344.79,713,730,0
4780769,353.98,713,735,0
4780779,363.63,713,730,0
4780789,372.14,713,735,0
4780800,380.07,713,730,0
4780809,386.35,713,735,0
4780819,391.69,713,730,0
4780829,395.00,713,735,0
4780839,397.31,713,731,0
4780849,397.60,713,735,0
4780859,397.17,713,730,0
4780869,395.06,713,735,0
4780879,392.64,713,730,0
4780889,388.85,713,736,0
4780899,385.08,713,730,0
4780909,380.26,713,735,0
4780919,375.94,713,730,0
4780929,371.20,713,736,0
4780939,367.28,713,731,0
4780949,362.95,713,735,0
4780959,359.63,713,731,0
4780969,356.05,713,734,0
4780979,353.59,713,729,0
4780989,350.84,713,736,0
4780999,348.96,713,730,0
4781009,346.79,713,735,0
4781019,345.44,713,730,0
4781029,343.85,713,735,0
4781039,343.29,713,730,0
4781049,342.43,713,735,0
4781059,342.60,713,729,0
4781069,342.68,713,736,0
4781079,344.15,713,731,0
4781089,346.07,713,735,0
4781100,350.42,713,731,0
4781110,356.68,713,734,0
4781120,367.49,713,732,0
4781130,382.60,713,733,0
4781140,404.45,713,734,0
4781150,432.09,713,734,0
4781160,467.16,713,732,0
4781170,505.94,713,733,0
4781190,546.54,725,732,0
4781193,585.72,725,731,0
4781202,622.15,725,736,0
4781212,653.22,725,731,0
4781222,678.57,725,736,0
4781232,696.53,725,732,0
4781242,709.14,725,736,0
4781252,717.93,725,731,0
4781262,722.92,725,736,0
4781272,722.52,725,732,0
4781282,716.53,725,736,0
4781292,703.47,725,731,0
4781302,683.62,725,736,0
4781313,656.43,725,731,0
4781323,622.83,725,736,0
4781333,584.01,725,730,0
4781343,543.64,725,737,0
4781353,502.86,725,730,0
4781363,464.93,725,736,0
4781373,430.07,725,730,0
4781383,400.39,725,737,0
4781393,375.54,725,730,0
4781403,356.74,725,736,0
4781413,342.76,725,731,0
4781423,334.47,725,737,0
4781433,330.30,725,730,0
4781443,330.81,725,737,0
4781453,334.13,725,731,0
4781463,340.43,725,736,0
4781473,348.02,725,730,0
4781484,357.18,725,737,0
4781494,366.04,725,731,0
4781504,374.86,725,736,0
4781514,382.31,725,729,0
4781524,388.82,725,738,0
4781534,393.29,725,731,0
4781544,396.42,725,736,0
4781554,397.45,725,730,0
4781564,397.10,725,738,0
4781574,395.01,725,731,0
4781584,392.14,725,736,0
4781594,388.20,725,730,0
4781604,383.94,725,738,0
4781614,379.07,725,731,0
4781624,374.38,725,736,0
4781634,369.64,725,730,0
4781644,365.46,725,738,0
4781655,361.46,725,729,0
4781665,358.24,725,738,0
4781675,355.72,725,729,0
4781685,353.96,725,738,0
4781696,352.73,725,729,0
4781705,352.34,725,738,0
4781715,352.37,725,729,0
4781725,352.86,725,738,0
4781735,353.46,725,729,0
4781745,354.01,725,738,0
4781755,354.48,725,729,0
4781765,354.72,725,738,0
4781775,354.85,725,729,0
4781785,355.11,725,738,0
4781795,355.85,725,729,0
4781805,358.03,725,738,0
4781815,362.78,725,729,0
4781825,371.08,725,738,0
4781835,384.17,725,729,0
4781845,403.32,725,738,0
4781855,429.49,725,729,0
4781865,462.69,725,737,0
4781875,500.67,725,729,0
4781894,540.45,705,728,0
4781897,579.87,705,733,0
4781906,616.77,705,736,0
4781916,649.02,705,729,0
4781926,675.07,705,737,0
4781936,694.25,705,730,0
4781946,707.63,705,736,0
4781956,717.00,705,729,0
4781966,722.74,705,738,0
4781976,723.76,705,730,0
4781986,718.82,705,736,0
4781996,707.60,705,729,0
4782006,689.42,705,737,0
4782016,664.31,705,729,0
4782026,632.33,705,736,0
4782036,595.25,705,730,0
4782046,555.40,705,737,0
4782056,515.47,705,730,0
4782066,476.75,705,736,0
4782076,441.39,705,730,0
4782086,410.11,705,738,0
4782096,383.98,705,730,0
4782106,362.56,705,736,0
4782116,346.62,705,731,0
4782126,335.55,705,738,0
4782136,329.43,705,730,0
4782146,327.16,705,736,0
4782156,328.74,705,730,0
4782167,332.93,705,736,0
4782177,339.77,705,731,0
4782187,347.64,705,735,0
4782197,356.57,705,731,0
4782208,365.14,705,735,0
4782217,373.67,705,730,0
4782227,380.97,705,735,0
4782237,387.54,705,731,0
4782247,392.05,705,735,0
4782257,395.42,705,731,0
4782267,396.75,705,736,0
4782277,397.21,705,731,0
4782287,395.78,705,735,0
4782297,393.57,705,730,0
4782307,389.80,705,736,0
4782317,385.92,705,731,0
4782327,380.97,705,735,0
4782337,376.27,705,731,0
4782347,371.09,705,735,0
4782357,366.65,705,731,0
4782367,362.08,705,735,0
4782377,358.50,705,731,0
4782387,354.92,705,736,0
4782397,352.50,705,730,0
4782407,350.04,705,735,0
4782417,348.57,705,730,0
4782427,346.98,705,736,0
4782437,346.30,705,730,0
4782447,345.35,705,735,0
4782457,345.08,705,730,0
4782467,344.45,705,736,0
4782477,344.57,705,729,0
4782487,344.27,705,736,0
4782497,345.01,705,730,0
4782508,345.86,705,735,0
4782518,348.86,705,731,0
4782528,353.70,705,735,0
4782538,362.58,705,732,0
4782548,375.60,705,734,0
4782558,395.18,705,731,0
4782568,420.80,705,735,0
4782578,454.03,705,732,0
4782588,492.04,705,734,0
4782598,532.61,705,731,0
4782617,572.58,723,730,0
4782620,610.42,723,737,0
4782629,643.47,723,732,0
4782639,670.93,723,733,0
4782649,691.13,723,733,0
4782659,705.32,723,735,0
4782669,715.25,723,732,0
4782679,721.56,723,733,0
4782689,722.34,723,733,0
4782699,717.48,723,734,0
4782709,705.42,723,732,0
4782720,686.61,723,735,0
4782729,660.33,723,733,0
4782739,627.87,723,734,0
4782749,589.51,723,732,0
4782759,549.37,723,735,0
4782769,508.29,723,733,0
4782779,469.67,723,734,0
4782789,433.73,723,732,0
4782799,402.82,723,735,0
4782809,375.96,723,733,0
4782819,355.19,723,734,0
4782829,339.15,723,732,0
4782839,328.99,723,734,0
4782849,322.99,723,733,0
4782859,321.92,723,734,0
4782869,323.79,723,732,0
4782879,329.34,723,734,0
4782889,336.31,723,732,0
4782899,345.34,723,734,0
4782909,354.33,723,732,0
4782919,364.13,723,734,0
4782929,372.70,723,732,0
4782939,381.06,723,734,0
4782949,387.43,723,732,0
4782959,392.87,723,734,0
4782969,396.00,723,732,0
4782979,398.23,723,734,0
4782989,398.16,723,732,0
4782999,397.25,723,734,0
4783009,394.31,723,732,0
4783020,390.96,723,735,0
4783030,386.21,723,732,0
4783040,381.48,723,735,0
4783050,375.63,723,731,0
4783060,370.34,723,736,0
4783070,364.63,723,732,0
4783080,360.02,723,735,0
4783090,355.17,723,731,0
4783100,351.56,723,736,0
4783110,348.01,723,732,0
4783120,345.82,723,735,0
4783130,343.60,723,731,0
4783140,342.52,723,736,0
4783150,341.04,723,732,0
4783160,340.55,723,735,0
4783170,339.57,723,731,0
4783180,339.40,723,736,0
4783191,338.72,723,731,0
4783201,338.68,723,736,0
4783211,338.17,723,730,0
4783221,338.59,723,737,0
4783232,339.23,723,730,0
4783241,341.90,723,736,0
4783251,346.26,723,730,0
4783261,354.50,723,737,0
4783271,366.65,723,730,0
4783281,384.63,723,736,0
4783291,408.14,723,730,0
4783301,438.27,723,737,0
4783311,473.33,723,731,0
4783321,512.23,723,736,0
4783331,551.68,723,731,0
4783350,589.87,733,729,0
4783353,624.45,733,730,0
4783362,654.45,733,736,0
4783372,677.76,733,731,0
4783382,693.43,733,736,0
4783392,700.41,733,729,0
4783403,699.56,733,738,0
4783412,690.95,733,730,0
4783422,675.11,733,736,0
4783432,652.02,733,729,0
4783442,622.96,733,738,0
4783452,589.45,733,730,0
4783462,553.92,733,736,0
4783472,517.30,733,729,0
4783482,481.47,733,737,0
4783492,447.30,733,730,0
4783502,416.27,733,736,0
4783512,388.54,733,729,0
4783522,364.85,733,737,0
4783532,344.92,733,730,0
4783542,329.48,733,736,0
4783552,318.10,733,729,0
4783562,310.92,733,737,0
4783572,307.30,733,728,0
4783582,307.38,733,736,0
4783592,310.14,733,729,0
4783602,315.32,733,737,0
4783612,322.00,733,728,0
4783622,329.93,733,736,0
4783632,338.01,733,729,0
4783642,346.06,733,737,0
4783652,353.16,733,728,0
4783662,359.54,733,736,0
4783672,364.56,733,729,0
4783682,368.51,733,737,0
4783692,370.97,733,728,0
4783703,372.35,733,737,0
4783713,372.46,733,728,0
4783723,371.51,733,737,0
4783733,369.47,733,728,0
4783744,366.80,733,737,0
4783753,363.65,733,728,0
4783763,360.41,733,737,0
4783773,357.07,733,727,0
4783783,353.66,733,737,0
4783793,350.59,733,728,0
4783803,348.02,733,737,0
4783813,346.00,733,727,0
4783823,344.41,733,737,0
4783833,343.05,733,728,0
4783843,342.09,733,737,0
4783853,341.63,733,727,0
4783863,341.44,733,737,0
4783873,341.40,733,728,0
4783883,341.53,733,737,0
4783893,341.80,733,727,0
4783903,342.33,733,737,0
4783913,343.69,733,729,0
4783923,346.27,733,737,0
4783933,350.95,733,727,0
4783943,358.59,733,737,0
4783953,370.37,733,728,0
4783963,387.14,733,737,0
4783973,409.52,733,727,0
4783983,437.43,733,737,0
4784003,470.65,652,736,0
4784006,507.27,652,735,0
4784015,545.46,652,729,0
4784025,582.61,652,735,0
4784035,616.88,652,730,0
4784045,646.92,652,735,0
4784055,670.56,652,729,0
4784065,685.60,652,735,0
4784075,692.24,652,729,0
4784086,689.77,652,735,0
4784095,679.59,652,729,0
4784105,661.67,652,735,0
4784115,637.00,652,729,0
4784125,606.66,652,735,0
4784135,573.89,652,729,0
4784145,539.04,652,735,0
4784155,504.70,652,730,0
4784165,470.89,652,735,0
4784175,439.76,652,729,0
4784185,411.12,652,736,0
4784195,386.70,652,730,0
4784205,365.40,652,735,0
4784215,348.74,652,729,0
4784225,335.79,652,736,0
4784235,327.58,652,729,0
4784245,322.69,652,735,0
4784256,321.88,652,730,0
4784265,323.59,652,735,0
4784275,328.30,652,731,0
4784285,334.38,652,735,0
4784295,342.24,652,730,0
4784305,350.14,652,736,0
4784315,358.63,652,729,0
4784325,366.11,652,735,0
4784335,373.75,652,730,0
4784345,380.12,652,736,0
4784355,385.83,652,730,0
4784365,389.44,652,736,0
4784375,391.88,652,730,0
4784385,392.21,652,736,0
4784395,391.64,652,730,0
4784405,388.70,652,736,0
4784415,384.72,652,731,0
4784425,379.23,652,735,0
4784435,373.93,652,730,0
4784445,368.17,652,736,0
4784455,363.19,652,731,0
4784465,358.08,652,735,0
4784475,354.15,652,730,0
4784485,350.34,652,736,0
4784495,347.79,652,730,0
4784505,345.20,652,735,0
4784515,343.72,652,730,0
4784525,342.18,652,736,0
4784535,341.61,652,731,0
4784545,340.66,652,735,0
4784556,340.63,652,731,0
4784566,340.31,652,735,0
4784576,341.46,652,732,0
4784586,343.17,652,734,0
4784596,347.70,652,734,0
4784606,354.65,652,735,0
4784616,366.41,652,732,0
4784626,382.66,652,734,0
4784636,405.78,652,733,0
4784646,434.60,652,735,0
4784656,470.12,652,732,0
4784675,508.91,673,731,0
4784678,549.10,673,737,0
4784687,587.68,673,733,0
4784697,623.48,673,735,0
4784707,653.93,673,732,0
4784717,678.68,673,735,0
4784727,696.56,673,733,0
4784737,707.92,673,735,0
4784747,712.06,673,732,0
4784757,709.47,673,735,0
4784768,699.17,673,732,0
4784777,682.15,673,735,0
4784787,657.55,673,732,0
4784797,626.78,673,735,0
4784807,590.68,673,732,0
4784817,552.97,673,735,0
4784827,514.11,673,732,0
4784837,477.22,673,735,0
4784847,442.05,673,732,0
4784857,411.35,673,735,0
4784867,384.03,673,732,0
4784877,362.04,673,735,0
4784887,343.98,673,732,0
4784897,331.39,673,735,0
4784907,322.61,673,732,0
4784917,318.62,673,735,0
4784927,317.49,673,732,0
4784937,320.17,673,735,0
4784947,324.53,673,732,0
4784957,331.53,673,735,0
4784967,339.17,673,732,0
4784977,348.21,673,736,0
4784987,356.54,673,732,0
4784997,365.08,673,735,0
4785007,372.00,673,732,0
4785017,378.51,673,735,0
4785027,382.90,673,732,0
4785037,386.27,673,735,0
4785047,387.35,673,732,0
4785057,387.63,673,735,0
4785068,385.90,673,731,0
4785078,383.70,673,736,0
4785088,379.76,673,731,0
4785098,375.68,673,736,0
4785108,370.63,673,730,0
4785118,366.20,673,736,0
4785128,361.38,673,732,0
4785138,357.45,673,736,0
4785148,353.42,673,730,0
4785158,350.55,673,736,0
4785168,347.47,673,731,0
4785178,345.40,673,736,0
4785188,342.88,673,730,0
4785198,341.29,673,736,0
4785208,339.36,673,731,0
4785218,338.14,673,736,0
4785228,336.81,673,730,0
4785239,337.00,673,737,0
4785249,338.20,673,731,0
4785259,342.77,673,737,0
4785269,350.34,673,730,0
4785280,363.31,673,736,0
4785289,381.56,673,731,0
4785299,407.23,673,737,0
4785309,439.61,673,731,0
4785319,478.21,673,737,0
4785338,519.16,663,736,0
4785341,560.47,663,740,0
4785350,599.37,663,729,0
4785360,634.57,663,739,0
4785370,663.72,663,731,0
4785380,686.17,663,738,0
4785390,701.85,663,729,0
4785400,712.82,663,738,0
4785410,718.32,663,732,0
4785420,717.92,663,738,0
4785430,710.58,663,729,0
4785440,696.22,663,738,0
4785451,674.47,663,729,0
4785460,646.08,663,737,0
4785470,611.22,663,729,0
4785480,572.84,663,738,0
4785490,532.69,663,729,0
4785500,493.61,663,737,0
4785510,456.65,663,729,0
4785520,423.46,663,739,0
4785530,394.18,663,729,0
4785540,369.70,663,737,0
4785550,349.86,663,729,0
4785560,335.07,663,739,0
4785570,324.72,663,729,0
4785580,318.85,663,737,0
4785590,316.67,663,730,0
4785600,317.88,663,738,0
4785610,321.52,663,729,0
4785620,327.19,663,738,0
4785630,334.12,663,729,0
4785640,341.97,663,738,0
4785650,349.91,663,729,0
4785660,357.86,663,738,0
4785670,365.06,663,729,0
4785680,371.56,663,738,0
4785690,376.79,663,729,0
4785700,380.62,663,738,0
4785710,382.71,663,730,0
4785720,383.22,663,738,0
4785730,382.00,663,729,0
4785740,379.51,663,738,0
4785751,375.85,663,729,0
4785761,371.35,663,738,0
4785771,366.49,663,729,0
4785781,361.28,663,738,0
4785792,356.18,663,729,0
4785801,351.24,663,738,0
4785811,346.80,663,729,0
4785821,342.87,663,738,0
4785831,339.78,663,729,0
4785841,337.23,663,739,0
4785851,335.49,663,729,0
4785861,334.19,663,738,0
4785871,333.57,663,730,0
4785881,333.23,663,738,0
4785891,333.38,663,729,0
4785901,334.03,663,738,0
4785911,336.21,663,729,0
4785921,340.48,663,738,0
4785931,348.18,663,729,0
4785941,360.21,663,738,0
4785951,378.23,663,729,0
4785961,402.85,663,737,0
4785971,434.57,663,729,0
4785981,472.41,663,739,0
4786000,513.56,662,737,0
4786003,555.09,662,737,0
4786012,594.88,662,730,0
4786022,630.53,662,737,0
4786032,660.63,662,730,0
4786042,683.97,662,736,0
4786052,700.39,662,730,0
4786062,711.89,662,737,0
4786072,718.14,662,730,0
4786082,717.97,662,736,0
4786092,711.51,662,730,0
4786102,697.90,662,737,0
4786112,677.40,662,730,0
4786122,649.59,662,736,0
4786132,615.39,662,730,0
4786142,576.83,662,737,0
4786152,537.19,662,730,0
4786162,497.19,662,736,0
4786172,459.51,662,731,0
4786182,424.77,662,737,0
4786192,394.92,662,731,0
4786202,369.45,662,736,0
4786212,349.47,662,732,0
4786222,333.94,662,737,0
4786232,323.63,662,731,0
4786242,317.40,662,736,0
4786252,315.57,662,731,0
4786263,316.51,662,737,0
4786273,320.60,662,731,0
4786283,326.12,662,736,0
4786293,333.63,662,732,0
4786304,341.50,662,736,0
4786313,350.05,662,731,0
4786323,357.75,662,736,0
4786333,365.32,662,731,0
4786343,371.40,662,736,0
4786353,376.72,662,731,0
4786363,380.02,662,736,0
4786373,382.67,662,731,0
4786383,383.33,662,736,0
4786393,383.27,662,731,0
4786403,381.30,662,736,0
4786413,378.90,662,731,0
4786423,375.11,662,736,0
4786433,371.35,662,730,0
4786443,366.49,662,736,0
4786453,362.06,662,731,0
4786463,356.90,662,736,0
4786473,352.56,662,732,0
4786483,347.93,662,736,0
4786493,344.35,662,731,0
4786503,340.60,662,736,0
4786513,337.98,662,732,0
4786523,335.33,662,737,0
4786533,333.90,662,731,0
4786543,332.30,662,736,0
4786553,331.83,662,732,0
4786563,331.41,662,737,0
4786573,332.74,662,731,0
4786583,335.09,662,736,0
4786593,340.76,662,732,0
4786604,349.58,662,735,0
4786614,364.23,662,733,0
4786624,384.52,662,734,0
4786634,412.69,662,735,0
4786644,447.24,662,733,0
4786663,487.33,663,733,0
4786666,529.10,663,732,0
4786675,570.77,663,736,0
4786685,609.24,663,733,0
4786695,643.24,663,735,0
4786705,670.47,663,733,0
4786715,690.94,663,736,0
4786725,705.23,663,733,0
4786735,715.28,663,735,0
4786745,719.31,663,733,0
4786755,717.33,663,736,0
4786765,708.02,663,732,0
4786775,691.94,663,735,0
4786785,668.22,663,733,0
4786795,637.98,663,735,0
4786805,600.79,663,732,0
4786816,560.95,663,736,0
4786825,519.48,663,733,0
4786835,479.74,663,736,0
4786845,441.63,663,733,0
4786855,408.01,663,736,0
4786865,378.01,663,733,0
4786875,353.79,663,736,0
4786885,334.14,663,733,0
4786895,320.38,663,735,0
4786905,310.80,663,733,0
4786915,306.53,663,735,0
4786925,305.56,663,732,0
4786935,308.73,663,736,0
4786945,313.83,663,733,0
4786955,321.55,663,736,0
4786965,329.74,663,733,0
4786975,339.25,663,736,0
4786985,348.09,663,732,0
4786995,357.02,663,736,0
4787005,364.21,663,733,0
4787015,370.88,663,736,0
4787025,375.37,663,732,0
4787035,379.12,663,736,0
4787045,380.67,663,733,0
4787055,381.45,663,735,0
4787065,380.20,663,732,0
4787075,378.77,663,735,0
4787085,375.75,663,733,0
4787095,372.70,663,736,0
4787105,368.46,663,732,0
4787116,364.51,663,737,0
4787126,359.73,663,732,0
4787136,355.61,663,736,0
4787146,350.97,663,731,0
4787156,347.34,663,737,0
4787166,343.63,663,732,0
4787176,341.04,663,736,0
4787186,338.59,663,731,0
4787196,337.25,663,737,0
4787206,336.02,663,732,0
4787216,335.67,663,736,0
4787226,334.91,663,731,0
4787236,334.85,663,737,0
4787246,334.64,663,732,0
4787256,335.95,663,737,0
4787266,338.45,663,731,0
4787276,344.23,663,737,0
4787287,353.55,663,731,0
4787297,368.85,663,736,0
4787307,390.50,663,731,0
4787317,419.96,663,737,0
4787328,456.02,663,730,0
4787346,496.81,683,729,0
4787349,538.83,683,730,0
4787358,580.11,683,738,0
4787368,617.87,683,729,0
4787378,650.48,683,739,0
4787388,676.31,683,729,0
4787398,695.03,683,739,0
4787408,708.14,683,730,0
4787418,716.84,683,739,0
4787428,719.97,683,729,0
4787438,716.77,683,739,0
4787448,706.59,683,730,0
4787458,689.36,683,738,0
4787468,664.78,683,729,0
4787478,633.30,683,738,0
4787488,595.93,683,730,0
4787499,555.45,683,738,0
4787508,514.30,683,729,0
4787518,474.44,683,738,0
4787528,437.11,683,730,0
4787538,403.65,683,739,0
4787548,374.78,683,729,0
4787558,351.10,683,739,0
4787568,332.77,683,730,0
4787578,319.56,683,740,0
4787588,311.25,683,729,0
4787598,307.36,683,739,0
4787608,307.42,683,730,0
4787618,310.55,683,739,0
4787628,315.96,683,729,0
4787638,323.13,683,738,0
4787648,331.32,683,730,0
4787658,340.01,683,739,0
4787668,348.75,683,729,0
4787678,356.97,683,739,0
4787688,364.18,683,730,0
4787698,370.12,683,739,0
4787708,374.54,683,729,0
4787718,377.59,683,739,0
4787728,379.13,683,730,0
4787738,379.18,683,740,0
4787748,377.88,683,729,0
4787758,375.73,683,739,0
4787768,372.73,683,730,0
4787778,369.04,683,739,0
4787788,364.95,683,729,0
4787799,360.55,683,739,0
4787809,356.40,683,730,0
4787819,352.30,683,738,0
4787829,348.52,683,730,0
4787840,344.94,683,737,0
4787849,342.00,683,730,0
4787859,339.34,683,738,0
4787869,337.48,683,730,0
4787879,335.49,683,737,0
4787889,334.27,683,730,0
4787899,333.21,683,739,0
4787909,332.84,683,730,0
4787919,332.51,683,738,0
4787929,332.83,683,729,0
4787939,333.39,683,738,0
4787949,335.50,683,729,0
4787959,339.21,683,738,0
4787969,345.96,683,730,0
4787979,356.43,683,739,0
4787989,372.46,683,729,0
4787999,394.52,683,738,0
4788009,423.94,683,731,0
4788019,459.57,683,738,0
4788038,499.60,692,736,0
4788041,540.99,692,738,0
4788050,581.54,692,732,0
4788060,618.70,692,737,0
4788070,650.89,692,731,0
4788080,676.38,692,737,0
4788090,695.25,692,732,0
4788100,708.46,692,737,0
4788110,716.25,692,730,0
4788120,717.59,692,737,0
4788130,712.36,692,731,0
4788140,699.99,692,737,0
4788150,680.62,692,730,0
4788160,653.82,692,737,0
4788170,620.62,692,731,0
4788180,582.50,692,737,0
4788190,542.84,692,731,0
4788200,502.77,692,737,0
4788210,464.83,692,732,0
4788220,429.39,692,736,0
4788230,398.59,692,731,0
4788240,371.93,692,737,0
4788250,350.78,692,731,0
4788260,333.96,692,737,0
4788270,322.61,692,731,0
4788280,315.23,692,737,0
4788290,312.72,692,732,0
4788300,313.23,692,737,0
4788311,317.23,692,732,0
4788321,322.78,692,736,0
4788331,330.47,692,732,0
4788341,338.30,692,735,0
4788352,346.87,692,734,0
4788361,354.37,692,735,0
4788371,361.80,692,732,0
4788381,367.52,692,735,0
4788391,372.80,692,734,0
4788401,376.33,692,736,0
4788411,379.23,692,732,0
4788421,380.28,692,735,0
4788431,380.84,692,734,0
4788441,379.64,692,736,0
4788451,378.16,692,733,0
4788461,374.86,692,735,0
4788471,371.47,692,733,0
4788481,367.00,692,736,0
4788491,363.06,692,733,0
4788501,358.33,692,735,0
4788511,354.37,692,734,0
4788521,349.97,692,734,0
4788531,346.90,692,732,0
4788541,343.54,692,736,0
4788551,341.28,692,733,0
4788561,338.67,692,734,0
4788571,337.27,692,733,0
4788581,335.60,692,735,0
4788591,334.99,692,734,0
4788601,333.88,692,734,0
4788611,333.74,692,732,0
4788621,333.22,692,735,0
4788631,333.84,692,734,0
4788641,334.49,692,734,0
4788652,337.17,692,735,0
4788662,341.23,692,733,0
4788672,349.39,692,736,0
4788682,361.19,692,733,0
4788692,379.52,692,736,0
4788702,403.49,692,734,0
4788712,434.97,692,736,0
4788722,471.92,692,733,0
4788742,512.75,703,732,0
4788745,553.75,703,732,0
4788754,593.43,703,737,0
4788764,628.74,703,732,0
4788774,659.12,703,738,0
4788784,682.61,703,732,0
4788794,699.57,703,737,0
4788804,710.67,703,731,0
4788814,716.13,703,738,0
4788824,714.97,703,732,0
4788834,707.35,703,737,0
4788844,692.38,703,731,0
4788854,670.36,703,738,0
4788865,641.20,703,731,0
4788875,606.60,703,737,0
4788885,568.10,703,732,0
4788895,528.69,703,738,0
4788905,489.48,703,730,0
4788915,452.99,703,737,0
4788925,419.78,703,731,0
4788935,391.30,703,738,0
4788945,367.30,703,730,0
4788955,348.61,703,737,0
4788965,334.58,703,731,0
4788975,325.58,703,738,0
4788985,320.61,703,730,0
4788995,319.78,703,737,0
4789005,321.82,703,731,0
4789015,326.59,703,738,0
4789025,332.88,703,730,0
4789036,340.72,703,739,0
4789046,348.82,703,729,0
4789056,357.06,703,738,0
4789066,364.54,703,730,0
4789076,371.28,703,739,0
4789086,376.68,703,729,0
4789096,380.89,703,738,0
4789106,383.49,703,730,0
4789116,384.80,703,739,0
4789126,384.82,703,729,0
4789136,383.67,703,739,0
4789146,381.59,703,730,0
4789156,378.62,703,739,0
4789166,375.01,703,729,0
4789176,370.85,703,739,0
4789186,366.61,703,730,0
4789196,362.35,703,739,0
4789207,358.43,703,729,0
4789217,354.62,703,738,0
4789227,351.43,703,730,0
4789237,348.56,703,738,0
4789248,346.46,703,731,0
4789257,344.52,703,738,0
4789267,343.08,703,730,0
4789277,341.77,703,738,0
4789287,341.03,703,731,0
4789297,340.25,703,738,0
4789307,339.83,703,730,0
4789317,339.15,703,738,0
4789327,338.94,703,730,0
4789337,338.74,703,739,0
4789347,339.29,703,730,0
4789357,340.62,703,738,0
4789367,344.16,703,730,0
4789377,350.37,703,739,0
4789387,360.97,703,730,0
4789397,376.58,703,738,0
4789407,398.82,703,730,0
4789417,427.59,703,737,0
4789427,463.03,703,730,0
4789446,502.45,705,728,0
4789449,543.46,705,733,0
4789458,583.30,705,737,0
4789468,620.07,705,731,0
4789478,651.59,705,737,0
4789488,677.00,705,730,0
4789498,695.60,705,737,0
4789508,708.66,705,731,0
4789518,715.84,705,737,0
4789528,716.91,705,730,0
4789538,710.94,705,737,0
4789548,698.27,705,732,0
4789558,678.26,705,737,0
4789568,651.44,705,730,0
4789578,617.79,705,737,0
4789588,580.53,705,731,0
4789598,541.11,705,737,0
4789608,502.59,705,730,0
4789618,465.26,705,737,0
4789628,431.58,705,731,0
4789638,401.58,705,737,0
4789648,376.63,705,730,0
4789658,355.87,705,737,0
4789668,340.44,705,730,0
4789678,329.04,705,737,0
4789688,322.60,705,731,0
4789698,319.55,705,737,0
4789708,320.37,705,732,0
4789719,323.39,705,736,0
4789729,329.01,705,732,0
4789739,335.44,705,736,0
4789749,343.32,705,732,0
4789760,350.85,705,735,0
4789769,358.78,705,731,0
4789779,365.41,705,736,0
4789789,371.71,705,732,0
4789799,376.17,705,735,0
4789809,380.02,705,731,0
4789819,381.81,705,736,0
4789829,382.98,705,733,0
4789839,382.09,705,735,0
4789849,380.90,705,732,0
4789859,378.19,705,736,0
4789869,375.48,705,733,0
4789879,371.43,705,735,0
4789889,367.83,705,732,0
4789899,363.47,705,736,0
4789909,359.90,705,733,0
4789919,355.73,705,735,0
4789929,352.38,705,734,0
4789939,348.75,705,735,0
4789949,346.38,705,733,0
4789959,343.74,705,735,0
4789969,342.19,705,734,0
4789979,340.38,705,736,0
4789989,339.62,705,733,0
4789999,338.53,705,735,0
4790009,338.42,705,734,0
4790019,337.69,705,736,0
4790029,337.87,705,733,0
4790039,337.52,705,735,0
4790049,338.22,705,734,0
4790060,338.80,705,733,0
4790070,341.17,705,735,0
4790080,344.68,705,733,0
4790090,351.98,705,736,0
4790100,362.65,705,733,0
4790110,379.39,705,735,0
4790120,401.86,705,733,0
4790130,432.07,705,736,0
4790140,468.61,705,733,0
4790159,509.22,713,732,0
4790162,550.39,713,732,0
4790171,590.47,713,737,0
4790181,626.67,713,732,0
4790191,657.84,713,736,0
4790201,682.02,713,733,0
4790211,699.11,713,737,0
4790221,711.08,713,732,0
4790231,719.46,713,736,0
4790241,725.32,713,733,0
4790251,727.84,713,737,0
4790261,724.71,713,731,0
4790272,715.54,713,737,0
4790281,699.05,713,732,0
4790291,675.72,713,737,0
4790301,644.91,713,731,0
4790311,607.56,713,737,0
4790321,565.22,713,732,0
4790331,522.26,713,737,0
4790341,479.62,713,731,0
4790351,440.31,713,737,0
4790361,404.13,713,733,0
4790371,373.36,713,737,0
4790381,347.32,713,731,0
4790391,327.43,713,737,0
4790401,312.17,713,732,0
4790411,302.52,713,737,0
4790421,296.66,713,732,0
4790431,295.52,713,737,0
4790441,297.12,713,732,0
4790451,301.93,713,737,0
4790461,307.86,713,732,0
4790471,315.62,713,737,0
4790481,323.28,713,732,0
4790491,331.55,713,737,0
4790501,338.41,713,732,0
4790511,344.89,713,737,0
4790521,349.55,713,731,0
4790531,353.76,713,737,0
4790541,356.02,713,732,0
4790551,357.64,713,737,0
4790561,357.53,713,732,0
4790572,357.24,713,737,0
4790582,355.67,713,731,0
4790592,354.06,713,737,0
4790602,351.42,713,731,0
4790612,348.98,713,737,0
4790622,345.90,713,731,0
4790632,343.53,713,737,0
4790642,340.93,713,731,0
4790652,339.11,713,737,0
4790662,337.36,713,731,0
4790672,336.52,713,737,0
4790682,335.64,713,731,0
4790692,335.45,713,737,0
4790702,334.93,713,731,0
4790712,334.99,713,737,0
4790722,334.65,713,731,0
4790732,334.63,713,737,0
4790743,334.14,713,731,0
4790753,334.05,713,738,0
4790763,333.82,713,729,0
4790773,334.35,713,739,0
4790784,335.32,713,729,0
4790793,338.26,713,738,0
4790803,343.58,713,729,0
4790813,352.88,713,738,0
4790823,366.93,713,729,0
4790833,386.92,713,738,0
4790843,413.17,713,729,0
4790862,446.04,703,728,0
4790865,484.38,703,730,0
4790874,525.20,703,739,0
4790884,565.72,703,729,0
4790894,603.82,703,739,0
4790904,637.65,703,730,0
4790914,665.95,703,738,0
4790924,687.82,703,729,0
4790934,702.53,703,739,0
4790944,710.30,703,730,0
4790955,711.03,703,738,0
4790964,704.80,703,729,0
4790974,691.53,703,739,0
4790984,671.10,703,729,0
4790994,643.60,703,738,0
4791004,610.55,703,729,0
4791014,573.91,703,739,0
4791024,536.01,703,729,0
4791034,498.08,703,738,0
4791044,461.97,703,729,0
4791054,428.85,703,739,0
4791064,399.92,703,730,0
4791074,375.00,703,738,0
4791084,354.95,703,729,0
4791094,339.45,703,739,0
4791104,328.81,703,729,0
4791114,322.35,703,738,0
4791124,319.98,703,730,0
4791134,320.80,703,739,0
4791144,324.54,703,729,0
4791154,330.12,703,739,0
4791164,337.24,703,729,0
4791174,345.14,703,739,0
4791184,353.41,703,729,0
4791194,361.18,703,738,0
4791204,368.41,703,730,0
4791214,374.41,703,738,0
4791224,379.35,703,729,0
4791234,382.71,703,737,0
4791244,384.90,703,730,0
4791255,385.40,703,737,0
4791265,385.07,703,730,0
4791275,383.76,703,737,0
4791285,382.33,703,730,0
4791296,379.96,703,738,0
4791305,377.44,703,731,0
4791315,374.05,703,737,0
4791325,370.82,703,731,0
4791335,366.81,703,737,0
4791345,362.66,703,730,0
4791355,357.71,703,737,0
4791365,353.42,703,731,0
4791375,349.01,703,737,0
4791385,345.45,703,731,0
4791395,342.02,703,737,0
4791405,339.78,703,731,0
4791415,337.75,703,738,0
4791425,336.79,703,731,0
4791435,335.83,703,737,0
4791445,335.79,703,731,0
4791455,335.64,703,737,0
4791465,336.43,703,731,0
4791475,337.08,703,737,0
4791485,339.02,703,731,0
4791495,341.76,703,738,0
4791505,347.27,703,731,0
4791515,355.34,703,737,0
4791525,368.05,703,731,0
4791535,385.52,703,737,0
4791545,409.66,703,730,0
4791555,439.46,703,738,0
4791565,475.50,703,730,0
4791584,514.56,722,731,0
4791587,554.64,722,736,0
4791596,593.02,722,737,0
4791606,628.07,722,731,0
4791616,657.75,722,737,0
4791626,681.65,722,732,0
4791636,698.86,722,736,0
4791646,709.70,722,732,0
4791656,713.48,722,737,0
4791666,710.76,722,733,0
4791676,700.50,722,736,0
4791686,683.64,722,732,0
4791696,659.53,722,736,0
4791706,629.33,722,733,0
4791716,593.92,722,736,0
4791726,556.96,722,733,0
4791736,518.83,722,737,0
4791746,482.75,722,733,0
4791756,448.41,722,736,0
4791767,418.20,722,734,0
4791777,391.31,722,735,0
4791787,369.66,722,735,0
4791797,351.85,722,734,0
4791808,339.59,722,736,0
4791817,331.10,722,735,0
4791827,327.69,722,736,0
4791837,327.44,722,734,0
4791847,331.08,722,736,0
4791857,336.28,722,735,0
4791867,343.83,722,735,0
4791877,351.38,722,734,0
4791887,359.97,722,736,0
4791897,367.30,722,735,0
4791907,374.54,722,735,0
4791917,379.65,722,734,0
4791927,384.34,722,736,0
4791937,387.11,722,735,0
4791947,389.43,722,735,0
4791957,389.78,722,734,0
4791967,389.71,722,736,0
4791977,387.83,722,734,0
4791987,386.12,722,735,0
4791997,382.96,722,734,0
4792007,379.93,722,736,0
4792017,375.79,722,734,0
4792027,372.21,722,735,0
4792037,367.86,722,734,0
4792047,364.43,722,736,0
4792057,360.45,722,734,0
4792067,357.65,722,736,0
4792077,354.54,722,734,0
4792087,352.45,722,736,0
4792097,349.92,722,734,0
4792108,348.61,722,736,0
4792118,346.93,722,733,0
4792128,346.39,722,737,0
4792138,345.25,722,733,0
4792148,344.96,722,738,0
4792158,344.07,722,733,0
4792168,344.09,722,737,0
4792178,343.64,722,733,0
4792188,344.43,722,737,0
4792198,345.54,722,733,0
4792208,349.11,722,737,0
4792218,354.82,722,733,0
4792228,365.12,722,738,0
4792238,379.48,722,733,0
4792248,400.29,722,737,0
4792258,426.73,722,733,0
4792268,460.03,722,738,0
4792279,497.82,722,733,0
4792298,537.82,714,731,0
4792301,576.91,714,731,0
4792310,613.88,714,739,0
4792321,646.10,714,731,0
4792331,672.94,714,739,0
4792341,693.02,714,730,0
4792351,706.64,714,739,0
4792361,713.61,714,730,0
4792371,713.90,714,739,0
4792381,707.28,714,730,0
4792391,693.61,714,739,0
4792401,672.86,714,730,0
4792411,645.43,714,739,0
4792421,612.17,714,730,0
4792431,575.61,714,739,0
4792441,537.67,714,730,0
4792451,500.35,714,739,0
4792461,464.93,714,730,0
4792471,432.77,714,739,0
4792481,404.51,714,730,0
4792492,380.61,714,739,0
4792502,361.40,714,730,0
4792512,346.84,714,740,0
4792522,336.81,714,731,0
4792532,331.08,714,738,0
4792542,329.13,714,730,0
4792552,330.08,714,739,0
4792562,333.87,714,731,0
4792572,339.52,714,738,0
4792582,346.78,714,730,0
4792592,354.60,714,740,0
4792602,362.82,714,731,0
4792612,370.59,714,738,0
4792622,378.08,714,730,0
4792632,384.23,714,739,0
4792642,389.22,714,731,0
4792652,392.45,714,738,0
4792663,394.33,714,731,0
4792673,394.32,714,738,0
4792683,393.41,714,731,0
4792693,391.01,714,737,0
4792704,388.10,714,731,0
4792713,384.34,714,738,0
4792723,380.55,714,731,0
4792733,376.19,714,737,0
4792743,372.32,714,733,0
4792753,368.06,714,737,0
4792763,364.44,714,733,0
4792773,360.58,714,737,0
4792783,357.49,714,731,0
4792793,354.22,714,738,0
4792803,351.97,714,732,0
4792813,349.58,714,738,0
4792823,348.16,714,731,0
4792833,346.57,714,738,0
4792843,345.84,714,731,0
4792853,344.99,714,737,0
4792863,344.95,714,732,0
4792873,344.45,714,737,0
4792883,344.83,714,731,0
4792893,345.14,714,737,0
4792903,347.07,714,730,0
4792913,350.30,714,737,0
4792923,356.51,714,732,0
4792933,365.79,714,737,0
4792943,380.38,714,730,0
4792953,400.24,714,737,0
4792963,426.78,714,731,0
4792973,458.90,714,737,0
4792983,496.26,714,731,0
4793003,535.53,704,730,0
4793006,574.75,704,736,0
4793015,611.26,704,735,0
4793025,643.71,704,735,0
4793035,670.37,704,734,0
4793046,691.04,704,737,0
4793055,704.44,704,735,0
4793065,711.47,704,735,0
4793075,711.33,704,734,0
4793085,704.54,704,736,0
4793095,690.45,704,735,0
4793105,669.83,704,735,0
4793115,642.11,704,734,0
4793125,609.63,704,736,0
4793135,573.27,704,735,0
4793145,536.29,704,735,0
4793155,499.17,704,734,0
4793165,464.54,704,736,0
4793175,432.19,704,735,0
4793185,404.36,704,734,0
4793195,380.12,704,734,0
4793205,361.06,704,736,0
4793216,346.04,704,734,0
4793225,336.30,704,735,0
4793235,330.21,704,734,0
4793245,328.73,704,736,0
4793255,329.67,704,734,0
4793265,333.93,704,735,0
4793275,339.48,704,734,0
4793285,347.09,704,736,0
4793295,354.56,704,733,0
4793305,362.88,704,735,0
4793315,370.16,704,734,0
4793325,377.57,704,736,0
4793335,383.23,704,734,0
4793345,388.30,704,734,0
4793355,391.30,704,734,0
4793365,393.65,704,737,0
4793375,393.84,704,734,0
4793385,393.33,704,736,0
4793395,391.05,704,734,0
4793405,388.59,704,737,0
4793415,384.68,704,733,0
4793425,380.96,704,736,0
4793435,376.30,704,734,0
4793445,372.40,704,736,0
4793455,367.91,704,734,0
4793465,364.42,704,736,0
4793475,360.52,704,734,0
4793485,357.84,704,736,0
4793495,354.80,704,733,0
4793505,352.89,704,736,0
4793516,350.52,704,733,0
4793526,349.17,704,737,0
4793536,347.40,704,733,0
4793546,346.68,704,737,0
4793556,345.58,704,732,0
4793566,345.36,704,737,0
4793576,344.52,704,733,0
4793586,344.54,704,737,0
4793596,344.16,704,732,0
4793606,344.97,704,737,0
4793616,346.35,704,733,0
4793626,350.57,704,737,0
4793636,357.47,704,732,0
4793646,369.33,704,737,0
4793656,385.95,704,733,0
4793666,409.62,704,737,0
4793676,439.31,704,732,0
4793687,475.69,704,738,0
4793706,515.04,704,737,0
4793709,555.31,704,740,0
4793718,593.75,704,731,0
4793729,629.01,704,739,0
4793739,658.75,704,730,0
4793749,682.61,704,739,0
4793759,699.53,704,730,0
4793769,709.95,704,739,0
4793779,713.91,704,730,0
4793789,711.28,704,738,0
4793799,701.64,704,730,0
4793809,684.90,704,739,0
4793819,661.28,704,730,0
4793829,631.19,704,738,0
4793839,596.46,704,730,0
4793849,559.17,704,739,0
4793859,521.19,704,730,0
4793869,484.49,704,738,0
4793879,450.49,704,730,0
4793889,419.91,704,739,0
4793900,393.50,704,730,0
4793910,371.49,704,738,0
4793920,354.37,704,730,0
4793930,341.75,704,739,0
4793940,333.76,704,730,0
4793950,329.64,704,738,0
4793960,329.36,704,730,0
4793970,331.91,704,738,0
4793980,337.16,704,731,0
4793990,343.76,704,739,0
4794000,351.76,704,730,0
4794010,359.80,704,738,0
4794020,368.00,704,731,0
4794030,375.33,704,739,0
4794040,381.88,704,730,0
4794050,386.84,704,738,0
4794060,390.83,704,730,0
4794071,393.07,704,738,0
4794081,394.16,704,731,0
4794091,393.51,704,737,0
4794101,392.07,704,731,0
4794112,389.27,704,738,0
4794121,386.10,704,731,0
4794131,381.91,704,737,0
4794141,377.78,704,731,0
4794151,373.00,704,737,0
4794161,368.80,704,731,0
4794171,364.23,704,737,0
4794181,360.48,704,731,0
4794191,356.61,704,737,0
4794201,353.77,704,730,0
4794211,350.88,704,738,0
4794221,348.99,704,730,0
4794231,346.93,704,737,0
4794241,345.84,704,730,0
4794251,344.73,704,737,0
4794261,344.47,704,731,0
4794271,343.90,704,737,0
4794281,344.02,704,731,0
4794291,343.88,704,737,0
4794301,344.69,704,731,0
4794311,345.60,704,737,0
4794321,348.46,704,731,0
4794331,352.91,704,738,0
4794341,361.04,704,731,0
4794351,372.90,704,736,0
4794361,391.01,704,732,0
4794371,414.84,704,737,0
4794381,445.79,704,731,0
4794391,481.94,704,738,0
4794411,521.47,704,735,0
4794414,561.23,704,734,0
4794423,599.56,704,735,0
4794433,633.64,704,734,0
4794443,662.76,704,736,0
4794454,685.29,704,734,0
4794463,701.49,704,735,0
4794473,711.24,704,734,0
4794483,715.03,704,736,0
4794493,711.76,704,734,0
4794503,702.10,704,735,0
4794513,685.06,704,734,0
4794523,661.38,704,736,0
4794533,630.80,704,733,0
4794543,596.27,704,735,0
4794553,558.52,704,734,0
4794563,520.99,704,736,0
4794573,483.71,704,733,0
4794583,449.72,704,734,0
4794593,418.65,704,734,0
4794603,392.44,704,736,0
4794613,369.89,704,733,0
4794624,352.91,704,736,0
4794633,340.00,704,734,0
4794643,332.50,704,735,0
4794653,328.45,704,733,0
4794663,328.91,704,736,0
4794673,331.68,704,734,0
4794683,337.52,704,735,0
4794693,344.18,704,734,0
4794703,352.44,704,736,0
4794713,360.19,704,734,0
4794723,368.28,704,735,0
4794733,374.88,704,733,0
4794743,381.22,704,736,0
4794753,385.69,704,734,0
4794763,389.56,704,735,0
4794773,391.23,704,733,0
4794783,392.23,704,736,0
4794793,391.31,704,733,0
4794803,390.10,704,735,0
4794813,387.28,704,733,0
4794823,384.50,704,736,0
4794833,380.49,704,733,0
4794843,377.13,704,735,0
4794853,372.89,704,733,0
4794863,369.45,704,736,0
4794873,365.25,704,733,0
4794883,361.96,704,735,0
4794893,358.33,704,733,0
4794903,355.79,704,736,0
4794913,352.76,704,733,0
4794924,350.86,704,736,0
4794934,348.59,704,733,0
4794944,347.26,704,737,0
4794954,345.51,704,732,0
4794964,344.46,704,737,0
4794974,342.86,704,733,0
4794984,342.09,704,737,0
4794994,340.95,704,732,0
4795004,341.05,704,737,0
4795014,341.55,704,732,0
4795024,344.56,704,737,0
4795034,349.83,704,732,0
4795044,359.70,704,737,0
4795054,373.76,704,732,0
4795064,394.53,704,737,0
4795074,421.37,704,732,0
4795084,455.42,704,737,0
4795095,493.99,704,732,0
4795114,534.75,704,730,0
4795117,574.55,704,730,0
4795126,612.19,704,739,0
4795137,644.92,704,730,0
4795147,671.94,704,739,0
4795157,692.06,704,730,0
4795167,706.14,704,739,0
4795177,713.81,704,729,0
4795187,715.11,704,739,0
4795197,709.55,704,730,0
4795207,696.83,704,739,0
4795217,676.91,704,729,0
4795227,650.11,704,738,0
4795237,616.90,704,730,0
4795247,579.86,704,739,0
4795257,541.07,704,729,0
4795267,502.69,704,738,0
4795277,466.27,704,730,0
4795287,433.06,704,739,0
4795297,403.77,704,729,0
4795308,378.85,704,739,0
4795318,359.06,704,729,0
4795328,344.00,704,738,0
4795338,333.71,704,729,0
4795348,327.67,704,738,0
4795358,325.75,704,729,0
4795368,327.20,704,738,0
4795378,331.68,704,730,0
4795388,337.78,704,738,0
4795398,345.30,704,729,0
4795408,353.23,704,738,0
4795418,361.69,704,730,0
4795428,369.37,704,738,0
4795438,376.54,704,730,0
4795448,382.21,704,738,0
4795458,387.03,704,729,0
4795468,390.11,704,738,0
4795479,391.96,704,730,0
4795489,391.84,704,738,0
4795499,390.95,704,730,0
4795509,388.35,704,737,0
4795520,385.37,704,731,0
4795529,381.28,704,737,0
4795539,377.38,704,731,0
4795549,372.89,704,737,0
4795559,369.20,704,731,0
4795569,365.07,704,738,0
4795579,361.79,704,730,0
4795589,358.21,704,738,0
4795599,355.58,704,731,0
4795609,352.79,704,737,0
4795619,350.92,704,730,0
4795629,348.63,704,738,0
4795639,347.20,704,731,0
4795649,345.64,704,737,0
4795659,344.98,704,730,0
4795669,343.83,704,738,0
4795679,343.36,704,731,0
4795689,342.48,704,737,0
4795699,342.68,704,730,0
4795709,343.25,704,737,0
4795719,346.05,704,731,0
4795729,350.79,704,737,0
4795739,359.64,704,730,0
4795749,372.65,704,737,0
4795759,392.34,704,731,0
4795769,418.17,704,737,0
4795779,450.94,704,730,0
4795789,488.68,704,738,0
4795808,529.06,694,735,0
4795811,569.16,694,733,0
4795820,607.21,694,731,0
4795830,640.53,694,736,0
4795840,668.27,694,733,0
4795850,689.36,694,735,0
4795860,704.17,694,734,0
4795870,712.99,694,736,0
4795880,716.04,694,732,0
4795890,712.12,694,735,0
4795900,701.76,694,733,0
4795910,684.26,694,736,0
4795920,660.35,694,732,0
4795930,629.48,694,735,0
4795940,594.62,694,733,0
4795950,556.72,694,736,0
4795960,519.09,694,732,0
4795970,481.99,694,735,0
4795980,447.97,694,733,0
4795991,416.65,694,733,0
4796001,390.48,694,735,0
4796011,368.05,694,733,0
4796021,351.06,694,735,0
4796032,338.23,694,733,0
4796041,330.70,694,735,0
4796051,326.72,694,733,0
4796061,327.19,694,735,0
4796071,329.79,694,733,0
4796081,335.42,694,735,0
4796091,341.81,694,733,0
4796101,349.80,694,735,0
4796111,357.36,694,733,0
4796121,365.31,694,735,0
4796131,371.90,694,733,0
4796141,378.32,694,735,0
4796151,382.81,694,732,0
4796161,386.85,694,735,0
4796171,388.91,694,733,0
4796181,390.39,694,735,0
4796191,389.89,694,732,0
4796201,388.98,694,736,0
4796211,386.33,694,733,0
4796221,384.00,694,735,0
4796231,380.44,694,733,0
4796241,377.18,694,736,0
4796251,372.97,694,733,0
4796261,369.47,694,735,0
4796271,365.21,694,733,0
4796281,361.76,694,736,0
4796291,357.33,694,733,0
4796301,353.80,694,736,0
4796311,349.75,694,733,0
4796321,346.70,694,736,0
4796332,343.32,694,732,0
4796342,341.16,694,737,0
4796352,338.80,694,732,0
4796362,337.75,694,737,0
4796372,336.49,694,732,0
4796382,336.52,694,736,0
4796392,336.45,694,732,0
4796402,337.90,694,737,0
4796412,340.07,694,731,0
4796422,345.06,694,736,0
4796432,352.42,694,732,0
4796442,364.55,694,737,0
4796452,381.53,694,731,0
4796462,405.33,694,737,0
4796472,435.19,694,732,0
4796482,471.94,694,737,0
4796502,511.82,693,736,0
4796505,552.80,693,739,0
4796514,591.95,693,730,0
4796524,627.66,693,739,0
4796534,657.94,693,730,0
4796545,682.08,693,738,0
4796555,699.03,693,730,0
4796565,710.94,693,739,0
4796575,717.13,693,730,0
4796585,716.79,693,738,0
4796595,709.91,693,730,0
4796605,696.05,693,739,0
4796615,675.12,693,729,0
4796625,647.10,693,739,0
4796635,612.83,693,729,0
4796645,574.95,693,739,0
4796655,535.92,693,729,0
4796665,497.12,693,738,0
