Time,PPG,IBI,GSR,GSR_Event
992323,542.15,773,760,0
992332,580.25,773,758,0
992343,617.11,773,761,0
992353,649.78,773,757,0
992363,676.50,773,760,0
992373,694.57,773,757,0
992384,703.10,773,760,0
992393,703.67,773,757,0
992403,697.55,773,760,0
992413,682.64,773,757,0
992423,659.65,773,760,0
992433,629.80,773,757,0
992443,595.66,773,760,0
992453,558.99,773,757,0
992463,521.54,773,760,0
992473,485.33,773,757,0
992483,451.93,773,760,0
992493,422.34,773,757,0
992503,397.17,773,760,0
992513,376.59,773,757,0
992523,361.37,773,761,0
992533,351.44,773,757,0
992543,346.68,773,760,0
992553,346.78,773,758,0
992563,351.17,773,760,0
992573,359.09,773,758,0
992583,369.78,773,760,0
992593,382.15,773,758,0
992603,395.39,773,760,0
992613,408.13,773,757,0
992623,419.66,773,760,0
992633,429.41,773,758,0
992643,436.91,773,760,0
992653,441.61,773,758,0
992663,443.31,773,760,0
992673,441.98,773,758,0
992684,437.95,773,761,0
992694,431.67,773,757,0
992704,423.32,773,760,0
992714,413.71,773,758,0
992724,403.17,773,759,0
992734,392.62,773,758,0
992744,382.41,773,760,0
992754,373.41,773,759,0
992764,365.32,773,759,0
992774,358.92,773,758,0
992784,353.93,773,760,0
992794,350.99,773,759,0
992804,349.37,773,759,0
992814,349.43,773,758,0
992824,350.46,773,760,0
992834,352.93,773,758,0
992844,356.00,773,759,0
992855,359.85,773,759,0
992865,363.58,773,760,0
992875,367.74,773,759,0
992885,371.20,773,759,0
992896,374.70,773,760,0
992905,377.40,773,760,0
992915,379.81,773,758,0
992925,381.11,773,759,0
992935,382.32,773,760,0
992945,382.70,773,760,0
992955,383.86,773,759,0
992965,385.36,773,759,0
992975,389.54,773,760,0
992985,396.62,773,760,0
992995,409.25,773,760,0
993005,427.94,773,760,0
993015,454.19,773,760,0
993025,486.66,773,760,0
993035,524.18,773,760,0
993054,563.17,733,760,0
993057,601.99,733,764,0
993067,637.65,733,760,0
993076,668.53,733,762,0
993086,693.01,733,760,0
993096,711.22,733,761,0
993106,720.84,733,760,0
993116,722.65,733,762,0
993126,715.72,733,761,0
993136,700.85,733,762,0
993146,677.58,733,760,0
993156,647.66,733,761,0
993166,610.99,733,760,0
993176,572.38,733,762,0
993186,532.67,733,760,0
993196,495.48,733,762,0
993206,460.88,733,760,0
993216,431.43,733,761,0
993226,405.97,733,760,0
993236,386.44,733,763,0
993246,371.22,733,760,0
993256,361.94,733,761,0
993266,356.73,733,760,0
993276,356.94,733,763,0
993286,360.39,733,760,0
993296,367.90,733,763,0
993306,377.19,733,760,0
993316,388.96,733,762,0
993326,400.59,733,760,0
993336,412.75,733,762,0
993346,422.86,733,760,0
993356,432.07,733,762,0
993367,438.09,733,760,0
993377,442.09,733,762,0
993387,442.41,733,760,0
993397,440.83,733,762,0
993408,435.99,733,760,0
993417,430.00,733,762,0
993427,421.60,733,760,0
993437,413.02,733,762,0
993447,403.20,733,760,0
993457,394.35,733,762,0
993467,385.25,733,760,0
993477,377.89,733,762,0
993487,370.89,733,760,0
993497,365.95,733,763,0
993507,361.68,733,760,0
993517,359.72,733,762,0
993527,358.35,733,760,0
993537,359.10,733,763,0
993547,360.14,733,760,0
993557,362.97,733,763,0
993567,365.72,733,760,0
993577,369.66,733,762,0
993587,372.85,733,760,0
993597,376.62,733,762,0
993607,379.22,733,760,0
993617,382.20,733,762,0
993627,383.81,733,759,0
993637,385.75,733,762,0
993647,386.81,733,760,0
993657,389.57,733,762,0
993667,393.51,733,760,0
993677,401.84,733,762,0
993687,414.41,733,760,0
993697,434.17,733,762,0
993708,460.43,733,760,0
993718,494.46,733,762,0
993728,532.25,733,760,0
993738,572.03,733,762,0
993758,610.29,703,761,0
993761,645.65,703,764,0
993770,675.45,703,759,0
993780,699.15,703,763,0
993790,714.96,703,759,0
993800,723.46,703,763,0
993810,724.26,703,758,0
993820,717.50,703,763,0
993830,703.12,703,758,0
993840,681.91,703,763,0
993850,654.00,703,758,0
993860,621.17,703,763,0
993870,585.59,703,757,0
993880,550.10,703,763,0
993890,516.04,703,758,0
993900,485.04,703,763,0
993910,457.26,703,759,0
993921,433.70,703,763,0
993931,414.07,703,760,0
993941,398.45,703,762,0
993951,386.57,703,759,0
993961,378.43,703,762,0
993971,373.67,703,756,0
993981,372.10,703,763,0
993991,373.40,703,755,0
994001,376.96,703,764,0
994011,382.63,703,758,0
994021,389.47,703,763,0
994031,397.26,703,752,0
994041,405.02,703,763,0
994051,412.35,703,760,0
994061,418.46,703,763,0
994071,423.03,703,759,0
994081,425.29,703,762,0
994092,425.63,703,760,0
994102,423.47,703,761,0
994112,419.69,703,761,0
994122,414.12,703,761,0
994132,407.57,703,762,0
994142,400.16,703,761,0
994152,393.00,703,761,0
994162,385.80,703,761,0
994172,379.69,703,755,0
994182,374.04,703,761,0
994192,369.83,703,761,0
994202,366.28,703,761,0
994212,364.48,703,757,0
994222,363.27,703,761,0
994232,363.31,703,760,0
994242,363.65,703,761,0
994252,365.08,703,761,0
994263,366.30,703,761,0
994273,368.57,703,755,0
994283,370.20,703,761,0
994293,372.62,703,761,0
994304,374.54,703,760,0
994313,377.08,703,762,0
994323,378.94,703,761,0
994333,381.36,703,761,0
994343,382.54,703,760,0
994353,384.13,703,764,0
994363,384.65,703,761,0
994373,386.04,703,763,0
994383,387.44,703,760,0
994393,391.42,703,760,0
994403,398.28,703,761,0
994413,411.31,703,764,0
994423,430.42,703,760,0
994433,457.51,703,757,0
994443,491.17,703,761,0
994462,529.69,705,759,0
994465,569.60,705,761,0
994475,608.85,705,763,0
994484,644.25,705,760,0
994494,674.60,705,762,0
994504,698.21,705,760,0
994514,715.07,705,763,0
994524,724.61,705,760,0
994534,727.64,705,763,0
994544,723.03,705,760,0
994554,711.71,705,762,0
994564,693.15,705,760,0
994574,668.68,705,763,0
994584,638.05,705,759,0
994594,605.08,705,762,0
994604,570.55,705,760,0
994614,537.94,705,763,0
994624,506.76,705,759,0
994634,479.19,705,763,0
994644,454.10,705,759,0
994654,433.16,705,762,0
994664,414.51,705,759,0
994674,399.61,705,762,0
994684,386.96,705,759,0
994694,378.19,705,762,0
994704,371.66,705,759,0
994714,368.98,705,763,0
994724,368.30,705,759,0
994734,371.17,705,763,0
994744,375.10,705,759,0
994754,381.29,705,763,0
994764,387.37,705,759,0
994775,394.50,705,762,0
994785,400.18,705,759,0
994795,405.70,705,762,0
994805,408.96,705,759,0
994816,411.41,705,762,0
994825,411.50,705,759,0
994835,410.92,705,762,0
994845,407.82,705,759,0
994855,404.19,705,762,0
994865,398.65,705,759,0
994875,393.09,705,762,0
994885,386.47,705,759,0
994895,380.54,705,762,0
994905,373.95,705,760,0
994915,368.86,705,762,0
994925,363.85,705,759,0
994935,360.64,705,762,0
994945,357.53,705,759,0
994955,356.21,705,762,0
994965,354.86,705,759,0
994975,355.21,705,762,0
994985,355.53,705,759,0
994995,357.26,705,762,0
995005,358.64,705,759,0
995015,361.23,705,762,0
995025,363.26,705,759,0
995035,366.18,705,762,0
995045,368.10,705,759,0
995055,370.56,705,762,0
995065,371.89,705,759,0
995075,373.77,705,762,0
995085,374.44,705,759,0
995095,375.50,705,762,0
995105,375.48,705,759,0
995116,376.07,705,762,0
995126,375.70,705,759,0
995136,375.88,705,762,0
995146,375.10,705,759,0
995156,374.73,705,761,0
995166,373.44,705,758,0
995176,372.75,705,762,0
995186,371.67,705,759,0
995196,372.07,705,761,0
995206,373.63,705,759,0
995216,378.97,705,761,0
995226,388.75,705,759,0
995236,405.71,705,761,0
995255,429.63,793,760,0
995258,462.05,793,763,0
995267,500.18,793,758,0
995277,541.65,793,763,0
995287,583.07,793,759,0
995297,622.39,793,763,0
995307,656.69,793,758,0
995317,685.03,793,765,0
995328,705.72,793,758,0
995337,720.25,793,763,0
995347,728.23,793,758,0
995357,729.49,793,763,0
995367,723.30,793,754,0
995377,710.22,793,763,0
995387,689.97,793,758,0
995397,663.28,793,762,0
995407,630.75,793,758,0
995417,595.68,793,763,0
995427,559.86,793,758,0
995437,525.66,793,762,0
995447,493.45,793,758,0
995457,464.73,793,763,0
995467,439.31,793,758,0
995477,417.49,793,762,0
995487,398.87,793,759,0
995497,383.70,793,762,0
995507,371.87,793,758,0
995517,363.68,793,762,0
995527,358.51,793,759,0
995537,356.60,793,762,0
995547,357.19,793,758,0
995557,360.18,793,762,0
995567,364.84,793,759,0
995577,370.67,793,763,0
995587,376.81,793,758,0
995597,383.13,793,762,0
995607,388.70,793,755,0
995617,393.38,793,762,0
995628,396.61,793,757,0
995638,398.10,793,764,0
995648,397.68,793,755,0
995658,395.46,793,764,0
995668,391.77,793,761,0
995678,386.74,793,766,0
995688,381.03,793,759,0
995698,374.51,793,762,0
995708,368.44,793,760,0
995718,362.74,793,763,0
995728,357.76,793,755,0
995738,353.29,793,763,0
995748,349.99,793,762,0
995758,347.42,793,763,0
995768,346.05,793,757,0
995778,345.14,793,761,0
995788,345.27,793,758,0
995799,346.13,793,763,0
995809,347.98,793,764,0
995819,350.00,793,761,0
995829,352.61,793,763,0
995840,355.00,793,761,0
995849,357.70,793,763,0
995859,359.76,793,761,0
995869,361.89,793,760,0
995879,363.08,793,761,0
995889,364.68,793,762,0
995899,365.64,793,761,0
995909,367.42,793,764,0
995919,368.36,793,761,0
995929,369.50,793,762,0
995939,369.78,793,761,0
995949,370.32,793,764,0
995959,369.71,793,761,0
995969,369.02,793,761,0
995979,367.09,793,761,0
995989,365.69,793,763,0
995999,363.85,793,761,0
996009,362.61,793,763,0
996019,360.97,793,761,0
996029,360.12,793,763,0
996039,359.06,793,762,0
996049,358.74,793,763,0
996059,358.00,793,761,0
996069,358.17,793,762,0
996079,358.59,793,761,0
996089,361.76,793,763,0
996099,367.23,793,761,0
996109,378.00,793,749,0
996119,394.29,793,761,0
996129,418.67,793,763,0
996149,450.36,894,761,0
996152,489.08,894,763,0
996161,530.63,894,760,0
996171,573.25,894,763,0
996182,613.42,894,759,0
996191,649.59,894,763,0
996201,679.16,894,760,0
996211,701.78,894,763,0
996221,716.29,894,759,0
996231,723.92,894,764,0
996241,723.04,894,760,0
996251,714.33,894,763,0
996261,696.92,894,759,0
996271,672.30,894,763,0
996281,640.37,894,760,0
996291,604.17,894,763,0
996301,564.43,894,759,0
996311,526.08,894,763,0
996321,489.02,894,760,0
996331,456.32,894,763,0
996341,426.69,894,759,0
996352,402.27,894,763,0
996361,381.40,894,760,0
996371,366.03,894,763,0
996381,354.02,894,759,0
996391,347.33,894,762,0
996401,343.93,894,760,0
996411,345.32,894,763,0
996421,349.08,894,760,0
996431,356.26,894,763,0
996441,364.45,894,759,0
996451,374.60,894,763,0
996461,384.06,894,759,0
996471,393.77,894,763,0
996481,401.43,894,759,0
996491,408.50,894,763,0
996501,412.68,894,759,0
996511,415.22,894,762,0
996521,414.34,894,759,0
996531,412.22,894,763,0
996541,407.27,894,759,0
996551,401.53,894,763,0
996561,393.40,894,760,0
996571,385.57,894,763,0
996581,376.61,894,759,0
996591,368.84,894,762,0
996601,360.62,894,760,0
996611,354.35,894,763,0
996621,348.54,894,760,0
996631,344.91,894,762,0
996641,341.72,894,760,0
996652,340.73,894,762,0
996662,340.13,894,759,0
996672,341.46,894,762,0
996682,342.87,894,760,0
996692,345.61,894,762,0
996702,348.08,894,760,0
996712,351.44,894,761,0
996722,354.10,894,759,0
996732,357.41,894,762,0
996742,359.77,894,759,0
996752,362.71,894,762,0
996762,364.68,894,759,0
996772,367.01,894,762,0
996782,368.29,894,759,0
996792,369.96,894,761,0
996802,370.66,894,760,0
996812,371.49,894,762,0
996823,370.91,894,759,0
996833,370.47,894,761,0
996843,369.04,894,759,0
996853,367.92,894,762,0
996864,366.40,894,759,0
996873,366.15,894,761,0
996883,367.35,894,760,0
996893,372.26,894,762,0
996903,381.52,894,759,0
996913,397.14,894,761,0
996923,419.60,894,760,0
996942,449.97,793,758,0
996945,487.05,793,756,0
996954,528.01,793,763,0
996964,569.66,793,758,0
996974,609.62,793,763,0
996984,645.61,793,759,0
996994,676.02,793,762,0
997004,699.12,793,758,0
997014,712.97,793,763,0
997024,717.82,793,759,0
997035,713.97,793,761,0
997044,701.60,793,758,0
997054,681.27,793,763,0
997064,653.38,793,758,0
997074,619.24,793,762,0
997084,581.58,793,758,0
997094,542.88,793,763,0
997104,505.11,793,758,0
997114,469.68,793,763,0
997124,437.80,793,758,0
997134,410.43,793,763,0
997144,387.38,793,758,0
997154,368.88,793,762,0
997164,355.03,793,758,0
997174,346.02,793,763,0
997184,341.64,793,759,0
997194,341.49,793,764,0
997204,345.03,793,758,0
997214,352.09,793,763,0
997224,361.54,793,759,0
997234,372.90,793,762,0
997244,384.89,793,759,0
997254,397.09,793,763,0
997264,408.17,793,759,0
997274,417.54,793,761,0
997284,424.54,793,759,0
997294,429.18,793,764,0
997304,430.88,793,759,0
997314,429.93,793,762,0
997324,426.27,793,758,0
997335,420.40,793,763,0
997345,412.95,793,756,0
997355,404.27,793,762,0
997365,395.10,793,762,0
997376,385.68,793,761,0
997385,376.82,793,753,0
997395,368.69,793,762,0
997405,362.14,793,762,0
997415,356.66,793,761,0
997425,352.86,793,757,0
997435,350.12,793,762,0
997445,349.18,793,761,0
997455,349.13,793,761,0
997465,350.37,793,754,0
997475,352.10,793,762,0
997485,354.90,793,765,0
997495,357.72,793,761,0
997505,361.14,793,752,0
997515,364.40,793,763,0
997525,368.01,793,764,0
997535,370.96,793,761,0
997545,373.89,793,763,0
997555,375.98,793,762,0
997565,378.04,793,764,0
997575,379.19,793,761,0
997585,380.12,793,764,0
997595,380.21,793,762,0
997605,380.32,793,764,0
997615,379.67,793,763,0
997625,379.17,793,764,0
997635,378.34,793,764,0
997645,378.63,793,763,0
997655,380.32,793,761,0
997665,385.71,793,764,0
997676,395.61,793,761,0
997686,412.66,793,762,0
997696,437.02,793,761,0
997706,470.06,793,764,0
997726,508.52,783,763,0
997729,549.85,783,765,0
997738,590.83,783,760,0
997748,629.49,783,763,0
997758,662.90,783,759,0
997768,689.97,783,763,0
997778,709.22,783,760,0
997788,722.74,783,764,0
997798,729.12,783,759,0
997808,729.30,783,763,0
997818,721.32,783,760,0
997828,705.97,783,763,0
997838,682.45,783,759,0
997848,652.66,783,763,0
997858,616.29,783,759,0
997868,578.15,783,763,0
997878,538.33,783,759,0
997889,501.37,783,762,0
997899,466.93,783,760,0
997909,437.72,783,762,0
997919,411.84,783,759,0
997929,391.19,783,762,0
997939,374.07,783,759,0
997949,362.14,783,763,0
997959,353.40,783,759,0
997969,349.33,783,762,0
997979,347.99,783,760,0
997989,350.69,783,762,0
997999,355.37,783,759,0
998009,362.85,783,761,0
998019,370.86,783,760,0
998029,380.20,783,762,0
998039,388.54,783,759,0
998049,396.82,783,761,0
998060,403.00,783,759,0
998070,408.06,783,762,0
998080,410.27,783,759,0
998090,411.00,783,761,0
998100,408.99,783,759,0
998110,405.86,783,762,0
998120,400.42,783,759,0
998130,394.34,783,761,0
998140,386.86,783,759,0
998150,379.96,783,762,0
998160,372.47,783,759,0
998170,365.99,783,762,0
998180,359.65,783,759,0
998190,354.83,783,762,0
998200,350.46,783,759,0
998210,347.71,783,762,0
998220,345.35,783,760,0
998231,344.61,783,762,0
998241,344.47,783,760,0
998251,345.53,783,762,0
998261,346.83,783,758,0
998272,349.02,783,763,0
998281,351.11,783,760,0
998291,353.87,783,762,0
998301,356.26,783,758,0
998311,358.67,783,763,0
998321,360.53,783,760,0
998331,362.47,783,763,0
998341,363.87,783,758,0
998351,365.28,783,763,0
998361,365.84,783,760,0
998371,366.40,783,763,0
998381,366.54,783,758,0
998391,366.68,783,763,0
998401,366.30,783,760,0
998411,366.13,783,763,0
998421,365.45,783,758,0
998431,364.93,783,763,0
998441,364.05,783,759,0
998451,363.31,783,763,0
998461,362.44,783,758,0
998471,362.48,783,763,0
998481,364.05,783,757,0
998491,368.84,783,763,0
998501,377.93,783,758,0
998511,393.51,783,763,0
998531,416.67,805,761,0
998534,448.87,805,762,0
998543,487.61,805,758,0
998553,529.77,805,762,0
998563,572.61,805,764,0
998573,613.70,805,763,0
998583,650.30,805,759,0
998593,680.51,805,762,0
998603,702.64,805,763,0
998614,718.14,805,761,0
998623,729.02,805,762,0
998633,734.33,805,762,0
998643,733.16,805,765,0
998653,724.33,805,761,0
998663,708.24,805,761,0
998673,684.64,805,763,0
998683,654.41,805,763,0
998693,617.73,805,761,0
998703,578.29,805,762,0
998713,538.26,805,762,0
998723,500.56,805,765,0
998733,465.55,805,761,0
998743,435.08,805,760,0
998753,408.79,805,762,0
998763,387.72,805,765,0
998773,370.62,805,762,0
998784,358.48,805,764,0
998793,350.23,805,761,0
998803,346.52,805,764,0
998813,345.76,805,761,0
998823,348.58,805,763,0
998833,353.29,805,763,0
998843,360.27,805,764,0
998853,367.78,805,761,0
998863,376.20,805,762,0
998873,383.86,805,763,0
998883,391.27,805,764,0
998893,396.67,805,761,0
998903,401.02,805,762,0
998913,402.94,805,762,0
998923,403.43,805,764,0
998933,401.37,805,761,0
998943,398.17,805,762,0
998953,392.81,805,761,0
998963,386.87,805,764,0
998973,379.53,805,761,0
998983,372.52,805,763,0
998993,364.82,805,762,0
999003,358.06,805,764,0
999013,351.31,805,761,0
999023,346.25,805,763,0
999033,341.67,805,761,0
999043,338.81,805,764,0
999053,336.56,805,761,0
999063,336.13,805,763,0
999073,336.05,805,761,0
999084,337.62,805,763,0
999094,339.06,805,761,0
999104,341.66,805,763,0
999114,343.82,805,760,0
999124,346.79,805,763,0
999134,349.12,805,761,0
999144,352.30,805,764,0
999154,354.40,805,761,0
999164,357.11,805,764,0
999174,358.57,805,761,0
999184,360.54,805,763,0
999194,361.20,805,760,0
999204,362.17,805,764,0
999214,361.82,805,760,0
999224,361.96,805,764,0
999234,360.98,805,760,0
999244,360.86,805,763,0
999255,359.66,805,760,0
999265,359.25,805,763,0
999275,357.97,805,760,0
999285,357.55,805,763,0
999296,356.32,805,760,0
999305,356.14,805,763,0
999315,355.37,805,760,0
999325,356.54,805,763,0
999335,359.08,805,759,0
999345,365.91,805,763,0
999355,377.00,805,760,0
999365,395.85,805,763,0
999385,421.91,854,762,0
999388,457.47,854,762,0
999397,498.13,854,760,0
999407,541.72,854,762,0
999417,584.75,854,760,0
999427,625.41,854,762,0
999437,660.30,854,760,0
999447,688.58,854,762,0
999457,708.34,854,759,0
999468,722.16,854,762,0
999478,729.74,854,760,0
999488,730.59,854,762,0
999498,723.39,854,760,0
999508,708.10,854,762,0
999518,684.50,854,759,0
999528,653.58,854,762,0
999538,615.60,854,760,0
999548,573.72,854,762,0
999558,530.31,854,759,0
999568,488.86,854,762,0
999578,450.54,854,760,0
999588,417.21,854,762,0
999598,388.69,854,759,0
999608,366.07,854,762,0
999618,348.69,854,760,0
999628,337.13,854,762,0
999639,330.23,854,759,0
999649,328.23,854,763,0
999659,330.01,854,759,0
999669,335.28,854,762,0
999680,342.86,854,759,0
999689,352.46,854,763,0
999699,362.61,854,759,0
999709,372.88,854,762,0
999719,382.26,854,759,0
999729,390.50,854,763,0
999739,396.73,854,759,0
999749,400.80,854,762,0
999759,402.49,854,757,0
999769,402.04,854,763,0
999779,399.41,854,759,0
999789,394.92,854,762,0
999799,388.69,854,759,0
999809,381.49,854,763,0
999819,373.59,854,759,0
999829,365.44,854,762,0
999839,357.38,854,758,0
999849,349.94,854,762,0
999859,343.23,854,759,0
999869,337.59,854,763,0
999879,333.04,854,759,0
999889,329.81,854,763,0
999899,327.77,854,758,0
999909,326.85,854,762,0
999919,326.94,854,759,0
999929,327.99,854,762,0
999939,329.70,854,759,0
999949,332.15,854,762,0
999959,334.98,854,759,0
999969,337.98,854,762,0
999980,341.16,854,748,0
999990,344.11,854,762,0
1000000,347.08,854,761,0
1000010,349.63,854,762,0
1000020,352.05,854,764,0
1000030,353.88,854,763,0
1000040,355.37,854,762,0
1000050,356.20,854,764,0
1000060,356.96,854,763,0
1000070,357.10,854,763,0
1000080,357.24,854,759,0
1000090,356.61,854,761,0
1000100,356.17,854,764,0
1000110,355.39,854,762,0
1000120,354.72,854,758,0
1000130,353.56,854,762,0
1000140,352.71,854,765,0
1000151,351.68,854,761,0
1000161,351.73,854,762,0
1000171,352.71,854,762,0
1000181,356.91,854,763,0
1000192,364.83,854,761,0
1000201,378.81,854,761,0
1000220,399.22,836,762,0
1000223,428.68,836,764,0
1000232,465.72,836,760,0
1000242,507.76,836,764,0
1000252,551.08,836,761,0
1000262,593.74,836,764,0
1000272,632.77,836,760,0
1000282,666.74,836,764,0
1000292,692.83,836,761,0
1000302,711.31,836,763,0
1000312,721.85,836,760,0
1000322,725.06,836,763,0
1000332,719.73,836,760,0
1000342,706.27,836,764,0
1000352,683.86,836,760,0
1000363,653.73,836,763,0
1000372,615.93,836,761,0
1000382,574.42,836,764,0
1000392,530.54,836,760,0
1000402,488.03,836,764,0
1000412,447.74,836,760,0
1000422,412.72,836,764,0
1000432,382.03,836,760,0
1000442,357.85,836,763,0
1000452,338.82,836,760,0
1000462,326.58,836,764,0
1000472,319.59,836,760,0
1000482,318.94,836,763,0
1000492,322.22,836,760,0
1000502,330.72,836,764,0
1000512,341.56,836,760,0
1000522,355.58,836,763,0
1000532,369.76,836,760,0
1000542,384.66,836,764,0
1000552,397.79,836,760,0
1000562,410.20,836,763,0
1000572,419.31,836,760,0
1000582,426.59,836,764,0
1000592,429.75,836,760,0
1000602,430.56,836,763,0
1000612,427.56,836,759,0
1000622,422.76,836,763,0
1000632,414.73,836,760,0
1000642,405.90,836,763,0
1000652,394.87,836,759,0
1000663,384.41,836,763,0
1000673,373.10,836,760,0
1000683,363.47,836,763,0
1000693,353.73,836,759,0
1000704,346.10,836,763,0
1000713,339.04,836,759,0
1000723,334.61,836,763,0
1000733,330.96,836,759,0
1000743,329.81,836,763,0
1000753,329.14,836,760,0
1000763,330.73,836,763,0
1000773,332.69,836,759,0
1000783,336.43,836,763,0
1000793,339.94,836,760,0
1000803,344.59,836,763,0
1000813,348.53,836,759,0
1000823,353.17,836,762,0
1000833,356.68,836,759,0
1000843,360.67,836,763,0
1000853,363.34,836,759,0
1000863,366.24,836,762,0
1000873,367.75,836,759,0
1000883,369.63,836,763,0
1000893,370.21,836,759,0
1000903,371.22,836,763,0
1000913,371.20,836,759,0
1000923,371.74,836,763,0
1000933,371.26,836,759,0
1000943,371.31,836,763,0
1000953,370.83,836,759,0
1000963,372.04,836,763,0
1000973,374.60,836,759,0
1000983,381.36,836,763,0
1000993,392.57,836,759,0
1001004,411.38,836,763,0
1001014,437.45,836,759,0
1001033,472.12,813,758,0
1001036,511.64,813,754,0
1001046,553.70,813,763,0
1001055,594.81,813,759,0
1001065,633.22,813,762,0
1001075,665.98,813,760,0
1001085,692.30,813,762,0
1001095,710.86,813,760,0
1001105,723.80,813,762,0
1001115,729.86,813,760,0
1001125,728.57,813,763,0
1001135,719.27,813,759,0
1001145,702.05,813,762,0
1001155,676.58,813,760,0
1001165,643.87,813,763,0
1001175,604.23,813,759,0
1001185,561.77,813,762,0
1001195,518.56,813,760,0
1001205,477.25,813,762,0
1001216,439.16,813,759,0
1001225,406.20,813,762,0
1001235,378.32,813,760,0
1001245,356.67,813,762,0
1001255,340.78,813,759,0
1001265,331.42,813,762,0
1001275,327.65,813,760,0
1001285,329.47,813,762,0
1001295,335.71,813,759,0
1001305,346.00,813,762,0
1001315,358.69,813,760,0
1001325,373.27,813,762,0
1001335,387.93,813,759,0
1001345,402.39,813,761,0
1001355,414.88,813,760,0
1001365,425.37,813,762,0
1001375,432.80,813,759,0
1001385,437.36,813,763,0
1001395,438.50,813,759,0
1001405,437.02,813,762,0
1001415,432.64,813,759,0
1001425,426.41,813,763,0
1001435,418.14,813,760,0
1001445,408.88,813,762,0
1001455,398.85,813,759,0
1001465,388.99,813,763,0
1001475,379.31,813,760,0
1001485,370.82,813,762,0
1001495,363.24,813,759,0
1001505,357.21,813,762,0
1001516,352.56,813,759,0
1001526,349.61,813,762,0
1001536,347.97,813,756,0
1001546,347.68,813,761,0
1001556,348.33,813,754,0
1001566,350.12,813,762,0
1001576,352.57,813,758,0
1001586,355.53,813,761,0
1001596,358.75,813,759,0
1001606,362.09,813,762,0
1001616,365.36,813,756,0
1001626,368.29,813,762,0
1001636,371.08,813,758,0
1001646,373.45,813,762,0
1001656,375.42,813,759,0
1001666,376.84,813,762,0
1001676,377.87,813,753,0
1001687,378.38,813,762,0
1001697,378.52,813,757,0
1001707,377.90,813,761,0
1001717,377.20,813,764,0
1001728,376.24,813,761,0
1001737,376.08,813,757,0
1001747,377.30,813,761,0
1001757,381.75,813,765,0
1001767,390.57,813,761,0
1001777,405.78,813,757,0
1001787,428.31,813,762,0
1001797,459.59,813,764,0
1001817,497.08,783,763,0
1001820,538.11,783,764,0
1001829,579.52,783,760,0
1001839,619.09,783,764,0
1001849,654.29,783,761,0
1001859,683.35,783,764,0
1001869,704.67,783,760,0
1001879,719.64,783,764,0
1001889,730.08,783,761,0
1001900,737.04,783,764,0
1001910,737.71,783,759,0
1001920,731.71,783,763,0
1001930,717.49,783,760,0
1001940,695.78,783,763,0
1001950,666.23,783,760,0
1001960,630.42,783,763,0
1001970,588.34,783,759,0
1001980,545.42,783,763,0
1001990,502.82,783,760,0
1002000,464.43,783,763,0
1002010,429.80,783,760,0
1002020,401.36,783,763,0
1002030,377.64,783,760,0
1002040,360.86,783,764,0
1002050,349.07,783,759,0
1002060,343.61,783,763,0
1002071,342.27,783,759,0
1002081,346.22,783,763,0
1002091,352.88,783,760,0
1002101,363.03,783,762,0
1002112,373.91,783,759,0
1002121,386.28,783,763,0
1002131,397.68,783,759,0
1002141,408.66,783,763,0
1002151,416.95,783,759,0
1002161,423.65,783,763,0
1002171,426.80,783,759,0
1002181,428.02,783,762,0
1002191,425.74,783,759,0
1002201,421.79,783,763,0
1002211,415.00,783,760,0
1002221,407.41,783,762,0
1002231,397.90,783,760,0
1002241,388.76,783,763,0
1002251,378.76,783,760,0
1002261,369.96,783,762,0
1002271,361.14,783,759,0
1002281,354.29,783,762,0
1002291,348.03,783,760,0
1002301,343.99,783,763,0
1002311,340.65,783,760,0
1002321,339.47,783,762,0
1002331,338.90,783,760,0
1002341,340.30,783,762,0
1002351,341.84,783,760,0
1002361,344.85,783,762,0
1002371,347.63,783,760,0
1002381,351.60,783,762,0
1002391,354.85,783,760,0
1002401,358.62,783,762,0
1002412,361.44,783,760,0
1002422,364.61,783,762,0
1002432,366.70,783,760,0
1002442,368.97,783,762,0
1002452,369.97,783,759,0
1002462,371.22,783,762,0
1002472,371.41,783,760,0
1002482,371.76,783,762,0
1002492,371.23,783,760,0
1002502,370.90,783,762,0
1002512,369.90,783,759,0
1002522,369.63,783,762,0
1002532,369.61,783,760,0
1002542,371.92,783,762,0
1002552,376.83,783,759,0
1002562,386.91,783,762,0
1002572,403.09,783,760,0
1002583,427.75,783,762,0
1002602,460.57,786,761,0
1002605,499.53,786,767,0
1002614,541.24,786,758,0
1002625,583.47,786,764,0
1002635,623.18,786,757,0
1002645,658.32,786,763,0
1002655,686.42,786,763,0
1002665,706.69,786,762,0
1002675,720.89,786,756,0
1002685,730.82,786,764,0
1002695,736.49,786,764,0
1002705,735.91,786,762,0
1002715,728.78,786,756,0
1002725,713.80,786,762,0
1002735,691.02,786,763,0
1002745,660.54,786,761,0
1002755,623.57,786,753,0
1002765,581.95,786,762,0
1002775,539.71,786,763,0
1002785,498.18,786,761,0
1002796,460.50,786,764,0
1002806,427.39,786,761,0
1002816,400.40,786,763,0
1002826,378.60,786,761,0
1002836,362.95,786,763,0
1002846,352.33,786,761,0
1002856,347.48,786,763,0
1002866,346.82,786,761,0
1002876,350.77,786,763,0
1002886,357.27,786,761,0
1002896,366.75,786,763,0
1002906,376.89,786,761,0
1002916,388.15,786,764,0
1002926,398.31,786,760,0
1002936,407.77,786,764,0
1002946,414.66,786,761,0
1002956,419.99,786,763,0
1002967,422.09,786,760,0
1002977,422.32,786,763,0
1002987,419.22,786,760,0
1002997,414.61,786,764,0
1003008,407.53,786,760,0
1003017,400.00,786,764,0
1003027,391.00,786,761,0
1003037,382.51,786,763,0
1003047,373.49,786,760,0
1003057,366.14,786,763,0
1003067,359.07,786,761,0
1003077,354.12,786,764,0
1003087,349.41,786,760,0
1003097,346.63,786,764,0
1003107,344.30,786,761,0
1003117,344.08,786,763,0
1003127,343.93,786,759,0
1003137,345.54,786,764,0
1003147,347.05,786,761,0
1003157,350.12,786,764,0
1003167,352.83,786,760,0
1003177,356.65,786,763,0
1003187,359.50,786,761,0
1003197,363.12,786,764,0
1003207,365.57,786,760,0
1003217,368.57,786,763,0
1003227,370.46,786,761,0
1003237,372.76,786,764,0
1003247,373.65,786,760,0
1003257,374.91,786,763,0
1003267,374.77,786,761,0
1003277,375.09,786,764,0
1003287,373.91,786,760,0
1003297,373.04,786,764,0
1003308,370.97,786,760,0
1003318,369.73,786,763,0
1003328,368.14,786,759,0
1003338,368.83,786,763,0
1003348,371.32,786,760,0
1003358,378.85,786,763,0
1003368,391.33,786,759,0
1003378,412.19,786,763,0
1003398,440.50,795,761,0
1003401,477.08,795,762,0
1003410,517.73,795,759,0
1003420,560.32,795,762,0
1003430,601.45,795,760,0
1003440,639.46,795,762,0
1003450,671.17,795,760,0
1003460,696.06,795,762,0
1003470,713.44,795,760,0
1003480,725.65,795,762,0
1003490,731.24,795,759,0
1003500,729.76,795,762,0
1003510,719.97,795,760,0
1003521,702.02,795,761,0
1003531,675.79,795,760,0
1003541,642.21,795,762,0
1003551,601.73,795,760,0
1003561,558.40,795,763,0
1003571,514.56,795,760,0
1003581,473.51,795,762,0
1003591,436.37,795,759,0
1003601,404.85,795,763,0
1003611,379.01,795,760,0
1003621,359.72,795,762,0
1003631,346.52,795,760,0
1003641,339.50,795,763,0
1003651,337.55,795,760,0
1003661,340.64,795,762,0
1003671,347.44,795,759,0
1003681,357.51,795,763,0
1003692,369.18,795,758,0
1003702,381.90,795,763,0
1003712,394.44,795,756,0
1003722,406.14,795,762,0
1003732,415.91,795,756,0
1003742,423.57,795,762,0
1003752,428.20,795,759,0
1003762,429.89,795,762,0
1003772,428.64,795,755,0
1003782,424.72,795,762,0
1003792,418.63,795,757,0
1003802,410.73,795,762,0
1003812,401.55,795,757,0
1003822,391.87,795,763,0
1003832,382.14,795,759,0
1003842,372.71,795,762,0
1003852,364.14,795,758,0
1003863,356.51,795,763,0
1003873,350.36,795,761,0
1003883,345.41,795,763,0
1003893,341.94,795,764,0
1003904,339.65,795,761,0
1003913,338.85,795,759,0
1003923,338.85,795,763,0
1003933,340.01,795,764,0
1003943,341.47,795,761,0
1003953,343.64,795,754,0
1003963,345.72,795,762,0
1003973,348.42,795,764,0
1003983,350.78,795,761,0
1003993,353.42,795,760,0
1004003,355.61,795,762,0
1004013,358.17,795,764,0
1004023,360.09,795,760,0
1004033,362.16,795,760,0
1004043,363.61,795,763,0
1004053,365.14,795,764,0
1004063,365.91,795,760,0
1004073,366.75,795,763,0
1004083,366.66,795,761,0
1004093,366.67,795,763,0
1004103,365.91,795,761,0
1004113,365.34,795,764,0
1004123,364.25,795,762,0
1004133,363.75,795,764,0
1004143,363.48,795,760,0
1004153,365.57,795,764,0
1004163,370.37,795,762,0
1004173,380.29,795,764,0
1004183,395.93,795,761,0
1004203,419.52,805,760,0
1004206,450.95,805,761,0
1004215,489.28,805,764,0
1004225,530.72,805,760,0
1004235,573.06,805,764,0
1004246,613.29,805,760,0
1004255,649.42,805,764,0
1004265,679.08,805,760,0
1004275,701.47,805,763,0
1004285,715.26,805,760,0
1004295,721.52,805,764,0
1004305,718.84,805,760,0
1004315,707.91,805,763,0
1004325,687.75,805,760,0
1004335,659.93,805,764,0
1004345,624.12,805,761,0
1004355,583.80,805,764,0
1004365,540.10,805,760,0
1004375,497.60,805,763,0
1004385,456.79,805,760,0
1004395,421.33,805,763,0
1004405,390.20,805,760,0
1004416,365.93,805,763,0
1004425,347.22,805,760,0
1004435,335.67,805,764,0
1004445,329.47,805,760,0
1004455,329.84,805,763,0
1004465,334.30,805,760,0
1004475,343.81,805,763,0
1004485,355.61,805,760,0
1004495,370.30,805,763,0
1004505,385.08,805,760,0
1004515,400.66,805,763,0
1004525,414.09,805,759,0
1004535,426.28,805,763,0
1004545,434.98,805,760,0
1004555,441.59,805,763,0
1004565,444.02,805,760,0
1004575,443.93,805,763,0
1004585,439.79,805,759,0
1004595,433.94,805,763,0
1004605,425.17,805,760,0
1004615,415.65,805,763,0
1004625,404.31,805,759,0
1004635,393.80,805,763,0
1004645,382.85,805,760,0
1004655,373.72,805,763,0
1004665,364.85,805,759,0
1004675,358.29,805,763,0
1004685,352.55,805,760,0
1004695,349.26,805,763,0
1004705,346.39,805,759,0
1004716,345.85,805,763,0
1004726,345.46,805,760,0
1004736,346.91,805,763,0
1004746,348.35,805,759,0
1004756,351.20,805,762,0
1004766,353.59,805,759,0
1004776,357.01,805,763,0
1004786,359.66,805,759,0
1004796,363.06,805,762,0
1004806,365.62,805,759,0
1004816,368.69,805,762,0
1004826,370.58,805,759,0
1004836,372.76,805,762,0
1004846,373.65,805,759,0
1004856,374.74,805,762,0
1004866,374.56,805,759,0
1004876,374.61,805,762,0
1004887,373.48,805,759,0
1004897,372.99,805,762,0
1004907,372.18,805,759,0
1004917,373.41,805,762,0
1004928,376.59,805,759,0
1004937,384.38,805,762,0
1004947,396.87,805,760,0
1004957,416.79,805,762,0
1004967,443.51,805,760,0
1004977,477.90,805,762,0
1004996,516.80,794,761,0
1004999,557.79,794,763,0
1005008,597.71,794,760,0
1005018,634.87,794,762,0
1005028,666.58,794,760,0
1005038,692.16,794,761,0
1005048,708.53,794,760,0
1005058,715.96,794,762,0
1005068,714.13,794,760,0
1005078,703.55,794,761,0
1005088,684.05,794,760,0
1005099,656.39,794,763,0
1005108,621.22,794,760,0
1005118,581.81,794,761,0
1005128,539.82,794,760,0
1005138,498.43,794,763,0
1005148,458.92,794,760,0
1005158,423.59,794,761,0
1005168,392.94,794,759,0
1005178,368.01,794,763,0
1005188,348.60,794,759,0
1005198,335.56,794,761,0
1005208,328.32,794,759,0
1005218,327.11,794,763,0
1005228,330.63,794,760,0
1005238,338.89,794,761,0
1005248,350.32,794,759,0
1005258,364.41,794,763,0
1005268,379.50,794,756,0
1005278,394.82,794,762,0
1005288,408.89,794,759,0
1005298,421.44,794,763,0
1005308,431.25,794,758,0
1005318,438.42,794,762,0
1005328,442.19,794,759,0
1005338,442.91,794,763,0
1005348,440.36,794,758,0
1005358,435.54,794,761,0
1005368,428.22,794,759,0
1005378,419.28,794,763,0
1005388,408.91,794,758,0
1005399,398.10,794,763,0
1005409,387.22,794,754,0
1005419,377.09,794,762,0
1005429,367.76,794,760,0
1005440,359.95,794,762,0
1005449,353.71,794,757,0
1005459,349.21,794,762,0
1005469,346.45,794,760,0
1005479,345.07,794,763,0
1005489,345.05,794,755,0
1005499,346.15,794,762,0
1005509,348.33,794,759,0
1005519,351.10,794,763,0
1005529,354.37,794,754,0
1005539,357.82,794,762,0
1005549,361.56,794,757,0
1005559,365.12,794,762,0
1005569,368.38,794,754,0
1005579,371.14,794,762,0
1005589,373.58,794,759,0
1005599,375.29,794,763,0
1005609,376.45,794,759,0
1005619,376.83,794,765,0
1005629,376.88,794,758,0
1005639,376.40,794,763,0
1005649,376.02,794,758,0
1005659,376.10,794,762,0
1005669,378.00,794,759,0
1005679,382.89,794,763,0
1005689,392.73,794,759,0
1005699,408.54,794,763,0
1005709,431.78,794,759,0
1005719,462.45,794,763,0
1005729,499.51,794,759,0
1005749,539.86,753,760,0
1005752,580.70,753,765,0
1005761,619.28,753,761,0
1005771,653.69,753,763,0
1005782,682.16,753,761,0
1005791,703.80,753,764,0
1005801,716.71,753,761,0
1005811,721.56,753,764,0
1005821,717.66,753,761,0
1005831,705.98,753,764,0
1005841,685.97,753,761,0
1005851,658.64,753,763,0
1005861,624.07,753,760,0
1005871,586.21,753,764,0
1005881,546.33,753,761,0
1005891,507.92,753,763,0
1005901,471.09,753,760,0
1005911,438.66,753,763,0
1005921,410.30,753,761,0
1005931,387.88,753,764,0
1005941,370.05,753,761,0
1005952,358.25,753,764,0
1005961,350.89,753,761,0
1005971,349.04,753,764,0
1005981,350.78,753,761,0
1005991,357.02,753,764,0
1006001,365.24,753,761,0
1006011,376.14,753,764,0
1006021,387.41,753,761,0
1006031,399.89,753,764,0
1006041,411.15,753,761,0
1006051,421.73,753,763,0
1006061,429.49,753,761,0
1006071,435.68,753,765,0
1006081,438.35,753,761,0
1006091,439.02,753,764,0
1006101,436.01,753,761,0
1006111,431.34,753,764,0
1006121,423.91,753,761,0
1006131,415.96,753,764,0
1006141,406.20,753,761,0
1006151,397.01,753,764,0
1006161,387.15,753,761,0
1006171,378.88,753,764,0
1006181,370.94,753,761,0
1006191,365.30,753,764,0
1006201,360.11,753,761,0
1006211,357.38,753,764,0
1006221,355.25,753,761,0
1006231,355.35,753,764,0
1006241,355.76,753,761,0
1006252,357.89,753,764,0
1006262,359.89,753,760,0
1006272,363.44,753,764,0
1006282,366.44,753,760,0
1006292,370.42,753,763,0
1006302,373.51,753,760,0
1006312,377.17,753,763,0
1006322,379.60,753,760,0
1006332,382.29,753,763,0
1006342,383.49,753,760,0
1006352,385.02,753,764,0
1006362,384.97,753,760,0
1006372,385.19,753,763,0
1006382,384.49,753,760,0
1006392,385.24,753,764,0
1006402,386.89,753,760,0
1006412,392.32,753,764,0
1006423,401.44,753,759,0
1006433,417.59,753,763,0
1006443,440.34,753,760,0
1006453,471.40,753,763,0
1006464,507.96,753,759,0
1006482,547.92,733,758,0
1006485,587.80,733,760,0
1006494,625.87,733,762,0
1006504,659.13,733,760,0
1006514,686.69,733,763,0
1006524,707.01,733,760,0
1006534,719.95,733,762,0
1006544,724.89,733,759,0
1006554,722.65,733,763,0
1006564,712.39,733,759,0
1006574,694.96,733,762,0
1006584,670.07,733,759,0
1006594,639.19,733,763,0
1006604,603.78,733,760,0
1006614,567.50,733,762,0
1006624,530.96,733,759,0
1006635,497.08,733,762,0
1006644,465.85,733,760,0
1006654,439.20,733,762,0
1006664,416.08,733,759,0
1006674,397.67,733,762,0
1006684,382.94,733,760,0
1006694,372.89,733,762,0
1006704,366.36,733,759,0
1006714,364.24,733,762,0
1006724,365.07,733,759,0
1006734,369.42,733,762,0
1006744,375.72,733,759,0
1006754,384.38,733,762,0
1006764,393.56,733,759,0
1006774,403.72,733,762,0
1006784,412.89,733,759,0
1006794,421.54,733,762,0
1006804,428.06,733,760,0
1006814,433.06,733,762,0
1006824,435.06,733,759,0
1006834,435.17,733,762,0
1006844,432.29,733,760,0
1006854,427.87,733,762,0
1006864,421.14,733,759,0
1006874,413.60,733,762,0
1006884,404.85,733,760,0
1006894,396.54,733,762,0
1006904,387.93,733,759,0
1006914,380.62,733,762,0
1006924,373.88,733,760,0
1006935,368.94,733,762,0
1006945,364.98,733,759,0
1006955,362.80,733,763,0
1006965,361.49,733,759,0
1006976,361.73,733,763,0
1006985,362.54,733,759,0
1006995,364.52,733,762,0
1007005,366.85,733,759,0
1007015,369.94,733,763,0
1007025,372.83,733,760,0
1007035,375.92,733,763,0
1007045,378.82,733,759,0
1007055,381.66,733,763,0
1007065,383.77,733,760,0
1007075,385.47,733,763,0
1007085,386.27,733,758,0
1007095,386.75,733,763,0
1007105,386.69,733,760,0
1007115,386.66,733,763,0
1007125,386.97,733,759,0
1007135,389.08,733,763,0
1007145,394.03,733,759,0
1007155,403.79,733,762,0
1007165,419.33,733,759,0
1007175,442.29,733,763,0
1007185,472.54,733,756,0
1007195,508.94,733,763,0
1007214,548.26,732,762,0
1007217,587.99,732,762,0
1007226,625.45,732,751,0
1007236,658.83,732,762,0
1007246,686.05,732,760,0
1007256,706.52,732,762,0
1007266,719.65,732,759,0
1007276,725.80,732,763,0
1007286,724.83,732,758,0
1007296,716.40,732,762,0
1007306,700.81,732,757,0
1007316,678.15,732,763,0
1007326,649.43,732,754,0
1007336,616.30,732,762,0
1007346,581.16,732,757,0
1007356,546.01,732,764,0
1007366,512.79,732,758,0
1007376,482.34,732,763,0
1007386,455.62,732,756,0
1007396,432.47,732,762,0
1007406,412.95,732,759,0
1007416,396.77,732,763,0
1007426,383.98,732,753,0
1007436,374.30,732,762,0
1007447,368.12,732,763,0
1007457,364.74,732,763,0
1007467,364.48,732,765,0
1007477,366.56,732,761,0
1007488,371.24,732,764,0
1007497,377.21,732,762,0
1007507,384.65,732,764,0
1007517,391.78,732,760,0
1007527,399.05,732,765,0
1007537,404.78,732,762,0
1007547,409.39,732,765,0
1007557,411.58,732,761,0
1007567,412.57,732,764,0
1007577,411.15,732,762,0
1007587,408.62,732,764,0
1007597,404.15,732,761,0
1007607,399.05,732,764,0
1007617,392.99,732,762,0
1007627,387.21,732,765,0
1007637,380.93,732,761,0
1007647,375.47,732,764,0
1007657,369.97,732,761,0
1007667,365.69,732,765,0
1007677,361.88,732,761,0
1007687,359.61,732,764,0
1007697,357.75,732,761,0
1007707,357.31,732,765,0
1007717,357.18,732,761,0
1007727,358.45,732,764,0
1007737,359.82,732,761,0
1007747,362.23,732,765,0
1007757,364.26,732,761,0
1007767,367.05,732,764,0
1007777,369.22,732,761,0
1007788,371.90,732,764,0
1007798,373.56,732,760,0
1007808,375.58,732,764,0
1007818,376.39,732,760,0
1007828,377.47,732,764,0
1007838,377.63,732,761,0
1007848,378.17,732,764,0
1007858,377.69,732,761,0
1007868,377.78,732,764,0
1007878,376.99,732,761,0
1007888,376.87,732,764,0
1007898,375.62,732,760,0
1007908,374.75,732,763,0
1007918,372.94,732,761,0
1007928,372.06,732,764,0
1007938,370.54,732,761,0
1007948,370.72,732,764,0
1007959,371.92,732,760,0
1007969,377.43,732,764,0
1007979,387.20,732,760,0
1007989,404.50,732,763,0
1008009,428.56,794,762,0
1008012,461.91,794,762,0
1008021,500.59,794,760,0
1008031,542.71,794,763,0
1008041,584.54,794,760,0
1008051,624.32,794,763,0
1008061,658.73,794,760,0
1008071,687.05,794,762,0
1008081,707.26,794,760,0
1008091,721.46,794,763,0
1008101,729.12,794,760,0
1008111,730.37,794,762,0
1008121,724.09,794,759,0
1008131,711.12,794,763,0
1008141,690.85,794,760,0
1008151,664.46,794,762,0
1008161,632.09,794,759,0
1008172,597.26,794,762,0
1008182,561.36,794,760,0
1008192,527.43,794,762,0
1008202,495.46,794,760,0
1008212,467.29,794,762,0
1008222,442.31,794,760,0
1008232,421.17,794,762,0
1008242,402.82,794,760,0
1008252,388.05,794,762,0
1008262,375.90,794,760,0
1008272,367.45,794,762,0
1008282,361.53,794,760,0
1008292,358.71,794,762,0
1008302,358.03,794,760,0
1008312,360.12,794,762,0
1008322,363.73,794,760,0
1008332,369.08,794,762,0
1008343,374.58,794,760,0
1008353,380.62,794,763,0
1008363,386.01,794,759,0
1008373,390.93,794,762,0
1008384,394.34,794,759,0
1008393,396.64,794,763,0
1008403,397.13,794,759,0
1008413,396.11,794,762,0
1008423,393.46,794,759,0
1008433,389.77,794,763,0
1008443,385.12,794,759,0
1008453,379.98,794,762,0
1008463,374.42,794,760,0
1008473,369.19,794,763,0
1008483,364.25,794,759,0
1008493,359.97,794,762,0
1008503,356.38,794,759,0
1008513,353.78,794,763,0
1008523,352.18,794,759,0
1008533,351.57,794,762,0
1008543,351.57,794,756,0
1008553,352.43,794,762,0
1008563,353.80,794,758,0
1008573,355.66,794,762,0
1008583,357.69,794,752,0
1008593,359.80,794,762,0
1008603,361.83,794,759,0
1008613,363.85,794,762,0
1008623,365.70,794,759,0
1008633,367.16,794,762,0
1008643,368.18,794,759,0
1008653,368.77,794,763,0
1008663,368.75,794,760,0
1008673,368.27,794,762,0
1008684,367.33,794,758,0
1008694,366.16,794,762,0
1008704,365.38,794,756,0
1008714,365.61,794,762,0
1008724,368.17,794,765,0
1008734,374.16,794,762,0
1008744,385.17,794,759,0
1008754,402.39,794,762,0
1008764,427.00,794,765,0
1008774,458.46,794,763,0
1008793,496.04,785,761,0
1008796,536.57,785,761,0
1008805,577.63,785,763,0
1008815,616.44,785,761,0
1008825,650.98,785,764,0
1008835,678.11,785,762,0
1008845,696.42,785,762,0
1008855,704.05,785,761,0
1008865,702.02,785,764,0
1008875,690.57,785,762,0
1008885,671.12,785,763,0
1008896,643.74,785,760,0
1008905,611.67,785,765,0
1008915,576.41,785,761,0
1008925,541.06,785,762,0
1008935,506.33,785,761,0
1008945,474.77,785,765,0
1008955,446.00,785,761,0
1008965,421.78,785,764,0
1008975,400.55,785,761,0
1008985,383.37,785,765,0
1008995,369.07,785,761,0
1009005,359.02,785,764,0
1009015,351.56,785,761,0
1009025,347.83,785,765,0
1009035,346.47,785,761,0
1009045,348.51,785,764,0
1009055,352.26,785,761,0
1009065,358.65,785,764,0
1009075,365.49,785,761,0
1009085,373.65,785,764,0
1009095,381.17,785,761,0
1009105,388.71,785,764,0
1009115,394.49,785,761,0
1009125,399.45,785,763,0
1009135,401.80,785,761,0
1009145,402.80,785,763,0
1009155,401.40,785,761,0
1009165,399.01,785,764,0
1009175,394.38,785,761,0
1009185,389.25,785,764,0
1009196,382.66,785,761,0
1009206,376.42,785,764,0
1009216,369.57,785,760,0
1009226,363.65,785,764,0
1009236,357.67,785,760,0
1009246,353.40,785,764,0
1009256,349.38,785,760,0
1009266,347.29,785,764,0
1009276,345.41,785,760,0
1009286,345.41,785,764,0
1009296,345.50,785,760,0
1009306,347.11,785,764,0
1009316,348.45,785,760,0
1009326,351.19,785,763,0
1009336,353.40,785,760,0
1009346,356.58,785,764,0
1009356,359.15,785,760,0
1009367,362.10,785,764,0
1009377,363.83,785,759,0
1009387,366.02,785,764,0
1009397,366.92,785,759,0
1009408,368.31,785,763,0
1009417,368.78,785,760,0
1009427,369.57,785,763,0
1009437,369.66,785,760,0
1009447,370.45,785,763,0
1009457,370.44,785,760,0
1009467,371.04,785,763,0
1009477,370.47,785,760,0
1009487,370.33,785,764,0
1009497,369.03,785,760,0
1009507,368.25,785,764,0
1009517,366.76,785,760,0
1009527,365.76,785,763,0
1009537,363.86,785,760,0
1009547,362.75,785,763,0
1009557,360.81,785,760,0
1009567,359.75,785,763,0
1009577,358.07,785,760,0
1009587,357.15,785,763,0
1009597,355.82,785,760,0
1009607,356.09,785,763,0
1009617,357.39,785,760,0
1009627,362.33,785,763,0
1009637,371.02,785,760,0
1009647,386.70,785,763,0
1009657,409.20,785,760,0
1009676,440.56,883,758,0
1009679,478.70,883,761,0
1009688,521.18,883,763,0
1009698,564.41,883,760,0
1009708,606.33,883,763,0
1009718,643.60,883,760,0
1009728,675.05,883,763,0
1009738,698.82,883,760,0
1009748,715.46,883,762,0
1009758,725.82,883,760,0
1009768,729.65,883,763,0
1009778,725.51,883,760,0
1009788,713.53,883,762,0
1009798,693.31,883,759,0
1009808,665.92,883,762,0
1009818,631.53,883,760,0
1009828,592.67,883,762,0
1009838,551.54,883,760,0
1009848,512.08,883,763,0
1009858,474.98,883,760,0
1009868,442.50,883,762,0
1009879,414.19,883,759,0
1009889,391.38,883,762,0
1009899,373.18,883,760,0
1009909,360.44,883,762,0
1009920,351.95,883,760,0
1009929,348.32,883,762,0
1009939,348.14,883,760,0
1009949,351.70,883,762,0
1009959,357.45,883,760,0
1009969,365.67,883,762,0
1009979,374.30,883,760,0
1009989,383.38,883,762,0
1009999,391.62,883,760,0
1010009,399.24,883,762,0
1010019,404.74,883,760,0
1010029,408.42,883,762,0
1010039,409.41,883,760,0
1010049,408.64,883,762,0
1010059,405.53,883,760,0
1010069,400.96,883,762,0
1010079,394.46,883,760,0
1010089,387.33,883,763,0
1010099,379.52,883,760,0
1010109,371.86,883,762,0
1010119,364.36,883,760,0
1010129,357.78,883,763,0
1010139,351.85,883,760,0
1010149,347.48,883,762,0
1010159,344.16,883,759,0
1010169,342.49,883,763,0
1010179,341.70,883,760,0
1010189,342.39,883,762,0
1010199,343.77,883,759,0
1010209,346.20,883,763,0
1010220,348.92,883,759,0
1010230,352.16,883,763,0
1010240,355.28,883,759,0
1010250,358.58,883,762,0
1010260,361.45,883,760,0
1010270,364.23,883,763,0
1010280,366.39,883,755,0
1010290,368.12,883,763,0
1010300,369.45,883,758,0
1010310,370.52,883,763,0
1010320,371.22,883,754,0
1010330,371.67,883,763,0
1010340,371.81,883,759,0
1010350,371.95,883,763,0
1010360,371.84,883,755,0
1010370,371.46,883,762,0
1010380,370.81,883,759,0
1010391,369.84,883,763,0
1010401,368.69,883,758,0
1010411,367.28,883,763,0
1010421,366.21,883,763,0
1010432,365.93,883,762,0
1010441,367.58,883,756,0
1010451,372.29,883,763,0
1010461,381.80,883,763,0
1010471,397.16,883,762,0
1010490,419.57,814,761,0
1010493,448.93,814,763,0
1010502,485.59,814,764,0
1010512,526.04,814,761,0
1010522,567.47,814,765,0
1010532,607.15,814,761,0
1010542,643.02,814,764,0
1010552,672.63,814,761,0
1010562,694.12,814,765,0
1010572,704.46,814,761,0
1010582,704.92,814,765,0
1010592,695.39,814,761,0
1010603,677.10,814,763,0
1010612,650.33,814,761,0
1010622,617.31,814,764,0
1010632,579.21,814,761,0
1010642,539.72,814,763,0
1010652,500.07,814,761,0
1010662,463.36,814,764,0
1010672,429.61,814,761,0
1010682,400.80,814,764,0
1010692,376.22,814,761,0
1010702,357.47,814,764,0
1010712,343.23,814,761,0
1010722,334.76,814,764,0
1010732,330.46,814,761,0
1010742,331.31,814,765,0
1010752,335.42,814,762,0
1010762,343.43,814,764,0
1010772,353.33,814,761,0
1010782,365.66,814,764,0
1010792,377.89,814,761,0
1010802,390.61,814,764,0
1010812,401.53,814,761,0
1010822,411.44,814,764,0
1010832,418.42,814,761,0
1010842,423.22,814,764,0
1010852,424.36,814,761,0
1010862,423.35,814,764,0
1010872,419.13,814,761,0
1010882,413.52,814,764,0
1010892,405.31,814,760,0
1010903,396.64,814,765,0
1010913,386.64,814,760,0
1010923,377.32,814,765,0
1010933,367.79,814,760,0
1010944,359.88,814,764,0
1010953,352.46,814,760,0
1010963,347.39,814,764,0
1010973,342.99,814,760,0
1010983,341.02,814,764,0
1010993,339.69,814,760,0
1011003,340.55,814,764,0
1011013,341.63,814,760,0
1011023,344.27,814,764,0
1011033,346.59,814,761,0
1011043,350.05,814,764,0
1011053,352.95,814,760,0
1011063,356.78,814,764,0
1011073,359.59,814,761,0
1011083,363.06,814,764,0
1011093,365.44,814,760,0
1011103,368.48,814,764,0
1011113,370.44,814,760,0
1011123,372.79,814,764,0
1011133,373.84,814,760,0
1011143,375.26,814,764,0
1011153,375.48,814,760,0
1011163,376.07,814,764,0
1011173,375.32,814,760,0
1011183,375.14,814,764,0
1011193,373.72,814,760,0
1011203,372.95,814,764,0
1011213,371.38,814,760,0
1011223,370.92,814,764,0
1011233,370.82,814,760,0
1011244,373.70,814,764,0
1011254,379.36,814,759,0
1011264,391.08,814,763,0
1011274,408.76,814,760,0
1011294,434.89,803,759,0
1011297,468.35,803,760,0
1011306,507.63,803,762,0
1011316,549.01,803,760,0
1011326,590.45,803,762,0
1011336,628.72,803,759,0
1011346,662.36,803,762,0
1011356,689.04,803,760,0
1011366,707.63,803,762,0
1011376,717.21,803,759,0
1011386,718.39,803,762,0
1011396,710.47,803,760,0
1011406,694.05,803,762,0
1011416,669.00,803,759,0
1011426,636.60,803,762,0
1011436,598.02,803,760,0
1011446,556.79,803,762,0
1011457,514.55,803,759,0
1011467,474.70,803,762,0
1011477,438.06,803,760,0
1011487,406.50,803,763,0
1011497,379.91,803,758,0
1011507,359.36,803,762,0
1011517,344.25,803,760,0
1011527,335.18,803,763,0
1011537,331.14,803,756,0
1011547,332.21,803,762,0
1011557,337.38,803,760,0
1011567,346.22,803,763,0
1011577,357.51,803,758,0
1011587,370.73,803,762,0
1011597,384.31,803,760,0
1011607,397.67,803,765,0
1011617,409.60,803,758,0
1011628,419.58,803,763,0
1011638,426.90,803,756,0
1011648,431.35,803,762,0
1011658,432.70,803,759,0
1011668,431.16,803,763,0
1011678,426.96,803,753,0
1011688,420.58,803,762,0
1011698,412.61,803,759,0
1011708,403.38,803,765,0
1011718,393.71,803,758,0
1011728,384.03,803,762,0
1011738,375.02,803,757,0
1011748,366.83,803,764,0
1011758,359.94,803,756,0
1011768,354.34,803,763,0
1011778,350.38,803,757,0
1011788,347.70,803,763,0
1011799,346.59,803,759,0
1011809,346.45,803,763,0
1011819,347.65,803,764,0
1011829,349.38,803,762,0
1011840,352.05,803,765,0
1011849,354.91,803,762,0
1011859,358.28,803,763,0
1011869,361.24,803,761,0
1011879,364.60,803,765,0
1011889,367.33,803,762,0
1011899,370.27,803,765,0
1011909,372.33,803,761,0
1011919,374.59,803,765,0
1011929,376.04,803,762,0
1011939,377.53,803,764,0
1011949,378.23,803,761,0
1011959,378.93,803,764,0
1011969,378.78,803,762,0
1011979,378.59,803,764,0
1011989,377.38,803,761,0
1011999,376.67,803,764,0
1012009,375.74,803,762,0
1012019,376.16,803,765,0
1012029,378.26,803,762,0
1012039,384.56,803,765,0
1012049,395.80,803,761,0
1012059,414.03,803,765,0
1012069,439.31,803,761,0
1012088,472.77,795,760,0
1012091,511.33,795,761,0
1012100,552.54,795,765,0
1012110,593.01,795,761,0
1012120,630.89,795,765,0
1012130,663.80,795,761,0
1012140,690.43,795,764,0
1012150,709.63,795,763,0
1012160,723.11,795,764,0
1012170,729.93,795,761,0
1012180,730.04,795,764,0
1012190,722.31,795,761,0
1012200,707.31,795,765,0
1012210,683.99,795,761,0
1012220,653.90,795,764,0
1012230,616.99,795,761,0
1012240,577.52,795,765,0
1012250,536.69,795,761,0
1012260,498.09,795,764,0
1012270,461.76,795,761,0
1012280,430.72,795,765,0
1012290,403.63,795,760,0
1012300,382.31,795,764,0
1012311,365.29,795,760,0
1012321,354.27,795,764,0
1012331,347.29,795,760,0
1012341,345.58,795,764,0
1012352,347.07,795,759,0
1012361,352.80,795,764,0
1012371,360.49,795,760,0
1012381,370.80,795,764,0
1012391,381.14,795,759,0
1012401,392.33,795,764,0
1012411,401.96,795,760,0
1012421,410.97,795,764,0
1012431,417.32,795,759,0
1012441,422.11,795,764,0
1012451,423.49,795,760,0
1012461,423.09,795,764,0
1012471,419.55,795,759,0
1012481,414.88,795,765,0
1012491,407.80,795,760,0
1012501,400.32,795,764,0
1012511,391.22,795,759,0
1012521,382.76,795,764,0
1012531,373.74,795,760,0
1012541,366.11,795,764,0
1012551,358.57,795,759,0
1012561,353.00,795,764,0
1012571,348.03,795,760,0
1012581,345.32,795,764,0
1012591,343.17,795,760,0
1012601,343.16,795,764,0
1012611,343.54,795,760,0
1012621,345.69,795,764,0
1012631,347.67,795,760,0
1012641,350.86,795,764,0
1012652,353.51,795,760,0
1012662,356.96,795,763,0
1012672,359.54,795,759,0
1012682,362.68,795,763,0
1012692,364.75,795,760,0
1012702,367.31,795,763,0
1012712,368.67,795,759,0
1012722,370.44,795,763,0
1012732,371.25,795,760,0
1012742,372.46,795,763,0
1012752,372.71,795,760,0
1012762,373.35,795,763,0
1012772,373.03,795,760,0
1012782,373.32,795,763,0
1012792,372.67,795,760,0
1012802,372.47,795,763,0
1012812,371.56,795,760,0
1012823,371.60,795,763,0
1012833,372.15,795,760,0
1012843,375.75,795,763,0
1012853,382.64,795,760,0
1012864,395.86,795,762,0
1012873,415.53,795,760,0
1012892,444.00,804,758,0
1012895,479.87,804,760,0
1012904,520.54,804,763,0
1012914,562.51,804,760,0
1012924,603.63,804,762,0
1012934,640.85,804,760,0
1012944,672.78,804,763,0
1012954,697.19,804,760,0
1012964,714.23,804,762,0
1012974,726.16,804,760,0
1012984,734.51,804,763,0
1012994,737.40,804,760,0
1013004,734.07,804,762,0
1013014,723.25,804,760,0
1013024,704.87,804,763,0
1013035,678.94,804,759,0
1013044,646.43,804,761,0
1013054,607.77,804,760,0
1013064,566.87,804,763,0
1013074,525.94,804,759,0
1013084,487.86,804,762,0
1013094,453.48,804,760,0
1013104,424.24,804,763,0
1013114,399.78,804,759,0
1013124,380.69,804,761,0
1013134,366.43,804,760,0
1013144,357.26,804,763,0
1013154,352.25,804,759,0
1013164,351.66,804,762,0
1013174,354.08,804,760,0
1013184,359.45,804,763,0
1013194,366.73,804,759,0
1013204,375.51,804,763,0
1013214,384.66,804,760,0
1013224,393.80,804,763,0
1013234,401.88,804,759,0
1013244,408.77,804,763,0
1013254,413.73,804,760,0
1013264,416.72,804,764,0
1013274,417.36,804,759,0
1013284,415.93,804,762,0
1013294,412.30,804,760,0
1013304,407.24,804,763,0
1013314,400.70,804,759,0
1013324,393.25,804,762,0
1013335,385.11,804,759,0
1013345,376.98,804,762,0
1013355,369.10,804,757,0
1013365,361.96,804,762,0
1013376,355.67,804,759,0
1013385,350.80,804,762,0
1013395,347.39,804,759,0
1013405,345.30,804,762,0
1013415,344.70,804,760,0
1013425,345.13,804,763,0
1013435,346.55,804,753,0
1013445,348.48,804,766,0
1013455,351.00,804,759,0
1013465,353.57,804,765,0
1013475,356.44,804,761,0
1013485,359.09,804,764,0
1013495,361.81,804,759,0
1013505,364.31,804,764,0
1013515,366.66,804,760,0
1013525,368.48,804,765,0
1013535,370.18,804,759,0
1013545,371.32,804,763,0
1013555,372.25,804,760,0
1013565,372.74,804,762,0
1013575,373.11,804,758,0
1013585,373.08,804,763,0
1013595,373.01,804,760,0
1013605,372.54,804,763,0
1013615,372.12,804,759,0
1013625,371.31,804,763,0
1013635,370.66,804,757,0
1013645,370.29,804,763,0
1013655,371.49,804,758,0
1013665,375.16,804,763,0
1013676,383.21,804,764,0
1013686,396.99,804,762,0
1013696,419.11,804,766,0
1013715,449.29,823,764,0
1013719,486.62,823,765,0
1013727,527.79,823,762,0
1013737,570.20,823,765,0
1013747,610.98,823,761,0
1013757,647.93,823,765,0
1013767,678.12,823,762,0
1013777,701.06,823,765,0
1013787,717.07,823,761,0
1013797,728.32,823,765,0
1013807,734.01,823,762,0
1013817,733.53,823,765,0
1013827,725.32,823,761,0
1013837,709.58,823,765,0
1013847,685.92,823,762,0
1013857,655.43,823,764,0
1013867,617.93,823,761,0
1013877,577.15,823,765,0
1013888,534.81,823,761,0
1013897,494.92,823,765,0
1013907,457.92,823,761,0
1013917,426.27,823,765,0
1013927,398.97,823,761,0
1013937,378.07,823,764,0
1013947,361.85,823,761,0
1013957,351.82,823,765,0
1013967,345.88,823,761,0
1013977,345.01,823,764,0
1013987,347.11,823,761,0
1013997,353.29,823,765,0
1014007,360.87,823,761,0
1014017,370.77,823,764,0
1014027,380.48,823,763,0
1014037,390.92,823,765,0
1014047,399.77,823,760,0
1014057,407.81,823,764,0
1014067,413.10,823,761,0
1014077,416.93,823,765,0
1014087,417.63,823,760,0
1014097,416.84,823,764,0
1014107,413.12,823,761,0
1014117,408.41,823,765,0
1014127,401.47,823,760,0
1014137,394.22,823,764,0
1014147,385.80,823,761,0
1014157,378.06,823,765,0
1014167,369.85,823,761,0
1014177,363.08,823,764,0
1014188,356.54,823,760,0
1014198,352.01,823,764,0
1014208,348.02,823,760,0
1014218,346.04,823,763,0
1014228,344.62,823,760,0
1014238,345.12,823,764,0
1014248,345.81,823,760,0
1014258,347.92,823,764,0
1014268,349.88,823,760,0
1014278,353.00,823,764,0
1014288,355.53,823,760,0
1014298,359.06,823,764,0
1014308,361.57,823,760,0
1014318,364.57,823,764,0
1014328,366.46,823,760,0
1014338,368.68,823,763,0
1014348,369.76,823,760,0
1014359,371.25,823,763,0
1014369,371.43,823,760,0
1014379,372.16,823,763,0
1014389,371.94,823,760,0
1014400,372.39,823,763,0
1014409,371.97,823,760,0
1014419,372.15,823,763,0
1014429,371.46,823,760,0
1014439,371.24,823,763,0
1014449,370.18,823,760,0
1014459,369.61,823,763,0
1014469,368.27,823,760,0
1014479,367.68,823,763,0
1014489,366.87,823,760,0
1014499,368.11,823,762,0
1014509,371.33,823,760,0
1014519,379.51,823,763,0
1014529,392.77,823,760,0
1014539,413.92,823,763,0
1014558,442.66,843,762,0
1014561,479.36,843,762,0
1014571,520.05,843,760,0
1014580,562.55,843,763,0
1014590,603.36,843,760,0
1014600,640.92,843,763,0
1014610,672.40,843,760,0
1014620,696.92,843,763,0
1014630,714.05,843,759,0
1014640,726.03,843,762,0
1014650,731.25,843,760,0
1014660,729.50,843,763,0
1014670,719.50,843,759,0
1014680,701.48,843,762,0
1014690,675.10,843,759,0
1014700,641.69,843,762,0
1014710,601.37,843,759,0
1014720,558.70,843,762,0
1014730,515.46,843,760,0
1014740,475.08,843,762,0
1014750,438.28,843,759,0
1014760,407.47,843,762,0
1014770,381.83,843,760,0
1014780,362.85,843,762,0
1014790,349.31,843,759,0
1014800,341.97,843,762,0
1014810,339.50,843,760,0
1014820,342.13,843,762,0
1014830,348.05,843,759,0
1014840,357.29,843,762,0
1014850,368.09,843,760,0
1014860,380.28,843,762,0
1014871,392.02,843,759,0
1014881,403.20,843,763,0
1014891,412.48,843,759,0
1014901,419.80,843,763,0
1014912,424.49,843,752,0
1014921,426.57,843,762,0
1014931,425.88,843,759,0
1014941,422.79,843,763,0
1014951,417.37,843,758,0
1014961,410.44,843,762,0
1014971,402.00,843,759,0
1014981,392.95,843,764,0
1014991,383.50,843,754,0
1015001,374.56,843,763,0
1015011,366.25,843,759,0
1015021,359.06,843,764,0
1015031,352.87,843,753,0
1015041,348.37,843,763,0
1015051,345.09,843,759,0
1015061,343.26,843,764,0
1015071,342.58,843,754,0
1015081,343.14,843,766,0
1015091,344.42,843,758,0
1015101,346.65,843,763,0
1015111,349.41,843,755,0
1015121,352.50,843,763,0
1015131,355.91,843,758,0
1015141,359.07,843,764,0
1015151,363.03,843,755,0
1015161,366.45,843,763,0
1015171,369.02,843,758,0
1015181,371.03,843,764,0
1015191,372.43,843,755,0
1015201,373.37,843,763,0
1015212,374.03,843,760,0
1015222,373.34,843,762,0
1015232,372.98,843,760,0
1015242,372.90,843,763,0
1015252,372.76,843,764,0
1015262,372.53,843,763,0
1015272,372.11,843,759,0
1015282,371.44,843,763,0
1015292,370.92,843,764,0
1015302,370.04,843,763,0
1015312,369.13,843,760,0
1015322,367.98,843,763,0
1015332,367.47,843,763,0
1015342,367.76,843,763,0
1015352,370.23,843,761,0
1015362,375.82,843,763,0
1015372,386.59,843,764,0
1015383,403.77,843,764,0
1015393,429.17,843,766,0
1015412,462.12,854,764,0
1015415,501.12,854,765,0
1015425,542.87,854,760,0
1015435,584.74,854,765,0
1015445,623.95,854,760,0
1015455,658.38,854,765,0
1015465,685.99,854,760,0
1015475,706.44,854,765,0
1015485,719.68,854,760,0
1015495,725.77,854,765,0
1015505,723.31,854,760,0
1015515,712.89,854,765,0
1015525,693.64,854,760,0
1015535,666.40,854,765,0
1015545,631.18,854,760,0
1015555,590.67,854,765,0
1015565,546.84,854,760,0
1015575,504.20,854,765,0
1015585,463.04,854,760,0
1015596,426.77,854,764,0
1015606,395.08,854,759,0
1015616,370.16,854,764,0
1015626,350.61,854,759,0
1015636,338.04,854,763,0
1015646,330.62,854,759,0
1015656,329.66,854,764,0
1015666,332.98,854,759,0
1015676,341.30,854,763,0
1015686,352.05,854,759,0
1015696,365.66,854,764,0
1015706,379.48,854,759,0
1015716,393.91,854,763,0
1015726,406.45,854,759,0
1015736,417.80,854,764,0
1015746,425.92,854,759,0
1015756,431.81,854,763,0
1015767,433.88,854,759,0
1015777,433.58,854,763,0
1015787,429.76,854,759,0
1015797,424.17,854,762,0
1015808,415.85,854,759,0
1015817,406.81,854,763,0
1015827,396.28,854,759,0
1015837,386.13,854,763,0
1015847,375.59,854,759,0
1015857,366.41,854,763,0
1015867,357.67,854,759,0
1015877,350.96,854,763,0
1015887,345.18,854,759,0
1015897,341.61,854,763,0
1015907,338.94,854,760,0
1015917,338.28,854,763,0
1015927,338.19,854,759,0
1015937,339.81,854,763,0
1015947,341.62,854,760,0
1015957,344.61,854,763,0
1015967,347.51,854,759,0
1015977,351.17,854,763,0
1015987,354.38,854,760,0
1015997,358.21,854,763,0
1016007,361.19,854,759,0
1016017,364.26,854,763,0
1016027,366.32,854,760,0
1016037,368.46,854,763,0
1016047,369.65,854,759,0
1016057,370.91,854,763,0
1016067,371.15,854,760,0
1016077,371.96,854,763,0
1016087,372.19,854,759,0
1016097,372.82,854,763,0
1016108,372.66,854,760,0
1016118,372.85,854,762,0
1016128,372.51,854,759,0
1016138,372.48,854,762,0
1016148,371.74,854,760,0
1016158,371.39,854,762,0
1016168,370.97,854,759,0
1016178,372.14,854,762,0
1016188,375.31,854,760,0
1016198,382.42,854,762,0
1016208,394.33,854,759,0
1016218,413.22,854,762,0
1016238,439.47,825,761,0
1016241,473.53,825,764,0
1016250,512.46,825,758,0
1016260,553.63,825,764,0
1016270,594.20,825,759,0
1016280,632.07,825,763,0
1016290,664.71,825,759,0
1016300,690.89,825,763,0
1016310,709.57,825,759,0
1016321,719.77,825,763,0
1016331,721.60,825,764,0
1016341,714.39,825,762,0
1016351,698.59,825,765,0
1016361,673.94,825,761,0
1016371,641.86,825,764,0
1016381,602.86,825,762,0
1016391,560.81,825,764,0
1016401,517.58,825,762,0
1016411,476.65,825,765,0
1016421,438.78,825,762,0
1016431,406.41,825,766,0
1016441,378.90,825,762,0
1016451,357.71,825,764,0
1016461,342.20,825,762,0
1016471,333.40,825,765,0
1016481,329.85,825,761,0
1016492,332.25,825,765,0
1016502,338.56,825,761,0
1016512,349.19,825,764,0
1016522,361.82,825,761,0
1016532,376.57,825,765,0
1016542,391.02,825,761,0
1016552,405.41,825,764,0
1016562,417.50,825,761,0
1016572,428.11,825,765,0
1016582,435.28,825,761,0
1016592,440.16,825,764,0
1016602,441.10,825,761,0
1016612,439.83,825,764,0
1016622,435.21,825,761,0
1016632,429.10,825,764,0
1016642,420.46,825,761,0
1016652,411.32,825,765,0
1016663,400.77,825,760,0
1016673,390.89,825,764,0
1016683,380.64,825,760,0
1016693,371.79,825,764,0
1016704,363.28,825,760,0
1016713,356.94,825,765,0
1016723,351.43,825,760,0
1016733,348.39,825,764,0
1016743,346.21,825,760,0
1016753,346.28,825,764,0
1016763,346.92,825,760,0
1016773,349.39,825,764,0
1016783,351.84,825,760,0
1016793,355.58,825,765,0
1016803,358.75,825,760,0
1016813,362.89,825,764,0
1016823,366.27,825,760,0
1016833,370.39,825,765,0
1016843,373.57,825,760,0
1016853,377.21,825,764,0
1016863,379.76,825,760,0
1016873,382.58,825,764,0
1016883,384.12,825,760,0
1016893,386.10,825,765,0
1016903,386.50,825,759,0
1016913,387.03,825,764,0
1016923,386.38,825,760,0
1016933,385.97,825,764,0
1016943,384.73,825,759,0
1016953,384.56,825,764,0
1016963,384.73,825,760,0
1016973,388.54,825,764,0
1016983,395.66,825,759,0
1016993,409.31,825,764,0
1017004,429.36,825,760,0
1017014,458.01,825,764,0
1017033,493.28,796,762,0
1017036,532.92,796,762,0
1017046,573.27,796,760,0
1017055,612.75,796,763,0
1017065,648.05,796,759,0
1017075,678.08,796,763,0
1017085,700.81,796,760,0
1017095,716.77,796,763,0
1017105,727.00,796,759,0
1017115,731.15,796,763,0
1017125,727.81,796,760,0
1017135,717.28,796,763,0
1017145,698.64,796,759,0
1017155,672.56,796,763,0
1017165,639.26,796,760,0
1017175,601.00,796,763,0
1017185,559.56,796,759,0
1017195,518.85,796,763,0
1017205,479.59,796,760,0
1017216,444.70,796,762,0
1017225,414.19,796,759,0
1017235,389.70,796,763,0
1017245,370.38,796,760,0
1017255,357.54,796,763,0
1017265,349.83,796,759,0
1017275,348.13,796,763,0
1017285,350.70,796,760,0
1017295,357.99,796,762,0
1017305,367.77,796,759,0
1017315,380.18,796,762,0
1017325,393.15,796,760,0
1017335,406.78,796,762,0
1017345,418.89,796,759,0
1017355,429.94,796,763,0
1017365,438.06,796,760,0
1017375,444.04,796,762,0
1017385,446.51,796,759,0
1017395,446.57,796,762,0
1017405,443.44,796,760,0
1017415,438.51,796,762,0
1017425,430.99,796,760,0
1017435,422.55,796,763,0
1017445,412.61,796,759,0
1017455,402.74,796,762,0
1017465,392.49,796,760,0
1017475,383.34,796,763,0
1017485,374.58,796,760,0
1017495,367.64,796,763,0
1017505,361.83,796,760,0
1017516,358.20,796,762,0
1017526,355.87,796,760,0
1017536,355.43,796,762,0
1017546,355.95,796,760,0
1017556,357.98,796,764,0
1017566,360.47,796,760,0
1017576,363.80,796,762,0
1017586,367.07,796,760,0
1017596,370.74,796,764,0
1017606,374.07,796,760,0
1017616,377.48,796,762,0
1017626,380.42,796,760,0
1017636,383.21,796,765,0
1017646,385.29,796,760,0
1017656,387.09,796,762,0
1017666,388.09,796,760,0
1017676,388.88,796,764,0
1017687,388.96,796,754,0
1017697,388.67,796,763,0
1017707,387.91,796,757,0
1017717,387.04,796,762,0
1017728,386.17,796,760,0
1017737,386.03,796,763,0
1017747,387.31,796,757,0
1017757,391.50,796,762,0
1017767,400.31,796,760,0
1017777,415.22,796,763,0
1017787,437.57,796,758,0
1017797,468.08,796,762,0
1017817,504.79,783,762,0
1017820,544.75,783,763,0
1017829,585.32,783,766,0
1017839,623.76,783,761,0
1017849,657.94,783,765,0
1017859,685.95,783,761,0
1017869,706.45,783,766,0
1017879,720.80,783,761,0
1017889,730.89,783,765,0
1017900,736.79,783,761,0
1017910,737.58,783,765,0
1017920,731.37,783,761,0
1017930,718.44,783,765,0
1017940,697.82,783,760,0
1017950,670.83,783,765,0
1017960,637.20,783,760,0
1017970,599.55,783,765,0
1017980,559.79,783,761,0
1017990,521.88,783,765,0
1018000,486.09,783,761,0
1018010,455.20,783,765,0
1018020,428.14,783,760,0
1018030,406.63,783,765,0
1018040,389.30,783,760,0
1018050,377.55,783,765,0
1018060,369.76,783,760,0
1018071,367.04,783,765,0
1018081,367.37,783,760,0
1018091,371.59,783,764,0
1018101,377.58,783,760,0
1018112,386.02,783,764,0
1018121,394.55,783,760,0
1018131,403.90,783,764,0
1018141,411.77,783,760,0
1018151,419.12,783,764,0
1018161,424.02,783,759,0
1018171,427.65,783,764,0
1018181,428.40,783,760,0
1018191,427.77,783,764,0
1018201,424.32,783,759,0
1018211,419.85,783,764,0
1018221,413.21,783,760,0
1018231,406.29,783,764,0
1018241,398.32,783,760,0
1018251,390.98,783,764,0
1018261,383.19,783,760,0
1018271,376.66,783,764,0
1018281,370.33,783,759,0
1018291,365.95,783,764,0
1018301,361.93,783,760,0
1018311,359.85,783,764,0
1018321,358.05,783,759,0
1018331,358.08,783,765,0
1018341,358.40,783,760,0
1018351,360.04,783,764,0
1018361,361.31,783,759,0
1018371,363.96,783,765,0
1018381,366.03,783,760,0
1018391,368.94,783,764,0
1018401,371.01,783,759,0
1018412,373.71,783,764,0
1018422,375.55,783,760,0
1018432,377.92,783,763,0
1018442,379.23,783,759,0
1018452,380.62,783,763,0
1018462,381.03,783,760,0
1018472,381.71,783,763,0
1018482,381.37,783,760,0
1018492,381.43,783,763,0
1018502,380.53,783,760,0
1018512,379.94,783,763,0
1018522,378.67,783,759,0
1018532,378.34,783,763,0
1018542,378.45,783,760,0
1018552,381.23,783,763,0
1018562,387.03,783,759,0
1018572,398.94,783,763,0
1018583,417.17,783,760,0
1018593,444.12,783,763,0
1018612,478.54,796,761,0
1018615,518.19,796,763,0
1018625,559.62,796,759,0
1018635,600.71,796,765,0
1018645,638.17,796,753,0
1018655,670.52,796,763,0
1018665,695.56,796,758,0
1018675,713.22,796,764,0
1018685,725.54,796,759,0
1018695,732.75,796,763,0
1018705,733.47,796,759,0
1018715,727.50,796,764,0
1018725,713.93,796,759,0
1018735,692.91,796,764,0
1018745,664.91,796,757,0
1018755,630.82,796,764,0
1018765,592.95,796,752,0
1018775,554.22,796,763,0
1018785,516.48,796,755,0
1018796,481.84,796,763,0
1018806,451.50,796,760,0
1018816,425.59,796,764,0
1018826,404.50,796,763,0
1018836,387.68,796,762,0
1018846,375.56,796,759,0
1018856,367.64,796,763,0
1018866,363.97,796,763,0
1018876,363.55,796,764,0
1018886,366.30,796,760,0
1018896,371.23,796,763,0
1018906,378.10,796,762,0
1018916,385.91,796,762,0
1018926,394.17,796,760,0
1018936,401.62,796,763,0
1018946,408.46,796,763,0
1018956,413.68,796,765,0
1018967,417.29,796,766,0
1018977,418.45,796,761,0
1018987,417.80,796,766,0
1018997,414.82,796,761,0
1019008,410.84,796,765,0
1019017,404.89,796,762,0
1019027,398.58,796,766,0
1019037,391.12,796,761,0
1019047,384.31,796,765,0
1019057,377.02,796,761,0
1019067,370.88,796,766,0
1019077,364.70,796,761,0
1019087,360.12,796,765,0
1019097,356.01,796,762,0
1019107,353.82,796,766,0
1019117,351.99,796,762,0
1019127,351.99,796,765,0
1019137,352.42,796,761,0
1019147,354.40,796,766,0
1019157,356.68,796,761,0
1019167,359.90,796,765,0
1019177,362.55,796,761,0
1019187,365.85,796,766,0
1019197,368.30,796,762,0
1019207,371.17,796,765,0
1019217,372.87,796,761,0
1019227,374.88,796,766,0
1019237,375.82,796,762,0
1019247,377.37,796,765,0
1019257,377.77,796,761,0
1019267,378.57,796,766,0
1019277,378.27,796,762,0
1019287,378.36,796,765,0
1019297,377.27,796,761,0
1019308,376.59,796,766,0
1019318,374.61,796,760,0
1019328,373.31,796,765,0
1019338,371.38,796,760,0
1019348,370.36,796,765,0
1019358,369.70,796,761,0
1019368,371.55,796,765,0
1019378,376.05,796,760,0
1019388,386.32,796,765,0
1019398,402.55,796,761,0
1019417,426.99,805,759,0
1019420,459.05,805,761,0
1019429,497.65,805,765,0
1019439,539.07,805,760,0
1019449,581.13,805,765,0
1019459,620.52,805,759,0
1019469,655.51,805,764,0
1019479,683.86,805,760,0
1019489,705.03,805,765,0
1019499,718.86,805,759,0
1019509,725.67,805,764,0
1019520,724.10,805,759,0
1019529,714.99,805,764,0
1019539,697.25,805,759,0
1019549,671.97,805,764,0
1019559,639.15,805,759,0
1019569,601.48,805,764,0
1019579,560.83,805,759,0
1019589,521.37,805,764,0
1019599,483.37,805,759,0
1019609,450.05,805,765,0
1019619,420.72,805,759,0
1019629,397.23,805,765,0
1019639,377.92,805,759,0
1019649,364.01,805,765,0
1019659,353.98,805,759,0
1019669,348.84,805,764,0
1019679,346.75,805,759,0
1019689,348.84,805,763,0
1019699,352.87,805,760,0
1019709,359.85,805,764,0
1019719,367.70,805,759,0
1019729,377.05,805,764,0
1019739,385.86,805,759,0
1019749,394.82,805,764,0
1019759,402.07,805,759,0
1019769,408.35,805,764,0
1019779,412.19,805,759,0
1019789,414.40,805,764,0
1019799,413.60,805,759,0
1019809,411.27,805,764,0
1019820,406.44,805,759,0
1019830,400.60,805,763,0
1019840,393.18,805,759,0
1019850,385.54,805,763,0
1019860,377.32,805,759,0
1019870,370.24,805,763,0
1019880,363.22,805,759,0
1019890,357.89,805,763,0
1019900,352.95,805,759,0
1019910,349.92,805,763,0
1019920,347.46,805,759,0
1019930,346.81,805,763,0
1019940,346.56,805,759,0
1019950,347.72,805,763,0
1019960,348.96,805,759,0
1019970,351.33,805,763,0
1019980,353.46,805,759,0
1019991,356.41,805,763,0
1020001,358.81,805,759,0
1020011,361.61,805,763,0
1020021,363.87,805,760,0
1020032,366.31,805,762,0
1020041,368.15,805,759,0
1020051,370.12,805,763,0
1020061,371.58,805,760,0
1020071,372.95,805,762,0
1020081,373.56,805,759,0
1020091,374.17,805,763,0
1020101,374.12,805,760,0
1020111,374.04,805,762,0
1020121,373.30,805,759,0
1020131,372.44,805,763,0
1020141,371.11,805,760,0
1020151,369.92,805,762,0
1020161,368.23,805,759,0
1020171,366.83,805,762,0
1020181,365.30,805,760,0
1020191,364.52,805,762,0
1020201,364.62,805,758,0
1020211,367.26,805,763,0
1020221,373.18,805,760,0
1020231,384.62,805,762,0
1020241,402.56,805,759,0
1020260,428.23,843,758,0
1020263,461.81,843,766,0
1020272,501.16,843,765,0
1020282,543.03,843,760,0
1020292,585.02,843,766,0
1020302,624.23,843,752,0
1020312,658.53,843,765,0
1020322,686.36,843,760,0
1020332,706.65,843,766,0
1020342,718.37,843,752,0
1020352,721.52,843,765,0
1020362,715.88,843,760,0
1020372,701.43,843,764,0
1020382,678.58,843,752,0
1020392,648.32,843,765,0
1020402,611.41,843,760,0
1020412,571.05,843,764,0
1020422,529.80,843,752,0
1020432,490.05,843,765,0
1020442,453.48,843,760,0
1020452,421.15,843,764,0
1020462,393.37,843,753,0
1020472,370.59,843,766,0
1020482,353.01,843,760,0
1020492,340.80,843,764,0
1020503,333.79,843,765,0
1020513,331.49,843,764,0
1020523,333.79,843,763,0
1020533,339.55,843,764,0
1020544,348.43,843,766,0
1020553,359.10,843,764,0
1020563,370.94,843,763,0
1020573,382.57,843,765,0
1020583,393.84,843,767,0
1020593,403.19,843,764,0
1020603,410.76,843,763,0
1020613,415.33,843,764,0
1020623,417.68,843,767,0
1020633,416.96,843,764,0
1020643,414.19,843,763,0
1020653,408.64,843,764,0
1020663,401.98,843,767,0
1020673,393.93,843,764,0
1020683,385.64,843,763,0
1020693,376.75,843,764,0
1020703,368.68,843,767,0
1020713,360.76,843,762,0
1020723,354.40,843,763,0
1020733,348.58,843,765,0
1020743,344.47,843,767,0
1020753,341.20,843,762,0
1020763,339.68,843,763,0
1020773,338.92,843,765,0
1020783,339.80,843,767,0
1020793,341.02,843,762,0
1020803,343.37,843,763,0
1020813,345.70,843,764,0
1020823,348.92,843,767,0
1020833,351.69,843,762,0
1020844,354.95,843,768,0
1020854,357.54,843,761,0
1020864,360.68,843,766,0
1020874,362.96,843,762,0
1020884,365.54,843,766,0
1020894,367.14,843,761,0
1020904,369.02,843,766,0
1020914,369.75,843,761,0
1020924,370.89,843,766,0
1020934,370.93,843,761,0
1020944,371.50,843,766,0
1020954,370.97,843,762,0
1020964,370.85,843,766,0
1020974,369.91,843,761,0
1020984,369.42,843,766,0
1020994,368.01,843,762,0
1021004,367.02,843,766,0
1021015,364.96,843,761,0
1021025,363.73,843,766,0
1021035,362.27,843,760,0
1021045,362.83,843,766,0
1021056,365.32,843,760,0
1021065,372.34,843,766,0
1021075,384.15,843,760,0
1021085,403.78,843,766,0
1021105,430.46,844,765,0
1021108,465.94,844,765,0
1021117,506.11,844,759,0
1021127,548.72,844,764,0
1021137,590.38,844,759,0
1021147,629.39,844,765,0
1021157,662.83,844,759,0
1021167,690.01,844,764,0
1021177,707.96,844,759,0
1021187,717.70,844,765,0
1021197,718.35,844,759,0
1021207,710.44,844,763,0
1021217,693.38,844,759,0
1021228,668.15,844,763,0
1021238,634.81,844,759,0
1021248,595.95,844,763,0
1021258,553.15,844,759,0
1021268,510.59,844,763,0
1021278,469.14,844,759,0
1021288,431.73,844,763,0
1021298,398.51,844,759,0
1021308,371.31,844,763,0
1021318,349.41,844,759,0
1021328,334.07,844,763,0
1021338,324.15,844,759,0
1021348,320.50,844,763,0
1021358,321.72,844,759,0
1021368,327.98,844,763,0
1021378,337.41,844,760,0
1021388,350.23,844,763,0
1021399,364.31,844,759,0
1021409,379.39,844,762,0
1021419,393.76,844,760,0
1021429,407.29,844,762,0
1021440,418.43,844,759,0
1021449,427.39,844,762,0
1021459,432.84,844,760,0
1021469,435.42,844,762,0
1021479,434.48,844,759,0
1021489,431.25,844,763,0
1021499,425.00,844,760,0
1021509,416.86,844,762,0
1021519,407.00,844,759,0
1021529,396.72,844,762,0
1021539,386.00,844,760,0
1021549,376.01,844,763,0
1021559,366.37,844,758,0
1021569,358.37,844,763,0
1021579,351.96,844,760,0
1021589,347.39,844,762,0
1021599,344.14,844,759,0
1021609,342.69,844,766,0
1021619,342.27,844,760,0
1021629,343.39,844,763,0
1021639,345.24,844,759,0
1021649,347.91,844,766,0
1021659,350.94,844,760,0
1021669,354.60,844,762,0
1021679,358.28,844,758,0
1021689,362.48,844,766,0
1021699,366.15,844,760,0
1021709,369.83,844,762,0
1021719,373.01,844,758,0
1021729,376.01,844,766,0
1021740,378.58,844,752,0
1021750,380.80,844,765,0
1021760,382.32,844,761,0
1021770,383.42,844,764,0
1021780,384.03,844,765,0
1021790,384.23,844,765,0
1021800,383.95,844,761,0
1021810,383.28,844,764,0
1021820,382.72,844,765,0
1021830,383.06,844,765,0
1021840,385.19,844,761,0
1021850,390.32,844,764,0
1021860,400.34,844,764,0
1021870,416.56,844,765,0
1021880,440.01,844,761,0
1021899,471.12,795,762,0
1021902,507.98,795,767,0
1021911,547.85,795,764,0
1021921,588.05,795,763,0
1021931,625.83,795,764,0
1021941,659.27,795,767,0
1021952,686.70,795,762,0
1021961,707.06,795,763,0
1021971,720.67,795,764,0
1021981,727.54,795,766,0
1021991,726.39,795,762,0
1022001,717.62,795,763,0
1022011,700.59,795,764,0
1022021,676.07,795,766,0
1022031,643.95,795,762,0
1022041,606.42,795,763,0
1022051,565.54,795,764,0
1022061,525.09,795,766,0
1022071,485.94,795,762,0
1022081,450.64,795,763,0
1022091,419.42,795,764,0
1022101,394.01,795,766,0
1022111,373.35,795,762,0
1022121,358.76,795,767,0
1022131,349.06,795,764,0
1022141,345.10,795,766,0
1022151,345.28,795,762,0
1022161,350.13,795,767,0
1022171,357.63,795,764,0
1022181,368.03,795,766,0
1022191,379.16,795,762,0
1022201,391.54,795,767,0
1022211,402.95,795,764,0
1022221,413.77,795,766,0
1022231,421.98,795,762,0
1022241,428.50,795,767,0
1022252,431.86,795,761,0
1022262,433.15,795,766,0
1022272,430.92,795,761,0
1022282,426.83,795,766,0
1022292,420.15,795,761,0
1022302,412.61,795,766,0
1022312,403.21,795,761,0
1022322,393.93,795,766,0
1022332,383.97,795,761,0
1022342,375.36,795,766,0
1022352,367.11,795,761,0
1022362,360.82,795,766,0
1022372,355.43,795,761,0
1022382,352.39,795,766,0
1022392,350.04,795,761,0
1022402,349.99,795,766,0
1022412,350.21,795,761,0
1022423,352.29,795,766,0
1022433,354.21,795,760,0
1022443,357.32,795,766,0
1022453,360.01,795,760,0
1022464,363.69,795,765,0
1022473,366.57,795,760,0
1022483,370.34,795,766,0
1022493,373.11,795,760,0
1022503,376.46,795,765,0
1022513,378.64,795,760,0
1022523,381.23,795,766,0
1022533,382.66,795,760,0
1022543,384.35,795,765,0
1022553,384.67,795,760,0
1022563,385.16,795,766,0
1022573,384.47,795,760,0
1022583,384.20,795,765,0
1022593,383.15,795,760,0
1022603,383.54,795,766,0
1022613,384.83,795,760,0
1022623,390.07,795,765,0
1022633,399.43,795,759,0
1022643,415.93,795,766,0
1022653,439.31,795,760,0
1022672,471.62,773,758,0
1022675,509.19,773,760,0
1022684,549.98,773,765,0
1022694,590.44,773,759,0
1022704,628.75,773,764,0
1022714,662.04,773,759,0
1022724,689.33,773,765,0
1022734,708.73,773,759,0
1022744,722.31,773,764,0
1022754,731.82,773,759,0
1022764,737.06,773,765,0
1022774,735.84,773,759,0
1022784,727.92,773,764,0
1022794,712.17,773,758,0
1022804,689.11,773,764,0
1022814,658.77,773,759,0
1022824,622.63,773,764,0
1022834,582.02,773,758,0
1022844,541.43,773,764,0
1022854,501.87,773,759,0
1022864,466.47,773,764,0
1022874,435.00,773,758,0
1022884,409.11,773,764,0
1022894,387.48,773,759,0
1022904,371.69,773,764,0
1022914,360.34,773,758,0
1022924,354.37,773,764,0
1022935,351.94,773,759,0
1022945,353.97,773,763,0
1022955,358.61,773,759,0
1022965,366.36,773,763,0
1022976,375.16,773,759,0
1022985,385.31,773,763,0
1022995,394.95,773,759,0
1023005,404.48,773,763,0
1023015,412.09,773,759,0
1023025,418.24,773,763,0
1023035,421.55,773,758,0
1023045,422.93,773,763,0
1023055,421.41,773,759,0
1023065,418.24,773,763,0
1023075,412.64,773,759,0
1023085,406.19,773,763,0
1023095,398.38,773,759,0
1023105,390.94,773,763,0
1023115,382.85,773,759,0
1023125,375.53,773,763,0
1023135,368.30,773,759,0
1023145,362.38,773,763,0
1023155,356.95,773,759,0
1023165,353.11,773,763,0
1023175,349.78,773,759,0
1023185,348.30,773,763,0
1023195,347.70,773,759,0
1023205,348.82,773,763,0
1023215,350.50,773,759,0
1023225,353.39,773,763,0
1023235,356.23,773,759,0
1023245,359.93,773,763,0
1023255,363.04,773,759,0
1023265,366.37,773,763,0
1023276,368.79,773,759,0
1023286,371.29,773,763,0
1023296,372.96,773,760,0
1023306,374.69,773,762,0
1023316,375.42,773,759,0
1023326,376.45,773,763,0
1023336,376.75,773,760,0
1023346,376.91,773,762,0
1023356,376.42,773,759,0
1023366,376.12,773,763,0
1023376,375.32,773,760,0
1023386,375.01,773,762,0
1023396,375.43,773,759,0
1023406,378.47,773,763,0
1023416,385.36,773,760,0
1023426,398.28,773,762,0
1023436,418.17,773,760,0
1023447,446.96,773,766,0
1023466,483.19,794,765,0
1023469,523.84,794,764,0
1023478,565.98,794,763,0
1023489,607.04,794,764,0
1023499,644.23,794,767,0
1023509,675.62,794,762,0
1023519,699.35,794,767,0
1023529,715.91,794,761,0
1023539,727.51,794,767,0
1023549,733.61,794,762,0
1023559,733.82,794,767,0
1023569,726.59,794,761,0
1023579,712.18,794,767,0
1023589,690.06,794,762,0
1023599,661.20,794,767,0
1023609,625.69,794,761,0
1023619,587.13,794,767,0
1023629,547.23,794,762,0
1023639,509.58,794,767,0
1023649,474.56,794,761,0
1023660,444.44,794,766,0
1023670,418.42,794,761,0
1023680,397.98,794,766,0
1023690,381.66,794,761,0
1023700,370.45,794,766,0
1023710,362.81,794,761,0
1023720,359.70,794,766,0
1023730,359.19,794,761,0
1023740,362.43,794,766,0
1023750,367.23,794,761,0
1023760,374.45,794,766,0
1023770,381.86,794,761,0
1023780,390.21,794,766,0
1023790,397.52,794,761,0
1023800,404.74,794,766,0
1023810,409.79,794,761,0
1023820,413.75,794,766,0
1023831,414.73,794,760,0
1023841,414.34,794,766,0
1023851,411.28,794,760,0
1023861,407.17,794,766,0
1023872,400.86,794,760,0
1023881,394.30,794,766,0
1023891,386.63,794,760,0
1023901,379.62,794,766,0
1023911,372.28,794,760,0
1023921,366.28,794,766,0
1023931,360.41,794,760,0
1023941,356.39,794,766,0
1023951,352.67,794,760,0
1023961,350.76,794,766,0
1023971,349.16,794,760,0
1023981,349.32,794,766,0
1023991,349.61,794,760,0
1024001,351.61,794,766,0
1024011,353.44,794,760,0
1024021,356.57,794,766,0
1024031,358.97,794,760,0
1024041,362.28,794,765,0
1024051,364.72,794,760,0
1024061,367.64,794,766,0
1024071,369.37,794,760,0
1024081,371.40,794,765,0
1024091,372.18,794,760,0
1024101,373.67,794,766,0
1024111,374.03,794,760,0
1024121,374.79,794,765,0
1024131,374.68,794,760,0
1024141,375.12,794,766,0
1024151,374.57,794,760,0
1024161,374.57,794,765,0
1024172,373.46,794,759,0
1024182,372.93,794,765,0
1024192,371.63,794,759,0
1024202,370.92,794,764,0
1024212,369.32,794,759,0
1024222,368.62,794,765,0
1024232,367.02,794,759,0
1024242,366.16,794,764,0
1024252,364.95,794,759,0
1024262,365.27,794,765,0
1024272,366.90,794,759,0
1024282,372.63,794,764,0
1024292,382.68,794,759,0
1024302,400.14,794,765,0
1024312,424.87,794,760,0
1024331,458.81,865,758,0
1024334,498.38,865,760,0
1024343,541.08,865,764,0
1024353,583.44,865,760,0
1024363,623.47,865,763,0
1024373,658.34,865,759,0
1024384,686.91,865,763,0
1024393,707.25,865,759,0
1024403,721.49,865,763,0
1024413,730.39,865,760,0
1024423,733.31,865,763,0
1024433,728.85,865,759,0
1024443,717.02,865,763,0
1024453,696.87,865,759,0
1024463,669.31,865,763,0
1024473,634.76,865,759,0
1024483,595.58,865,763,0
1024493,554.13,865,759,0
1024503,513.89,865,763,0
1024513,475.95,865,760,0
1024523,443.05,865,763,0
1024533,414.79,865,759,0
1024543,392.14,865,763,0
1024553,374.31,865,759,0
1024563,361.96,865,763,0
1024573,353.92,865,759,0
1024583,350.77,865,763,0
1024593,350.92,865,759,0
1024603,354.85,865,763,0
1024613,360.76,865,759,0
1024623,368.89,865,763,0
1024633,377.58,865,759,0
1024643,387.14,865,763,0
1024653,395.71,865,759,0
1024663,403.64,865,763,0
1024673,409.49,865,759,0
1024684,413.97,865,763,0
1024694,415.91,865,760,0
1024704,416.06,865,763,0
1024714,413.73,865,760,0
1024724,409.83,865,766,0
1024734,404.05,865,760,0
1024744,397.48,865,762,0
1024754,389.92,865,760,0
1024764,382.32,865,766,0
1024774,374.59,865,760,0
1024784,367.64,865,762,0
1024794,361.32,865,760,0
1024804,356.25,865,766,0
1024814,352.11,865,760,0
1024824,349.33,865,762,0
1024834,347.47,865,760,0
1024844,346.95,865,766,0
1024855,347.22,865,754,0
1024865,348.57,865,765,0
1024875,350.50,865,759,0
1024885,353.05,865,764,0
1024896,355.91,865,764,0
1024905,359.19,865,765,0
1024915,362.31,865,759,0
1024925,365.38,865,764,0
1024935,368.18,865,764,0
1024945,370.57,865,765,0
1024955,372.54,865,759,0
1024965,373.97,865,764,0
1024975,374.83,865,764,0
1024985,375.23,865,765,0
1024995,374.99,865,759,0
1025005,374.13,865,764,0
1025015,372.94,865,764,0
1025025,371.41,865,765,0
1025035,370.09,865,759,0
1025045,369.68,865,764,0
1025055,371.53,865,764,0
1025065,376.99,865,762,0
1025075,387.36,865,759,0
1025085,404.18,865,764,0
1025095,428.56,865,764,0
1025115,460.40,783,762,0
1025118,498.51,783,768,0
1025127,539.46,783,762,0
1025137,580.59,783,767,0
1025147,619.54,783,761,0
1025157,654.05,783,768,0
1025167,681.81,783,761,0
1025177,700.72,783,767,0
1025187,708.43,783,761,0
1025197,706.55,783,767,0
1025207,694.73,783,761,0
1025217,674.07,783,766,0
1025227,644.60,783,761,0
1025238,608.81,783,766,0
1025247,568.41,783,761,0
1025257,527.70,783,767,0
1025267,487.16,783,761,0
1025277,450.08,783,766,0
1025287,416.63,783,761,0
1025297,388.97,783,767,0
1025307,365.88,783,761,0
1025317,348.82,783,766,0
1025327,336.36,783,761,0
1025337,329.78,783,767,0
1025347,327.36,783,761,0
1025357,329.95,783,766,0
1025367,335.49,783,761,0
1025377,344.65,783,767,0
1025387,355.21,783,761,0
1025397,367.79,783,766,0
1025408,380.02,783,761,0
1025417,392.62,783,767,0
1025427,403.15,783,761,0
1025437,412.57,783,766,0
1025447,418.70,783,761,0
1025457,422.82,783,766,0
1025467,423.22,783,761,0
1025477,421.61,783,766,0
1025487,416.63,783,761,0
1025497,410.48,783,767,0
1025507,402.07,783,761,0
1025517,393.65,783,766,0
1025527,384.19,783,761,0
1025537,375.74,783,767,0
1025547,367.20,783,761,0
1025557,360.46,783,766,0
1025567,354.10,783,761,0
1025577,349.70,783,766,0
1025587,345.93,783,761,0
1025597,344.11,783,766,0
1025607,342.71,783,761,0
1025617,343.22,783,766,0
1025627,343.88,783,761,0
1025637,346.06,783,766,0
1025647,348.19,783,761,0
1025657,351.60,783,766,0
1025667,354.51,783,761,0
1025677,358.25,783,766,0
1025687,361.05,783,761,0
1025697,364.29,783,766,0
1025708,366.48,783,760,0
1025718,368.90,783,766,0
1025728,369.96,783,760,0
1025738,371.34,783,765,0
1025748,371.54,783,760,0
1025758,372.11,783,766,0
1025768,371.69,783,760,0
1025778,371.65,783,766,0
1025788,370.69,783,760,0
1025798,370.39,783,766,0
1025808,369.12,783,760,0
1025818,368.40,783,766,0
1025828,367.04,783,760,0
1025838,366.94,783,766,0
1025848,367.51,783,760,0
1025858,371.52,783,765,0
1025868,378.86,783,759,0
1025879,392.79,783,765,0
1025889,413.17,783,759,0
1025908,441.87,794,758,0
1025911,477.53,794,760,0
1025921,518.13,794,763,0
1025931,559.87,794,760,0
1025941,600.84,794,763,0
1025951,637.87,794,759,0
1025961,669.75,794,763,0
1025971,693.70,794,759,0
1025981,708.10,794,763,0
1025991,712.49,794,759,0
1026001,707.50,794,762,0
1026011,693.03,794,759,0
1026021,669.92,794,763,0
1026031,638.66,794,759,0
1026041,601.09,794,762,0
1026051,559.32,794,759,0
1026061,517.05,794,763,0
1026071,475.85,794,759,0
1026081,438.10,794,762,0
1026092,404.51,794,760,0
1026102,376.46,794,763,0
1026112,354.03,794,760,0
1026122,338.00,794,763,0
1026132,327.75,794,756,0
1026142,323.33,794,762,0
1026152,323.87,794,760,0
1026162,329.35,794,763,0
1026172,338.33,794,756,0
1026182,350.49,794,762,0
1026192,364.10,794,760,0
1026202,378.34,794,763,0
1026212,392.21,794,756,0
1026222,405.30,794,762,0
1026232,416.18,794,760,0
1026242,424.66,794,763,0
1026252,429.99,794,756,0
1026263,432.52,794,766,0
1026273,432.19,794,755,0
1026283,429.18,794,764,0
1026293,423.64,794,762,0
1026304,416.16,794,763,0
1026313,407.41,794,755,0
1026323,397.86,794,764,0
1026333,388.30,794,762,0
1026343,378.78,794,762,0
1026353,370.15,794,755,0
1026363,362.48,794,764,0
1026373,356.33,794,762,0
1026383,351.65,794,763,0
1026393,348.54,794,755,0
1026403,346.71,794,764,0
1026413,346.45,794,762,0
1026423,347.26,794,763,0
1026433,349.11,794,755,0
1026443,351.69,794,764,0
1026453,354.83,794,762,0
1026463,358.31,794,763,0
1026473,362.03,794,764,0
1026483,365.71,794,764,0
1026493,369.31,794,762,0
1026503,372.64,794,763,0
1026513,375.92,794,764,0
1026523,378.65,794,764,0
1026533,381.02,794,762,0
1026543,382.69,794,763,0
1026553,384.02,794,764,0
1026563,384.70,794,764,0
1026573,384.92,794,762,0
1026583,384.43,794,763,0
1026593,384.04,794,764,0
1026604,384.07,794,764,0
1026614,386.19,794,764,0
1026624,391.24,794,762,0
1026634,401.37,794,767,0
1026644,417.50,794,761,0
1026654,440.96,794,764,0
1026664,471.70,794,763,0
1026683,508.61,775,761,0
1026686,548.24,775,760,0
1026695,588.15,775,768,0
1026705,625.52,775,762,0
1026715,658.75,775,766,0
1026725,685.95,775,761,0
1026735,706.54,775,767,0
1026745,718.72,775,761,0
1026755,723.09,775,767,0
1026765,718.43,775,762,0
1026775,705.75,775,767,0
1026785,684.39,775,761,0
1026795,655.60,775,766,0
1026805,619.34,775,761,0
1026816,579.46,775,766,0
1026825,537.58,775,762,0
1026835,497.68,775,766,0
1026845,459.80,775,761,0
1026855,426.73,775,766,0
1026865,398.01,775,761,0
1026875,375.30,775,766,0
1026885,357.29,775,761,0
1026895,345.25,775,766,0
1026905,337.80,775,761,0
1026915,336.06,775,766,0
1026925,337.97,775,761,0
1026935,344.28,775,766,0
1026945,352.94,775,761,0
1026955,364.49,775,766,0
1026965,376.60,775,761,0
1026975,389.70,775,766,0
1026985,401.41,775,761,0
1026995,412.68,775,766,0
1027005,421.35,775,761,0
1027015,428.27,775,766,0
1027025,431.62,775,761,0
1027035,432.89,775,766,0
1027045,430.61,775,761,0
1027055,426.61,775,766,0
1027065,419.70,775,761,0
1027075,411.90,775,766,0
1027085,402.46,775,761,0
1027095,393.45,775,766,0
1027105,383.84,775,761,0
1027116,375.62,775,766,0
1027126,367.59,775,760,0
1027136,361.59,775,766,0
1027146,356.22,775,760,0
1027156,353.11,775,766,0
1027166,350.68,775,760,0
1027176,350.30,775,766,0
1027186,350.34,775,760,0
1027196,352.21,775,765,0
1027206,354.16,775,760,0
1027216,357.46,775,766,0
1027226,360.32,775,760,0
1027236,364.21,775,766,0
1027246,367.45,775,760,0
1027256,371.34,775,766,0
1027266,374.37,775,760,0
1027276,377.81,775,766,0
1027287,380.14,775,760,0
1027297,382.67,775,765,0
1027307,383.80,775,760,0
1027317,384.76,775,765,0
1027328,384.19,775,760,0
1027337,383.57,775,765,0
1027347,381.82,775,759,0
1027357,380.84,775,765,0
1027367,380.33,775,759,0
1027377,382.89,775,765,0
1027387,388.92,775,759,0
1027397,401.80,775,765,0
1027407,421.45,775,760,0
1027417,449.86,775,765,0
1027427,485.39,775,759,0
1027446,525.60,763,758,0
1027449,567.03,763,760,0
1027458,607.69,763,764,0
1027468,644.13,763,759,0
1027478,675.12,763,764,0
1027488,698.78,763,760,0
1027499,715.39,763,763,0
1027508,726.42,763,760,0
1027518,731.43,763,764,0
1027528,728.95,763,760,0
1027538,719.02,763,763,0
1027548,701.27,763,759,0
1027558,676.33,763,763,0
1027568,644.35,763,759,0
1027578,607.21,763,763,0
1027588,567.38,763,759,0
1027598,528.65,763,764,0
1027608,491.77,763,760,0
1027618,458.92,763,763,0
1027628,429.93,763,759,0
1027638,406.47,763,764,0
1027648,387.13,763,759,0
1027658,372.73,763,763,0
1027668,362.14,763,759,0
1027678,356.27,763,764,0
1027688,353.75,763,759,0
1027698,355.19,763,763,0
1027708,358.65,763,759,0
1027718,364.93,763,764,0
1027728,372.28,763,760,0
1027738,380.94,763,763,0
1027748,389.36,763,759,0
1027758,397.69,763,764,0
1027768,404.34,763,759,0
1027778,409.98,763,763,0
1027788,413.16,763,759,0
1027799,414.78,763,763,0
1027809,413.90,763,759,0
1027819,411.45,763,763,0
1027829,406.90,763,759,0
1027840,401.44,763,762,0
1027849,394.58,763,759,0
1027859,387.72,763,763,0
1027869,380.31,763,759,0
1027879,373.57,763,763,0
1027889,367.01,763,760,0
1027899,361.65,763,763,0
1027909,357.04,763,759,0
1027919,353.99,763,762,0
1027929,351.81,763,759,0
1027939,351.09,763,763,0
1027949,351.15,763,760,0
1027959,352.39,763,763,0
1027969,354.03,763,759,0
1027979,356.72,763,763,0
1027989,359.42,763,760,0
1027999,362.59,763,763,0
1028009,365.50,763,760,0
1028019,368.57,763,763,0
1028029,371.10,763,760,0
1028039,373.64,763,763,0
1028049,375.42,763,760,0
1028059,377.22,763,763,0
1028069,378.23,763,760,0
1028079,379.02,763,763,0
1028089,379.14,763,760,0
1028099,379.18,763,763,0
1028109,378.53,763,760,0
1028119,377.77,763,763,0
1028129,376.60,763,760,0
1028140,376.03,763,766,0
1028150,376.79,763,754,0
1028160,380.16,763,766,0
1028170,387.65,763,758,0
1028180,401.30,763,764,0
1028190,421.91,763,755,0
1028200,450.69,763,766,0
1028219,486.79,773,763,0
1028222,526.96,773,763,0
1028231,568.50,773,763,0
1028241,608.64,773,762,0
1028251,644.92,773,763,0
1028261,675.63,773,764,0
1028271,699.18,773,763,0
1028281,715.67,773,763,0
1028291,726.44,773,764,0
1028301,730.42,773,764,0
1028311,727.25,773,763,0
1028321,716.29,773,762,0
1028331,697.78,773,763,0
1028341,671.70,773,764,0
1028352,639.30,773,765,0
1028361,602.01,773,762,0
1028371,563.31,773,763,0
1028381,524.94,773,764,0
1028391,489.39,773,765,0
1028401,457.30,773,762,0
1028411,430.13,773,763,0
1028421,406.94,773,764,0
1028431,388.40,773,765,0
1028441,373.71,773,762,0
1028451,363.30,773,764,0
1028461,356.31,773,764,0
1028471,353.39,773,765,0
1028481,353.49,773,762,0
1028491,356.68,773,764,0
1028501,361.58,773,764,0
1028511,368.43,773,765,0
1028521,376.06,773,762,0
1028531,384.19,773,764,0
1028541,391.33,773,763,0
1028551,397.62,773,765,0
1028561,402.15,773,762,0
1028571,405.36,773,764,0
1028581,406.37,773,763,0
1028591,405.91,773,765,0
1028601,403.32,773,762,0
1028611,399.67,773,764,0
1028621,394.54,773,763,0
1028631,388.94,773,765,0
1028641,382.35,773,762,0
1028652,376.12,773,767,0
1028662,369.57,773,761,0
1028672,364.17,773,767,0
1028682,358.98,773,761,0
1028692,355.08,773,766,0
1028702,351.93,773,762,0
1028712,350.32,773,767,0
1028722,349.07,773,761,0
1028732,349.35,773,766,0
1028742,349.89,773,761,0
1028752,351.85,773,767,0
1028762,353.65,773,761,0
1028772,356.41,773,766,0
1028782,358.82,773,762,0
1028792,362.00,773,767,0
1028802,364.27,773,761,0
1028812,367.06,773,766,0
1028823,368.67,773,761,0
1028833,370.83,773,766,0
1028843,371.65,773,760,0
1028853,373.00,773,767,0
1028864,373.26,773,760,0
1028873,374.16,773,766,0
1028883,373.94,773,761,0
1028893,374.26,773,767,0
1028903,373.41,773,760,0
1028913,373.29,773,767,0
1028923,372.09,773,761,0
1028933,371.50,773,767,0
1028943,370.02,773,761,0
1028953,369.25,773,766,0
1028963,367.80,773,761,0
1028973,367.00,773,766,0
1028983,365.42,773,761,0
1028993,364.95,773,766,0
1029003,364.79,773,761,0
1029013,367.73,773,767,0
1029023,373.64,773,760,0
1029033,385.70,773,766,0
1029043,404.01,773,761,0
1029062,431.22,843,760,0
1029065,466.38,843,761,0
1029074,507.20,843,765,0
1029084,549.74,843,760,0
1029094,592.16,843,766,0
1029104,630.98,843,760,0
1029114,664.93,843,765,0
1029124,691.52,843,760,0
1029134,710.35,843,766,0
1029144,723.53,843,760,0
1029154,731.13,843,765,0
1029164,731.78,843,760,0
1029174,725.11,843,766,0
1029184,709.95,843,760,0
1029194,687.04,843,765,0
1029204,656.30,843,759,0
1029214,619.39,843,766,0
1029224,578.00,843,760,0
1029234,536.26,843,765,0
1029244,495.55,843,760,0
1029254,459.34,843,766,0
1029264,427.18,843,760,0
1029274,400.90,843,765,0
1029284,379.07,843,760,0
1029294,363.19,843,765,0
1029304,351.61,843,760,0
1029314,345.34,843,765,0
1029324,342.49,843,759,0
1029335,344.06,843,764,0
1029345,348.16,843,759,0
1029355,355.27,843,764,0
1029365,363.37,843,760,0
1029376,372.86,843,763,0
1029385,381.82,843,760,0
1029395,390.74,843,764,0
1029405,397.76,843,760,0
1029415,403.58,843,763,0
1029425,406.88,843,760,0
1029435,408.63,843,764,0
1029445,407.67,843,760,0
1029455,405.28,843,763,0
1029465,400.53,843,759,0
1029475,395.05,843,764,0
1029485,387.97,843,759,0
1029495,380.90,843,763,0
1029505,373.05,843,759,0
1029515,366.26,843,764,0
1029525,359.50,843,760,0
1029535,354.25,843,763,0
1029545,349.46,843,760,0
1029555,346.45,843,764,0
1029565,343.96,843,760,0
1029575,343.11,843,763,0
1029585,342.48,843,759,0
1029595,343.32,843,764,0
1029605,344.12,843,759,0
1029615,345.89,843,763,0
1029625,347.34,843,760,0
1029635,349.63,843,764,0
1029645,351.46,843,760,0
1029655,353.89,843,763,0
1029665,355.60,843,760,0
1029676,357.86,843,763,0
1029686,359.45,843,759,0
1029696,361.41,843,763,0
1029706,362.53,843,759,0
1029716,364.04,843,763,0
1029726,364.59,843,760,0
1029736,365.31,843,763,0
1029746,365.22,843,759,0
1029756,365.28,843,763,0
1029766,364.77,843,760,0
1029776,364.24,843,763,0
1029786,362.84,843,759,0
1029796,361.69,843,763,0
1029806,359.98,843,760,0
1029816,358.87,843,763,0
1029826,358.35,843,759,0
1029836,360.00,843,763,0
1029847,364.89,843,760,0
1029857,374.91,843,762,0
1029867,391.14,843,760,0
1029886,415.27,824,757,0
1029890,447.67,824,767,0
1029899,486.81,824,762,0
1029909,529.13,824,764,0
1029919,571.99,824,764,0
1029929,612.75,824,766,0
1029939,649.17,824,762,0
1029949,679.33,824,764,0
1029959,700.79,824,764,0
1029969,712.77,824,765,0
1029979,715.37,824,762,0
1029989,708.66,824,764,0
1029999,692.60,824,764,0
1030009,667.95,824,765,0
1030019,635.48,824,762,0
1030029,597.15,824,763,0
1030039,555.23,824,763,0
1030049,513.12,824,765,0
1030060,472.58,824,763,0
1030070,436.02,824,767,0
1030080,403.92,824,761,0
1030090,377.37,824,767,0
1030100,356.09,824,761,0
1030110,341.19,824,767,0
1030120,331.28,824,761,0
1030130,327.29,824,767,0
1030140,327.55,824,761,0
1030150,332.61,824,767,0
1030160,340.61,824,761,0
1030170,351.79,824,767,0
1030180,363.89,824,761,0
1030190,377.43,824,767,0
1030200,390.24,824,762,0
1030210,402.77,824,767,0
1030220,413.04,824,761,0
1030231,421.51,824,766,0
1030241,426.59,824,761,0
1030251,429.28,824,766,0
1030261,428.25,824,761,0
1030272,424.92,824,766,0
1030281,418.56,824,761,0
1030291,410.76,824,766,0
1030301,400.93,824,761,0
1030311,391.10,824,767,0
1030321,380.61,824,761,0
1030331,371.38,824,767,0
1030341,362.35,824,761,0
1030351,355.22,824,767,0
1030361,348.81,824,761,0
1030371,344.75,824,766,0
1030381,341.36,824,761,0
1030391,340.18,824,767,0
1030401,339.48,824,761,0
1030411,340.71,824,766,0
1030421,342.12,824,761,0
1030431,345.00,824,766,0
1030441,347.70,824,761,0
1030451,351.61,824,766,0
1030461,354.98,824,761,0
1030471,359.02,824,766,0
1030481,362.14,824,761,0
1030491,365.53,824,766,0
1030501,367.64,824,761,0
1030511,369.89,824,766,0
1030521,370.69,824,761,0
1030531,371.73,824,766,0
1030541,371.60,824,761,0
1030551,371.76,824,766,0
1030561,370.80,824,761,0
1030572,370.56,824,766,0
1030582,370.01,824,760,0
1030592,371.85,824,766,0
1030602,375.41,824,760,0
1030612,384.03,824,765,0
1030622,397.26,824,760,0
1030632,418.18,824,766,0
1030642,445.64,824,760,0
1030652,480.76,824,766,0
1030671,519.96,785,765,0
1030674,561.12,785,765,0
1030683,600.64,785,760,0
1030693,637.35,785,765,0
1030703,668.44,785,760,0
1030713,692.22,785,765,0
1030723,705.19,785,760,0
1030733,708.04,785,764,0
1030743,701.00,785,760,0
1030753,685.19,785,764,0
1030763,660.40,785,760,0
1030773,628.18,785,764,0
1030784,590.16,785,760,0
1030793,550.34,785,765,0
1030803,509.69,785,760,0
1030813,471.17,785,764,0
1030823,435.08,785,760,0
1030833,403.98,785,765,0
1030843,377.20,785,760,0
1030853,356.48,785,764,0
1030863,340.65,785,760,0
1030873,331.07,785,765,0
1030883,326.29,785,760,0
1030893,327.19,785,764,0
1030903,331.89,785,760,0
1030913,340.88,785,765,0
1030923,352.02,785,760,0
1030933,365.55,785,764,0
1030943,379.36,785,760,0
1030953,393.65,785,764,0
1030963,406.40,785,760,0
1030973,418.02,785,764,0
1030983,426.76,785,760,0
1030993,433.43,785,764,0
1031003,436.56,785,760,0
1031013,437.38,785,764,0
1031023,434.78,785,760,0
1031033,430.09,785,764,0
1031043,422.60,785,759,0
1031053,414.15,785,765,0
1031063,403.95,785,760,0
1031073,393.89,785,764,0
1031084,383.34,785,760,0
1031094,374.02,785,764,0
1031104,365.44,785,760,0
1031114,358.84,785,763,0
1031124,353.40,785,759,0
1031134,350.24,785,764,0
1031144,348.11,785,760,0
1031154,347.82,785,763,0
1031164,348.43,785,759,0
1031174,350.44,785,764,0
1031184,352.75,785,760,0
1031194,355.96,785,763,0
1031204,359.01,785,759,0
1031214,362.78,785,764,0
1031224,366.06,785,760,0
1031234,369.56,785,763,0
1031244,372.26,785,759,0
1031255,375.01,785,763,0
1031265,376.85,785,760,0
1031275,378.70,785,763,0
1031285,379.47,785,760,0
1031296,380.27,785,764,0
1031305,380.06,785,760,0
1031315,379.83,785,763,0
1031325,379.15,785,760,0
1031335,379.15,785,764,0
1031345,379.92,785,760,0
1031355,383.59,785,763,0
1031365,391.00,785,760,0
1031375,404.58,785,764,0
1031385,424.72,785,760,0
1031395,452.83,785,763,0
1031405,488.07,785,760,0
1031425,527.69,753,759,0
1031428,568.63,753,765,0
1031437,608.42,753,763,0
1031447,644.30,753,764,0
1031457,674.98,753,764,0
1031468,698.77,753,764,0
1031478,714.74,753,763,0
1031488,723.13,753,767,0
1031498,722.96,753,762,0
1031508,714.70,753,767,0
1031518,698.04,753,763,0
1031528,673.68,753,767,0
1031538,641.68,753,762,0
1031548,604.27,753,767,0
1031558,563.69,753,763,0
1031568,523.54,753,767,0
1031578,484.98,753,762,0
1031588,450.44,753,767,0
1031598,420.22,753,763,0
1031608,395.73,753,767,0
1031618,375.92,753,762,0
1031628,361.89,753,768,0
1031639,352.58,753,761,0
1031649,348.72,753,766,0
1031659,348.63,753,761,0
1031669,352.77,753,766,0
1031680,359.57,753,761,0
1031689,369.38,753,766,0
1031699,380.07,753,761,0
1031709,391.96,753,766,0
1031719,402.86,753,761,0
1031729,413.53,753,766,0
1031739,421.90,753,761,0
1031749,428.70,753,766,0
1031759,432.35,753,761,0
1031769,434.17,753,766,0
1031779,432.71,753,761,0
1031789,429.58,753,766,0
1031799,423.58,753,761,0
1031809,416.68,753,767,0
1031819,407.99,753,761,0
1031829,399.51,753,766,0
1031839,390.05,753,761,0
1031849,381.64,753,766,0
1031859,373.35,753,761,0
1031869,366.90,753,767,0
1031879,360.93,753,761,0
1031889,356.92,753,766,0
1031899,353.47,753,761,0
1031909,352.13,753,767,0
1031919,351.28,753,761,0
1031929,352.14,753,766,0
1031939,353.17,753,761,0
1031949,355.69,753,767,0
1031959,358.10,753,761,0
1031969,361.54,753,767,0
1031980,364.59,753,761,0
1031990,368.23,753,766,0
1032000,370.73,753,760,0
1032010,373.51,753,766,0
1032020,375.07,753,760,0
1032030,376.89,753,766,0
1032040,377.70,753,760,0
1032050,378.52,753,766,0
1032060,378.58,753,760,0
1032070,379.09,753,766,0
1032080,378.55,753,760,0
1032090,378.55,753,766,0
1032100,378.00,753,760,0
1032110,379.20,753,766,0
1032120,381.80,753,760,0
1032130,388.67,753,766,0
1032140,400.26,753,760,0
1032151,419.64,753,765,0
1032161,446.19,753,760,0
1032171,481.06,753,765,0
1032190,520.13,766,764,0
1032194,561.58,766,765,0
1032203,601.77,766,760,0
1032213,639.08,766,763,0
1032223,670.60,766,760,0
1032233,695.66,766,763,0
1032243,713.21,766,760,0
1032253,725.49,766,763,0
1032263,731.30,766,759,0
1032273,730.35,766,763,0
1032283,721.85,766,760,0
1032293,706.08,766,763,0
1032303,682.57,766,759,0
1032313,652.44,766,763,0
1032323,616.22,766,760,0
1032333,577.71,766,763,0
1032343,538.71,766,759,0
1032353,501.86,766,763,0
1032364,467.96,766,760,0
1032374,438.83,766,763,0
1032384,414.11,766,760,0
1032394,394.28,766,764,0
1032404,378.94,766,757,0
1032414,368.45,766,763,0
1032424,362.19,766,760,0
1032434,360.03,766,764,0
1032444,361.22,766,757,0
1032454,365.53,766,763,0
1032464,371.80,766,760,0
1032474,379.74,766,763,0
1032484,388.31,766,758,0
1032494,397.09,766,763,0
1032504,405.07,766,760,0
1032514,412.08,766,763,0
1032524,417.29,766,758,0
1032535,420.76,766,766,0
1032545,421.94,766,754,0
1032555,421.15,766,765,0
1032565,418.10,766,762,0
1032576,413.36,766,763,0
1032585,406.91,766,754,0
1032595,399.44,766,765,0
1032605,391.59,766,762,0
1032615,383.53,766,763,0
1032625,375.70,766,754,0
1032635,368.59,766,765,0
1032645,362.67,766,762,0
1032655,357.93,766,763,0
1032665,354.56,766,753,0
1032675,352.34,766,765,0
1032685,351.42,766,761,0
1032695,351.59,766,763,0
1032705,352.66,766,753,0
1032715,354.48,766,765,0
1032725,356.86,766,761,0
1032735,359.39,766,763,0
1032745,362.06,766,764,0
1032755,364.91,766,765,0
1032765,367.77,766,761,0
1032775,370.37,766,763,0
1032785,372.48,766,764,0
1032795,374.27,766,765,0
1032805,375.99,766,761,0
1032815,377.19,766,763,0
1032825,377.99,766,764,0
1032835,378.25,766,765,0
1032845,378.30,766,761,0
1032855,378.00,766,763,0
1032865,377.40,766,764,0
1032876,376.42,766,764,0
1032886,375.78,766,764,0
1032896,375.63,766,763,0
1032906,377.76,766,767,0
1032916,383.06,766,762,0
1032926,393.41,766,764,0
1032936,410.26,766,764,0
1032946,435.30,766,767,0
1032966,468.34,775,767,0
1032969,507.24,775,767,0
1032978,548.48,775,762,0
1032988,589.82,775,767,0
1032998,628.53,775,761,0
1033008,662.53,775,767,0
1033018,689.54,775,761,0
1033028,709.09,775,767,0
1033038,722.78,775,761,0
1033048,730.82,775,767,0
1033058,731.56,775,761,0
1033068,725.00,775,767,0
1033078,710.26,775,761,0
1033089,688.20,775,767,0
1033099,658.69,775,760,0
1033109,623.43,775,766,0
1033119,583.79,775,760,0
1033129,544.46,775,766,0
1033139,506.53,775,761,0
1033149,472.64,775,766,0
1033159,442.28,775,760,0
1033169,417.34,775,766,0
1033179,396.28,775,761,0
1033189,380.89,775,766,0
1033199,369.14,775,760,0
1033209,362.03,775,766,0
1033219,357.90,775,760,0
1033229,358.02,775,766,0
1033239,360.37,775,760,0
1033249,365.70,775,766,0
1033260,371.92,775,760,0
1033270,379.79,775,765,0
1033280,387.35,775,759,0
1033290,395.47,775,765,0
1033300,402.10,775,760,0
1033310,408.03,775,765,0
1033320,411.62,775,759,0
1033330,413.96,775,765,0
1033340,413.76,775,759,0
1033350,412.33,775,765,0
1033360,408.55,775,759,0
1033370,404.01,775,765,0
1033380,397.75,775,759,0
1033390,391.74,775,765,0
1033400,384.75,775,759,0
1033410,378.44,775,765,0
1033420,371.75,775,759,0
1033431,366.30,775,764,0
1033441,361.06,775,760,0
1033451,357.44,775,764,0
1033461,354.05,775,760,0
1033472,352.32,775,764,0
1033481,351.03,775,759,0
1033491,351.36,775,764,0
1033501,352.02,775,760,0
1033511,353.90,775,763,0
1033521,355.90,775,760,0
1033531,358.68,775,764,0
1033541,361.09,775,760,0
1033551,363.89,775,764,0
1033561,366.02,775,759,0
1033571,368.37,775,764,0
1033581,369.76,775,760,0
1033591,371.12,775,764,0
1033601,371.51,775,759,0
1033611,372.22,775,764,0
1033621,372.06,775,760,0
1033631,372.05,775,764,0
1033641,371.30,775,760,0
1033651,371.04,775,764,0
1033661,370.13,775,760,0
1033671,369.75,775,764,0
1033681,368.88,775,760,0
1033691,368.57,775,764,0
1033701,367.76,775,760,0
1033711,367.36,775,764,0
1033721,366.48,775,760,0
1033731,366.12,775,764,0
1033741,365.53,775,760,0
1033751,366.10,775,764,0
1033761,368.04,775,759,0
1033772,373.81,775,764,0
1033782,384.28,775,760,0
1033792,402.03,775,763,0
1033811,427.60,846,762,0
1033815,462.31,846,766,0
1033823,502.33,846,759,0
1033833,545.30,846,766,0
1033843,587.90,846,753,0
1033853,627.91,846,766,0
1033863,662.48,846,760,0
1033873,690.15,846,766,0
1033883,709.52,846,753,0
1033893,723.08,846,766,0
1033903,731.76,846,760,0
1033913,734.53,846,766,0
1033923,730.00,846,753,0
1033933,717.57,846,766,0
1033943,697.21,846,760,0
1033953,669.34,846,766,0
1033963,634.61,846,753,0
1033973,594.61,846,766,0
1033984,552.56,846,761,0
1033993,511.59,846,766,0
1034003,473.61,846,754,0
1034013,439.96,846,766,0
1034023,411.38,846,760,0
1034033,388.13,846,766,0
1034043,370.13,846,754,0
1034053,357.36,846,766,0
1034063,349.50,846,760,0
1034073,346.26,846,766,0
1034083,346.96,846,754,0
1034093,351.08,846,766,0
1034103,357.83,846,759,0
1034113,366.62,846,765,0
1034123,376.47,846,754,0
1034133,386.44,846,766,0
1034143,395.86,846,759,0
1034153,404.13,846,764,0
1034163,410.57,846,754,0
1034173,414.94,846,766,0
1034183,417.01,846,759,0
1034193,416.71,846,764,0
1034203,414.27,846,755,0
1034213,409.99,846,766,0
1034223,404.16,846,759,0
1034233,397.26,846,764,0
1034243,389.68,846,755,0
1034253,381.98,846,766,0
1034263,374.57,846,758,0
1034273,367.76,846,765,0
1034284,361.70,846,764,0
1034294,356.60,846,763,0
1034304,352.82,846,765,0
1034314,350.22,846,765,0
1034324,349.00,846,766,0
1034334,348.78,846,763,0
1034344,349.71,846,765,0
1034354,351.29,846,765,0
1034364,353.91,846,766,0
1034374,356.68,846,763,0
1034384,359.99,846,765,0
1034394,362.86,846,765,0
1034404,365.99,846,766,0
1034414,368.61,846,763,0
1034424,371.21,846,765,0
1034434,373.08,846,765,0
1034444,374.98,846,765,0
1034455,376.10,846,763,0
1034465,377.23,846,768,0
1034475,377.37,846,762,0
1034485,377.52,846,768,0
1034496,376.93,846,761,0
1034505,376.57,846,768,0
1034515,375.46,846,762,0
1034525,374.63,846,768,0
1034535,373.03,846,761,0
1034545,371.86,846,768,0
1034555,370.06,846,762,0
1034565,369.01,846,768,0
1034575,367.60,846,761,0
1034585,367.63,846,768,0
1034595,368.98,846,762,0
1034605,374.52,846,768,0
1034615,384.26,846,761,0
1034625,400.94,846,768,0
1034635,424.36,846,762,0
1034654,456.31,843,760,0
1034657,494.36,843,761,0
1034667,535.99,843,767,0
1034676,577.57,843,762,0
1034686,617.38,843,767,0
1034696,652.50,843,761,0
1034706,681.79,843,767,0
1034716,703.58,843,762,0
1034726,718.02,843,767,0
1034736,724.23,843,761,0
1034746,722.23,843,767,0
1034756,711.32,843,762,0
1034766,692.07,843,767,0
1034776,664.10,843,761,0
1034786,628.89,843,767,0
1034796,587.69,843,762,0
1034806,544.67,843,767,0
1034816,501.27,843,761,0
1034826,460.95,843,767,0
1034836,424.06,843,761,0
1034846,393.19,843,767,0
1034856,367.37,843,761,0
1034866,347.98,843,767,0
1034876,333.88,843,761,0
1034886,326.63,843,767,0
1034896,324.04,843,761,0
1034906,326.90,843,767,0
1034916,332.89,843,761,0
1034926,342.65,843,767,0
1034936,353.81,843,761,0
1034946,366.81,843,767,0
1034956,379.21,843,761,0
1034967,391.49,843,767,0
1034977,401.67,843,760,0
1034987,410.38,843,767,0
1034997,415.84,843,760,0
1035008,419.23,843,766,0
1035017,418.99,843,760,0
1035027,416.72,843,767,0
1035037,411.32,843,760,0
1035047,404.75,843,766,0
1035057,396.17,843,760,0
1035067,387.38,843,767,0
1035077,377.49,843,760,0
1035087,368.60,843,766,0
1035097,359.64,843,760,0
1035107,352.50,843,767,0
1035117,345.79,843,760,0
1035127,341.10,843,766,0
1035137,337.30,843,760,0
1035147,335.71,843,767,0
1035157,334.85,843,760,0
1035167,335.75,843,766,0
1035177,337.03,843,760,0
1035187,339.76,843,767,0
1035197,342.45,843,760,0
1035207,346.26,843,766,0
1035217,349.44,843,760,0
1035227,353.25,843,767,0
1035237,356.17,843,760,0
1035247,359.46,843,766,0
1035257,361.64,843,760,0
1035267,364.15,843,767,0
1035277,365.35,843,760,0
1035287,366.79,843,766,0
1035297,366.85,843,760,0
1035308,367.11,843,766,0
1035318,366.18,843,759,0
1035328,365.52,843,765,0
1035338,363.91,843,759,0
1035348,362.74,843,764,0
1035358,360.97,843,759,0
1035368,360.12,843,765,0
1035378,359.62,843,759,0
1035388,361.57,843,764,0
1035398,365.99,843,759,0
1035408,375.42,843,765,0
1035418,389.99,843,759,0
1035428,412.11,843,764,0
1035447,440.83,793,764,0
1035450,477.10,793,765,0
1035459,517.40,793,760,0
1035469,559.41,793,764,0
1035479,599.78,793,760,0
1035489,637.01,793,764,0
1035499,668.42,793,760,0
1035509,693.06,793,763,0
1035520,707.19,793,760,0
1035529,711.85,793,764,0
1035539,706.71,793,760,0
1035549,692.87,793,763,0
1035559,669.76,793,760,0
1035569,638.93,793,764,0
1035579,601.37,793,760,0
1035589,560.84,793,763,0
1035599,518.59,793,760,0
1035609,478.00,793,764,0
1035619,439.56,793,760,0
1035629,406.05,793,763,0
1035639,377.19,793,760,0
1035649,354.42,793,764,0
1035659,337.11,793,760,0
1035669,326.23,793,763,0
1035679,320.55,793,760,0
1035689,320.68,793,764,0
1035699,324.98,793,760,0
1035709,333.64,793,764,0
1035719,344.81,793,760,0
1035729,358.45,793,764,0
1035739,372.50,793,760,0
1035749,386.92,793,764,0
1035759,400.06,793,760,0
1035769,411.87,793,764,0
1035779,420.82,793,760,0
1035789,427.48,793,764,0
1035799,430.55,793,760,0
1035809,430.98,793,764,0
1035820,428.16,793,760,0
1035830,423.01,793,763,0
1035840,415.59,793,760,0
1035850,406.89,793,763,0
1035860,396.89,793,761,0
1035870,386.98,793,763,0
1035880,377.00,793,760,0
1035890,368.09,793,763,0
1035900,360.05,793,761,0
1035910,353.60,793,763,0
1035920,348.49,793,760,0
1035930,345.22,793,763,0
1035940,343.27,793,761,0
1035950,343.06,793,763,0
1035960,343.85,793,760,0
1035970,345.83,793,763,0
1035980,348.45,793,761,0
1035991,351.70,793,765,0
1036001,354.96,793,755,0
1036011,358.27,793,766,0
1036021,361.23,793,758,0
1036032,363.95,793,765,0
1036041,366.41,793,755,0
1036051,368.51,793,766,0
1036061,370.29,793,758,0
1036071,371.70,793,764,0
1036081,372.86,793,756,0
1036091,373.98,793,767,0
1036101,374.80,793,757,0
1036111,375.12,793,765,0
1036121,374.87,793,756,0
1036131,374.31,793,767,0
1036141,374.00,793,756,0
1036151,374.47,793,765,0
1036161,376.43,793,757,0
1036171,381.57,793,767,0
1036181,391.39,793,756,0
1036191,407.64,793,765,0
1036201,431.36,793,763,0
1036211,462.45,793,767,0
1036230,499.78,783,765,0
1036233,540.30,783,763,0
1036242,581.22,783,765,0
1036252,620.07,783,764,0
1036262,654.55,783,766,0
1036272,682.84,783,765,0
1036282,704.40,783,764,0
1036292,718.51,783,764,0
1036302,725.00,783,766,0
1036312,723.29,783,765,0
1036322,713.39,783,764,0
1036332,695.27,783,764,0
1036342,669.26,783,766,0
1036352,635.80,783,765,0
1036362,596.86,783,764,0
1036372,554.99,783,764,0
1036382,513.29,783,766,0
1036392,473.39,783,764,0
1036402,437.27,783,764,0
1036412,405.78,783,765,0
1036422,380.00,783,766,0
1036432,359.90,783,764,0
1036442,346.30,783,764,0
1036452,338.41,783,765,0
1036462,336.32,783,766,0
1036472,338.92,783,764,0
1036482,346.15,783,764,0
1036492,356.43,783,765,0
1036503,369.37,783,767,0
1036513,383.15,783,762,0
1036523,397.63,783,768,0
1036533,410.98,783,761,0
1036544,423.46,783,767,0
1036553,433.31,783,763,0
1036563,440.80,783,768,0
1036573,444.76,783,762,0
1036583,446.08,783,768,0
1036593,443.91,783,763,0
1036603,439.61,783,768,0
1036613,432.14,783,761,0
1036623,423.44,783,768,0
1036633,413.32,783,763,0
1036643,403.24,783,768,0
1036653,392.75,783,761,0
1036663,383.27,783,768,0
1036673,374.36,783,763,0
1036683,367.52,783,768,0
1036693,361.67,783,762,0
1036703,357.95,783,768,0
1036713,355.27,783,762,0
1036723,355.10,783,768,0
1036733,355.50,783,761,0
1036743,357.54,783,768,0
1036753,359.73,783,762,0
1036763,363.07,783,768,0
1036773,366.18,783,762,0
1036783,369.94,783,768,0
1036793,372.66,783,762,0
1036803,376.06,783,768,0
1036813,378.66,783,762,0
1036823,381.67,783,768,0
1036833,383.70,783,762,0
1036844,385.80,783,767,0
1036854,386.76,783,762,0
1036864,387.82,783,767,0
1036874,387.70,783,761,0
1036884,388.09,783,767,0
1036894,387.76,783,762,0
1036904,389.16,783,767,0
1036914,391.81,783,761,0
1036924,398.94,783,767,0
1036934,410.40,783,762,0
1036944,429.22,783,768,0
1036954,454.83,783,761,0
1036964,488.57,783,767,0
1036983,526.45,753,766,0
1036986,566.65,753,767,0
1036995,605.62,753,761,0
1037005,641.99,753,766,0
1037015,672.85,753,761,0
1037025,697.41,753,767,0
1037035,714.64,753,761,0
1037045,726.71,753,767,0
1037056,732.45,753,760,0
1037065,731.85,753,767,0
1037075,723.45,753,760,0
1037085,707.67,753,766,0
1037095,683.86,753,760,0
1037105,653.60,753,767,0
1037115,616.61,753,760,0
1037125,577.12,753,766,0
1037135,536.29,753,760,0
1037145,497.97,753,767,0
1037155,462.49,753,761,0
1037165,432.26,753,767,0
1037175,406.13,753,760,0
1037185,385.99,753,767,0
1037195,370.73,753,761,0
1037205,361.51,753,766,0
1037215,356.52,753,760,0
1037225,356.66,753,766,0
1037235,360.19,753,761,0
1037245,367.59,753,766,0
1037255,376.71,753,760,0
1037265,387.60,753,766,0
1037275,398.35,753,760,0
1037285,409.47,753,766,0
1037295,418.67,753,759,0
1037305,426.61,753,766,0
1037315,431.66,753,760,0
1037325,434.89,753,766,0
1037335,435.09,753,759,0
1037345,433.44,753,766,0
1037356,428.89,753,760,0
1037366,423.27,753,765,0
1037376,415.73,753,759,0
1037386,408.01,753,765,0
1037396,399.18,753,760,0
1037406,391.03,753,765,0
1037416,382.87,753,759,0
1037426,376.18,753,765,0
1037436,370.17,753,760,0
1037446,366.01,753,765,0
1037456,362.70,753,759,0
1037466,361.42,753,765,0
1037476,360.95,753,760,0
1037486,362.08,753,766,0
1037496,363.43,753,759,0
1037506,365.96,753,765,0
1037516,368.41,753,760,0
1037527,371.63,753,765,0
1037537,374.36,753,760,0
1037547,377.38,753,764,0
1037557,379.71,753,760,0
1037568,382.37,753,764,0
1037577,384.06,753,760,0
1037587,385.97,753,764,0
1037597,386.75,753,760,0
1037607,387.64,753,764,0
1037617,387.40,753,760,0
1037627,387.15,753,764,0
1037637,386.25,753,760,0
1037647,386.13,753,764,0
1037657,386.52,753,760,0
1037667,389.92,753,764,0
1037677,396.85,753,760,0
1037687,410.22,753,764,0
1037697,430.04,753,760,0
1037707,458.23,753,764,0
1037717,493.30,753,760,0
1037736,532.77,753,759,0
1037740,573.30,753,757,0
1037748,612.72,753,764,0
1037758,648.08,753,760,0
1037768,678.27,753,764,0
1037778,701.20,753,761,0
1037788,717.30,753,764,0
1037798,727.32,753,760,0
1037808,731.00,753,764,0
1037818,727.14,753,761,0
1037828,715.96,753,764,0
1037838,697.03,753,760,0
1037848,670.92,753,763,0
1037858,638.16,753,761,0
1037868,601.12,753,764,0
1037878,562.13,753,760,0
1037888,524.46,753,763,0
1037898,489.18,753,761,0
1037908,458.01,753,763,0
1037918,431.35,753,760,0
1037928,409.90,753,764,0
1037938,392.83,753,761,0
1037948,380.45,753,763,0
1037958,371.92,753,760,0
1037968,367.61,753,763,0
1037978,366.57,753,761,0
1037988,368.84,753,763,0
1037998,373.05,753,760,0
1038008,379.42,753,764,0
1038018,386.88,753,761,0
1038028,395.19,753,763,0
1038039,403.02,753,761,0
1038049,410.51,753,766,0
1038059,416.49,753,755,0
1038069,420.97,753,766,0
1038080,423.34,753,760,0
1038089,423.79,753,766,0
1038099,422.10,753,755,0
1038109,418.51,753,766,0
1038119,413.13,753,760,0
1038129,406.62,753,766,0
1038139,399.40,753,755,0
1038149,391.87,753,766,0
1038159,384.58,753,759,0
1038169,377.76,753,766,0
1038179,371.62,753,755,0
1038189,366.55,753,766,0
1038199,362.53,753,759,0
1038209,359.80,753,766,0
1038219,358.19,753,756,0
1038229,357.36,753,766,0
1038239,357.55,753,758,0
1038249,358.76,753,764,0
1038259,360.59,753,756,0
1038269,362.85,753,766,0
1038279,365.21,753,758,0
1038289,367.72,753,764,0
1038299,370.29,753,756,0
1038309,372.69,753,766,0
1038319,374.84,753,758,0
1038329,376.52,753,764,0
1038339,377.90,753,756,0
1038349,378.96,753,766,0
1038359,379.62,753,757,0
1038369,379.86,753,765,0
1038380,379.73,753,764,0
1038390,379.25,753,763,0
1038400,378.66,753,765,0
1038410,377.91,753,764,0
1038420,377.08,753,766,0
1038430,375.90,753,763,0
1038440,374.64,753,765,0
1038450,373.42,753,764,0
1038460,372.99,753,766,0
1038470,373.85,753,763,0
1038480,377.45,753,765,0
1038490,385.08,753,764,0
1038500,399.20,753,765,0
1038510,420.22,753,763,0
1038529,449.26,793,762,0
1038532,485.39,793,764,0
1038541,525.86,793,768,0
1038551,567.52,793,763,0
1038561,607.95,793,768,0
1038571,644.22,793,762,0
1038581,675.05,793,768,0
1038592,698.87,793,761,0
1038601,715.66,793,768,0
1038611,724.72,793,763,0
1038621,726.18,793,768,0
1038631,719.05,793,762,0
1038641,704.25,793,768,0
1038651,681.42,793,762,0
1038661,651.76,793,768,0
1038671,615.45,793,761,0
1038681,576.79,793,768,0
1038691,537.51,793,763,0
1038701,500.97,793,768,0
1038711,466.99,793,762,0
1038721,437.85,793,768,0
1038731,412.87,793,763,0
1038741,393.32,793,768,0
1038751,377.75,793,762,0
1038761,367.11,793,767,0
1038771,359.97,793,764,0
1038781,357.28,793,768,0
1038791,357.36,793,762,0
1038801,360.94,793,768,0
1038811,366.14,793,763,0
1038821,373.56,793,768,0
1038831,381.40,793,761,0
1038841,390.15,793,767,0
1038851,398.12,793,763,0
1038861,405.89,793,768,0
1038871,411.75,793,762,0
1038881,416.37,793,767,0
1038892,418.36,793,762,0
1038902,418.76,793,767,0
1038912,416.26,793,761,0
1038922,412.33,793,767,0
1038932,406.10,793,761,0
1038942,399.30,793,767,0
1038952,391.24,793,761,0
1038962,383.80,793,767,0
1038972,376.01,793,761,0
1038982,369.80,793,767,0
1038992,363.90,793,762,0
1039002,359.99,793,767,0
1039012,356.43,793,761,0
1039022,354.97,793,767,0
1039032,353.91,793,761,0
1039042,354.41,793,767,0
1039052,355.10,793,761,0
1039063,357.08,793,767,0
1039073,358.77,793,761,0
1039083,361.50,793,766,0
1039093,363.53,793,760,0
1039104,366.12,793,766,0
1039113,367.97,793,761,0
1039123,370.33,793,766,0
1039133,371.99,793,760,0
1039143,374.05,793,766,0
1039153,375.24,793,761,0
1039163,376.62,793,766,0
1039173,376.91,793,760,0
1039183,377.58,793,766,0
1039193,376.98,793,761,0
1039203,376.64,793,766,0
1039213,375.12,793,760,0
1039223,373.97,793,767,0
1039233,372.09,793,761,0
1039243,371.21,793,766,0
1039253,370.46,793,761,0
1039263,372.16,793,766,0
1039273,375.97,793,760,0
1039283,384.64,793,767,0
1039293,398.29,793,761,0
1039303,419.42,793,767,0
1039323,447.19,793,765,0
1039326,482.36,793,766,0
1039335,521.60,793,760,0
1039345,562.65,793,764,0
1039355,602.40,793,760,0
1039365,639.05,793,765,0
1039375,670.11,793,760,0
1039385,693.52,793,765,0
1039395,706.00,793,760,0
1039405,708.57,793,765,0
1039415,701.16,793,760,0
1039425,684.83,793,765,0
1039435,659.81,793,760,0
1039446,627.55,793,764,0
1039455,590.19,793,760,0
1039465,551.39,793,764,0
1039475,512.23,793,760,0
1039485,475.77,793,764,0
1039495,442.41,793,760,0
1039505,414.09,793,765,0
1039515,390.19,793,760,0
1039525,371.66,793,764,0
1039535,357.71,793,760,0
1039545,349.01,793,765,0
1039555,344.38,793,760,0
1039565,344.39,793,764,0
1039575,347.49,793,760,0
1039585,354.03,793,764,0
1039595,362.29,793,760,0
1039605,372.40,793,764,0
1039616,382.70,793,760,0
1039625,393.42,793,765,0
1039635,402.68,793,760,0
1039645,410.79,793,764,0
1039655,416.38,793,760,0
1039665,420.34,793,764,0
1039675,421.35,793,760,0
1039685,420.39,793,764,0
1039695,416.46,793,760,0
1039705,411.35,793,765,0
1039715,404.30,793,760,0
1039725,396.67,793,764,0
1039735,388.02,793,760,0
1039745,379.62,793,765,0
1039755,371.16,793,760,0
1039765,364.00,793,764,0
1039775,357.23,793,759,0
1039785,352.23,793,764,0
1039795,348.05,793,760,0
1039805,345.46,793,764,0
1039815,343.65,793,759,0
1039825,343.50,793,764,0
1039835,343.82,793,760,0
1039845,345.50,793,764,0
1039855,347.15,793,759,0
1039865,349.59,793,764,0
1039875,351.69,793,760,0
1039885,354.39,793,764,0
1039895,356.50,793,760,0
1039905,358.97,793,764,0
1039916,360.65,793,760,0
1039926,362.55,793,764,0
1039936,363.97,793,760,0
1039946,365.52,793,763,0
1039956,366.48,793,761,0
1039966,367.41,793,764,0
1039976,367.54,793,760,0
1039986,367.64,793,763,0
1039996,367.02,793,761,0
1040006,366.37,793,764,0
1040016,365.10,793,760,0
1040026,363.79,793,763,0
1040036,362.14,793,761,0
1040046,361.07,793,764,0
1040056,360.49,793,760,0
1040066,362.23,793,764,0
1040076,367.00,793,761,0
1040087,377.03,793,763,0
1040097,393.05,793,759,0
1040116,416.61,794,755,0
1040119,448.01,794,769,0
1040129,486.45,794,764,0
1040139,528.27,794,764,0
1040149,570.75,794,764,0
1040159,611.07,794,767,0
1040169,647.30,794,762,0
1040179,676.57,794,764,0
1040189,695.56,794,764,0
1040199,703.36,794,767,0
1040209,700.38,794,762,0
1040219,687.92,794,764,0
1040229,666.22,794,764,0
1040239,636.67,794,767,0
1040249,600.60,794,762,0
1040259,561.63,794,764,0
1040269,521.58,794,764,0
1040279,483.48,794,767,0
1040289,447.81,794,763,0
1040300,416.79,794,768,0
1040310,389.86,794,762,0
1040320,368.64,794,768,0
1040330,352.12,794,762,0
1040340,341.33,794,767,0
1040350,334.97,794,762,0
1040360,333.99,794,768,0
1040370,336.82,794,762,0
1040380,344.08,794,767,0
1040390,353.87,794,762,0
1040400,366.34,794,768,0
1040410,379.22,794,761,0
1040420,392.87,794,767,0
1040430,405.17,794,761,0
1040440,416.39,794,768,0
1040450,424.80,794,761,0
1040460,431.07,794,767,0
1040471,433.79,794,761,0
1040481,434.16,794,767,0
1040491,431.07,794,761,0
1040501,426.03,794,767,0
1040512,418.18,794,761,0
1040521,409.47,794,767,0
1040531,399.13,794,761,0
1040541,389.28,794,767,0
1040551,379.08,794,761,0
1040561,370.48,794,767,0
1040571,362.41,794,761,0
1040581,356.46,794,767,0
1040591,351.48,794,761,0
1040601,348.89,794,767,0
1040611,347.04,794,761,0
1040621,347.20,794,767,0
1040631,347.74,794,761,0
1040641,349.87,794,767,0
1040651,352.18,794,761,0
1040661,355.51,794,767,0
1040671,358.36,794,761,0
1040681,361.94,794,767,0
1040691,364.87,794,761,0
1040701,368.38,794,767,0
1040711,370.84,794,761,0
1040721,373.54,794,767,0
1040731,375.22,794,761,0
1040741,377.26,794,767,0
1040751,378.17,794,761,0
1040761,379.32,794,767,0
1040771,379.22,794,761,0
1040781,379.33,794,767,0
1040791,378.37,794,760,0
1040801,377.70,794,767,0
1040812,376.16,794,761,0
1040822,375.90,794,766,0
1040832,376.62,794,760,0
1040842,380.97,794,766,0
