Time,PPG,IBI,GSR,GSR_Event
615817,412.37,803,751,0
615827,407.41,803,749,0
615837,400.82,803,751,0
615847,394.27,803,751,0
615857,386.35,803,751,0
615867,380.03,803,750,0
615877,372.95,803,750,0
615887,370.35,803,752,0
615897,372.90,803,751,0
615907,375.42,803,750,0
615917,377.73,803,751,0
615927,381.46,803,751,0
615937,382.61,803,750,0
615947,383.24,803,750,0
615957,381.37,803,751,0
615967,379.71,803,751,0
615977,377.40,803,750,0
615987,374.58,803,750,0
615997,369.95,803,750,0
616007,365.12,803,750,0
616017,360.07,803,748,0
616027,358.64,803,751,0
616037,358.74,803,751,0
616047,361.14,803,751,0
616057,363.79,803,750,0
616067,367.33,803,750,0
616077,372.67,803,751,0
616087,379.03,803,751,0
616097,382.66,803,751,0
616108,384.31,803,751,0
616118,384.86,803,750,0
616128,386.31,803,751,0
616138,388.41,803,749,0
616148,392.87,803,751,0
616158,400.88,803,750,0
616168,413.09,803,751,0
616178,431.02,803,750,0
616198,454.76,723,749,0
616201,485.43,723,751,0
616210,521.77,723,752,0
616220,559.64,723,751,0
616230,597.29,723,754,0
616240,632.60,723,751,0
616250,661.78,723,752,0
616260,682.42,723,750,0
616270,692.11,723,753,0
616280,691.56,723,750,0
616290,682.56,723,752,0
616300,665.85,723,750,0
616310,642.67,723,752,0
616321,615.25,723,750,0
616331,586.59,723,752,0
616341,557.31,723,750,0
616351,528.93,723,752,0
616361,501.87,723,750,0
616371,476.88,723,752,0
616381,453.99,723,750,0
616391,434.88,723,753,0
616401,419.27,723,751,0
616411,406.80,723,753,0
616421,395.89,723,750,0
616431,387.14,723,752,0
616441,380.93,723,750,0
616451,377.69,723,752,0
616461,376.11,723,750,0
616471,376.29,723,752,0
616481,378.56,723,749,0
616492,383.75,723,752,0
616502,391.03,723,750,0
616512,400.92,723,753,0
616522,411.61,723,751,0
616532,420.99,723,753,0
616542,426.99,723,750,0
616552,429.18,723,752,0
616562,428.14,723,749,0
616572,423.85,723,752,0
616582,415.71,723,750,0
616592,405.04,723,752,0
616602,393.97,723,749,0
616612,384.04,723,751,0
616622,376.01,723,750,0
616632,371.47,723,753,0
616642,369.87,723,751,0
616652,369.14,723,753,0
616663,368.15,723,750,0
616673,366.22,723,751,0
616683,365.34,723,751,0
616693,363.65,723,751,0
616704,360.46,723,750,0
616713,356.03,723,751,0
616723,352.64,723,750,0
616733,351.29,723,751,0
616743,354.63,723,752,0
616753,359.03,723,753,0
616763,364.76,723,751,0
616773,369.16,723,752,0
616783,372.80,723,750,0
616793,374.87,723,751,0
616803,376.28,723,750,0
616813,374.66,723,751,0
616823,372.36,723,750,0
616833,370.02,723,751,0
616843,371.73,723,751,0
616853,375.63,723,753,0
616863,381.14,723,752,0
616873,385.85,723,753,0
616883,389.20,723,751,0
616893,389.70,723,751,0
616903,388.67,723,750,0
616913,383.71,723,751,0
616923,377.20,723,750,0
616933,370.33,723,751,0
616943,364.53,723,750,0
616953,360.81,723,751,0
616963,360.53,723,750,0
616973,365.38,723,753,0
616983,376.50,723,752,0
616993,391.90,723,752,0
617004,411.86,723,750,0
617023,436.85,826,751,0
617026,470.54,826,753,0
617035,509.55,826,752,0
617046,549.37,826,752,0
617055,587.31,826,751,0
617065,623.43,826,751,0
617075,656.26,826,750,0
617085,684.85,826,752,0
617095,703.84,826,750,0
617105,715.20,826,751,0
617115,719.13,826,750,0
617125,718.23,826,753,0
617135,712.03,826,752,0
617145,699.64,826,752,0
617155,679.73,826,751,0
617165,653.93,826,751,0
617175,623.35,826,750,0
617185,591.32,826,751,0
617195,558.01,826,752,0
617205,524.49,826,752,0
617216,492.07,826,749,0
617225,466.29,826,753,0
617235,444.99,826,751,0
617245,428.32,826,752,0
617255,413.53,826,750,0
617265,400.94,826,751,0
617275,391.01,826,750,0
617285,385.22,826,751,0
617295,379.59,826,749,0
617305,378.17,826,752,0
617315,380.17,826,751,0
617325,386.55,826,752,0
617335,393.46,826,750,0
617345,400.82,826,751,0
617355,406.96,826,750,0
617365,412.89,826,751,0
617375,415.83,826,749,0
617385,416.61,826,751,0
617395,414.71,826,750,0
617405,413.73,826,752,0
617415,413.81,826,751,0
617425,414.55,826,752,0
617435,412.89,826,750,0
617445,409.62,826,751,0
617455,403.91,826,750,0
617465,397.76,826,751,0
617475,389.26,826,751,0
617485,379.46,826,752,0
617495,370.06,826,750,0
617505,363.23,826,752,0
617516,356.90,826,750,0
617526,351.83,826,751,0
617536,346.91,826,749,0
617546,345.14,826,753,0
617556,344.24,826,751,0
617566,343.48,826,753,0
617576,342.78,826,751,0
617586,342.93,826,752,0
617596,343.38,826,750,0
617606,345.54,826,752,0
617616,345.85,826,749,0
617626,347.39,826,753,0
617636,348.09,826,750,0
617646,348.92,826,752,0
617656,350.40,826,750,0
617666,354.61,826,752,0
617676,358.41,826,750,0
617687,362.92,826,753,0
617697,366.37,826,751,0
617707,370.16,826,753,0
617717,373.24,826,750,0
617728,377.71,826,752,0
617737,382.60,826,750,0
617747,391.50,826,752,0
617757,405.50,826,750,0
617767,426.05,826,752,0
617777,454.23,826,751,0
617787,490.08,826,753,0
617806,529.78,783,751,0
617809,570.86,783,755,0
617818,610.20,783,751,0
617828,645.89,783,753,0
617838,674.89,783,750,0
617848,695.24,783,752,0
617858,705.84,783,750,0
617868,707.77,783,753,0
617878,702.10,783,751,0
617888,689.08,783,753,0
617899,668.32,783,750,0
617908,641.99,783,753,0
617918,611.69,783,750,0
617928,579.60,783,753,0
617938,547.66,783,751,0
617948,515.96,783,753,0
617958,485.67,783,750,0
617968,459.63,783,753,0
617978,436.51,783,750,0
617988,416.43,783,752,0
617998,399.29,783,750,0
618008,385.79,783,753,0
618018,375.48,783,750,0
618028,368.65,783,752,0
618038,364.13,783,750,0
618048,363.57,783,753,0
618058,365.84,783,750,0
618068,370.18,783,752,0
618078,374.84,783,750,0
618088,382.00,783,753,0
618098,389.24,783,750,0
618108,395.98,783,752,0
618118,401.82,783,751,0
618128,406.42,783,752,0
618138,409.29,783,750,0
618148,410.79,783,752,0
618158,409.91,783,751,0
618168,407.88,783,752,0
618178,404.44,783,750,0
618188,398.95,783,752,0
618199,393.82,783,751,0
618209,388.86,783,753,0
618219,383.29,783,750,0
618229,376.77,783,752,0
618240,371.57,783,751,0
618249,368.14,783,753,0
618259,365.23,783,750,0
618269,361.26,783,752,0
618279,358.05,783,751,0
618289,357.18,783,753,0
618299,358.11,783,751,0
618309,357.86,783,752,0
618319,356.96,783,751,0
618329,356.67,783,752,0
618339,359.13,783,751,0
618349,361.96,783,752,0
618359,363.52,783,751,0
618369,364.26,783,752,0
618379,366.75,783,751,0
618389,369.87,783,752,0
618399,372.82,783,751,0
618409,373.69,783,751,0
618419,375.11,783,751,0
618429,377.09,783,752,0
618439,379.21,783,751,0
618449,379.70,783,752,0
618459,379.45,783,750,0
618469,380.30,783,753,0
618479,382.01,783,751,0
618489,381.62,783,752,0
618499,380.32,783,751,0
618509,378.94,783,752,0
618519,377.93,783,751,0
618529,377.14,783,753,0
618540,376.28,783,751,0
618550,374.23,783,751,0
618560,373.17,783,751,0
618570,373.81,783,753,0
618580,375.15,783,751,0
618590,377.08,783,751,0
618600,382.07,783,751,0
618610,389.42,783,752,0
618620,403.61,783,752,0
618639,425.03,833,749,0
618642,452.83,833,752,0
618651,487.64,833,752,0
618661,527.56,833,752,0
618671,568.24,833,751,0
618681,608.32,833,752,0
618691,644.10,833,752,0
618701,673.94,833,751,0
618711,697.14,833,752,0
618721,713.56,833,751,0
618731,725.09,833,753,0
618741,731.75,833,752,0
618752,731.35,833,751,0
618761,723.58,833,751,0
618771,708.36,833,752,0
618781,686.31,833,751,0
618791,658.70,833,752,0
618801,625.53,833,751,0
618811,587.70,833,751,0
618821,551.19,833,752,0
618831,516.12,833,751,0
618841,483.94,833,751,0
618851,454.86,833,751,0
618861,429.44,833,751,0
618871,408.65,833,752,0
618881,394.01,833,751,0
618891,381.62,833,751,0
618901,374.19,833,752,0
618911,370.58,833,751,0
618921,371.99,833,752,0
618931,376.37,833,752,0
618941,382.47,833,752,0
618951,387.81,833,751,0
618961,394.38,833,751,0
618971,401.04,833,752,0
618981,407.54,833,751,0
618991,411.19,833,751,0
619001,414.35,833,752,0
619011,416.13,833,752,0
619021,417.12,833,751,0
619031,415.84,833,751,0
619041,413.96,833,752,0
619052,409.69,833,751,0
619062,404.98,833,752,0
619072,398.69,833,751,0
619082,391.97,833,752,0
619092,384.86,833,751,0
619102,379.59,833,752,0
619112,374.10,833,751,0
619122,370.68,833,752,0
619132,367.22,833,750,0
619142,364.24,833,752,0
619152,362.50,833,751,0
619162,363.12,833,752,0
619172,362.57,833,750,0
619182,361.41,833,752,0
619192,360.82,833,751,0
619202,361.34,833,752,0
619212,361.07,833,750,0
619223,360.36,833,752,0
619233,359.18,833,751,0
619243,360.84,833,753,0
619253,362.65,833,750,0
619264,363.95,833,752,0
619273,365.38,833,750,0
619283,369.60,833,753,0
619293,374.05,833,751,0
619303,378.15,833,752,0
619313,380.33,833,751,0
619323,383.49,833,753,0
619333,386.04,833,751,0
619343,388.09,833,753,0
619353,386.56,833,750,0
619363,384.72,833,752,0
619373,384.16,833,750,0
619383,387.97,833,753,0
619393,395.14,833,750,0
619403,409.20,833,752,0
619413,430.52,833,750,0
619432,461.69,793,750,0
619436,499.46,793,751,0
619444,540.76,793,752,0
619454,581.29,793,750,0
619464,620.16,793,752,0
619474,654.23,793,751,0
619484,682.14,793,752,0
619494,700.44,793,751,0
619504,708.93,793,752,0
619514,708.95,793,751,0
619524,701.38,793,753,0
619534,685.28,793,750,0
619544,660.85,793,752,0
619554,629.83,793,750,0
619564,595.03,793,752,0
619574,558.34,793,750,0
619584,521.38,793,752,0
619594,485.27,793,750,0
619604,453.30,793,753,0
619614,426.34,793,751,0
619624,403.95,793,753,0
619634,385.37,793,751,0
619644,370.94,793,753,0
619654,359.43,793,750,0
619664,351.54,793,752,0
619674,346.75,793,751,0
619684,345.76,793,752,0
619694,347.50,793,750,0
619704,352.79,793,753,0
619714,361.86,793,751,0
619724,374.16,793,753,0
619735,386.62,793,750,0
619745,398.39,793,752,0
619755,409.12,793,751,0
619765,418.98,793,752,0
619776,425.55,793,750,0
619785,428.08,793,752,0
619795,427.89,793,751,0
619805,427.06,793,753,0
619815,424.04,793,750,0
619825,418.59,793,752,0
619835,412.07,793,751,0
619845,405.66,793,752,0
619855,398.82,793,750,0
619865,392.15,793,753,0
619875,385.33,793,751,0
619885,379.19,793,752,0
619895,373.77,793,750,0
619905,369.90,793,753,0
619915,367.14,793,751,0
619925,365.30,793,752,0
619935,363.92,793,750,0
619945,363.22,793,752,0
619955,365.38,793,751,0
619965,369.34,793,753,0
619975,372.84,793,751,0
619985,375.29,793,752,0
619995,377.99,793,750,0
620005,380.56,793,752,0
620015,384.59,793,751,0
620025,387.33,793,752,0
620035,388.73,793,750,0
620045,389.88,793,752,0
620055,392.32,793,750,0
620065,396.64,793,753,0
620076,401.46,793,751,0
620086,404.49,793,752,0
620096,406.23,793,750,0
620106,406.98,793,751,0
620116,407.11,793,751,0
620126,407.68,793,752,0
620136,408.29,793,751,0
620146,410.22,793,752,0
620156,414.01,793,751,0
620166,422.53,793,752,0
620176,438.36,793,751,0
620186,461.09,793,751,0
620206,490.72,773,750,0
620209,524.71,773,751,0
620218,561.14,773,752,0
620228,598.72,773,752,0
620238,634.51,773,752,0
620248,665.60,773,751,0
620258,691.05,773,751,0
620268,709.42,773,752,0
620278,722.28,773,751,0
620289,728.75,773,751,0
620299,730.37,773,752,0
620309,725.50,773,751,0
620319,713.95,773,752,0
620329,694.72,773,750,0
620339,668.19,773,751,0
620349,634.79,773,750,0
620359,599.28,773,753,0
620369,561.10,773,751,0
620379,523.05,773,751,0
620389,486.52,773,751,0
620399,455.25,773,753,0
620409,428.99,773,751,0
620419,407.78,773,751,0
620429,389.59,773,751,0
620439,377.11,773,753,0
620449,370.01,773,751,0
620460,367.39,773,751,0
620470,366.97,773,750,0
620480,371.01,773,753,0
620490,377.18,773,750,0
620500,385.95,773,751,0
620510,395.48,773,751,0
620520,404.59,773,752,0
620530,412.86,773,750,0
620540,420.70,773,751,0
620550,426.15,773,751,0
620560,430.13,773,752,0
620570,431.21,773,750,0
620580,430.12,773,752,0
620590,427.72,773,751,0
620600,424.12,773,752,0
620610,417.83,773,750,0
620620,410.64,773,752,0
620631,402.90,773,751,0
620641,395.39,773,752,0
620651,386.92,773,751,0
620661,378.80,773,752,0
620672,371.02,773,751,0
620681,364.28,773,752,0
620691,356.74,773,750,0
620701,351.68,773,753,0
620711,347.92,773,751,0
620721,345.88,773,753,0
620731,343.35,773,750,0
620741,341.53,773,752,0
620751,340.77,773,750,0
620761,342.51,773,753,0
620771,344.33,773,751,0
620781,347.19,773,753,0
620791,348.93,773,750,0
620801,351.57,773,752,0
620811,354.18,773,750,0
620821,358.63,773,753,0
620831,362.77,773,751,0
620841,366.22,773,753,0
620851,367.78,773,750,0
620861,369.35,773,752,0
620871,370.27,773,750,0
620881,371.73,773,752,0
620891,372.93,773,751,0
620901,373.64,773,752,0
620911,372.97,773,750,0
620921,373.24,773,752,0
620931,374.92,773,750,0
620941,381.03,773,753,0
620951,391.22,773,751,0
620961,405.98,773,753,0
620972,425.87,773,750,0
620982,453.51,773,752,0
621001,488.67,796,752,0
621004,528.63,796,753,0
621014,568.64,796,751,0
621023,607.06,796,753,0
621033,641.54,796,751,0
621043,671.68,796,752,0
621053,695.69,796,750,0
621063,712.75,796,752,0
621073,724.66,796,751,0
621083,729.65,796,752,0
621093,727.48,796,750,0
621103,719.62,796,753,0
621113,705.46,796,751,0
621123,684.37,796,753,0
621133,655.24,796,750,0
621143,619.04,796,752,0
621153,580.84,796,751,0
621163,543.05,796,753,0
621173,505.66,796,751,0
621184,468.99,796,752,0
621193,434.84,796,750,0
621203,405.66,796,752,0
621213,382.10,796,750,0
621223,364.20,796,753,0
621233,352.01,796,751,0
621243,344.51,796,753,0
621253,342.64,796,751,0
621263,345.49,796,753,0
621273,351.52,796,750,0
621283,359.03,796,752,0
621293,366.78,796,750,0
621303,375.07,796,753,0
621313,382.85,796,750,0
621323,389.28,796,752,0
621333,395.75,796,751,0
621343,402.34,796,753,0
621353,407.51,796,750,0
621363,411.51,796,753,0
621373,412.22,796,750,0
621383,411.81,796,753,0
621393,411.05,796,751,0
621403,407.09,796,752,0
621413,400.59,796,750,0
621423,394.67,796,753,0
621433,388.94,796,751,0
621443,383.30,796,753,0
621453,377.30,796,751,0
621463,370.27,796,752,0
621473,363.59,796,750,0
621484,357.45,796,751,0
621494,351.36,796,751,0
621504,346.32,796,752,0
621514,343.87,796,751,0
621524,342.71,796,752,0
621534,343.44,796,751,0
621544,344.89,796,751,0
621554,347.28,796,750,0
621564,351.23,796,752,0
621574,355.92,796,752,0
621584,359.33,796,752,0
621594,361.71,796,750,0
621604,363.26,796,751,0
621614,367.34,796,752,0
621624,372.08,796,752,0
621634,375.23,796,751,0
621644,377.04,796,752,0
621655,379.56,796,751,0
621665,382.52,796,752,0
621675,385.41,796,751,0
621685,385.93,796,751,0
621696,387.11,796,752,0
621705,388.02,796,751,0
621715,389.30,796,751,0
621725,391.35,796,752,0
621735,397.12,796,752,0
621745,407.71,796,752,0
621755,424.90,796,751,0
621765,447.86,796,752,0
621785,480.04,783,751,0
621788,517.49,783,751,0
621797,557.33,783,753,0
621807,596.36,783,751,0
621817,632.98,783,752,0
621827,665.13,783,751,0
621837,691.40,783,753,0
621847,709.80,783,751,0
621857,722.67,783,752,0
621868,730.66,783,751,0
621878,734.23,783,753,0
621888,731.98,783,751,0
621898,722.73,783,752,0
621908,705.49,783,750,0
621918,682.46,783,753,0
621928,652.75,783,751,0
621938,617.90,783,752,0
621948,579.06,783,750,0
621958,540.04,783,752,0
621968,503.08,783,751,0
621978,469.97,783,752,0
621988,439.34,783,750,0
621998,413.99,783,752,0
622008,393.77,783,751,0
622018,378.88,783,752,0
622028,369.27,783,751,0
622039,365.25,783,753,0
622049,365.82,783,751,0
622059,370.63,783,753,0
622069,377.30,783,751,0
622080,385.18,783,752,0
622089,394.73,783,751,0
622099,403.68,783,752,0
622109,410.59,783,750,0
622119,416.28,783,752,0
622129,421.00,783,751,0
622139,424.17,783,752,0
622149,426.82,783,751,0
622159,427.69,783,753,0
622169,425.81,783,750,0
622179,422.44,783,752,0
622189,418.41,783,751,0
622199,412.20,783,752,0
622209,404.73,783,750,0
622219,397.52,783,753,0
622229,389.78,783,751,0
622239,382.56,783,752,0
622249,375.41,783,750,0
622259,369.37,783,753,0
622269,364.50,783,751,0
622279,361.91,783,753,0
622289,359.28,783,750,0
622299,357.14,783,753,0
622309,355.77,783,750,0
622319,355.84,783,752,0
622329,355.67,783,750,0
622339,357.61,783,753,0
622349,359.06,783,750,0
622359,360.20,783,752,0
622369,362.54,783,750,0
622380,366.36,783,753,0
622390,369.77,783,750,0
622400,372.54,783,752,0
622410,374.05,783,751,0
622420,375.28,783,752,0
622430,377.25,783,751,0
622440,378.89,783,752,0
622450,379.74,783,750,0
622460,380.12,783,752,0
622470,379.87,783,750,0
622480,378.79,783,752,0
622490,379.03,783,751,0
622500,378.89,783,752,0
622510,377.59,783,750,0
622520,376.17,783,752,0
622530,376.38,783,750,0
622540,376.78,783,752,0
622551,377.45,783,751,0
622561,377.14,783,752,0
622571,378.34,783,751,0
622581,381.15,783,752,0
622592,387.11,783,750,0
622601,397.53,783,753,0
622620,415.42,836,751,0
622623,440.53,836,752,0
622632,474.14,836,751,0
622642,511.99,836,752,0
622652,553.01,836,751,0
622662,594.02,836,752,0
622672,631.90,836,752,0
622682,664.37,836,752,0
622692,690.70,836,751,0
622702,709.22,836,752,0
622712,722.18,836,751,0
622722,731.26,836,752,0
622732,736.19,836,751,0
622742,736.18,836,753,0
622752,730.94,836,752,0
622763,718.19,836,752,0
622772,697.64,836,751,0
622782,669.17,836,752,0
622792,635.43,836,752,0
622802,597.42,836,752,0
622812,556.83,836,751,0
622822,514.50,836,751,0
622832,474.71,836,751,0
622842,440.04,836,752,0
622852,411.70,836,751,0
622862,386.50,836,751,0
622872,367.19,836,752,0
622882,353.81,836,752,0
622892,346.97,836,751,0
622902,346.08,836,752,0
622912,348.71,836,751,0
622922,353.98,836,752,0
622932,363.29,836,751,0
622942,374.43,836,752,0
622952,387.12,836,752,0
622962,398.95,836,751,0
622972,409.25,836,751,0
622982,418.13,836,752,0
622992,425.55,836,751,0
623002,430.10,836,752,0
623012,432.17,836,752,0
623022,431.09,836,752,0
623032,428.96,836,751,0
623042,424.26,836,752,0
623052,418.10,836,751,0
623063,411.04,836,752,0
623073,403.48,836,751,0
623083,395.15,836,752,0
623093,387.14,836,751,0
623104,378.57,836,751,0
623113,371.97,836,752,0
623123,367.05,836,752,0
623133,363.35,836,752,0
623143,359.90,836,751,0
623153,356.67,836,751,0
623163,353.30,836,751,0
623173,352.52,836,752,0
623183,352.75,836,752,0
623193,353.68,836,752,0
623203,354.08,836,752,0
623213,355.34,836,751,0
623223,357.08,836,751,0
623233,360.40,836,751,0
623243,363.67,836,752,0
623253,367.07,836,752,0
623263,370.56,836,752,0
623273,374.59,836,752,0
623283,378.10,836,752,0
623293,382.61,836,752,0
623303,386.93,836,751,0
623313,391.66,836,752,0
623323,397.98,836,752,0
623333,406.56,836,752,0
623343,418.86,836,751,0
623353,438.27,836,752,0
623363,464.03,836,752,0
623373,496.64,836,752,0
623383,533.22,836,752,0
623403,571.08,782,750,0
623406,608.21,782,751,0
623415,643.16,782,753,0
623425,672.86,782,751,0
623435,696.21,782,752,0
623446,710.25,782,750,0
623455,716.82,782,753,0
623465,714.13,782,750,0
623475,704.36,782,753,0
623485,686.47,782,751,0
623495,660.83,782,752,0
623505,627.96,782,750,0
623515,591.80,782,752,0
623525,553.72,782,751,0
623535,516.78,782,752,0
623545,479.90,782,750,0
623555,446.63,782,752,0
623565,417.73,782,750,0
623575,394.32,782,753,0
623585,376.14,782,751,0
623595,362.43,782,752,0
623605,353.47,782,751,0
623616,350.54,782,753,0
623625,351.88,782,751,0
623635,357.19,782,752,0
623645,364.46,782,750,0
623655,373.92,782,752,0
623665,384.40,782,751,0
623675,395.47,782,752,0
623685,406.26,782,751,0
623695,416.59,782,753,0
623705,424.77,782,751,0
623715,431.01,782,752,0
623725,433.88,782,751,0
623735,433.96,782,753,0
623745,431.10,782,751,0
623755,426.31,782,753,0
623765,418.33,782,751,0
623775,408.42,782,753,0
623785,397.45,782,750,0
623795,386.56,782,752,0
623805,375.55,782,751,0
623815,366.81,782,753,0
623825,358.17,782,751,0
623835,351.09,782,752,0
623845,344.93,782,750,0
623855,340.75,782,752,0
623865,337.91,782,751,0
623875,337.25,782,752,0
623885,337.18,782,751,0
623895,339.31,782,753,0
623905,342.05,782,751,0
623916,346.57,782,752,0
623926,351.46,782,751,0
623936,357.88,782,753,0
623946,363.87,782,751,0
623956,368.37,782,752,0
623966,370.57,782,750,0
623976,372.71,782,752,0
623986,374.86,782,751,0
623996,377.69,782,753,0
624006,378.47,782,751,0
624016,378.11,782,752,0
624026,377.65,782,750,0
624036,378.01,782,752,0
624046,378.05,782,750,0
624056,379.32,782,753,0
624066,381.84,782,751,0
624076,387.63,782,753,0
624087,397.51,782,750,0
624097,413.90,782,752,0
624107,438.45,782,752,0
624117,471.65,782,753,0
624137,509.34,734,751,0
624140,549.14,734,751,0
624149,589.08,734,751,0
624159,627.76,734,752,0
624169,662.03,734,751,0
624179,688.85,734,752,0
624189,707.92,734,751,0
624199,721.28,734,752,0
624209,728.26,734,752,0
624219,727.71,734,752,0
624229,720.69,734,752,0
624239,705.74,734,752,0
624249,682.97,734,751,0
624259,653.20,734,752,0
624269,618.81,734,752,0
624279,582.05,734,752,0
624289,545.09,734,751,0
624300,507.82,734,751,0
624310,474.83,734,752,0
624320,447.07,734,752,0
624330,424.76,734,752,0
624340,405.46,734,752,0
624350,389.68,734,751,0
624360,378.03,734,751,0
624370,371.77,734,751,0
624380,368.58,734,752,0
624390,369.61,734,752,0
624400,372.72,734,751,0
624410,378.38,734,751,0
624420,386.06,734,752,0
624430,396.42,734,752,0
624440,406.06,734,751,0
624450,415.09,734,751,0
624460,422.13,734,752,0
624471,428.31,734,752,0
624481,431.51,734,751,0
624491,433.20,734,752,0
624501,431.81,734,752,0
624512,429.77,734,753,0
624521,425.68,734,751,0
624531,419.31,734,752,0
624541,409.96,734,751,0
624551,400.97,734,753,0
624561,390.78,734,751,0
624571,381.07,734,752,0
624581,371.88,734,752,0
624591,365.10,734,753,0
624601,359.03,734,751,0
624611,355.46,734,752,0
624621,353.70,734,752,0
624631,353.74,734,752,0
624641,354.16,734,751,0
624651,356.17,734,752,0
624661,357.32,734,751,0
624671,360.05,734,752,0
624681,363.94,734,751,0
624691,367.51,734,752,0
624701,370.36,734,751,0
624711,373.81,734,752,0
624721,376.22,734,751,0
624731,378.68,734,752,0
624741,379.94,734,751,0
624751,381.41,734,753,0
624761,382.83,734,751,0
624771,384.25,734,752,0
624781,384.05,734,751,0
624791,383.13,734,752,0
624801,382.02,734,751,0
624812,382.44,734,753,0
624822,380.51,734,751,0
624832,378.00,734,752,0
624842,376.11,734,751,0
624852,376.25,734,753,0
624862,376.00,734,751,0
624872,375.79,734,752,0
624882,374.61,734,751,0
624892,377.26,734,753,0
624902,382.02,734,751,0
624912,390.03,734,752,0
624922,401.68,734,750,0
624932,422.65,734,753,0
624951,452.24,815,752,0
624954,489.20,815,753,0
624963,528.52,815,750,0
624973,569.59,815,752,0
624983,609.79,815,751,0
624993,647.31,815,753,0
625003,677.34,815,751,0
625013,699.91,815,753,0
625024,715.67,815,750,0
625033,725.84,815,753,0
625043,730.90,815,751,0
625053,729.69,815,753,0
625063,720.31,815,750,0
625073,703.72,815,752,0
625083,680.83,815,751,0
625093,652.72,815,753,0
625103,618.82,815,750,0
625113,581.50,815,752,0
625123,544.54,815,751,0
625133,511.08,815,753,0
625143,480.58,815,751,0
625153,452.42,815,752,0
625163,425.90,815,750,0
625173,404.37,815,753,0
625183,386.69,815,750,0
625193,372.60,815,752,0
625203,362.43,815,751,0
625213,357.54,815,753,0
625223,357.08,815,750,0
625233,362.50,815,753,0
625243,370.36,815,751,0
625253,380.24,815,752,0
625263,390.41,815,751,0
625273,400.15,815,752,0
625283,407.94,815,750,0
625293,414.39,815,752,0
625303,418.73,815,751,0
625313,421.94,815,753,0
625324,422.69,815,751,0
625334,421.49,815,752,0
625344,418.09,815,750,0
625354,413.22,815,753,0
625364,408.05,815,751,0
625374,402.21,815,753,0
625384,395.12,815,751,0
625394,388.01,815,753,0
625404,380.94,815,751,0
625414,374.48,815,752,0
625424,368.47,815,750,0
625434,363.23,815,753,0
625444,357.42,815,750,0
625454,352.66,815,752,0
625464,350.49,815,751,0
625474,350.04,815,753,0
625484,349.90,815,750,0
625495,350.23,815,752,0
625505,351.36,815,751,0
625515,353.74,815,753,0
625525,356.35,815,751,0
625536,357.31,815,752,0
625545,357.73,815,750,0
625555,359.40,815,753,0
625565,361.38,815,750,0
625575,361.99,815,751,0
625585,363.45,815,751,0
625595,365.67,815,753,0
625605,368.64,815,751,0
625615,371.58,815,752,0
625625,374.53,815,750,0
625635,379.77,815,752,0
625645,388.84,815,751,0
625655,403.03,815,753,0
625665,423.08,815,751,0
625675,449.71,815,752,0
625685,483.61,815,751,0
625695,522.69,815,752,0
625715,563.54,763,751,0
625718,603.53,763,754,0
625727,638.82,763,752,0
625737,668.74,763,752,0
625747,691.83,763,751,0
625757,706.03,763,752,0
625767,711.16,763,751,0
625777,708.63,763,752,0
625787,698.07,763,751,0
625797,679.45,763,752,0
625807,655.78,763,752,0
625817,627.18,763,752,0
625827,596.18,763,751,0
625837,563.38,763,752,0
625847,530.18,763,751,0
625857,498.80,763,752,0
625867,471.90,763,752,0
625878,446.35,763,752,0
625887,423.91,763,751,0
625897,403.67,763,752,0
625907,387.82,763,751,0
625917,375.36,763,751,0
625927,368.05,763,752,0
625937,363.75,763,752,0
625947,363.83,763,752,0
625957,366.92,763,752,0
625967,372.47,763,751,0
625977,378.55,763,751,0
625987,385.84,763,751,0
625997,392.36,763,752,0
626007,399.11,763,752,0
626017,404.48,763,752,0
626027,408.88,763,751,0
626037,411.23,763,751,0
626048,412.44,763,751,0
626057,411.41,763,751,0
626067,408.37,763,751,0
626077,402.35,763,751,0
626087,395.73,763,752,0
626097,387.84,763,751,0
626107,381.03,763,751,0
626117,374.46,763,751,0
626127,369.31,763,751,0
626137,364.67,763,751,0
626147,361.43,763,751,0
626157,359.37,763,752,0
626167,359.56,763,751,0
626177,360.12,763,752,0
626187,362.66,763,751,0
626197,364.56,763,751,0
626207,366.49,763,751,0
626217,367.59,763,751,0
626227,367.45,763,751,0
626237,365.95,763,751,0
626247,364.98,763,751,0
626257,362.97,763,751,0
626267,362.34,763,751,0
626277,362.02,763,751,0
626287,363.00,763,751,0
626297,363.90,763,751,0
626307,365.60,763,750,0
626317,366.96,763,751,0
626327,368.77,763,751,0
626337,369.87,763,751,0
626348,371.50,763,751,0
626358,372.33,763,751,0
626368,373.56,763,751,0
626378,373.86,763,750,0
626388,375.83,763,752,0
626398,378.20,763,751,0
626408,380.15,763,752,0
626418,380.24,763,750,0
626428,380.12,763,751,0
626438,378.76,763,751,0
626448,377.67,763,751,0
626458,374.77,763,750,0
626468,372.05,763,751,0
626478,371.27,763,750,0
626488,375.43,763,751,0
626507,384.51,793,752,0
626510,403.13,793,753,0
626519,429.36,793,751,0
626529,463.71,793,752,0
626539,503.40,793,751,0
626549,546.14,793,752,0
626560,588.44,793,750,0
626569,628.42,793,752,0
626579,661.29,793,750,0
626589,687.73,793,752,0
626599,707.01,793,750,0
626609,720.42,793,752,0
626619,727.97,793,751,0
626629,727.81,793,752,0
626639,719.16,793,750,0
626649,703.17,793,752,0
626659,679.46,793,750,0
626669,649.37,793,751,0
626679,613.26,793,750,0
626689,574.18,793,751,0
626699,536.58,793,751,0
626709,503.37,793,752,0
626719,471.97,793,750,0
626729,444.38,793,752,0
626739,419.97,793,750,0
626749,399.96,793,752,0
626759,383.43,793,750,0
626769,370.36,793,752,0
626779,361.04,793,751,0
626789,356.95,793,752,0
626799,356.07,793,750,0
626809,358.88,793,752,0
626819,363.67,793,750,0
626829,371.44,793,753,0
626839,381.29,793,751,0
626849,389.91,793,752,0
626860,396.71,793,750,0
626870,402.92,793,752,0
626880,407.15,793,750,0
626890,410.02,793,752,0
626900,410.87,793,751,0
626910,409.45,793,753,0
626920,405.76,793,750,0
626930,401.67,793,752,0
626940,396.50,793,751,0
626950,391.16,793,752,0
626960,385.07,793,750,0
626970,378.28,793,752,0
626980,370.40,793,750,0
626990,363.93,793,752,0
627000,357.95,793,750,0
627010,353.47,793,752,0
627020,349.90,793,750,0
627031,347.96,793,752,0
627041,346.98,793,749,0
627051,349.22,793,753,0
627061,352.50,793,751,0
627072,355.65,793,752,0
627081,357.81,793,750,0
627091,359.71,793,752,0
627101,360.91,793,750,0
627111,361.84,793,752,0
627121,360.56,793,750,0
627131,359.06,793,752,0
627141,359.64,793,751,0
627151,362.15,793,753,0
627161,363.95,793,750,0
627171,365.51,793,752,0
627181,366.47,793,750,0
627191,367.19,793,752,0
627201,367.39,793,749,0
627211,368.81,793,753,0
627221,371.10,793,751,0
627231,377.24,793,753,0
627241,386.73,793,750,0
627251,401.25,793,752,0
627261,422.18,793,751,0
627271,449.85,793,752,0
627281,481.65,793,751,0
627300,517.84,793,749,0
627303,555.65,793,752,0
627312,593.85,793,753,0
627322,629.81,793,751,0
627332,660.68,793,752,0
627342,683.83,793,751,0
627352,697.43,793,752,0
627362,700.73,793,750,0
627372,694.55,793,752,0
627382,681.10,793,753,0
627392,660.50,793,753,0
627402,633.74,793,752,0
627412,601.80,793,753,0
627422,566.72,793,751,0
627432,530.16,793,753,0
627442,494.24,793,751,0
627452,458.73,793,752,0
627462,425.38,793,751,0
627472,395.09,793,753,0
627482,369.74,793,751,0
627492,349.80,793,752,0
627502,335.50,793,751,0
627512,326.35,793,753,0
627522,323.38,793,752,0
627532,326.61,793,753,0
627543,333.67,793,752,0
627553,343.11,793,752,0
627563,354.65,793,751,0
627573,367.27,793,752,0
627584,380.82,793,752,0
627593,392.87,793,752,0
627603,403.24,793,752,0
627613,413.11,793,753,0
627623,422.25,793,753,0
627633,429.89,793,753,0
627643,434.51,793,752,0
627653,435.00,793,753,0
627663,432.90,793,752,0
627673,427.14,793,752,0
627683,419.81,793,753,0
627693,411.64,793,754,0
627703,401.59,793,752,0
627713,391.34,793,752,0
627723,382.45,793,751,0
627733,374.18,793,752,0
627743,367.61,793,752,0
627753,360.95,793,752,0
627763,355.05,793,751,0
627773,351.05,793,752,0
627783,349.84,793,752,0
627793,350.01,793,752,0
627803,352.20,793,751,0
627813,355.14,793,752,0
627823,359.25,793,752,0
627833,363.81,793,752,0
627843,368.84,793,752,0
627853,373.38,793,752,0
627863,378.16,793,752,0
627873,382.52,793,753,0
627884,388.54,793,753,0
627894,393.73,793,752,0
627904,397.67,793,752,0
627914,399.44,793,752,0
627924,399.99,793,752,0
627934,399.01,793,752,0
627944,396.95,793,752,0
627954,392.08,793,752,0
627964,387.34,793,752,0
627974,383.51,793,751,0
627984,383.27,793,752,0
627994,388.42,793,753,0
628004,400.38,793,753,0
628014,417.75,793,752,0
628024,441.65,793,752,0
628034,471.50,793,752,0
628054,507.44,753,750,0
628057,546.31,753,751,0
628066,584.27,753,753,0
628076,618.95,753,751,0
628086,650.51,753,753,0
628097,675.21,753,751,0
628107,691.78,753,753,0
628117,697.67,753,751,0
628127,694.00,753,752,0
628137,680.63,753,750,0
628147,659.01,753,752,0
628157,629.39,753,751,0
628167,596.53,753,753,0
628177,561.49,753,751,0
628187,526.07,753,753,0
628197,489.41,753,751,0
628207,453.97,753,753,0
628217,419.86,753,750,0
628227,389.13,753,752,0
628237,360.21,753,751,0
628247,334.60,753,753,0
628257,313.08,753,750,0
628268,298.40,753,753,0
628278,289.75,753,751,0
628288,287.60,753,753,0
628298,290.59,753,751,0
628308,298.60,753,753,0
628318,309.82,753,751,0
628328,324.10,753,753,0
628338,339.41,753,750,0
628348,355.10,753,753,0
628358,369.56,753,751,0
628368,382.63,753,753,0
628378,393.29,753,750,0
628388,401.90,753,753,0
628398,407.59,753,751,0
628408,411.05,753,752,0
628418,412.32,753,750,0
628428,412.14,753,753,0
628439,411.63,753,752,0
628449,411.70,753,754,0
628459,410.89,753,751,0
628469,408.78,753,753,0
628480,404.52,753,751,0
628489,399.05,753,753,0
628499,392.60,753,750,0
628509,384.49,753,752,0
628519,374.70,753,751,0
628529,364.85,753,753,0
628539,356.07,753,751,0
628549,350.05,753,753,0
628559,345.58,753,751,0
628569,342.62,753,753,0
628579,340.89,753,751,0
628589,340.41,753,752,0
628599,343.03,753,752,0
628609,347.95,753,754,0
628619,353.32,753,752,0
628629,358.67,753,753,0
628639,363.05,753,751,0
628649,366.47,753,753,0
628659,369.20,753,751,0
628669,369.52,753,753,0
628679,368.42,753,751,0
628689,367.65,753,753,0
628699,367.41,753,751,0
628709,368.49,753,752,0
628719,370.83,753,751,0
628729,373.84,753,752,0
628739,377.36,753,751,0
628749,380.38,753,752,0
628759,383.14,753,752,0
628769,387.04,753,754,0
628780,390.54,753,752,0
628790,393.04,753,752,0
628800,395.85,753,751,0
628810,400.23,753,752,0
628820,409.72,753,751,0
628830,424.67,753,752,0
628840,445.86,753,751,0
628859,475.77,806,751,0
628862,512.27,806,753,0
628871,552.34,806,753,0
628881,593.30,806,752,0
628891,631.31,806,752,0
628901,664.34,806,751,0
628911,690.73,806,752,0
628921,709.15,806,751,0
628931,722.01,806,752,0
628941,730.28,806,751,0
628951,732.68,806,751,0
628961,729.78,806,752,0
628971,721.70,806,753,0
628981,706.66,806,752,0
628992,682.98,806,751,0
629001,652.13,806,751,0
629011,614.93,806,751,0
629021,578.14,806,753,0
629031,541.41,806,753,0
629041,504.60,806,751,0
629051,469.92,806,752,0
629061,440.29,806,751,0
629071,414.87,806,751,0
629081,394.47,806,751,0
629091,375.00,806,752,0
629101,358.93,806,752,0
629111,346.74,806,751,0
629121,338.54,806,751,0
629131,333.19,806,752,0
629141,331.04,806,751,0
629151,333.30,806,753,0
629161,339.38,806,752,0
629171,346.04,806,753,0
629181,352.88,806,752,0
629191,358.88,806,751,0
629201,364.61,806,751,0
629211,368.80,806,752,0
629221,369.85,806,751,0
629231,367.88,806,751,0
629241,364.87,806,752,0
629251,360.84,806,752,0
629261,357.20,806,751,0
629271,353.11,806,751,0
629281,350.34,806,752,0
629292,347.15,806,751,0
629302,346.25,806,752,0
629312,345.19,806,751,0
629322,344.45,806,752,0
629332,343.50,806,751,0
629342,343.65,806,752,0
629352,343.71,806,752,0
629362,346.63,806,753,0
629372,349.14,806,752,0
629382,352.23,806,752,0
629392,354.94,806,751,0
629402,358.09,806,752,0
629412,360.68,806,751,0
629422,363.26,806,752,0
629432,363.74,806,751,0
629442,363.65,806,751,0
629452,365.38,806,752,0
629463,368.44,806,752,0
629473,370.92,806,750,0
629483,373.64,806,752,0
629493,375.59,806,751,0
629504,378.07,806,752,0
629513,380.24,806,751,0
629523,383.21,806,754,0
629533,389.36,806,752,0
629543,400.78,806,753,0
629553,417.39,806,752,0
629572,439.90,713,750,0
629575,467.66,713,753,0
629584,501.53,713,752,0
629594,537.72,713,751,0
629604,574.44,713,753,0
629614,609.45,713,751,0
629624,641.29,713,752,0
629634,667.60,713,750,0
629644,689.11,713,754,0
629654,700.99,713,751,0
629664,703.14,713,753,0
629675,695.08,713,751,0
629684,678.73,713,752,0
629694,654.17,713,751,0
629704,625.40,713,753,0
629714,592.58,713,752,0
629724,559.11,713,753,0
629734,525.56,713,751,0
629744,494.19,713,752,0
629754,464.69,713,751,0
629764,438.94,713,752,0
629774,415.04,713,751,0
629784,393.26,713,752,0
629794,374.54,713,751,0
629804,360.71,713,752,0
629814,350.85,713,751,0
629824,345.58,713,752,0
629834,343.82,713,751,0
629844,346.19,713,752,0
629854,350.93,713,751,0
629864,360.47,713,754,0
629874,371.26,713,751,0
629884,382.54,713,753,0
629894,392.58,713,751,0
629904,401.57,713,752,0
629914,407.96,713,751,0
629924,412.64,713,752,0
629934,412.41,713,751,0
629944,409.88,713,752,0
629954,407.39,713,752,0
629964,405.60,713,753,0
629975,402.42,713,751,0
629985,399.51,713,754,0
629995,395.50,713,752,0
630005,390.46,713,753,0
630016,384.15,713,751,0
630025,376.01,713,753,0
630035,366.11,713,751,0
630045,357.03,713,752,0
630055,348.66,713,751,0
630065,341.95,713,753,0
630075,337.29,713,751,0
630085,335.36,713,752,0
630095,336.15,713,751,0
630105,338.85,713,753,0
630115,342.24,713,751,0
630125,345.94,713,752,0
630135,349.73,713,751,0
630145,353.92,713,753,0
630155,357.80,713,751,0
630165,360.52,713,752,0
630175,362.64,713,750,0
630185,366.43,713,754,0
630195,369.60,713,751,0
630205,371.78,713,752,0
630215,372.57,713,751,0
630225,372.53,713,753,0
630235,371.43,713,751,0
630245,369.97,713,752,0
630255,366.34,713,751,0
630265,362.81,713,753,0
630275,359.82,713,751,0
630285,357.90,713,752,0
630295,356.52,713,751,0
630305,355.93,713,752,0
630316,355.83,713,751,0
630326,356.35,713,752,0
630336,358.90,713,752,0
630346,361.46,713,752,0
630356,364.19,713,751,0
630366,368.04,713,752,0
630376,374.67,713,751,0
630386,385.65,713,752,0
630396,402.77,713,752,0
630406,426.84,713,754,0
630425,459.67,853,752,0
630428,498.56,853,753,0
630437,540.86,853,752,0
630447,583.33,853,752,0
630457,623.48,853,751,0
630467,658.73,853,752,0
630477,686.16,853,752,0
630487,703.77,853,752,0
630497,713.14,853,752,0
630507,714.94,853,753,0
630517,707.76,853,751,0
630528,691.42,853,752,0
630537,667.25,853,750,0
630547,635.97,853,752,0
630557,602.94,853,753,0
630567,567.69,853,753,0
630577,531.69,853,751,0
630587,497.07,853,752,0
630597,467.65,853,753,0
630607,442.51,853,753,0
630617,421.32,853,751,0
630627,400.35,853,752,0
630637,381.60,853,751,0
630647,365.61,853,752,0
630657,353.98,853,750,0
630667,344.86,853,752,0
630677,339.07,853,751,0
630687,336.82,853,752,0
630697,339.53,853,752,0
630707,345.84,853,752,0
630717,354.89,853,752,0
630727,365.04,853,751,0
630737,377.46,853,752,0
630747,389.58,853,753,0
630757,400.33,853,752,0
630767,407.77,853,752,0
630777,412.47,853,751,0
630787,414.09,853,752,0
630797,413.59,853,752,0
630807,408.61,853,752,0
630817,401.53,853,751,0
630828,392.97,853,752,0
630838,384.62,853,752,0
630848,376.12,853,752,0
630858,368.46,853,751,0
630868,361.08,853,752,0
630878,354.88,853,751,0
630888,349.13,853,752,0
630898,344.76,853,750,0
630908,340.85,853,751,0
630918,338.32,853,751,0
630928,336.21,853,751,0
630938,336.79,853,752,0
630948,337.15,853,752,0
630958,338.05,853,752,0
630968,338.59,853,752,0
630978,339.83,853,751,0
630988,340.61,853,752,0
630999,342.01,853,752,0
631009,342.31,853,753,0
631019,343.93,853,752,0
631029,345.45,853,752,0
631040,347.89,853,753,0
631049,349.89,853,752,0
631059,352.58,853,752,0
631069,354.59,853,752,0
631079,357.03,853,753,0
631089,358.13,853,752,0
631099,359.42,853,751,0
631109,359.94,853,752,0
631119,361.76,853,752,0
631129,364.32,853,752,0
631139,370.31,853,752,0
631149,380.41,853,752,0
631159,397.26,853,753,0
631169,420.20,853,753,0
631179,449.62,853,753,0
631198,482.39,773,751,0
631201,517.63,773,753,0
631211,552.16,773,752,0
631220,583.01,773,752,0
631230,607.26,773,751,0
631240,625.57,773,753,0
631250,635.26,773,752,0
631260,636.55,773,752,0
631270,628.89,773,751,0
631280,613.88,773,752,0
631290,592.06,773,751,0
631300,566.50,773,752,0
631310,536.56,773,751,0
631320,505.66,773,752,0
631330,475.17,773,751,0
631340,447.52,773,752,0
631350,422.16,773,751,0
631360,400.47,773,752,0
631370,382.33,773,752,0
631380,368.90,773,753,0
631390,357.27,773,751,0
631400,348.62,773,752,0
631410,342.09,773,751,0
631420,338.98,773,752,0
631430,338.17,773,751,0
631440,340.56,773,753,0
631450,343.48,773,751,0
631460,349.72,773,752,0
631470,357.69,773,751,0
631480,367.55,773,752,0
631490,378.79,773,752,0
631500,389.74,773,752,0
631511,397.32,773,751,0
631521,403.61,773,753,0
631531,407.11,773,751,0
631541,410.16,773,754,0
631552,410.33,773,751,0
631561,406.42,773,753,0
631571,399.95,773,751,0
631581,392.89,773,752,0
631591,384.65,773,751,0
631601,376.79,773,753,0
631611,367.25,773,751,0
631621,358.65,773,752,0
631631,351.60,773,751,0
631641,346.57,773,753,0
631651,342.50,773,751,0
631661,340.29,773,752,0
631671,338.62,773,750,0
631681,339.25,773,754,0
631691,342.09,773,752,0
631701,346.05,773,753,0
631711,350.10,773,751,0
631721,353.59,773,752,0
631731,355.81,773,751,0
631741,358.10,773,753,0
631751,360.38,773,751,0
631761,362.02,773,753,0
631771,363.52,773,752,0
631781,365.89,773,754,0
631791,369.31,773,752,0
631801,372.64,773,753,0
631811,374.29,773,751,0
631821,373.78,773,753,0
631831,371.32,773,750,0
631841,368.14,773,753,0
631852,364.19,773,751,0
631862,361.14,773,753,0
631872,360.71,773,751,0
631882,365.08,773,753,0
631892,374.36,773,751,0
631902,389.68,773,753,0
631912,410.78,773,750,0
631922,438.91,773,753,0
631942,472.33,743,752,0
631945,509.86,743,753,0
631954,549.20,743,751,0
631964,587.50,743,753,0
631974,621.76,743,751,0
631984,649.78,743,753,0
631994,670.59,743,752,0
632004,682.67,743,754,0
632014,684.18,743,752,0
632024,675.08,743,753,0
632034,656.67,743,751,0
632044,630.63,743,753,0
632054,599.50,743,751,0
632065,563.31,743,752,0
632075,525.89,743,751,0
632085,489.66,743,752,0
632095,456.72,743,752,0
632105,428.05,743,753,0
632115,405.15,743,751,0
632125,386.42,743,752,0
632135,372.24,743,752,0
632145,361.11,743,752,0
632155,353.79,743,751,0
632165,349.27,743,752,0
632175,347.90,743,751,0
632185,348.15,743,752,0
632195,351.32,743,751,0
632205,356.41,743,752,0
632215,363.78,743,751,0
632225,371.78,743,752,0
632236,380.76,743,751,0
632246,388.93,743,752,0
632256,396.49,743,751,0
632266,402.35,743,753,0
632276,407.34,743,752,0
632286,409.47,743,752,0
632296,409.41,743,752,0
632306,405.99,743,752,0
632316,400.94,743,751,0
632326,393.80,743,752,0
632336,385.93,743,752,0
632346,376.14,743,752,0
632356,367.05,743,752,0
632366,358.29,743,752,0
632376,351.35,743,752,0
632386,345.03,743,752,0
632396,340.74,743,752,0
632407,337.04,743,752,0
632417,336.22,743,753,0
632427,337.52,743,753,0
632437,340.54,743,753,0
632448,342.86,743,752,0
632457,345.22,743,752,0
632467,346.35,743,752,0
632477,348.09,743,752,0
632487,348.36,743,751,0
632497,347.87,743,752,0
632507,346.88,743,751,0
632517,347.94,743,752,0
632527,349.93,743,751,0
632537,353.90,743,752,0
632547,358.21,743,752,0
632557,363.25,743,752,0
632567,367.12,743,751,0
632577,371.07,743,752,0
632587,373.40,743,751,0
632597,375.55,743,752,0
632607,376.12,743,751,0
632617,376.55,743,752,0
632627,377.03,743,752,0
632637,381.56,743,754,0
632647,388.17,743,752,0
632657,398.62,743,752,0
632667,413.05,743,751,0
632677,434.25,743,752,0
632696,461.34,755,751,0
632699,495.48,755,754,0
632708,531.47,755,751,0
632718,568.96,755,753,0
632728,605.78,755,751,0
632738,640.39,755,752,0
632748,668.73,755,751,0
632758,690.84,755,754,0
632768,703.15,755,752,0
632778,705.63,755,753,0
632788,698.07,755,751,0
632798,682.28,755,752,0
632808,658.45,755,750,0
632818,629.77,755,752,0
632828,596.93,755,752,0
632838,563.05,755,753,0
632848,529.01,755,750,0
632858,498.28,755,752,0
632868,469.86,755,751,0
632878,445.52,755,752,0
632888,426.29,755,752,0
632898,411.42,755,754,0
632908,398.82,755,752,0
632919,389.75,755,753,0
632929,382.58,755,751,0
632939,377.43,755,753,0
632949,373.62,755,751,0
632960,370.30,755,752,0
632969,367.34,755,750,0
632979,366.98,755,753,0
632989,368.70,755,750,0
632999,373.55,755,753,0
633009,381.91,755,751,0
633019,392.74,755,754,0
633029,401.73,755,751,0
633039,409.05,755,753,0
633049,413.02,755,750,0
633059,414.77,755,752,0
633069,413.04,755,751,0
633079,409.60,755,754,0
633089,403.46,755,751,0
633099,396.81,755,753,0
633109,389.54,755,751,0
633119,382.78,755,752,0
633129,376.37,755,750,0
633139,372.96,755,754,0
633149,367.62,755,750,0
633159,362.76,755,752,0
633169,359.19,755,750,0
633179,357.67,755,752,0
633189,357.22,755,751,0
633199,360.36,755,754,0
633209,363.04,755,752,0
633219,367.79,755,754,0
633229,371.71,755,751,0
633239,374.54,755,753,0
633249,375.58,755,750,0
633260,376.18,755,752,0
633270,373.59,755,750,0
633280,369.99,755,752,0
633290,368.58,755,751,0
633300,369.90,755,753,0
633310,372.80,755,751,0
633320,376.33,755,753,0
633330,379.53,755,751,0
633340,382.16,755,752,0
633350,384.25,755,750,0
633360,383.28,755,752,0
633370,380.79,755,750,0
633380,378.33,755,752,0
633390,378.32,755,751,0
633400,380.19,755,753,0
633410,381.81,755,750,0
633420,382.68,755,752,0
633431,382.95,755,751,0
633441,383.05,755,752,0
633451,384.11,755,751,0
633461,384.80,755,752,0
633472,387.35,755,751,0
633481,395.21,755,753,0
633500,411.35,804,752,0
633503,435.76,804,753,0
633512,466.95,804,751,0
633522,503.05,804,752,0
633532,542.68,804,751,0
633542,582.72,804,752,0
633552,620.94,804,751,0
633562,653.66,804,752,0
633572,680.03,804,752,0
633582,700.72,804,753,0
633592,715.25,804,753,0
633602,721.43,804,753,0
633612,718.47,804,751,0
633622,707.27,804,752,0
633632,688.51,804,751,0
633643,662.90,804,752,0
633652,631.73,804,751,0
633662,597.31,804,753,0
633672,563.79,804,752,0
633682,531.37,804,752,0
633692,501.43,804,751,0
633702,474.56,804,752,0
633712,451.55,804,751,0
633722,431.63,804,752,0
633732,414.38,804,751,0
633742,399.01,804,751,0
633752,390.56,804,752,0
633762,387.14,804,753,0
633772,388.00,804,752,0
633782,389.37,804,751,0
633792,391.87,804,751,0
633802,396.15,804,753,0
633812,403.78,804,753,0
633822,409.89,804,753,0
633832,413.86,804,752,0
633842,414.68,804,752,0
633852,414.90,804,751,0
633862,413.86,804,751,0
633872,412.79,804,752,0
633882,409.34,804,753,0
633892,403.79,804,751,0
633902,396.53,804,751,0
633912,390.03,804,751,0
633922,383.72,804,751,0
633932,381.15,804,752,0
633943,378.53,804,753,0
633953,375.50,804,752,0
633963,372.18,804,752,0
633973,370.32,804,752,0
633984,369.41,804,752,0
633993,369.76,804,752,0
634003,366.70,804,752,0
634013,362.29,804,752,0
634023,357.62,804,751,0
634033,355.29,804,752,0
634043,353.15,804,752,0
634053,351.35,804,751,0
634063,349.96,804,751,0
634073,351.17,804,752,0
634083,354.76,804,753,0
634093,359.33,804,752,0
634103,362.70,804,751,0
634113,366.65,804,751,0
634123,369.80,804,752,0
634133,373.29,804,751,0
634143,375.90,804,752,0
634153,377.77,804,753,0
634163,378.06,804,752,0
634173,378.77,804,752,0
634183,379.22,804,751,0
634193,382.16,804,752,0
634203,386.57,804,751,0
634213,394.84,804,751,0
634223,407.06,804,751,0
634233,422.94,804,747,0
634243,440.27,804,747,0
634253,462.91,804,746,0
634272,489.85,772,747,0
634275,521.95,772,748,0
634284,554.84,772,745,0
634294,585.91,772,748,0
634304,616.71,772,746,0
634314,647.27,772,747,0
634324,671.79,772,746,0
634334,687.88,772,748,0
634344,693.06,772,747,0
634354,689.10,772,747,0
634364,676.64,772,748,0
634374,655.92,772,748,0
634384,627.44,772,747,0
634394,594.74,772,748,0
634404,559.29,772,747,0
634414,524.19,772,749,0
634424,489.29,772,747,0
634434,456.59,772,748,0
634444,427.10,772,747,0
634455,402.81,772,749,0
634465,382.64,772,747,0
634475,367.45,772,748,0
634485,355.78,772,747,0
634496,349.38,772,749,0
634505,346.78,772,747,0
634515,348.52,772,748,0
634525,352.69,772,747,0
634535,359.00,772,748,0
634545,366.46,772,747,0
634555,375.58,772,748,0
634565,384.45,772,747,0
634575,393.14,772,749,0
634585,398.84,772,746,0
634595,403.43,772,748,0
634605,406.22,772,747,0
634615,407.44,772,749,0
634625,405.93,772,747,0
634635,403.81,772,750,0
634645,398.98,772,747,0
634655,394.23,772,749,0
634665,387.43,772,746,0
634675,381.43,772,749,0
634685,375.69,772,746,0
634695,370.00,772,748,0
634705,363.44,772,747,0
634715,358.51,772,748,0
634725,353.60,772,746,0
634735,351.53,772,748,0
634745,350.22,772,746,0
634755,350.37,772,748,0
634765,352.14,772,747,0
634775,355.06,772,748,0
634785,358.25,772,747,0
634796,363.49,772,748,0
634806,368.06,772,747,0
634816,370.74,772,748,0
634826,371.20,772,746,0
634836,370.89,772,747,0
634846,370.41,772,746,0
634856,370.54,772,748,0
634866,370.46,772,746,0
634876,371.05,772,748,0
634886,373.22,772,746,0
634896,376.76,772,748,0
634906,380.56,772,746,0
634916,383.95,772,748,0
634926,386.49,772,747,0
634936,388.32,772,748,0
634946,388.99,772,746,0
634956,388.74,772,748,0
634967,387.57,772,746,0
634977,386.24,772,748,0
634987,385.10,772,747,0
634997,385.24,772,748,0
635008,387.74,772,747,0
635017,393.95,772,749,0
635027,405.23,772,747,0
635046,422.56,774,744,0
635049,446.31,774,747,0
635058,477.16,774,749,0
635068,513.28,774,747,0
635078,551.56,774,748,0
635088,589.53,774,746,0
635098,624.99,774,748,0
635108,656.23,774,746,0
635118,682.22,774,749,0
635128,699.94,774,747,0
635138,708.57,774,749,0
635148,707.11,774,747,0
635158,697.31,774,748,0
635168,680.54,774,747,0
635179,656.77,774,747,0
635188,626.84,774,747,0
635198,593.59,774,748,0
635208,559.77,774,747,0
635218,528.34,774,748,0
635228,499.56,774,747,0
635238,473.08,774,749,0
635248,450.13,774,747,0
635258,430.46,774,749,0
635268,413.95,774,747,0
635278,400.08,774,749,0
635288,389.47,774,748,0
635298,381.74,774,749,0
635308,377.36,774,747,0
635318,375.88,774,749,0
635328,377.55,774,748,0
635338,381.41,774,749,0
635348,387.37,774,748,0
635358,394.33,774,749,0
635368,401.82,774,748,0
635378,408.64,774,749,0
635388,414.62,774,748,0
635398,418.76,774,749,0
635408,420.21,774,747,0
635418,419.37,774,748,0
635428,417.12,774,747,0
635438,413.31,774,748,0
635448,408.76,774,747,0
635458,403.30,774,748,0
635468,397.77,774,747,0
635479,392.52,774,747,0
635489,388.17,774,747,0
635499,384.00,774,748,0
635509,380.70,774,747,0
635520,377.58,774,747,0
635529,375.43,774,747,0
635539,373.72,774,748,0
635549,373.50,774,747,0
635559,373.18,774,748,0
635569,373.34,774,747,0
635579,373.67,774,748,0
635589,374.92,774,747,0
635599,375.76,774,748,0
635609,377.03,774,747,0
635619,377.71,774,748,0
635629,378.74,774,747,0
635639,379.16,774,748,0
635649,379.84,774,747,0
635659,380.06,774,748,0
635669,380.94,774,747,0
635679,381.47,774,748,0
635689,383.09,774,748,0
635699,384.99,774,748,0
635709,388.98,774,748,0
635719,394.69,774,748,0
635729,404.29,774,747,0
635739,418.05,774,749,0
635749,437.66,774,748,0
635759,462.11,774,748,0
635769,492.63,774,748,0
635788,527.46,742,748,0
635791,564.35,742,751,0
635800,600.24,742,750,0
635810,632.44,742,749,0
635820,657.47,742,750,0
635830,674.60,742,749,0
635840,680.89,742,749,0
635850,676.81,742,749,0
635860,662.29,742,749,0
635870,635.63,742,746,0
635880,609.99,742,753,0
635890,585.91,742,752,0
635900,561.68,742,752,0
635910,538.72,742,753,0
635920,515.92,742,753,0
635930,495.54,742,752,0
635940,480.04,742,752,0
635950,459.37,742,753,0
635960,435.26,742,753,0
635970,411.99,742,753,0
635980,390.10,742,752,0
635991,372.32,742,753,0
636001,358.17,742,752,0
636011,349.55,742,753,0
636021,345.18,742,752,0
636032,345.99,742,753,0
636041,349.80,742,752,0
636051,357.15,742,753,0
636061,365.63,742,752,0
636071,375.69,742,754,0
636081,384.91,742,752,0
636091,393.81,742,753,0
636101,400.38,742,752,0
636111,405.67,742,754,0
636121,407.95,742,752,0
636131,408.57,742,753,0
636141,406.30,742,752,0
636151,402.74,742,753,0
636161,396.99,742,752,0
636171,390.90,742,753,0
636181,383.52,742,752,0
636191,376.76,742,754,0
636201,369.72,742,752,0
636211,363.98,742,753,0
636221,358.58,742,752,0
636231,355.07,742,753,0
636241,352.13,742,752,0
636251,351.02,742,754,0
636261,350.24,742,752,0
636271,351.07,742,754,0
636281,352.08,742,752,0
636291,354.45,742,754,0
636301,356.38,742,752,0
636311,359.01,742,754,0
636321,360.98,742,752,0
636332,363.51,742,754,0
636342,365.33,742,752,0
636352,367.59,742,754,0
636362,369.00,742,752,0
636372,371.01,742,754,0
636382,372.55,742,752,0
636392,374.57,742,754,0
636402,375.99,742,752,0
636412,377.70,742,754,0
636422,378.74,742,752,0
636432,380.14,742,754,0
636442,380.74,742,752,0
636452,381.33,742,754,0
636462,381.11,742,752,0
636472,381.12,742,754,0
636482,380.74,742,752,0
636492,381.55,742,754,0
636503,383.40,742,752,0
636513,388.85,742,754,0
636523,398.49,742,752,0
636533,414.55,742,754,0
636553,437.35,764,753,0
636556,467.85,764,753,0
636565,504.19,764,752,0
636575,543.95,764,754,0
636585,583.78,764,752,0
636595,621.69,764,754,0
636605,655.21,764,752,0
636615,683.00,764,754,0
636625,703.06,764,752,0
636635,714.27,764,754,0
636645,717.28,764,752,0
636655,712.14,764,754,0
636665,699.41,764,752,0
636675,679.66,764,754,0
636685,653.53,764,752,0
636695,622.43,764,754,0
636705,589.09,764,752,0
636716,555.12,764,753,0
636726,522.77,764,752,0
636736,492.54,764,754,0
636746,465.50,764,752,0
636756,441.52,764,753,0
636766,421.74,764,752,0
636776,405.10,764,753,0
636786,392.43,764,752,0
636796,382.87,764,753,0
636806,377.12,764,752,0
636816,374.30,764,753,0
636826,374.94,764,752,0
636836,377.44,764,753,0
636846,382.41,764,752,0
636856,388.24,764,753,0
636866,395.20,764,752,0
636876,401.83,764,753,0
636887,408.22,764,752,0
636897,413.08,764,753,0
636907,416.87,764,752,0
636917,418.32,764,753,0
636928,418.48,764,753,0
636937,416.37,764,753,0
636947,413.21,764,752,0
636957,408.09,764,753,0
636967,402.49,764,753,0
636977,395.79,764,753,0
636987,389.55,764,752,0
636997,382.87,764,753,0
637007,377.30,764,753,0
637017,371.64,764,753,0
637027,367.46,764,752,0
637037,363.64,764,753,0
637047,361.39,764,753,0
637057,359.56,764,753,0
637067,359.30,764,752,0
637077,359.17,764,753,0
637087,360.40,764,753,0
637097,361.78,764,753,0
637107,364.21,764,752,0
637117,366.33,764,753,0
637127,369.27,764,753,0
637137,371.59,764,753,0
637147,374.54,764,752,0
637157,376.87,764,753,0
637167,379.61,764,753,0
637177,381.57,764,753,0
637187,383.93,764,752,0
637197,385.32,764,753,0
637207,386.85,764,753,0
637217,387.20,764,753,0
637228,387.74,764,753,0
637238,387.13,764,752,0
637248,386.83,764,753,0
637258,386.11,764,752,0
637268,386.85,764,753,0
637278,388.95,764,752,0
637288,395.10,764,753,0
637298,405.40,764,752,0
637308,422.59,764,753,0
637318,445.86,764,752,0
637337,476.41,785,751,0
637340,512.16,785,753,0
637349,551.07,785,754,0
637359,589.75,785,752,0
637369,626.38,785,754,0
637379,658.28,785,752,0
637389,684.34,785,754,0
637399,701.29,785,752,0
637409,709.22,785,754,0
637419,707.95,785,752,0
637429,698.97,785,754,0
637440,682.01,785,752,0
637449,658.69,785,753,0
637459,629.68,785,752,0
637469,598.36,785,754,0
637479,565.34,785,752,0
637489,533.74,785,753,0
637499,503.22,785,752,0
637509,476.15,785,754,0
637519,451.46,785,752,0
637529,430.80,785,754,0
637539,412.86,785,752,0
637549,398.97,785,754,0
637559,387.71,785,752,0
637569,380.30,785,754,0
637579,375.36,785,752,0
637589,374.10,785,753,0
637599,374.93,785,752,0
637609,378.72,785,754,0
637619,383.69,785,752,0
637629,390.55,785,754,0
637639,397.42,785,751,0
637649,404.75,785,754,0
637659,410.74,785,752,0
637669,415.83,785,754,0
637679,418.50,785,751,0
637689,419.55,785,754,0
637699,417.88,785,752,0
637709,414.96,785,754,0
637719,409.79,785,751,0
637729,403.81,785,754,0
637740,396.58,785,752,0
637750,389.42,785,754,0
637760,382.05,785,751,0
637770,375.52,785,754,0
637780,369.28,785,752,0
637790,364.40,785,754,0
637800,359.91,785,751,0
637810,356.76,785,754,0
637820,354.22,785,752,0
637830,352.95,785,754,0
637840,352.15,785,751,0
637850,352.28,785,754,0
637860,352.80,785,752,0
637870,354.36,785,754,0
637880,355.96,785,751,0
637890,358.25,785,754,0
637900,360.32,785,752,0
637911,362.83,785,754,0
637921,365.11,785,751,0
637931,367.44,785,754,0
637941,369.32,785,752,0
637952,371.15,785,754,0
637961,372.44,785,751,0
637971,373.72,785,754,0
637981,374.32,785,752,0
637991,374.44,785,754,0
638001,374.13,785,751,0
638011,373.45,785,754,0
638021,372.46,785,752,0
638031,371.72,785,754,0
638041,371.55,785,752,0
638051,373.74,785,754,0
638061,379.56,785,752,0
638071,390.58,785,754,0
638081,407.72,785,752,0
638091,432.36,785,754,0
638110,464.10,773,753,0
638113,502.00,773,755,0
638123,542.58,773,752,0
638132,583.21,773,754,0
638142,621.16,773,752,0
638152,654.88,773,754,0
638162,681.53,773,752,0
638172,699.24,773,754,0
638182,706.97,773,752,0
638192,705.44,773,754,0
638202,695.58,773,752,0
638212,678.05,773,754,0
638222,653.56,773,752,0
638232,623.82,773,754,0
638242,591.35,773,752,0
638252,558.03,773,754,0
638262,525.79,773,752,0
638272,495.43,773,754,0
638282,468.00,773,752,0
638292,443.96,773,753,0
638302,423.65,773,752,0
638312,406.83,773,754,0
638322,393.90,773,752,0
638332,384.50,773,753,0
638342,379.25,773,752,0
638352,377.50,773,754,0
638362,379.41,773,752,0
638372,384.30,773,753,0
638382,391.92,773,752,0
638392,401.08,773,754,0
638402,411.38,773,752,0
638412,421.34,773,753,0
638423,430.75,773,752,0
638433,438.20,773,753,0
638443,443.88,773,753,0
638453,446.83,773,753,0
638464,447.48,773,752,0
638473,445.45,773,753,0
638483,441.54,773,752,0
638493,435.55,773,753,0
638503,428.70,773,753,0
638513,420.78,773,754,0
638523,412.83,773,752,0
638533,404.52,773,753,0
638543,397.25,773,753,0
638553,390.41,773,753,0
638563,384.97,773,752,0
638573,380.22,773,753,0
638583,376.98,773,752,0
638593,374.63,773,753,0
638603,374.06,773,753,0
638613,373.87,773,753,0
638623,375.19,773,753,0
638633,376.68,773,753,0
638643,379.30,773,753,0
638653,381.87,773,753,0
638663,384.99,773,752,0
638673,387.44,773,753,0
638683,390.26,773,752,0
638693,392.37,773,753,0
638703,394.87,773,752,0
638713,396.54,773,753,0
638723,398.48,773,752,0
638733,400.61,773,753,0
638743,405.01,773,753,0
638753,411.74,773,753,0
638764,423.26,773,753,0
638774,439.64,773,753,0
638784,462.72,773,753,0
638794,491.30,773,753,0
638804,525.41,773,753,0
638814,561.76,773,753,0
638833,598.52,723,752,0
638836,631.96,723,753,0
638845,661.12,723,754,0
638855,682.25,723,752,0
638865,695.25,723,754,0
638875,697.92,723,752,0
638885,691.86,723,753,0
638895,677.33,723,752,0
638905,656.53,723,753,0
638915,629.37,723,752,0
638925,599.56,723,754,0
638935,567.59,723,752,0
638945,536.43,723,753,0
638955,506.09,723,752,0
638965,478.67,723,754,0
638976,453.61,723,752,0
638985,432.64,723,754,0
638995,414.37,723,752,0
639005,400.16,723,754,0
639015,388.79,723,752,0
639025,381.78,723,753,0
639035,377.56,723,752,0
639045,377.27,723,754,0
639055,379.11,723,752,0
639065,384.01,723,753,0
639075,390.09,723,752,0
639085,397.95,723,754,0
639095,405.34,723,752,0
639105,412.99,723,753,0
639115,418.82,723,752,0
639125,423.76,723,754,0
639135,426.40,723,753,0
639145,427.40,723,754,0
639155,425.78,723,753,0
639165,422.93,723,754,0
639175,417.85,723,752,0
639185,412.32,723,754,0
639195,405.46,723,752,0
639205,398.72,723,754,0
639215,391.43,723,752,0
639225,385.13,723,754,0
639235,378.75,723,752,0
639245,373.90,723,754,0
639255,369.21,723,752,0
639265,366.11,723,753,0
639276,363.50,723,752,0
639286,362.45,723,754,0
639296,361.63,723,752,0
639306,362.26,723,754,0
639316,362.95,723,752,0
639326,364.85,723,754,0
639336,366.35,723,752,0
639346,368.35,723,754,0
639356,370.09,723,752,0
639366,372.50,723,754,0
639376,374.71,723,752,0
639386,377.32,723,754,0
639396,379.16,723,752,0
639406,381.34,723,754,0
639416,382.57,723,752,0
639426,383.77,723,754,0
639436,383.79,723,752,0
639447,383.38,723,754,0
639457,381.94,723,752,0
639467,380.50,723,754,0
639477,378.34,723,752,0
639488,376.48,723,754,0
639497,374.11,723,752,0
639507,372.49,723,754,0
639517,370.97,723,752,0
639527,370.98,723,754,0
639537,372.74,723,752,0
639547,378.35,723,754,0
639557,388.74,723,752,0
639567,406.18,723,754,0
639586,430.55,753,753,0
639589,463.04,753,755,0
639598,501.30,753,752,0
639608,542.61,753,754,0
639618,583.91,753,752,0
639628,622.85,753,754,0
639638,656.84,753,752,0
639648,684.79,753,754,0
639659,705.38,753,752,0
639668,718.21,753,754,0
639678,723.33,753,752,0
639688,720.92,753,754,0
639698,711.04,753,752,0
639708,694.44,753,754,0
639718,671.21,753,752,0
639728,642.13,753,754,0
639738,609.48,753,752,0
639748,576.04,753,754,0
639758,543.50,753,752,0
639768,513.22,753,754,0
639778,485.55,753,752,0
639788,461.52,753,754,0
639798,441.00,753,752,0
639808,424.07,753,754,0
639818,410.38,753,752,0
639828,399.89,753,754,0
639838,392.55,753,752,0
639848,388.32,753,754,0
639858,386.85,753,752,0
639868,387.92,753,754,0
639878,391.08,753,752,0
639888,395.98,753,754,0
639898,401.90,753,752,0
639908,408.36,753,754,0
639918,414.68,753,752,0
639928,420.30,753,754,0
639938,424.84,753,752,0
639948,427.93,753,754,0
639959,429.28,753,752,0
639969,428.81,753,754,0
639979,426.72,753,752,0
639989,422.91,753,753,0
640000,417.96,753,752,0
640009,412.06,753,754,0
640019,405.83,753,752,0
640029,399.15,753,754,0
640039,392.98,753,752,0
640049,386.98,753,754,0
640059,381.97,753,752,0
640069,377.53,753,754,0
640079,374.15,753,752,0
640089,371.54,753,754,0
640099,370.18,753,752,0
640109,369.39,753,754,0
640119,369.70,753,752,0
640129,370.52,753,754,0
640139,372.25,753,752,0
640149,374.06,753,754,0
640159,376.27,753,752,0
640169,378.29,753,754,0
640179,380.52,753,752,0
640189,382.38,753,754,0
640199,384.28,753,752,0
640209,385.44,753,754,0
640219,386.68,753,752,0
640229,387.25,753,754,0
640239,387.86,753,752,0
640249,387.56,753,754,0
640259,387.13,753,752,0
640269,386.06,753,754,0
640279,385.40,753,752,0
640289,385.11,753,754,0
640300,386.58,753,753,0
640310,390.39,753,753,0
640320,398.84,753,752,0
640330,412.43,753,753,0
640340,433.05,753,753,0
640350,459.86,753,754,0
640369,492.86,783,752,0
640372,529.80,783,753,0
640381,568.48,783,754,0
640391,605.92,783,754,0
640401,640.14,783,753,0
640411,667.27,783,753,0
640421,686.43,783,754,0
640431,695.47,783,753,0
640441,695.25,783,753,0
640451,685.62,783,753,0
640461,668.46,783,753,0
640471,644.11,783,753,0
640481,615.79,783,752,0
640491,584.57,783,753,0
640501,553.41,783,753,0
640512,522.56,783,753,0
640521,494.92,783,753,0
640531,469.44,783,753,0
640541,447.75,783,753,0
640551,428.67,783,753,0
640561,413.30,783,752,0
640571,400.39,783,753,0
640581,391.06,783,753,0
640591,383.71,783,753,0
640601,379.64,783,753,0
640611,377.61,783,753,0
640621,378.80,783,753,0
640631,381.51,783,753,0
640641,386.63,783,753,0
640651,392.19,783,753,0
640661,398.90,783,753,0
640671,404.84,783,753,0
640681,410.72,783,753,0
640691,414.66,783,753,0
640701,417.68,783,753,0
640711,418.12,783,753,0
640721,417.52,783,753,0
640731,414.45,783,753,0
640741,410.59,783,753,0
640751,404.97,783,753,0
640761,399.02,783,753,0
640771,391.94,783,753,0
640781,385.36,783,753,0
640791,378.18,783,753,0
640801,372.08,783,753,0
640812,365.97,783,753,0
640822,361.40,783,754,0
640832,357.25,783,752,0
640842,354.95,783,754,0
640852,353.12,783,752,0
640862,353.13,783,754,0
640872,353.43,783,753,0
640882,355.44,783,754,0
640892,357.50,783,752,0
640902,360.99,783,754,0
640912,364.29,783,753,0
640922,368.41,783,754,0
640932,371.88,783,752,0
640942,376.12,783,754,0
640952,379.51,783,753,0
640962,383.17,783,754,0
640972,385.56,783,752,0
640983,387.79,783,754,0
640993,388.80,783,752,0
641003,389.72,783,754,0
641013,389.33,783,752,0
641024,389.19,783,754,0
641033,388.75,783,752,0
641043,390.41,783,754,0
641053,394.27,783,752,0
641063,402.68,783,754,0
641073,415.84,783,752,0
641083,436.16,783,754,0
641093,462.69,783,752,0
641113,496.12,743,751,0
641116,533.24,743,753,0
641125,571.87,743,754,0
641135,609.15,743,752,0
641145,643.61,743,754,0
641155,671.92,743,752,0
641165,692.43,743,755,0
641175,702.76,743,752,0
641185,703.43,743,754,0
641196,695.25,743,752,0
641206,679.19,743,754,0
641216,655.82,743,752,0
641226,627.03,743,754,0
641236,595.18,743,752,0
641246,562.55,743,754,0
641256,530.67,743,752,0
641266,500.86,743,754,0
641276,473.86,743,752,0
641286,450.20,743,754,0
641296,429.83,743,752,0
641306,412.52,743,754,0
641316,398.48,743,752,0
641326,387.54,743,754,0
641336,379.79,743,752,0
641346,375.01,743,754,0
641356,373.38,743,752,0
641367,374.46,743,754,0
641377,378.27,743,752,0
641387,383.76,743,754,0
641397,390.82,743,753,0
641408,398.20,743,754,0
641417,405.73,743,752,0
641427,412.15,743,754,0
641437,417.51,743,753,0
641447,420.70,743,754,0
641457,422.24,743,752,0
641467,421.40,743,754,0
641477,419.09,743,753,0
641487,414.74,743,754,0
641497,409.42,743,752,0
641507,402.91,743,754,0
641517,396.38,743,753,0
641527,389.32,743,754,0
641537,382.84,743,752,0
641547,376.46,743,754,0
641557,371.18,743,753,0
641567,366.32,743,754,0
641577,362.88,743,752,0
641587,360.09,743,754,0
641597,358.78,743,753,0
641607,358.07,743,753,0
641617,358.74,743,752,0
641627,359.89,743,754,0
641637,362.19,743,753,0
641647,364.36,743,753,0
641657,367.17,743,752,0
641667,369.60,743,753,0
641677,372.29,743,753,0
641687,374.26,743,754,0
641697,376.33,743,752,0
641708,377.90,743,753,0
641718,380.50,743,753,0
641728,383.87,743,753,0
641738,390.29,743,752,0
641748,399.93,743,753,0
641758,414.78,743,753,0
641768,434.60,743,753,0
641778,460.57,743,753,0
641788,490.82,743,753,0
641798,525.03,743,753,0
641817,559.61,705,752,0
641820,593.03,705,754,0
641829,621.86,705,753,0
641839,645.00,705,753,0
641849,659.36,705,753,0
641859,665.34,705,753,0
641869,661.51,705,753,0
641879,650.13,705,753,0
641889,631.27,705,753,0
641899,607.58,705,753,0
641909,579.68,705,752,0
641920,550.89,705,754,0
641929,521.52,705,753,0
641939,494.28,705,753,0
641949,468.27,705,753,0
641959,445.43,705,754,0
641969,424.77,705,753,0
641979,407.53,705,753,0
641989,392.24,705,753,0
641999,380.21,705,754,0
642009,370.03,705,753,0
642019,363.29,705,754,0
642029,358.62,705,752,0
642039,357.32,705,754,0
642049,357.82,705,753,0
642059,361.26,705,754,0
642069,365.77,705,753,0
642079,372.14,705,754,0
642089,378.31,705,753,0
642099,385.12,705,754,0
642109,390.44,705,752,0
642119,395.24,705,754,0
642129,397.78,705,753,0
642139,399.30,705,754,0
642149,398.44,705,752,0
642159,396.77,705,754,0
642169,392.98,705,752,0
642179,389.00,705,754,0
642189,383.69,705,752,0
642199,378.77,705,754,0
642209,373.01,705,753,0
642220,368.21,705,754,0
642230,363.09,705,752,0
642240,359.33,705,754,0
642250,355.55,705,752,0
642260,353.20,705,754,0
642270,350.91,705,752,0
642280,350.12,705,754,0
642290,349.36,705,753,0
642300,349.89,705,754,0
642310,350.31,705,752,0
642320,351.85,705,754,0
642330,353.09,705,752,0
642340,355.21,705,754,0
642350,356.82,705,752,0
642360,359.14,705,754,0
642370,360.81,705,752,0
642380,363.10,705,754,0
642391,364.57,705,752,0
642401,366.46,705,754,0
642411,367.60,705,752,0
642421,369.09,705,754,0
642432,369.71,705,752,0
642441,370.65,705,754,0
642451,370.63,705,752,0
642461,370.78,705,754,0
642471,370.25,705,752,0
642481,370.43,705,754,0
642491,370.86,705,752,0
642501,373.52,705,754,0
642511,378.72,705,752,0
642521,388.66,705,754,0
642531,403.85,705,752,0
642541,426.05,705,754,0
642561,454.19,743,753,0
642564,488.55,743,756,0
642573,526.83,743,752,0
642583,566.44,743,754,0
642593,604.45,743,752,0
642604,638.17,743,754,0
642614,664.35,743,752,0
642624,681.60,743,754,0
642634,688.66,743,752,0
642644,685.38,743,754,0
642654,673.44,743,752,0
642664,653.85,743,754,0
642674,628.69,743,752,0
642684,599.94,743,754,0
642694,570.05,743,752,0
642704,540.29,743,754,0
642714,512.35,743,752,0
642724,486.40,743,754,0
642734,463.56,743,752,0
642744,443.38,743,754,0
642754,426.30,743,752,0
642764,411.59,743,754,0
642775,399.63,743,753,0
642785,389.71,743,753,0
642795,382.51,743,752,0
642805,377.17,743,754,0
642816,374.51,743,753,0
642825,373.58,743,754,0
642835,374.87,743,752,0
642845,377.18,743,754,0
642855,380.98,743,753,0
642865,384.93,743,754,0
642875,389.32,743,752,0
642885,392.83,743,754,0
642895,396.14,743,753,0
642905,397.85,743,754,0
642915,398.84,743,753,0
642925,398.07,743,754,0
642935,396.59,743,753,0
642945,393.54,743,754,0
642955,390.12,743,753,0
642965,385.42,743,754,0
642975,380.79,743,753,0
642985,375.45,743,753,0
642995,370.65,743,753,0
643005,365.57,743,754,0
643015,361.41,743,753,0
643025,357.22,743,753,0
643035,354.19,743,753,0
643045,351.31,743,753,0
643055,349.80,743,753,0
643065,348.53,743,754,0
643075,348.46,743,753,0
643085,348.62,743,753,0
643095,349.98,743,753,0
643105,351.18,743,754,0
643116,353.31,743,753,0
643126,354.89,743,753,0
643136,357.02,743,753,0
643146,358.26,743,753,0
643156,359.72,743,753,0
643166,360.15,743,753,0
643176,360.83,743,753,0
643186,360.50,743,753,0
643196,360.48,743,753,0
643206,359.52,743,753,0
643216,359.06,743,753,0
643226,357.72,743,753,0
643236,357.12,743,753,0
643246,356.35,743,753,0
643256,357.49,743,753,0
643266,360.26,743,753,0
643276,367.21,743,753,0
643287,378.16,743,753,0
643297,395.51,743,754,0
643307,418.29,743,753,0
643326,447.56,766,752,0
643330,480.86,766,753,0
643339,517.59,766,755,0
643349,553.67,766,752,0
643359,587.50,766,754,0
643369,615.29,766,752,0
643379,636.33,766,754,0
643389,647.93,766,752,0
643399,650.78,766,754,0
643409,643.90,766,752,0
643419,630.05,766,754,0
643429,609.59,766,752,0
643439,585.63,766,754,0
643449,558.70,766,752,0
643459,531.74,766,754,0
643469,504.91,766,752,0
643479,480.29,766,754,0
643489,457.15,766,752,0
643500,437.52,766,754,0
643510,419.62,766,752,0
643520,404.60,766,754,0
643530,391.44,766,752,0
643540,381.19,766,754,0
643550,372.99,766,752,0
643560,367.68,766,754,0
643570,364.05,766,752,0
643580,363.26,766,754,0
643590,364.34,766,752,0
643600,367.58,766,754,0
643610,371.86,766,751,0
643620,377.18,766,754,0
643630,382.48,766,752,0
643640,387.82,766,754,0
643650,392.16,766,752,0
643660,395.63,766,754,0
643671,397.50,766,752,0
643681,397.99,766,754,0
643691,396.92,766,752,0
643701,394.63,766,754,0
643712,391.06,766,752,0
643721,386.92,766,754,0
643731,382.15,766,752,0
643741,377.13,766,754,0
643751,372.08,766,752,0
643761,367.43,766,754,0
643771,363.18,766,752,0
643781,359.27,766,754,0
643791,355.93,766,752,0
643801,353.21,766,754,0
643811,351.26,766,752,0
643821,349.94,766,754,0
643831,349.32,766,752,0
643841,349.31,766,754,0
643851,349.99,766,752,0
643861,351.02,766,754,0
643871,352.51,766,752,0
643881,354.12,766,754,0
643891,355.88,766,752,0
643901,357.59,766,754,0
643911,359.21,766,752,0
643921,360.65,766,754,0
643931,361.87,766,752,0
643941,362.64,766,754,0
643951,363.26,766,752,0
643961,363.35,766,754,0
643971,362.95,766,752,0
643981,362.11,766,754,0
643991,361.00,766,752,0
644001,359.54,766,754,0
644012,358.40,766,752,0
644022,357.72,766,754,0
644032,359.00,766,753,0
644042,362.95,766,754,0
644052,371.06,766,752,0
644062,383.77,766,754,0
644072,402.35,766,753,0
644082,426.63,766,754,0
644102,456.19,775,752,0
644105,488.96,775,754,0
644114,523.81,775,753,0
644124,557.04,775,754,0
644134,587.33,775,753,0
644144,611.40,775,753,0
644154,628.25,775,753,0
644164,636.32,775,753,0
644174,636.31,775,753,0
644184,627.60,775,753,0
644194,612.81,775,753,0
644204,592.21,775,753,0
644214,568.92,775,753,0
644225,543.31,775,753,0
644235,518.15,775,753,0
644245,493.29,775,753,0
644255,470.66,775,754,0
644265,449.55,775,752,0
644275,431.51,775,754,0
644285,415.12,775,753,0
644295,401.71,775,754,0
644305,390.10,775,753,0
644315,381.58,775,754,0
644325,374.85,775,753,0
644335,371.30,775,754,0
644345,369.54,775,752,0
644355,370.83,775,753,0
644365,373.54,775,753,0
644375,378.48,775,754,0
644385,383.78,775,752,0
644396,390.27,775,754,0
644406,395.89,775,752,0
644416,401.50,775,754,0
644426,405.38,775,752,0
644436,408.52,775,754,0
644446,409.35,775,752,0
644456,409.33,775,754,0
644466,407.22,775,752,0
644476,404.62,775,754,0
644486,400.45,775,753,0
644496,396.24,775,754,0
644506,391.03,775,752,0
644516,386.43,775,754,0
644526,381.33,775,753,0
644536,377.29,775,754,0
644546,373.13,775,752,0
644556,370.18,775,754,0
644567,367.21,775,752,0
644577,365.52,775,754,0
644587,363.95,775,752,0
644597,363.58,775,754,0
644608,363.19,775,752,0
644617,364.33,775,754,0
644627,365.26,775,752,0
644637,367.20,775,754,0
644647,368.81,775,752,0
644657,370.92,775,754,0
644667,372.62,775,752,0
644677,374.83,775,754,0
644687,376.21,775,752,0
644697,378.16,775,754,0
644707,379.49,775,752,0
644717,381.14,775,754,0
644727,382.25,775,752,0
644737,383.64,775,754,0
644747,384.22,775,752,0
644757,384.97,775,754,0
644767,385.10,775,752,0
644777,385.84,775,754,0
644787,387.01,775,752,0
644797,390.48,775,754,0
644807,396.46,775,752,0
644817,407.17,775,754,0
644827,422.29,775,752,0
644837,443.42,775,754,0
644856,469.69,755,753,0
644859,500.94,755,755,0
644868,534.99,755,752,0
644878,570.13,755,755,0
644888,603.05,755,752,0
644898,632.05,755,754,0
644908,654.36,755,752,0
644918,669.21,755,754,0
644928,675.32,755,752,0
644938,672.82,755,754,0
644948,662.29,755,752,0
644958,645.49,755,754,0
644968,623.57,755,752,0
644978,598.59,755,754,0
644988,571.71,755,752,0
644998,545.01,755,754,0
645008,518.99,755,752,0
645018,494.82,755,754,0
645028,472.55,755,752,0
645038,453.10,755,754,0
645048,436.18,755,752,0
645058,422.11,755,754,0
645068,410.64,755,752,0
645079,402.17,755,754,0
645089,396.46,755,752,0
645099,393.63,755,754,0
645109,393.22,755,752,0
645120,395.00,755,754,0
645129,398.64,755,752,0
645139,403.29,755,754,0
645149,408.60,755,752,0
645159,413.74,755,754,0
645169,418.32,755,752,0
645179,421.78,755,754,0
645189,424.07,755,752,0
645199,424.52,755,754,0
645209,423.42,755,752,0
645219,420.68,755,754,0
645229,416.75,755,752,0
645239,411.60,755,754,0
645249,405.80,755,752,0
645259,399.56,755,754,0
645269,393.52,755,752,0
645279,387.62,755,754,0
645289,382.38,755,753,0
645299,377.72,755,754,0
645309,374.03,755,752,0
645319,371.07,755,754,0
645329,369.16,755,752,0
645339,367.87,755,754,0
645349,367.74,755,752,0
645359,367.94,755,754,0
645369,368.99,755,753,0
645379,370.32,755,754,0
645389,372.11,755,752,0
645399,373.79,755,754,0
645409,375.83,755,753,0
645420,377.46,755,754,0
645430,379.42,755,753,0
645440,380.84,755,754,0
645450,382.43,755,753,0
645460,383.50,755,754,0
645470,384.55,755,753,0
645480,385.07,755,754,0
645490,385.52,755,753,0
645500,385.28,755,754,0
645510,385.11,755,753,0
645520,384.18,755,754,0
645530,383.61,755,753,0
645540,382.78,755,754,0
645550,382.98,755,753,0
645560,384.40,755,754,0
645570,389.04,755,753,0
645580,397.04,755,754,0
645591,410.57,755,753,0
645601,429.26,755,753,0
645620,454.34,764,752,0
645623,484.15,764,754,0
645633,518.60,764,754,0
645643,553.99,764,753,0
645653,589.05,764,754,0
645663,619.77,764,753,0
645673,645.08,764,754,0
645683,662.07,764,752,0
645693,671.05,764,754,0
645703,670.01,764,753,0
645713,661.39,764,754,0
645723,645.07,764,752,0
645733,624.09,764,754,0
645743,598.87,764,753,0
645753,572.51,764,754,0
645763,545.27,764,752,0
645773,519.86,764,754,0
645783,495.69,764,753,0
645793,474.61,764,754,0
645804,455.74,764,752,0
645814,440.18,764,754,0
645824,426.62,764,752,0
645834,416.15,764,754,0
645844,407.75,764,752,0
645854,402.47,764,754,0
645864,398.90,764,752,0
645874,397.99,764,754,0
645884,398.68,764,752,0
645894,401.60,764,754,0
645904,405.32,764,752,0
645914,410.37,764,754,0
645924,415.01,764,752,0
645934,420.15,764,754,0
645944,423.92,764,752,0
645954,427.07,764,754,0
645964,428.47,764,752,0
645975,428.97,764,754,0
645985,427.52,764,752,0
645995,425.35,764,754,0
646005,421.56,764,752,0
646016,417.45,764,754,0
646025,412.39,764,752,0
646035,407.51,764,754,0
646045,402.09,764,752,0
646055,397.05,764,754,0
646065,391.85,764,752,0
646075,387.56,764,754,0
646085,383.75,764,752,0
646095,381.00,764,754,0
646105,378.56,764,752,0
646115,377.32,764,754,0
646125,376.54,764,752,0
646135,376.80,764,754,0
646145,377.12,764,752,0
646155,378.11,764,754,0
646165,379.02,764,752,0
646175,380.47,764,754,0
646185,381.57,764,752,0
646195,383.03,764,754,0
646205,384.01,764,752,0
646215,385.20,764,754,0
646225,385.91,764,752,0
646235,386.84,764,754,0
646245,387.23,764,752,0
646255,387.72,764,754,0
646265,387.72,764,752,0
646275,387.89,764,754,0
646285,387.58,764,752,0
646295,387.45,764,754,0
646305,387.10,764,752,0
646316,387.54,764,754,0
646326,388.96,764,752,0
646336,392.75,764,754,0
646346,399.72,764,752,0
646356,411.46,764,754,0
646366,428.34,764,752,0
646376,451.29,764,754,0
646395,479.71,775,753,0
646398,512.62,775,755,0
646407,548.48,775,752,0
646417,584.85,775,754,0
646427,619.05,775,753,0
646437,648.56,775,754,0
646447,671.24,775,752,0
646457,685.70,775,754,0
646467,691.74,775,753,0
646477,688.48,775,754,0
646487,677.23,775,752,0
646497,659.04,775,754,0
646507,635.80,775,752,0
646517,608.94,775,754,0
646528,580.72,775,753,0
646537,552.04,775,754,0
646547,524.86,775,752,0
646557,499.36,775,754,0
646567,476.71,775,753,0
646577,456.95,775,754,0
646587,440.47,775,752,0
646597,426.61,775,754,0
646607,415.80,775,753,0
646617,407.59,775,754,0
646627,402.31,775,752,0
646637,399.13,775,754,0
646647,398.41,775,752,0
646657,399.44,775,754,0
646667,402.27,775,752,0
646677,405.87,775,754,0
646687,410.20,775,752,0
646697,414.17,775,754,0
646707,417.93,775,752,0
646717,420.44,775,754,0
646727,421.98,775,753,0
646737,421.68,775,754,0
646747,420.15,775,752,0
646757,416.89,775,754,0
646767,412.72,775,753,0
646777,407.19,775,753,0
646787,401.13,775,752,0
646797,394.37,775,754,0
646807,387.70,775,753,0
646817,380.67,775,753,0
646828,374.22,775,753,0
646838,367.72,775,754,0
646848,362.32,775,753,0
646858,357.25,775,753,0
646868,353.23,775,753,0
646878,349.69,775,754,0
646888,347.43,775,753,0
646898,345.41,775,753,0
646908,344.69,775,753,0
646918,344.05,775,754,0
646928,344.59,775,753,0
646938,345.06,775,753,0
646948,346.54,775,753,0
646958,347.75,775,754,0
646968,349.63,775,753,0
646978,350.98,775,753,0
646988,352.91,775,753,0
646999,354.14,775,753,0
647009,355.86,775,753,0
647019,356.67,775,753,0
647029,357.97,775,753,0
647040,358.49,775,753,0
647049,359.42,775,753,0
647059,359.46,775,753,0
647069,359.80,775,753,0
647079,359.26,775,753,0
647089,359.27,775,753,0
647099,358.97,775,753,0
647109,360.65,775,753,0
647119,364.01,775,753,0
647129,371.55,775,753,0
647139,383.22,775,753,0
647149,401.62,775,753,0
647159,425.74,775,753,0
647178,456.37,783,752,0
647181,490.89,783,753,0
647190,529.15,783,754,0
647200,566.91,783,753,0
647211,602.85,783,754,0
647220,632.64,783,752,0
647230,655.72,783,754,0
647240,669.39,783,753,0
647250,674.41,783,754,0
647260,669.40,783,752,0
647270,656.94,783,754,0
647280,637.16,783,753,0
647290,612.98,783,754,0
647300,585.22,783,753,0
647310,557.08,783,754,0
647320,528.51,783,752,0
647330,501.96,783,754,0
647340,476.94,783,753,0
647350,455.40,783,754,0
647360,436.30,783,753,0
647370,420.86,783,754,0
647380,407.66,783,752,0
647390,398.46,783,754,0
647400,391.60,783,753,0
647410,388.46,783,754,0
647420,387.46,783,752,0
647430,389.85,783,754,0
647440,393.75,783,753,0
647450,400.00,783,754,0
647460,406.64,783,752,0
647470,414.29,783,754,0
647480,420.85,783,753,0
647490,427.06,783,754,0
647500,431.16,783,752,0
647511,434.20,783,754,0
647521,434.74,783,752,0
647531,433.96,783,754,0
647541,430.80,783,752,0
647552,426.83,783,754,0
647561,421.10,783,752,0
647571,415.28,783,754,0
647581,408.38,783,752,0
647591,402.01,783,754,0
647601,395.19,783,752,0
647611,389.69,783,754,0
647621,384.38,783,752,0
647631,380.58,783,754,0
647641,376.98,783,752,0
647651,374.89,783,754,0
647661,373.25,783,752,0
647671,373.00,783,754,0
647681,372.87,783,752,0
647691,374.03,783,754,0
647701,375.09,783,752,0
647711,377.21,783,754,0
647721,379.07,783,752,0
647731,381.54,783,754,0
647741,383.43,783,752,0
647751,386.00,783,754,0
647761,387.97,783,752,0
647771,390.30,783,754,0
647781,391.66,783,752,0
647791,392.92,783,754,0
647801,393.07,783,752,0
647811,393.39,783,755,0
647821,392.33,783,753,0
647831,391.33,783,754,0
647841,390.03,783,752,0
647852,390.28,783,754,0
647862,392.51,783,753,0
647872,398.66,783,754,0
647882,409.13,783,752,0
647892,425.85,783,755,0
647902,448.22,783,752,0
647912,476.70,783,754,0
647931,509.49,753,753,0
647934,545.09,753,756,0
647943,581.23,753,752,0
647953,615.28,753,754,0
647963,644.25,753,753,0
647973,666.42,753,755,0
647983,680.09,753,752,0
647993,684.95,753,754,0
648003,680.85,753,752,0
648013,668.42,753,754,0
648023,649.05,753,752,0
648033,624.78,753,754,0
648043,597.42,753,752,0
648053,568.71,753,754,0
648064,540.04,753,753,0
648073,512.94,753,754,0
648083,487.93,753,752,0
648093,465.67,753,754,0
648103,446.35,753,753,0
648113,430.09,753,754,0
648123,416.82,753,752,0
648133,406.59,753,754,0
648143,399.34,753,752,0
648153,395.00,753,754,0
648163,393.33,753,752,0
648173,394.08,753,754,0
648183,397.02,753,752,0
648193,401.64,753,754,0
648203,407.36,753,752,0
648213,413.47,753,754,0
648223,419.37,753,752,0
648233,424.53,753,754,0
648243,428.36,753,752,0
648253,430.56,753,754,0
648263,431.08,753,752,0
648273,429.69,753,754,0
648283,426.74,753,752,0
648293,422.27,753,754,0
648303,416.66,753,752,0
648313,410.21,753,754,0
648323,403.29,753,752,0
648333,396.17,753,754,0
648343,389.31,753,752,0
648353,382.53,753,754,0
648364,376.46,753,752,0
648374,371.05,753,754,0
648384,366.66,753,753,0
648394,363.16,753,754,0
648404,360.59,753,753,0
648414,358.82,753,754,0
648424,358.11,753,753,0
648434,357.90,753,754,0
648444,358.66,753,753,0
648454,359.75,753,754,0
648464,361.32,753,753,0
648474,362.90,753,754,0
648484,364.90,753,753,0
648494,366.94,753,754,0
648504,369.28,753,753,0
648514,371.04,753,754,0
648524,372.78,753,752,0
648535,373.83,753,754,0
648545,374.95,753,753,0
648555,375.23,753,754,0
648565,375.41,753,753,0
648576,375.16,753,753,0
648585,375.93,753,753,0
648595,377.84,753,754,0
648605,383.03,753,753,0
648615,391.50,753,754,0
648625,405.45,753,753,0
648635,424.73,753,754,0
648645,450.61,753,753,0
648655,481.50,753,754,0
648674,516.79,743,753,0
648677,553.15,743,754,0
648686,589.71,743,753,0
648696,622.71,743,754,0
648706,650.57,743,753,0
648716,670.41,743,754,0
648726,682.03,743,753,0
648736,683.91,743,753,0
648747,677.85,743,753,0
648756,663.54,743,754,0
648766,643.70,743,753,0
648776,618.94,743,753,0
648786,592.38,743,753,0
648796,564.63,743,753,0
648806,538.55,743,753,0
648816,513.44,743,753,0
648826,491.20,743,754,0
648836,470.69,743,753,0
648846,453.47,743,753,0
648856,438.03,743,753,0
648866,425.55,743,753,0
648876,414.76,743,754,0
648886,407.03,743,753,0
648896,401.06,743,753,0
648906,398.17,743,753,0
648916,396.84,743,753,0
648926,398.13,743,753,0
648936,400.45,743,753,0
648946,404.51,743,754,0
648956,408.64,743,753,0
648966,413.51,743,753,0
648976,417.34,743,753,0
648986,421.05,743,753,0
648996,422.88,743,753,0
649006,423.99,743,753,0
649016,422.79,743,753,0
649026,420.75,743,754,0
649036,416.58,743,753,0
649047,411.95,743,754,0
649057,405.75,743,753,0
649067,399.83,743,754,0
649077,393.15,743,753,0
649088,387.41,743,754,0
649097,381.54,743,753,0
649107,377.14,743,754,0
649117,372.77,743,753,0
649127,369.92,743,754,0
649137,367.16,743,752,0
649147,365.74,743,754,0
649157,364.36,743,753,0
649167,364.25,743,754,0
649177,363.96,743,752,0
649187,364.92,743,754,0
649197,365.63,743,753,0
649207,367.45,743,754,0
649217,368.82,743,753,0
649227,371.10,743,754,0
649237,372.61,743,753,0
649247,374.62,743,754,0
649257,375.54,743,752,0
649267,376.84,743,754,0
649277,376.93,743,753,0
649287,377.34,743,754,0
649297,376.51,743,752,0
649307,376.18,743,754,0
649317,375.23,743,753,0
649327,375.80,743,754,0
649337,377.23,743,752,0
649347,381.96,743,754,0
649357,389.56,743,753,0
649367,402.72,743,754,0
649377,420.89,743,752,0
649388,445.69,743,754,0
649398,474.97,743,753,0
649417,508.79,743,751,0
649420,543.70,743,754,0
649430,578.76,743,755,0
649439,609.86,743,753,0
649449,635.75,743,754,0
649459,653.44,743,752,0
649469,663.08,743,755,0
649479,663.53,743,752,0
649489,656.51,743,754,0
649499,642.04,743,752,0
649509,622.66,743,754,0
649519,599.15,743,752,0
649529,574.20,743,754,0
649539,548.60,743,752,0
649549,523.99,743,754,0
649559,500.51,743,752,0
649569,479.31,743,754,0
649579,460.10,743,752,0
649589,443.79,743,755,0
649600,429.62,743,752,0
649609,418.08,743,754,0
649619,408.46,743,752,0
649629,401.50,743,754,0
649639,396.64,743,752,0
649649,394.39,743,754,0
649659,393.89,743,752,0
649669,395.55,743,754,0
649679,398.56,743,752,0
649689,403.32,743,754,0
649699,408.28,743,752,0
649709,413.60,743,754,0
649719,418.09,743,752,0
649729,422.05,743,754,0
649739,424.43,743,752,0
649749,425.50,743,754,0
649759,424.45,743,752,0
649769,422.05,743,754,0
649779,418.09,743,752,0
649789,413.43,743,754,0
649799,407.60,743,752,0
649809,401.47,743,754,0
649819,394.90,743,752,0
649829,388.93,743,754,0
649839,383.34,743,752,0
649849,378.56,743,754,0
649859,374.28,743,752,0
649869,371.37,743,754,0
649879,369.33,743,752,0
649889,368.54,743,754,0
649900,368.38,743,752,0
649910,369.00,743,754,0
649920,370.03,743,752,0
649930,371.56,743,754,0
649940,373.24,743,752,0
649950,375.14,743,754,0
649960,377.11,743,752,0
649970,379.01,743,754,0
649980,380.93,743,752,0
649990,382.88,743,754,0
650000,384.67,743,752,0
650010,386.19,743,754,0
650020,387.29,743,752,0
650030,388.02,743,754,0
650040,388.23,743,752,0
650050,387.86,743,754,0
650060,387.13,743,752,0
650071,386.36,743,754,0
650081,386.25,743,752,0
650091,387.85,743,754,0
650101,392.14,743,752,0
650112,400.45,743,754,0
650121,413.86,743,752,0
650131,432.97,743,754,0
650141,458.10,743,753,0
650161,487.90,743,751,0
650164,521.27,743,754,0
650173,555.90,743,753,0
650183,589.79,743,753,0
650193,619.77,743,753,0
650203,644.14,743,753,0
650213,660.68,743,754,0
650223,669.35,743,753,0
650233,668.94,743,753,0
650243,661.03,743,753,0
650253,645.81,743,754,0
650263,626.15,743,753,0
650273,602.53,743,753,0
650284,577.86,743,753,0
650294,552.40,743,753,0
650304,528.67,743,754,0
650314,505.84,743,752,0
650324,485.92,743,754,0
650334,467.68,743,753,0
650344,452.78,743,754,0
650354,439.47,743,752,0
650364,429.43,743,754,0
650374,421.16,743,753,0
650384,416.01,743,753,0
650394,412.41,743,752,0
650404,411.69,743,754,0
650414,412.08,743,753,0
650424,414.84,743,753,0
650434,418.10,743,752,0
650444,422.92,743,754,0
650455,427.35,743,753,0
650465,432.31,743,754,0
650475,435.99,743,752,0
650485,439.25,743,754,0
650496,440.67,743,753,0
650505,441.20,743,754,0
650515,439.38,743,752,0
650525,436.87,743,754,0
650535,432.41,743,752,0
650545,427.57,743,754,0
650555,421.49,743,752,0
650565,415.73,743,754,0
650575,409.46,743,752,0
650585,404.35,743,754,0
650595,399.10,743,752,0
650605,395.34,743,754,0
650615,391.90,743,752,0
650625,390.09,743,754,0
650635,388.43,743,752,0
650645,388.13,743,754,0
650655,387.71,743,752,0
650665,388.44,743,754,0
650675,388.86,743,752,0
650685,390.10,743,754,0
650695,390.72,743,752,0
650705,392.00,743,754,0
650715,392.51,743,752,0
650725,393.56,743,754,0
650735,393.78,743,752,0
650745,394.49,743,754,0
650755,394.34,743,752,0
650765,394.71,743,754,0
650775,394.24,743,752,0
650785,394.30,743,754,0
650796,393.82,743,752,0
650806,394.30,743,754,0
650816,395.11,743,752,0
650826,398.12,743,754,0
650836,403.23,743,751,0
650846,412.76,743,754,0
650856,426.29,743,752,0
650866,445.36,743,754,0
650876,469.08,743,752,0
650886,497.34,743,754,0
650905,527.92,745,753,0
650908,559.19,745,755,0
650917,588.58,745,752,0
650927,614.76,745,754,0
650937,634.80,745,752,0
650947,647.98,745,754,0
650957,653.04,745,752,0
650967,650.80,745,754,0
650977,641.47,745,752,0
650987,626.25,745,754,0
650997,605.94,745,752,0
651008,582.99,745,754,0
651017,558.52,745,752,0
651027,534.45,745,754,0
651037,510.87,745,752,0
651047,489.14,745,754,0
651057,468.95,745,752,0
651067,451.14,745,754,0
651077,435.20,745,752,0
651087,421.47,745,754,0
651097,409.50,745,752,0
651107,400.05,745,754,0
651117,392.62,745,752,0
651127,387.76,745,754,0
651137,384.88,745,752,0
651147,384.44,745,754,0
651157,385.60,745,752,0
651167,388.33,745,754,0
651177,391.83,745,752,0
651187,396.17,745,754,0
651197,400.23,745,752,0
651207,404.15,745,754,0
651217,406.89,745,752,0
651227,408.85,745,754,0
651237,409.41,745,752,0
651247,408.86,745,754,0
651257,406.84,745,752,0
651267,404.10,745,754,0
651277,400.34,745,752,0
651287,396.08,745,754,0
651297,391.13,745,752,0
651308,386.08,745,754,0
651318,380.91,745,752,0
651328,376.05,745,754,0
651338,371.62,745,752,0
651348,367.75,745,754,0
651358,364.70,745,752,0
651368,362.56,745,753,0
651378,361.36,745,752,0
651388,361.00,745,754,0
651398,361.47,745,752,0
651408,362.53,745,754,0
651418,364.30,745,752,0
651428,366.31,745,754,0
651438,368.57,745,752,0
651448,370.80,745,754,0
651458,373.09,745,752,0
651468,375.03,745,754,0
651479,376.78,745,752,0
651489,377.96,745,753,0
651499,379.04,745,753,0
651509,379.33,745,754,0
651520,379.32,745,752,0
651529,378.62,745,753,0
651539,378.22,745,753,0
651549,377.64,745,754,0
651559,378.35,745,753,0
651569,380.34,745,753,0
651579,385.81,745,752,0
651589,395.04,745,753,0
651599,409.94,745,753,0
651609,430.06,745,753,0
651619,456.18,745,752,0
651638,486.86,733,751,0
651641,521.19,733,755,0
651650,556.36,733,753,0
651660,590.62,733,753,0
651670,620.35,733,754,0
651680,644.37,733,753,0
651691,660.46,733,753,0
651700,668.55,733,753,0
651710,668.09,733,753,0
651720,660.26,733,753,0
651730,645.78,733,753,0
651740,627.03,733,753,0
651750,604.52,733,753,0
651760,581.05,733,753,0
651770,556.69,733,753,0
651780,533.73,733,753,0
651790,511.78,733,753,0
651800,491.88,733,753,0
651810,473.36,733,753,0
651820,457.52,733,753,0
651830,442.92,733,754,0
651840,430.77,733,753,0
651850,419.61,733,753,0
651860,410.94,733,753,0
651870,403.89,733,753,0
651880,399.51,733,753,0
651890,396.61,733,753,0
651900,396.13,733,753,0
651910,396.65,733,754,0
651920,398.94,733,753,0
651930,401.27,733,753,0
651940,404.49,733,753,0
651950,406.83,733,753,0
651960,409.07,733,753,0
651970,409.77,733,753,0
651980,410.19,733,753,0
651991,408.84,733,753,0
652001,407.13,733,753,0
652011,403.66,733,753,0
652021,400.38,733,754,0
652032,395.89,733,752,0
652041,392.11,733,753,0
652051,387.49,733,753,0
652061,383.83,733,754,0
652071,379.85,733,753,0
652081,377.11,733,753,0
652091,374.16,733,753,0
652101,372.49,733,753,0
652111,370.45,733,753,0
652121,369.68,733,753,0
652131,368.57,733,753,0
652141,368.66,733,753,0
652151,368.25,733,752,0
652161,368.77,733,753,0
652171,368.75,733,753,0
652181,369.60,733,753,0
652191,369.89,733,752,0
652201,371.25,733,754,0
652211,371.86,733,753,0
652221,373.32,733,753,0
652231,374.29,733,752,0
652241,375.88,733,754,0
652251,376.69,733,753,0
652261,377.89,733,754,0
652271,378.05,733,753,0
652281,378.60,733,754,0
652291,378.29,733,753,0
652301,378.50,733,753,0
652311,378.95,733,753,0
652321,381.92,733,754,0
652332,387.22,733,752,0
652342,397.35,733,753,0
652352,412.16,733,752,0
652362,433.50,733,754,0
652382,460.01,743,753,0
652385,492.02,743,756,0
652394,526.81,743,752,0
652404,562.87,743,754,0
652414,596.34,743,752,0
652424,625.85,743,754,0
652434,648.14,743,752,0
652444,662.80,743,754,0
652454,668.17,743,752,0
652464,665.33,743,754,0
652474,654.43,743,752,0
652484,637.68,743,754,0
652494,615.83,743,752,0
652504,591.67,743,753,0
652514,565.97,743,752,0
652524,540.91,743,754,0
652534,516.25,743,752,0
652545,493.59,743,754,0
652555,472.71,743,752,0
652565,454.28,743,754,0
652575,437.66,743,752,0
652585,423.40,743,754,0
652595,411.02,743,752,0
652605,401.16,743,754,0
652615,393.44,743,752,0
652625,388.25,743,754,0
652635,385.30,743,752,0
652645,384.78,743,754,0
652655,386.18,743,752,0
652665,389.00,743,754,0
652675,392.64,743,752,0
652685,396.91,743,754,0
652695,400.96,743,752,0
652705,404.53,743,754,0
652716,406.86,743,752,0
652726,407.63,743,754,0
652736,407.01,743,752,0
652746,404.82,743,753,0
652756,401.32,743,752,0
652766,396.68,743,754,0
652776,391.16,743,752,0
652786,384.90,743,753,0
652796,378.54,743,752,0
652806,372.12,743,754,0
652816,366.21,743,752,0
652826,360.54,743,754,0
652836,355.79,743,752,0
652846,351.61,743,754,0
652856,348.51,743,752,0
652866,345.96,743,754,0
652876,344.60,743,752,0
652887,343.73,743,754,0
652897,343.90,743,753,0
652907,344.19,743,754,0
652917,345.50,743,753,0
652928,346.85,743,753,0
652937,349.04,743,753,0
652947,350.87,743,754,0
652957,353.27,743,753,0
652967,355.29,743,754,0
652977,357.64,743,753,0
652987,359.29,743,754,0
652997,361.18,743,753,0
653007,362.20,743,754,0
653017,363.21,743,753,0
653027,363.27,743,754,0
653037,363.41,743,753,0
653047,362.68,743,754,0
653057,362.35,743,753,0
653067,362.07,743,754,0
653077,363.72,743,753,0
653087,367.41,743,754,0
653097,375.34,743,753,0
653107,387.50,743,754,0
653117,406.03,743,753,0
653127,430.24,743,754,0
653147,460.89,765,752,0
653150,495.55,765,753,0
653159,533.70,765,753,0
653169,571.25,765,753,0
653179,606.92,765,754,0
653189,636.81,765,753,0
653199,659.93,765,753,0
653209,673.79,765,753,0
653219,679.60,765,754,0
653229,675.60,765,753,0
653239,664.32,765,753,0
653249,645.88,765,753,0
653259,623.55,765,754,0
653270,597.88,765,753,0
653279,571.86,765,753,0
653289,545.03,765,753,0
653299,520.25,765,754,0
653309,496.99,765,753,0
653319,477.06,765,753,0
653329,459.04,765,753,0
653339,444.46,765,754,0
653349,431.59,765,753,0
653359,421.86,765,753,0
653369,413.93,765,753,0
653379,409.41,765,754,0
653389,406.67,765,753,0
653399,406.94,765,753,0
653409,408.37,765,753,0
653419,412.25,765,754,0
653429,416.63,765,753,0
653440,422.40,765,753,0
653449,427.38,765,753,0
653459,432.54,765,754,0
653469,436.02,765,753,0
653479,438.84,765,753,0
653489,439.45,765,753,0
653499,438.97,765,754,0
653509,436.06,765,753,0
653519,432.49,765,753,0
653529,426.86,765,753,0
653539,421.07,765,754,0
653549,413.98,765,752,0
653559,407.34,765,753,0
653569,400.25,765,753,0
653579,394.39,765,754,0
653589,388.36,765,753,0
653599,383.88,765,753,0
653609,379.67,765,752,0
653619,377.24,765,754,0
653629,375.11,765,753,0
653639,374.61,765,754,0
653649,374.30,765,752,0
653659,375.49,765,754,0
653669,376.59,765,753,0
653679,378.77,765,754,0
653689,380.60,765,752,0
653699,383.29,765,754,0
653709,385.34,765,753,0
653719,387.98,765,754,0
653729,389.66,765,752,0
653740,391.78,765,754,0
653750,392.79,765,753,0
653760,394.14,765,754,0
653770,394.27,765,752,0
653780,394.57,765,754,0
653790,393.93,765,752,0
653800,394.12,765,754,0
653810,394.56,765,752,0
653820,397.69,765,754,0
653830,403.10,765,752,0
653840,413.40,765,754,0
653850,428.45,765,752,0
653860,449.83,765,754,0
653870,476.02,765,753,0
653889,506.92,743,751,0
653892,539.56,743,753,0
653901,573.03,743,754,0
653911,603.71,743,752,0
653921,629.98,743,754,0
653931,648.80,743,752,0
653941,660.18,743,754,0
653952,662.52,743,752,0
653961,657.39,743,754,0
653971,644.33,743,752,0
653981,625.76,743,754,0
653991,602.48,743,752,0
654001,577.39,743,754,0
654011,550.87,743,752,0
654021,525.28,743,754,0
654031,500.34,743,752,0
654041,477.87,743,754,0
654051,457.12,743,752,0
654061,439.13,743,754,0
654071,422.93,743,752,0
654081,409.41,743,754,0
654091,397.76,743,752,0
654101,388.87,743,754,0
654111,381.97,743,752,0
654121,377.95,743,754,0
654131,375.82,743,752,0
654141,376.22,743,754,0
654151,378.04,743,752,0
654161,381.76,743,754,0
654171,385.86,743,752,0
654181,390.57,743,754,0
654191,394.64,743,752,0
654201,398.44,743,754,0
654211,400.83,743,752,0
654221,402.30,743,754,0
654231,401.87,743,752,0
654241,400.53,743,754,0
654252,397.67,743,751,0
654262,394.04,743,754,0
654272,389.44,743,752,0
654282,384.47,743,754,0
654292,379.23,743,752,0
654302,374.36,743,754,0
654312,369.49,743,752,0
654322,365.27,743,754,0
654332,361.64,743,752,0
654342,358.87,743,754,0
654352,356.77,743,752,0
654362,355.47,743,754,0
654372,354.77,743,752,0
654382,354.92,743,754,0
654392,355.63,743,752,0
654402,356.99,743,754,0
654412,358.79,743,752,0
654423,360.95,743,754,0
654433,363.15,743,752,0
654443,365.42,743,754,0
654453,367.65,743,752,0
654464,369.47,743,754,0
654473,370.87,743,752,0
654483,371.68,743,754,0
654493,372.25,743,752,0
654503,372.30,743,754,0
654513,372.17,743,752,0
654523,371.60,743,754,0
654533,371.29,743,752,0
654543,370.99,743,754,0
654553,371.64,743,752,0
654563,373.50,743,754,0
654573,378.07,743,752,0
654583,386.06,743,754,0
654593,398.86,743,752,0
654603,417.29,743,754,0
654613,441.84,743,752,0
654632,471.59,743,751,0
654636,505.70,743,755,0
654644,541.87,743,754,0
654654,577.83,743,753,0
654664,610.41,743,754,0
654674,637.37,743,753,0
654684,656.76,743,754,0
654694,667.76,743,753,0
654704,669.38,743,754,0
654714,662.62,743,753,0
654724,648.33,743,754,0
654734,628.82,743,753,0
654744,604.96,743,753,0
654754,579.34,743,753,0
654764,552.84,743,754,0
654774,527.60,743,753,0
654784,503.42,743,754,0
654794,481.65,743,753,0
654804,461.74,743,754,0
654814,444.76,743,753,0
654824,429.58,743,754,0
654834,416.93,743,753,0
654844,406.07,743,754,0
654854,397.99,743,753,0
654864,391.69,743,754,0
654874,388.18,743,753,0
654884,386.16,743,754,0
654894,386.28,743,753,0
654904,387.48,743,753,0
654914,390.34,743,753,0
654924,393.45,743,754,0
654935,397.34,743,753,0
654945,400.33,743,753,0
654955,403.44,743,753,0
654965,405.07,743,753,0
654976,406.29,743,753,0
654985,405.65,743,753,0
654995,404.34,743,753,0
655005,401.32,743,753,0
655015,398.35,743,754,0
655025,393.96,743,753,0
655035,389.73,743,753,0
655045,384.54,743,753,0
655055,380.01,743,753,0
655065,375.08,743,753,0
655075,371.24,743,753,0
655085,367.05,743,753,0
655095,364.25,743,753,0
655105,361.73,743,753,0
655115,360.48,743,753,0
655125,359.22,743,753,0
655135,359.33,743,754,0
655145,359.14,743,753,0
655155,360.17,743,753,0
655165,360.68,743,753,0
655175,361.97,743,753,0
655185,362.80,743,753,0
655195,364.40,743,753,0
655205,365.27,743,753,0
655215,366.73,743,753,0
655225,367.28,743,753,0
655235,368.44,743,753,0
655245,368.74,743,753,0
655255,369.63,743,753,0
655265,369.57,743,753,0
655276,369.87,743,754,0
655286,369.22,743,753,0
655296,368.98,743,754,0
655306,368.22,743,752,0
655316,368.75,743,754,0
655326,370.07,743,753,0
655336,374.59,743,754,0
655346,382.00,743,752,0
655356,395.11,743,754,0
655366,412.99,743,753,0
655376,437.17,743,754,0
655395,465.53,763,752,0
655398,497.81,763,754,0
655407,531.30,763,753,0
655417,564.72,763,754,0
655427,593.78,763,753,0
655437,617.97,763,754,0
655447,634.14,763,753,0
655457,642.75,763,754,0
655467,642.48,763,752,0
655477,634.67,763,754,0
655488,619.51,763,752,0
655497,599.99,763,754,0
655507,576.46,763,752,0
655517,551.89,763,754,0
655527,526.43,763,752,0
655537,502.60,763,754,0
655547,479.92,763,752,0
655557,460.10,763,754,0
655567,442.11,763,752,0
655577,427.25,763,754,0
655587,414.10,763,752,0
655597,403.96,763,754,0
655607,395.44,763,752,0
655617,389.95,763,754,0
655627,385.98,763,753,0
655637,384.53,763,754,0
655647,384.11,763,752,0
655657,385.84,763,754,0
655667,388.24,763,753,0
655677,392.03,763,754,0
655687,395.49,763,753,0
655697,399.37,763,754,0
655707,402.30,763,753,0
655717,405.13,763,754,0
655727,406.37,763,752,0
655737,407.08,763,754,0
655747,405.98,763,752,0
655757,404.27,763,754,0
655767,401.02,763,752,0
655777,397.50,763,754,0
655788,392.85,763,752,0
655798,388.39,763,754,0
655808,383.26,763,752,0
655818,378.90,763,755,0
655828,374.34,763,752,0
655838,370.85,763,754,0
655848,367.47,763,752,0
655858,365.19,763,755,0
655868,363.24,763,752,0
655878,362.44,763,754,0
655888,361.75,763,752,0
655898,362.00,763,754,0
655908,362.34,763,752,0
655918,363.48,763,754,0
655928,364.58,763,752,0
655938,366.21,763,754,0
655948,367.64,763,752,0
655959,369.47,763,754,0
655969,371.00,763,752,0
655979,372.63,763,754,0
655989,373.98,763,752,0
656000,375.32,763,754,0
656009,376.29,763,752,0
656019,377.28,763,755,0
656029,377.88,763,752,0
656039,378.39,763,754,0
656049,378.57,763,752,0
656059,378.66,763,754,0
656069,378.76,763,752,0
656079,379.09,763,754,0
656089,379.75,763,752,0
656099,381.75,763,754,0
656109,386.03,763,752,0
656119,393.52,763,754,0
656129,404.81,763,752,0
656139,420.94,763,754,0
656158,441.95,763,753,0
656161,467.38,763,754,0
656171,496.63,763,753,0
656180,527.25,763,755,0
656190,557.26,763,753,0
656200,584.31,763,754,0
656210,606.25,763,753,0
656220,621.64,763,755,0
656230,629.77,763,753,0
656240,629.54,763,754,0
656250,622.13,763,753,0
656260,608.55,763,754,0
656270,590.47,763,752,0
656280,569.12,763,754,0
656290,546.24,763,753,0
656300,523.24,763,755,0
656310,501.18,763,753,0
656320,480.13,763,754,0
656330,460.93,763,753,0
656340,443.47,763,754,0
656350,428.24,763,752,0
656360,414.67,763,754,0
656370,403.11,763,753,0
656380,393.18,763,754,0
656390,385.92,763,753,0
656400,380.59,763,754,0
656410,377.76,763,752,0
656420,376.76,763,754,0
656430,377.86,763,753,0
656440,380.26,763,754,0
656450,384.12,763,753,0
656460,388.20,763,754,0
656471,392.73,763,753,0
656481,396.58,763,754,0
656491,399.96,763,753,0
656501,402.07,763,754,0
656512,403.12,763,753,0
656521,402.74,763,754,0
656531,401.58,763,753,0
656541,398.92,763,754,0
656551,395.86,763,753,0
656561,391.79,763,754,0
656571,387.82,763,753,0
656581,383.29,763,754,0
656591,379.30,763,753,0
656601,375.27,763,754,0
656611,372.23,763,753,0
656621,369.38,763,754,0
656631,367.59,763,753,0
656641,365.96,763,754,0
656651,365.46,763,753,0
656661,364.93,763,754,0
656671,365.38,763,753,0
656681,365.82,763,754,0
656691,367.08,763,753,0
656701,368.34,763,754,0
656711,370.34,763,753,0
656721,372.08,763,754,0
656731,374.41,763,753,0
656741,376.13,763,754,0
656751,378.36,763,753,0
656761,379.75,763,754,0
656771,381.24,763,753,0
656781,381.86,763,754,0
656791,382.58,763,753,0
656801,382.41,763,754,0
656812,382.50,763,753,0
656822,381.75,763,754,0
656832,382.00,763,754,0
656842,382.51,763,753,0
656852,385.40,763,754,0
656862,390.12,763,754,0
656872,398.79,763,753,0
656882,411.11,763,753,0
656892,428.82,763,754,0
656911,450.39,753,752,0
656914,476.24,753,755,0
656923,504.11,753,753,0
656933,533.22,753,754,0
656943,560.24,753,753,0
656953,584.21,753,754,0
656963,601.81,753,753,0
656973,613.31,753,754,0
656983,617.03,753,753,0
656993,613.89,753,754,0
657003,603.64,753,753,0
657013,588.83,753,754,0
657024,569.55,753,753,0
657033,549.20,753,754,0
657043,527.46,753,753,0
657053,506.79,753,754,0
657063,486.41,753,753,0
657073,468.63,753,754,0
657083,452.03,753,753,0
657093,438.05,753,753,0
657103,425.13,753,753,0
657113,414.76,753,754,0
657123,405.54,753,753,0
657133,399.03,753,754,0
657143,393.67,753,753,0
657153,391.07,753,754,0
657163,389.85,753,753,0
657173,391.01,753,754,0
657183,392.98,753,753,0
657193,396.71,753,754,0
657203,400.36,753,753,0
657213,404.92,753,754,0
657223,408.33,753,753,0
657233,411.62,753,754,0
657243,413.15,753,753,0
657253,414.13,753,754,0
657263,413.19,753,753,0
657273,411.76,753,754,0
657283,408.71,753,753,0
657293,405.71,753,754,0
657303,401.68,753,753,0
657313,398.05,753,754,0
657324,393.79,753,753,0
657334,390.21,753,754,0
657344,386.33,753,753,0
657354,383.32,753,754,0
657364,380.22,753,752,0
657374,378.23,753,754,0
657384,376.19,753,752,0
657394,375.27,753,754,0
657404,374.42,753,752,0
657414,374.81,753,754,0
657424,375.17,753,752,0
657434,376.57,753,754,0
657444,377.60,753,753,0
657454,379.56,753,754,0
657464,380.94,753,752,0
657474,382.84,753,755,0
657484,383.83,753,753,0
657495,385.04,753,754,0
657505,385.28,753,752,0
657515,386.06,753,754,0
657525,386.60,753,752,0
657536,388.77,753,754,0
657545,392.23,753,752,0
657555,399.10,753,754,0
657565,409.36,753,752,0
657575,424.46,753,755,0
657585,443.74,753,752,0
657595,467.39,753,755,0
657614,493.59,703,753,0
657617,521.05,703,755,0
657626,547.87,703,752,0
657636,572.33,703,755,0
657646,591.95,703,752,0
657656,605.72,703,755,0
657666,612.66,703,752,0
657676,612.93,703,755,0
657686,606.74,703,753,0
657696,594.69,703,754,0
657707,577.81,703,752,0
657716,558.32,703,755,0
657726,537.10,703,753,0
657736,515.43,703,755,0
657746,494.00,703,752,0
657756,474.11,703,755,0
657766,455.56,703,753,0
657776,438.85,703,754,0
657786,423.68,703,752,0
657796,410.45,703,754,0
657806,399.00,703,752,0
657816,389.66,703,754,0
657826,382.26,703,752,0
657836,377.25,703,755,0
657846,374.43,703,752,0
657856,373.70,703,754,0
657866,374.69,703,752,0
657876,377.10,703,754,0
657886,380.37,703,752,0
657896,384.24,703,754,0
657906,387.99,703,752,0
657916,391.38,703,754,0
657926,393.75,703,752,0
657936,395.20,703,755,0
657946,395.48,703,752,0
657956,394.61,703,755,0
657966,392.63,703,753,0
657976,389.74,703,754,0
657986,386.13,703,752,0
657996,382.02,703,754,0
658007,377.69,703,752,0
658017,373.19,703,754,0
658027,369.06,703,752,0
658037,365.10,703,754,0
658048,361.99,703,753,0
658057,359.38,703,754,0
658067,357.81,703,752,0
658077,356.84,703,754,0
658087,356.88,703,753,0
658097,357.48,703,754,0
658107,358.83,703,752,0
658117,360.30,703,754,0
658127,362.39,703,753,0
658137,364.55,703,754,0
658147,367.00,703,752,0
658157,369.18,703,754,0
658167,371.49,703,753,0
658177,373.44,703,754,0
658187,375.41,703,753,0
658197,376.74,703,754,0
658207,377.93,703,753,0
658217,378.47,703,754,0
658227,378.93,703,753,0
658237,378.65,703,754,0
658247,378.28,703,753,0
658257,377.26,703,754,0
658267,376.49,703,753,0
658277,375.66,703,754,0
658287,376.06,703,753,0
658297,377.80,703,754,0
658307,382.49,703,753,0
658317,390.61,703,754,0
658327,403.89,703,753,0
658337,422.13,703,754,0
658357,445.92,743,752,0
658360,473.63,743,754,0
658369,505.03,743,754,0
658379,537.12,743,754,0
658390,568.16,743,754,0
658399,594.89,743,754,0
658409,616.31,743,754,0
658419,630.28,743,754,0
658429,637.26,743,754,0
658439,636.16,743,754,0
658449,628.82,743,753,0
658459,615.55,743,753,0
658469,599.10,743,754,0
658479,579.65,743,753,0
658489,559.74,743,753,0
658499,539.29,743,754,0
658509,520.26,743,754,0
658519,502.10,743,753,0
658529,486.00,743,753,0
658539,470.70,743,754,0
658549,457.37,743,754,0
658560,444.70,743,753,0
658569,433.99,743,753,0
658579,423.92,743,753,0
658589,415.89,743,754,0
658599,408.98,743,753,0
658609,404.44,743,753,0
658619,401.05,743,754,0
658629,400.09,743,754,0
658639,399.89,743,753,0
658649,401.43,743,753,0
658659,402.93,743,754,0
658669,405.39,743,754,0
658679,407.07,743,753,0
658689,408.94,743,753,0
658699,409.43,743,754,0
658709,409.64,743,754,0
658719,408.12,743,753,0
658729,406.41,743,754,0
658739,403.38,743,754,0
658749,400.35,743,754,0
658759,396.26,743,753,0
658769,392.54,743,754,0
658779,388.18,743,754,0
658789,384.74,743,754,0
658799,380.79,743,753,0
658809,377.72,743,754,0
658819,374.55,743,753,0
658829,372.84,743,754,0
658839,371.00,743,753,0
658849,370.62,743,754,0
658860,370.09,743,753,0
658870,371.05,743,754,0
658880,371.68,743,752,0
658890,373.36,743,754,0
658900,374.41,743,753,0
658910,376.43,743,754,0
658920,377.59,743,752,0
658930,379.25,743,754,0
658940,379.95,743,753,0
658950,381.38,743,754,0
658960,382.29,743,752,0
658970,384.61,743,754,0
658980,387.64,743,753,0
658990,393.53,743,754,0
659000,401.82,743,753,0
659010,414.69,743,754,0
659020,431.11,743,753,0
659031,452.25,743,754,0
659041,475.87,743,752,0
659060,501.93,703,751,0
659063,527.58,703,753,0
659073,552.35,703,755,0
659083,573.03,703,752,0
659093,589.09,703,755,0
659103,598.75,703,752,0
659113,602.55,703,755,0
659123,600.03,703,752,0
659133,592.78,703,754,0
659143,580.93,703,752,0
659153,566.34,703,754,0
659163,549.69,703,752,0
659173,532.60,703,754,0
659183,515.45,703,752,0
659193,499.03,703,754,0
659203,483.29,703,752,0
659213,469.02,703,755,0
659223,455.86,703,752,0
659233,444.41,703,755,0
659244,434.22,703,752,0
659254,425.80,703,754,0
659264,419.09,703,752,0
659274,414.30,703,755,0
659284,411.30,703,752,0
659294,410.14,703,754,0
659304,410.44,703,752,0
659314,411.98,703,754,0
659324,414.43,703,752,0
659334,417.30,703,754,0
659344,420.55,703,753,0
659354,423.04,703,754,0
659364,424.75,703,752,0
659374,425.42,703,754,0
659384,425.08,703,752,0
659394,423.64,703,754,0
659404,421.26,703,752,0
659415,417.54,703,754,0
659425,413.57,703,753,0
659435,409.07,703,754,0
659445,404.50,703,753,0
659456,399.81,703,754,0
659465,395.45,703,753,0
659475,391.33,703,754,0
659485,388.06,703,753,0
659495,384.91,703,754,0
659505,382.71,703,753,0
659515,380.87,703,754,0
659525,379.92,703,753,0
659535,379.00,703,754,0
659545,378.70,703,753,0
659555,378.23,703,754,0
659565,378.55,703,753,0
659575,378.51,703,754,0
659585,378.87,703,753,0
659595,379.00,703,754,0
659605,379.38,703,753,0
659615,379.18,703,754,0
659625,379.21,703,753,0
659635,378.55,703,754,0
659645,378.08,703,753,0
659655,376.90,703,754,0
659665,375.86,703,753,0
659675,374.62,703,754,0
659685,374.05,703,753,0
659695,373.82,703,754,0
659705,375.67,703,753,0
659715,379.54,703,754,0
659725,387.09,703,753,0
659735,398.08,703,754,0
659745,413.96,703,753,0
659756,433.81,703,754,0
659766,458.08,703,753,0
659785,484.03,725,752,0
659788,511.15,725,755,0
659798,537.08,725,753,0
659807,560.71,725,754,0
659817,579.10,725,753,0
659827,592.53,725,754,0
659837,599.18,725,753,0
659847,600.93,725,754,0
659857,597.01,725,753,0
659867,589.08,725,754,0
659877,577.27,725,753,0
659887,564.20,725,753,0
659897,549.48,725,753,0
659907,535.20,725,754,0
659917,520.31,725,753,0
659927,506.72,725,753,0
659937,493.34,725,753,0
659947,481.41,725,754,0
659957,469.42,725,753,0
659968,458.92,725,754,0
659977,448.53,725,753,0
659987,439.67,725,754,0
659997,431.03,725,753,0
660007,424.16,725,754,0
660017,418.03,725,753,0
660027,414.25,725,754,0
660037,411.04,725,753,0
660047,410.00,725,754,0
660057,409.40,725,753,0
660067,410.35,725,754,0
660077,411.15,725,753,0
660087,412.65,725,754,0
660097,413.18,725,753,0
660107,414.15,725,754,0
660117,413.89,725,753,0
660127,413.88,725,754,0
660137,412.76,725,752,0
660147,411.76,725,754,0
660157,409.82,725,753,0
660167,408.29,725,754,0
660177,405.84,725,753,0
660187,404.01,725,754,0
660197,401.35,725,753,0
660207,399.31,725,754,0
660217,396.65,725,753,0
660227,394.91,725,754,0
660237,392.71,725,753,0
660247,391.47,725,754,0
660257,389.66,725,753,0
660268,388.86,725,754,0
660278,387.62,725,753,0
660288,387.26,725,754,0
660298,386.32,725,752,0
660308,386.14,725,754,0
660318,385.28,725,753,0
660328,385.11,725,754,0
660338,384.14,725,753,0
660348,383.75,725,754,0
660358,382.67,725,753,0
660368,382.21,725,754,0
660378,380.99,725,753,0
660388,380.48,725,754,0
660398,379.52,725,753,0
660408,379.88,725,754,0
660418,380.73,725,752,0
660428,384.28,725,754,0
660439,389.73,725,752,0
660449,399.19,725,754,0
660459,411.78,725,752,0
660469,428.90,725,754,0
660480,448.86,725,752,0
660498,471.92,713,751,0
660501,495.26,713,753,0
660510,519.09,713,754,0
660520,540.45,713,752,0
660530,558.92,713,754,0
660540,572.23,713,752,0
660550,580.69,713,754,0
660560,583.40,713,752,0
660570,581.65,713,754,0
660580,574.73,713,752,0
660590,564.52,713,754,0
660600,551.42,713,752,0
660610,537.20,713,754,0
660620,521.97,713,752,0
660630,506.89,713,754,0
660640,491.67,713,752,0
660651,477.11,713,754,0
660660,462.85,713,752,0
660670,449.52,713,754,0
660680,436.64,713,752,0
660690,424.87,713,754,0
660700,413.98,713,752,0
660710,404.82,713,754,0
660720,397.24,713,752,0
660730,391.73,713,755,0
660740,387.78,713,752,0
660750,386.00,713,754,0
660760,385.79,713,752,0
660770,387.18,713,754,0
660780,389.35,713,752,0
660790,392.38,713,754,0
660800,395.56,713,752,0
660810,399.04,713,754,0
660820,401.77,713,752,0
660830,403.98,713,754,0
660840,405.14,713,752,0
660850,405.62,713,754,0
660860,405.00,713,752,0
660870,404.02,713,754,0
660880,402.08,713,752,0
660890,399.87,713,754,0
660900,397.30,713,752,0
660910,394.94,713,754,0
660920,392.51,713,752,0
660930,390.39,713,754,0
660940,388.17,713,752,0
660951,386.45,713,754,0
660961,385.16,713,752,0
660971,384.30,713,754,0
660981,383.86,713,752,0
660992,383.90,713,754,0
661001,384.53,713,752,0
661011,385.66,713,754,0
661021,387.22,713,752,0
661031,388.82,713,754,0
661041,390.76,713,752,0
661051,392.42,713,754,0
661061,393.97,713,752,0
661071,395.00,713,754,0
661081,395.65,713,752,0
661091,395.75,713,754,0
661101,395.74,713,752,0
661111,395.56,713,754,0
661121,395.65,713,752,0
661131,396.44,713,754,0
661141,398.88,713,752,0
661151,403.37,713,754,0
661161,411.02,713,752,0
661171,422.07,713,754,0
661181,436.92,713,752,0
661200,455.42,702,751,0
661203,477.02,702,754,0
661212,500.41,702,754,0
661222,524.55,702,753,0
661232,546.97,702,754,0
661242,566.82,702,753,0
661252,582.30,702,754,0
661262,593.18,702,753,0
661272,598.57,702,754,0
661282,599.00,702,753,0
661292,594.54,702,754,0
661302,586.84,702,753,0
661312,575.96,702,754,0
661322,563.54,702,753,0
661332,549.58,702,754,0
661342,535.43,702,753,0
661352,520.78,702,754,0
661362,506.66,702,752,0
661372,492.36,702,754,0
661382,479.05,702,753,0
661392,465.84,702,754,0
661402,453.84,702,753,0
661412,442.23,702,754,0
661422,432.13,702,753,0
661432,422.71,702,754,0
661442,415.21,702,752,0
661452,408.72,702,754,0
661463,404.26,702,753,0
661473,400.67,702,754,0
661483,398.97,702,753,0
661493,397.73,702,754,0
661504,397.77,702,753,0
661513,397.71,702,754,0
661523,398.18,702,753,0
661533,397.91,702,753,0
661543,397.94,702,753,0
661553,397.06,702,754,0
661563,396.27,702,753,0
661573,394.60,702,754,0
661583,393.01,702,753,0
661593,390.35,702,754,0
661603,387.93,702,753,0
661613,384.48,702,754,0
661623,381.34,702,753,0
661633,377.55,702,754,0
661643,374.47,702,753,0
661653,371.11,702,754,0
661663,368.77,702,753,0
661673,366.22,702,753,0
661683,364.91,702,753,0
661693,363.65,702,754,0
661703,363.37,702,753,0
661713,362.66,702,753,0
661723,362.85,702,753,0
661733,362.89,702,754,0
661743,363.70,702,753,0
661753,363.79,702,753,0
661763,364.32,702,753,0
661773,364.27,702,754,0
661783,364.83,702,753,0
661793,364.54,702,753,0
661804,364.68,702,753,0
661814,364.00,702,753,0
661824,364.00,702,754,0
661834,363.32,702,753,0
661844,363.91,702,754,0
661854,364.53,702,753,0
661864,367.37,702,754,0
661874,371.55,702,753,0
661884,379.61,702,753,0
661894,390.36,702,753,0
661904,405.64,702,754,0
661914,423.62,702,753,0
661924,445.37,702,754,0
661943,468.40,743,752,0
661946,492.45,743,755,0
661955,514.99,743,753,0
661965,535.95,743,754,0
661975,552.68,743,753,0
661985,565.55,743,754,0
661995,572.84,743,753,0
662005,575.89,743,754,0
662016,574.16,743,752,0
662025,569.06,743,754,0
662035,560.30,743,753,0
662045,550.18,743,754,0
662055,538.00,743,752,0
662065,525.91,743,754,0
662075,512.95,743,753,0
662085,500.71,743,754,0
662095,487.90,743,752,0
662105,476.06,743,754,0
662115,463.78,743,753,0
662125,452.75,743,754,0
662135,441.77,743,752,0
662145,432.32,743,754,0
662155,423.23,743,753,0
662165,416.13,743,754,0
662175,409.88,743,752,0
662185,405.71,743,754,0
662195,402.46,743,753,0
662205,400.99,743,754,0
662215,399.92,743,752,0
662225,400.37,743,754,0
662235,400.73,743,753,0
662245,401.97,743,754,0
662255,402.54,743,752,0
662265,403.58,743,754,0
662275,403.49,743,753,0
662285,403.51,743,754,0
662295,402.25,743,752,0
662305,401.06,743,755,0
662316,398.85,743,752,0
662326,396.84,743,754,0
662336,393.80,743,752,0
662346,391.16,743,754,0
662356,388.03,743,752,0
662366,385.53,743,754,0
662376,382.76,743,752,0
662386,380.56,743,754,0
662396,378.42,743,752,0
662406,377.14,743,754,0
662416,375.94,743,752,0
662426,375.53,743,754,0
662436,375.07,743,752,0
662446,375.26,743,754,0
662456,375.31,743,752,0
662466,375.86,743,754,0
662476,376.16,743,752,0
662487,376.84,743,755,0
662497,377.27,743,752,0
662507,378.05,743,755,0
662517,378.55,743,752,0
662528,379.46,743,754,0
662537,379.92,743,752,0
662547,380.54,743,754,0
662557,380.77,743,752,0
662567,380.96,743,754,0
662577,380.80,743,752,0
662587,380.86,743,754,0
662597,381.08,743,752,0
662607,382.34,743,754,0
662617,384.85,743,752,0
662627,389.78,743,754,0
662637,397.60,743,752,0
662647,409.21,743,754,0
662657,424.40,743,752,0
662676,443.44,733,751,0
662679,465.55,733,754,0
662688,489.86,733,754,0
662699,514.71,733,752,0
662708,538.41,733,754,0
662718,559.29,733,752,0
662728,576.13,733,754,0
662738,587.83,733,752,0
662748,594.06,733,754,0
662758,594.81,733,753,0
662768,590.58,733,754,0
662778,582.44,733,752,0
662788,571.29,733,754,0
662798,558.30,733,752,0
662808,544.07,733,754,0
662818,529.43,733,752,0
662828,515.03,733,754,0
662838,501.18,733,752,0
662848,487.75,733,754,0
662858,475.14,733,752,0
662868,462.93,733,754,0
662878,451.64,733,752,0
662888,441.03,733,754,0
662898,431.34,733,752,0
662908,422.53,733,754,0
662918,415.22,733,752,0
662928,409.11,733,754,0
662938,404.75,733,753,0
662948,401.61,733,754,0
662958,399.97,733,752,0
662968,399.16,733,754,0
662978,399.41,733,753,0
662988,399.93,733,754,0
662999,400.94,733,753,0
663009,401.47,733,754,0
663019,401.97,733,753,0
663029,401.51,733,754,0
663040,400.89,733,753,0
663049,399.29,733,754,0
663059,397.53,733,753,0
663069,394.63,733,754,0
663079,391.96,733,753,0
663089,388.58,733,754,0
663099,385.67,733,753,0
663109,382.21,733,754,0
663119,379.27,733,753,0
663129,376.06,733,754,0
663139,373.64,733,753,0
663149,371.01,733,754,0
663159,369.21,733,753,0
663169,367.26,733,754,0
663179,366.24,733,753,0
663189,365.01,733,754,0
663199,364.49,733,753,0
663209,363.79,733,754,0
663219,363.85,733,753,0
663229,363.64,733,753,0
663239,364.13,733,753,0
663249,364.18,733,754,0
663259,364.98,733,753,0
663269,365.46,733,753,0
663279,366.48,733,753,0
663289,366.85,733,754,0
663299,367.75,733,753,0
663309,368.08,733,753,0
663319,368.79,733,753,0
663329,368.68,733,754,0
663340,368.95,733,753,0
663350,368.62,733,753,0
663360,369.21,733,753,0
663370,369.83,733,753,0
663380,372.37,733,754,0
663390,376.41,733,753,0
663400,383.83,733,753,0
663410,394.04,733,753,0
663420,408.81,733,754,0
663430,426.83,733,753,0
663449,449.04,773,752,0
663452,473.07,773,754,0
663461,499.28,773,754,0
663471,524.69,773,753,0
663481,548.79,773,754,0
663491,568.61,773,753,0
663501,584.62,773,754,0
663511,594.47,773,753,0
663521,599.47,773,754,0
663531,598.17,773,753,0
663541,592.85,773,754,0
663552,583.12,773,753,0
663561,571.64,773,754,0
663571,557.69,773,753,0
663581,543.69,773,754,0
663591,528.82,773,753,0
663601,515.08,773,754,0
663611,501.34,773,753,0
663621,489.07,773,754,0
663631,476.92,773,753,0
663641,466.31,773,754,0
663651,456.02,773,753,0
663661,447.53,773,754,0
663671,439.48,773,753,0
663681,433.47,773,754,0
663691,428.31,773,753,0
663701,425.35,773,754,0
663711,423.10,773,753,0
663721,422.94,773,754,0
663731,423.09,773,753,0
663741,424.65,773,754,0
663751,425.91,773,753,0
663761,427.87,773,754,0
663771,428.76,773,753,0
663781,429.91,773,754,0
663791,429.68,773,753,0
663801,429.35,773,754,0
663811,427.61,773,753,0
663821,425.76,773,754,0
663831,422.57,773,753,0
663841,419.62,773,754,0
663852,415.62,773,753,0
663862,412.09,773,754,0
663872,407.82,773,752,0
663882,404.23,773,754,0
663892,400.26,773,752,0
663902,397.35,773,754,0
663912,394.21,773,753,0
663922,392.17,773,754,0
663932,389.89,773,753,0
663942,388.98,773,755,0
663952,387.87,773,753,0
663962,387.61,773,754,0
663972,387.17,773,753,0
663982,387.51,773,754,0
663992,387.44,773,753,0
664002,388.04,773,754,0
664012,387.94,773,753,0
664023,388.47,773,755,0
664033,388.59,773,752,0
664043,388.93,773,754,0
664053,388.69,773,752,0
664064,388.74,773,755,0
664073,388.26,773,753,0
664083,388.10,773,754,0
664093,387.38,773,752,0
664103,386.84,773,755,0
664113,386.20,773,753,0
664123,386.53,773,754,0
664133,387.65,773,752,0
664143,391.10,773,755,0
664153,396.73,773,752,0
664163,406.37,773,754,0
664173,419.89,773,752,0
664183,438.05,773,755,0
664193,459.72,773,753,0
664212,484.88,763,751,0
664215,511.44,763,754,0
664224,538.65,763,755,0
664235,563.70,763,753,0
664244,585.56,763,754,0
664254,602.24,763,753,0
664264,613.65,763,755,0
664274,619.07,763,753,0
664284,619.09,763,754,0
664294,613.88,763,752,0
664304,604.83,763,754,0
664314,592.84,763,753,0
664324,579.30,763,754,0
664334,564.60,763,752,0
664344,549.72,763,755,0
664354,534.72,763,752,0
664364,520.40,763,754,0
664374,506.61,763,752,0
664384,493.53,763,754,0
664394,480.98,763,753,0
664404,469.42,763,754,0
664414,458.62,763,752,0
664424,449.18,763,754,0
664434,440.85,763,752,0
664444,434.00,763,754,0
664454,428.60,763,752,0
664464,424.82,763,754,0
664474,422.52,763,753,0
664484,421.46,763,754,0
664494,421.37,763,752,0
664504,421.94,763,755,0
664514,422.82,763,753,0
664524,423.69,763,754,0
664535,424.25,763,752,0
664545,424.26,763,754,0
664555,423.63,763,753,0
664565,421.98,763,754,0
664576,419.59,763,753,0
664585,416.37,763,754,0
664595,412.66,763,753,0
664605,408.35,763,754,0
664615,403.87,763,753,0
664625,399.45,763,755,0
664635,395.37,763,753,0
664645,391.28,763,754,0
664655,387.94,763,753,0
664665,384.83,763,755,0
664675,382.61,763,753,0
664685,380.63,763,754,0
664695,379.19,763,753,0
664705,378.11,763,754,0
664715,377.90,763,753,0
664725,377.80,763,754,0
664735,378.38,763,753,0
664745,378.82,763,754,0
664755,379.82,763,753,0
664765,380.73,763,754,0
664775,381.92,763,753,0
664785,382.68,763,754,0
664795,383.50,763,753,0
664805,383.78,763,754,0
664815,384.23,763,753,0
664825,383.99,763,754,0
664835,383.61,763,753,0
664845,382.65,763,754,0
664855,382.03,763,753,0
664865,380.78,763,754,0
664876,379.94,763,753,0
664886,378.85,763,754,0
664896,379.11,763,753,0
664906,380.53,763,754,0
664916,384.87,763,753,0
664926,391.90,763,754,0
664936,403.67,763,753,0
664946,419.63,763,754,0
664956,440.95,763,753,0
664975,465.82,763,752,0
664978,494.16,763,755,0
664987,523.39,763,754,0
664997,552.88,763,754,0
665007,579.19,763,754,0
665017,601.50,763,753,0
665027,617.38,763,754,0
665037,627.42,763,754,0
665047,630.47,763,754,0
665057,627.71,763,753,0
665067,618.71,763,754,0
665077,606.11,763,754,0
665088,589.97,763,753,0
665097,572.83,763,753,0
665107,554.33,763,754,0
665117,536.49,763,754,0
665127,518.73,763,753,0
665137,502.65,763,753,0
665147,487.16,763,753,0
665157,473.69,763,754,0
665167,460.71,763,753,0
665177,449.74,763,753,0
665187,439.45,763,754,0
665197,431.13,763,754,0
665207,423.55,763,753,0
665217,418.07,763,753,0
665227,413.42,763,753,0
665237,410.94,763,754,0
665247,409.16,763,753,0
665257,408.89,763,754,0
665267,408.67,763,753,0
665277,409.45,763,754,0
665287,409.53,763,753,0
665297,410.02,763,754,0
665307,409.24,763,754,0
665317,408.22,763,754,0
665327,405.80,763,753,0
665337,403.29,763,754,0
665347,399.52,763,754,0
665357,396.06,763,754,0
665367,391.63,763,753,0
665377,387.88,763,754,0
665388,383.76,763,753,0
665398,380.66,763,754,0
665408,377.29,763,753,0
665418,375.02,763,754,0
665428,372.61,763,753,0
665438,371.44,763,754,0
665448,370.20,763,753,0
665458,369.97,763,754,0
665468,369.50,763,753,0
665478,370.21,763,754,0
665488,370.62,763,753,0
665498,371.98,763,754,0
665508,372.88,763,753,0
665518,374.59,763,754,0
665528,375.70,763,753,0
665538,377.55,763,754,0
665548,378.58,763,753,0
665559,380.29,763,754,0
665569,381.06,763,753,0
665579,382.20,763,754,0
665589,382.35,763,753,0
665600,382.89,763,755,0
665609,382.45,763,753,0
665619,382.49,763,754,0
665629,381.61,763,753,0
665639,381.17,763,755,0
665649,380.18,763,753,0
665659,379.74,763,754,0
665669,379.09,763,752,0
665679,379.96,763,755,0
665689,381.86,763,753,0
665699,386.92,763,754,0
665709,394.96,763,752,0
665719,407.70,763,755,0
665738,424.72,763,753,0
665741,446.92,763,755,0
665750,473.34,763,753,0
665760,503.28,763,755,0
665771,533.93,763,753,0
665780,564.03,763,755,0
665790,590.55,763,753,0
665800,612.67,763,755,0
665810,628.33,763,753,0
665820,637.02,763,755,0
665830,638.21,763,752,0
665840,633.30,763,755,0
665850,622.54,763,752,0
665860,608.11,763,755,0
665870,590.42,763,752,0
665880,571.44,763,755,0
665890,551.46,763,752,0
665900,532.34,763,755,0
665910,513.81,763,752,0
665920,497.07,763,755,0
665930,481.49,763,752,0
665940,467.84,763,755,0
665950,455.50,763,752,0
665960,445.11,763,755,0
665970,435.82,763,752,0
665980,428.50,763,755,0
665990,422.48,763,752,0
666000,418.44,763,755,0
666010,415.82,763,753,0
666020,414.97,763,755,0
