Time,PPG,IBI,GSR,GSR_Event
231736,333.27,783,746,0
231746,326.08,783,748,0
231756,320.01,783,747,0
231767,315.25,783,748,0
231777,312.52,783,747,0
231787,311.25,783,748,0
231797,311.86,783,747,0
231808,318.67,783,748,0
231817,328.33,783,747,0
231827,338.64,783,748,0
231837,349.21,783,747,0
231847,358.45,783,748,0
231857,366.63,783,747,0
231867,372.61,783,748,0
231877,377.14,783,747,0
231887,379.54,783,748,0
231897,380.45,783,747,0
231907,379.54,783,748,0
231917,377.84,783,747,0
231927,375.40,783,748,0
231937,373.74,783,747,0
231947,373.77,783,748,0
231957,378.00,783,747,0
231967,387.51,783,748,0
231977,404.76,783,748,0
231987,429.90,783,748,0
231997,463.75,783,747,0
232007,503.08,783,748,0
232027,545.06,783,748,0
232030,586.44,783,750,0
232039,625.09,783,750,0
232049,658.15,783,749,0
232059,684.76,783,750,0
232069,703.61,783,749,0
232079,716.88,783,749,0
232089,724.07,783,749,0
232099,724.65,783,750,0
232109,717.38,783,749,0
232119,702.48,783,749,0
232129,679.32,783,749,0
232139,649.14,783,750,0
232150,611.81,783,749,0
232159,571.20,783,749,0
232169,528.88,783,749,0
232179,488.37,783,750,0
232189,450.46,783,749,0
232199,417.62,783,749,0
232209,389.19,783,749,0
232219,367.06,783,750,0
232229,349.82,783,749,0
232239,338.94,783,749,0
232249,332.96,783,749,0
232259,332.67,783,750,0
232269,336.20,783,748,0
232279,343.85,783,749,0
232289,353.37,783,749,0
232299,365.09,783,750,0
232309,376.63,783,748,0
232320,388.44,783,749,0
232329,398.30,783,749,0
232339,406.74,783,750,0
232349,412.17,783,748,0
232359,415.55,783,749,0
232369,415.51,783,749,0
232379,413.47,783,750,0
232389,408.32,783,748,0
232399,401.75,783,749,0
232409,393.21,783,749,0
232419,384.58,783,750,0
232429,374.97,783,748,0
232439,366.24,783,749,0
232449,357.60,783,748,0
232459,350.90,783,750,0
232469,344.93,783,749,0
232479,341.05,783,749,0
232489,337.95,783,748,0
232499,337.11,783,750,0
232509,336.99,783,748,0
232519,338.54,783,749,0
232529,340.13,783,748,0
232539,342.96,783,750,0
232549,345.63,783,748,0
232559,348.96,783,749,0
232569,351.50,783,748,0
232579,354.35,783,750,0
232589,356.34,783,748,0
232599,358.60,783,749,0
232609,359.79,783,748,0
232620,361.10,783,750,0
232630,361.45,783,748,0
232640,362.00,783,749,0
232650,361.62,783,748,0
232660,361.47,783,750,0
232670,360.39,783,748,0
232680,359.76,783,749,0
232690,358.72,783,748,0
232700,359.23,783,750,0
232710,361.35,783,748,0
232720,367.84,783,749,0
232730,379.55,783,748,0
232740,399.53,783,750,0
232750,427.53,783,748,0
232760,463.97,783,750,0
232779,505.08,753,748,0
232782,548.51,753,752,0
232791,590.87,753,748,0
232801,629.95,753,750,0
232811,662.71,753,748,0
232821,688.30,753,750,0
232832,706.21,753,748,0
232841,718.75,753,750,0
232851,727.52,753,748,0
232861,731.78,753,750,0
232871,729.70,753,748,0
232881,721.05,753,750,0
232891,704.92,753,748,0
232901,681.76,753,750,0
232911,651.66,753,748,0
232921,615.93,753,750,0
232931,576.52,753,748,0
232941,537.11,753,750,0
232951,498.89,753,748,0
232961,464.30,753,750,0
232971,433.61,753,748,0
232981,407.88,753,749,0
232991,386.53,753,748,0
233001,370.43,753,750,0
233011,358.90,753,747,0
233021,352.50,753,750,0
233031,350.08,753,748,0
233041,351.81,753,750,0
233051,356.45,753,748,0
233061,363.73,753,750,0
233071,372.21,753,748,0
233081,381.53,753,750,0
233091,390.16,753,748,0
233101,398.13,753,750,0
233111,404.05,753,748,0
233121,408.19,753,750,0
233132,409.63,753,747,0
233142,408.97,753,750,0
233152,405.98,753,748,0
233162,401.31,753,750,0
233172,395.01,753,748,0
233182,388.02,753,750,0
233192,380.43,753,748,0
233202,372.97,753,750,0
233212,365.91,753,747,0
233222,359.76,753,750,0
233232,354.52,753,748,0
233242,350.29,753,749,0
233252,347.21,753,748,0
233262,345.34,753,750,0
233272,344.68,753,748,0
233282,344.99,753,750,0
233292,345.98,753,747,0
233303,347.66,753,750,0
233313,349.95,753,748,0
233323,352.32,753,749,0
233333,354.71,753,748,0
233344,356.73,753,749,0
233353,358.56,753,748,0
233363,360.02,753,749,0
233373,361.26,753,748,0
233383,361.95,753,749,0
233393,362.44,753,748,0
233403,362.44,753,749,0
233413,362.39,753,748,0
233423,361.84,753,749,0
233433,361.25,753,748,0
233443,360.15,753,750,0
233453,359.24,753,748,0
233463,358.53,753,749,0
233473,359.27,753,748,0
233483,362.49,753,750,0
233493,370.27,753,748,0
233503,384.03,753,749,0
233513,405.79,753,748,0
233523,435.64,753,749,0
233542,473.12,763,747,0
233545,514.78,763,750,0
233554,557.88,763,749,0
233564,599.40,763,749,0
233574,636.91,763,748,0
233584,668.09,763,749,0
233594,692.02,763,749,0
233604,708.77,763,749,0
233614,720.54,763,748,0
233624,725.86,763,749,0
233634,724.45,763,749,0
233644,715.48,763,749,0
233654,699.14,763,748,0
233664,675.14,763,749,0
233674,644.67,763,748,0
233684,607.91,763,749,0
233694,569.15,763,748,0
233704,530.02,763,749,0
233714,493.24,763,748,0
233724,459.36,763,749,0
233734,430.23,763,748,0
233744,405.09,763,749,0
233754,385.09,763,748,0
233764,369.12,763,749,0
233774,358.16,763,748,0
233784,351.08,763,749,0
233794,348.66,763,748,0
233804,349.62,763,749,0
233815,354.49,763,749,0
233825,361.41,763,748,0
233835,370.80,763,749,0
233845,380.55,763,749,0
233856,390.84,763,749,0
233865,399.80,763,749,0
233875,407.62,763,749,0
233885,412.53,763,749,0
233895,415.46,763,749,0
233905,415.06,763,749,0
233915,412.82,763,749,0
233925,407.64,763,749,0
233935,401.24,763,749,0
233945,392.94,763,749,0
233955,384.56,763,749,0
233965,375.52,763,748,0
233975,367.43,763,749,0
233985,359.46,763,748,0
233995,353.32,763,749,0
234005,348.00,763,749,0
234015,344.78,763,749,0
234025,342.49,763,748,0
234035,342.22,763,749,0
234045,342.58,763,749,0
234055,344.59,763,749,0
234065,346.77,763,748,0
234075,350.23,763,749,0
234085,353.33,763,749,0
234095,357.09,763,749,0
234105,360.10,763,748,0
234115,363.54,763,749,0
234125,366.04,763,748,0
234135,368.73,763,749,0
234145,370.05,763,748,0
234156,371.49,763,749,0
234166,371.82,763,748,0
234176,372.17,763,749,0
234186,371.31,763,748,0
234196,370.53,763,749,0
234206,368.87,763,748,0
234216,367.67,763,749,0
234226,365.97,763,748,0
234236,365.85,763,749,0
234246,367.35,763,748,0
234256,373.29,763,749,0
234266,383.96,763,748,0
234276,402.19,763,749,0
234286,427.54,763,748,0
234305,461.58,763,747,0
234308,500.79,763,749,0
234317,542.81,763,750,0
234327,584.14,763,748,0
234337,622.97,763,750,0
234347,656.24,763,747,0
234357,683.34,763,750,0
234368,702.26,763,748,0
234377,713.37,763,749,0
234387,715.83,763,747,0
234397,710.05,763,750,0
234407,695.42,763,748,0
234417,673.14,763,749,0
234427,643.27,763,748,0
234437,607.57,763,749,0
234447,568.02,763,748,0
234457,528.45,763,749,0
234467,489.96,763,748,0
234477,455.30,763,750,0
234487,424.14,763,748,0
234497,398.08,763,749,0
234507,376.42,763,748,0
234517,360.31,763,749,0
234527,348.64,763,748,0
234537,342.32,763,750,0
234547,339.87,763,748,0
234557,342.05,763,749,0
234567,347.31,763,748,0
234577,355.87,763,750,0
234587,365.72,763,748,0
234597,376.91,763,749,0
234607,387.52,763,748,0
234617,397.82,763,749,0
234627,406.06,763,748,0
234637,412.69,763,749,0
234647,416.34,763,748,0
234657,417.69,763,749,0
234668,416.16,763,748,0
234678,412.60,763,749,0
234688,406.67,763,748,0
234698,399.44,763,750,0
234708,390.70,763,747,0
234718,381.74,763,750,0
234728,372.44,763,748,0
234738,363.82,763,750,0
234748,355.94,763,748,0
234758,349.70,763,749,0
234768,344.65,763,748,0
234778,341.37,763,750,0
234788,339.37,763,748,0
234798,339.18,763,750,0
234808,339.68,763,748,0
234818,341.28,763,750,0
234828,343.21,763,748,0
234839,345.80,763,749,0
234849,348.43,763,748,0
234859,351.13,763,749,0
234869,353.58,763,748,0
234880,356.10,763,750,0
234889,358.22,763,748,0
234899,360.08,763,749,0
234909,361.56,763,748,0
234919,362.67,763,749,0
234929,363.50,763,748,0
234939,363.95,763,749,0
234949,364.09,763,748,0
234959,363.85,763,749,0
234969,363.25,763,748,0
234979,362.49,763,749,0
234989,361.92,763,748,0
234999,362.20,763,749,0
235009,364.41,763,748,0
235019,370.33,763,749,0
235029,381.72,763,748,0
235039,400.14,763,749,0
235049,426.80,763,748,0
235068,461.70,763,747,0
235071,501.82,763,749,0
235080,544.35,763,749,0
235090,586.33,763,748,0
235100,625.23,763,749,0
235110,658.80,763,748,0
235120,685.26,763,749,0
235130,704.04,763,748,0
235140,717.23,763,749,0
235150,724.83,763,748,0
235160,725.65,763,749,0
235170,719.37,763,748,0
235180,705.80,763,749,0
235190,684.99,763,748,0
235200,657.18,763,748,0
235210,623.35,763,748,0
235220,585.58,763,749,0
235230,547.30,763,748,0
235240,510.06,763,748,0
235250,475.62,763,748,0
235260,444.71,763,749,0
235270,418.48,763,748,0
235280,396.57,763,749,0
235290,379.64,763,748,0
235300,367.06,763,749,0
235310,359.29,763,748,0
235320,355.43,763,749,0
235330,355.86,763,748,0
235340,359.24,763,749,0
235351,365.68,763,748,0
235361,373.49,763,749,0
235371,382.82,763,748,0
235381,391.96,763,749,0
235392,400.97,763,748,0
235401,408.44,763,749,0
235411,414.43,763,748,0
235421,417.69,763,749,0
235431,419.11,763,748,0
235441,417.58,763,749,0
235451,414.36,763,748,0
235461,408.64,763,749,0
235471,401.89,763,748,0
235481,393.69,763,749,0
235491,385.51,763,748,0
235501,376.70,763,749,0
235511,368.69,763,748,0
235521,360.73,763,749,0
235531,354.29,763,748,0
235541,348.25,763,749,0
235551,343.89,763,748,0
235561,340.07,763,749,0
235571,338.07,763,748,0
235581,336.59,763,749,0
235591,336.54,763,748,0
235601,336.72,763,749,0
235611,337.88,763,748,0
235621,338.81,763,749,0
235631,340.50,763,748,0
235641,341.34,763,748,0
235651,342.35,763,748,0
235661,342.63,763,749,0
235671,343.13,763,748,0
235681,342.87,763,748,0
235692,343.04,763,748,0
235702,342.51,763,748,0
235712,342.70,763,749,0
235722,342.45,763,748,0
235732,342.91,763,749,0
235742,342.81,763,748,0
235752,343.47,763,749,0
235762,343.54,763,748,0
235772,344.71,763,749,0
235782,346.04,763,748,0
235792,349.84,763,749,0
235802,356.23,763,748,0
235812,368.25,763,749,0
235822,386.13,763,748,0
235832,412.45,763,749,0
235842,446.39,763,748,0
235862,486.68,793,747,0
235865,529.64,793,749,0
235874,572.95,793,749,0
235884,613.29,793,748,0
235894,649.03,793,749,0
235905,677.74,793,748,0
235915,698.82,793,750,0
235925,713.57,793,748,0
235935,722.91,793,749,0
235945,725.55,793,747,0
235955,721.36,793,750,0
235965,709.55,793,747,0
235975,690.44,793,749,0
235985,664.04,793,747,0
235995,631.58,793,750,0
236005,594.25,793,747,0
236015,555.65,793,749,0
236025,517.05,793,747,0
236035,481.08,793,749,0
236045,448.06,793,747,0
236055,419.41,793,749,0
236065,394.47,793,747,0
236076,374.23,793,750,0
236086,358.30,793,747,0
236096,347.20,793,749,0
236106,340.15,793,747,0
236116,337.54,793,749,0
236126,338.23,793,747,0
236136,342.28,793,749,0
236146,348.41,793,747,0
236156,356.13,793,749,0
236166,364.45,793,747,0
236176,372.84,793,749,0
236186,380.43,793,747,0
236196,386.86,793,749,0
236206,391.40,793,747,0
236216,394.37,793,749,0
236226,395.29,793,747,0
236236,394.47,793,749,0
236247,391.93,793,747,0
236257,388.01,793,749,0
236267,383.29,793,747,0
236277,378.10,793,749,0
236288,372.76,793,748,0
236297,367.90,793,749,0
236307,363.73,793,747,0
236317,360.34,793,749,0
236327,358.22,793,747,0
236337,357.04,793,749,0
236347,356.99,793,747,0
236357,357.59,793,749,0
236367,358.83,793,748,0
236377,360.47,793,749,0
236387,362.64,793,747,0
236397,364.63,793,749,0
236407,366.76,793,748,0
236417,368.59,793,749,0
236427,370.34,793,747,0
236437,371.70,793,749,0
236447,372.90,793,748,0
236457,373.44,793,748,0
236467,373.83,793,747,0
236477,373.71,793,749,0
236487,373.49,793,748,0
236497,372.83,793,749,0
236507,372.11,793,747,0
236517,370.92,793,749,0
236527,369.83,793,748,0
236537,368.38,793,749,0
236547,366.85,793,747,0
236557,365.05,793,749,0
236567,363.75,793,748,0
236577,363.10,793,749,0
236588,364.78,793,748,0
236598,369.86,793,749,0
236608,380.53,793,748,0
236618,398.03,793,748,0
236638,424.12,776,748,0
236641,458.63,776,749,0
236650,498.81,776,749,0
236660,541.30,776,748,0
236670,583.64,776,749,0
236680,622.92,776,749,0
236690,657.14,776,749,0
236700,684.10,776,748,0
236710,703.18,776,749,0
236720,716.54,776,749,0
236730,724.18,776,749,0
236740,724.47,776,748,0
236750,717.69,776,749,0
236760,703.21,776,748,0
236770,681.85,776,749,0
236780,653.39,776,748,0
236790,619.20,776,749,0
236801,581.13,776,748,0
236811,543.33,776,749,0
236821,506.38,776,748,0
236831,472.83,776,749,0
236841,442.50,776,748,0
236851,417.11,776,749,0
236861,395.52,776,747,0
236871,379.16,776,749,0
236881,366.77,776,748,0
236891,359.43,776,749,0
236901,355.65,776,748,0
236911,356.19,776,749,0
236921,359.35,776,748,0
236931,365.80,776,749,0
236941,373.36,776,748,0
236951,382.47,776,749,0
236961,391.11,776,748,0
236972,399.61,776,749,0
236982,406.20,776,748,0
236992,411.37,776,749,0
237002,413.61,776,747,0
237012,413.99,776,750,0
237022,411.42,776,748,0
237032,407.35,776,749,0
237042,401.03,776,747,0
237052,393.91,776,749,0
237062,385.54,776,748,0
237072,377.49,776,749,0
237082,369.33,776,747,0
237092,362.29,776,749,0
237102,355.77,776,748,0
237112,351.00,776,749,0
237122,347.14,776,748,0
237132,345.21,776,750,0
237143,344.12,776,747,0
237153,344.47,776,749,0
237163,345.36,776,747,0
237173,347.22,776,750,0
237184,349.21,776,747,0
237193,351.85,776,749,0
237203,354.12,776,747,0
237213,356.70,776,750,0
237223,358.72,776,747,0
237233,360.77,776,749,0
237243,362.04,776,747,0
237253,363.10,776,750,0
237263,363.41,776,747,0
237273,363.63,776,749,0
237283,363.14,776,747,0
237293,362.59,776,750,0
237303,361.38,776,747,0
237313,360.37,776,749,0
237323,359.01,776,747,0
237333,358.11,776,749,0
237343,357.65,776,747,0
237353,359.08,776,749,0
237363,363.21,776,747,0
237373,372.24,776,750,0
237383,387.38,776,747,0
237393,410.49,776,750,0
237403,441.37,776,747,0
237422,479.32,785,746,0
237425,520.92,785,749,0
237434,563.63,785,749,0
237444,604.41,785,748,0
237454,640.98,785,750,0
237464,671.11,785,748,0
237474,694.18,785,749,0
237484,710.32,785,748,0
237494,720.17,785,750,0
237504,723.08,785,748,0
237514,718.47,785,749,0
237524,706.24,785,747,0
237534,686.75,785,749,0
237544,660.30,785,747,0
237554,627.64,785,749,0
237564,591.10,785,747,0
237574,553.49,785,749,0
237584,517.13,785,748,0
237594,483.36,785,749,0
237604,453.08,785,747,0
237614,427.00,785,750,0
237624,405.14,785,747,0
237634,387.44,785,749,0
237644,373.98,785,747,0
237655,364.52,785,749,0
237665,359.18,785,748,0
237675,357.37,785,749,0
237685,359.01,785,748,0
237696,363.25,785,749,0
237705,369.73,785,748,0
237715,377.44,785,749,0
237725,386.01,785,748,0
237735,394.19,785,749,0
237745,401.72,785,748,0
237755,407.33,785,749,0
237765,411.30,785,748,0
237775,412.71,785,749,0
237785,412.07,785,748,0
237795,408.79,785,749,0
237805,403.75,785,748,0
237815,396.76,785,749,0
237825,388.94,785,748,0
237835,380.30,785,749,0
237845,371.94,785,748,0
237855,363.56,785,749,0
237865,356.32,785,748,0
237875,349.92,785,749,0
237885,345.32,785,748,0
237895,341.88,785,749,0
237905,340.16,785,748,0
237915,339.55,785,749,0
237925,340.37,785,748,0
237935,341.76,785,749,0
237945,344.19,785,748,0
237955,346.66,785,749,0
237965,349.68,785,748,0
237975,352.30,785,749,0
237985,355.04,785,748,0
237996,357.26,785,749,0
238006,359.45,785,748,0
238016,360.86,785,749,0
238026,362.36,785,748,0
238036,362.98,785,749,0
238046,363.71,785,748,0
238056,363.67,785,749,0
238066,363.77,785,748,0
238076,363.15,785,749,0
238086,362.72,785,748,0
238096,361.56,785,749,0
238106,360.84,785,748,0
238116,359.86,785,749,0
238126,360.24,785,748,0
238136,362.14,785,749,0
238146,368.10,785,748,0
238156,378.74,785,749,0
238167,396.69,785,748,0
238177,422.07,785,749,0
238196,456.16,774,747,0
238199,495.71,774,749,0
238209,538.19,774,749,0
238219,580.26,774,748,0
238229,619.82,774,749,0
238239,654.03,774,748,0
238249,681.80,774,749,0
238259,701.66,774,748,0
238269,714.75,774,749,0
238279,720.14,774,748,0
238289,717.91,774,749,0
238299,707.69,774,748,0
238309,690.04,774,749,0
238319,664.74,774,748,0
238329,633.11,774,749,0
238339,596.22,774,748,0
238349,558.18,774,749,0
238359,520.20,774,748,0
238369,484.82,774,749,0
238380,452.31,774,747,0
238390,424.53,774,749,0
238400,400.76,774,748,0
238410,382.01,774,749,0
238420,367.31,774,748,0
238430,357.66,774,750,0
238440,351.89,774,748,0
238450,350.64,774,749,0
238460,352.55,774,748,0
238470,357.70,774,749,0
238480,364.60,774,748,0
238490,373.25,774,749,0
238500,382.05,774,748,0
238510,390.99,774,750,0
238520,398.41,774,748,0
238530,404.46,774,749,0
238540,408.09,774,747,0
238551,409.74,774,750,0
238561,408.61,774,747,0
238571,405.52,774,749,0
238581,400.13,774,747,0
238592,393.54,774,750,0
238601,385.70,774,747,0
238611,377.74,774,749,0
238621,369.59,774,747,0
238631,362.08,774,750,0
238641,355.03,774,747,0
238651,348.98,774,749,0
238661,343.93,774,748,0
238671,340.01,774,750,0
238681,336.92,774,747,0
238691,335.01,774,749,0
238701,334.07,774,747,0
238711,334.22,774,749,0
238721,335.05,774,747,0
238731,336.62,774,749,0
238741,338.62,774,747,0
238751,341.09,774,750,0
238761,343.51,774,748,0
238771,345.88,774,749,0
238781,348.02,774,748,0
238791,350.24,774,750,0
238801,352.05,774,748,0
238811,353.71,774,749,0
238821,354.78,774,747,0
238831,355.49,774,749,0
238841,355.73,774,748,0
238851,355.72,774,749,0
238861,355.21,774,747,0
238871,354.46,774,750,0
238881,353.38,774,748,0
238892,352.28,774,749,0
238902,351.68,774,747,0
238912,351.95,774,750,0
238922,354.28,774,748,0
238932,359.89,774,749,0
238942,370.38,774,747,0
238952,387.41,774,750,0
238962,412.45,774,748,0
238982,445.53,785,746,0
238985,485.01,785,750,0
238994,527.48,785,749,0
239004,570.28,785,748,0
239014,610.74,785,749,0
239024,646.56,785,748,0
239034,675.75,785,749,0
239044,697.38,785,749,0
239054,712.48,785,749,0
239064,721.17,785,748,0
239074,722.44,785,749,0
239084,716.40,785,748,0
239094,702.31,785,749,0
239105,680.87,785,748,0
239115,652.24,785,749,0
239125,617.75,785,749,0
239135,579.43,785,748,0
239145,540.98,785,749,0
239155,503.62,785,749,0
239165,469.92,785,749,0
239175,439.69,785,748,0
239185,414.49,785,749,0
239195,393.30,785,749,0
239205,377.23,785,749,0
239215,365.07,785,748,0
239225,357.77,785,749,0
239235,353.85,785,749,0
239245,354.32,785,749,0
239255,357.40,785,748,0
239265,363.75,785,749,0
239276,371.58,785,748,0
239286,381.18,785,749,0
239296,390.51,785,748,0
239306,400.09,785,749,0
239316,407.86,785,748,0
239326,414.50,785,749,0
239336,418.34,785,748,0
239346,420.34,785,749,0
239356,419.29,785,748,0
239366,416.63,785,749,0
239376,411.39,785,748,0
239386,405.23,785,749,0
239396,397.44,785,748,0
239406,389.73,785,749,0
239416,381.37,785,748,0
239426,374.01,785,749,0
239436,366.81,785,748,0
239447,361.29,785,749,0
239457,356.36,785,748,0
239467,353.21,785,749,0
239477,350.79,785,748,0
239488,350.08,785,750,0
239497,349.80,785,748,0
239507,350.97,785,749,0
239517,352.14,785,748,0
239527,354.28,785,750,0
239537,356.13,785,748,0
239547,358.49,785,749,0
239557,360.27,785,748,0
239567,362.33,785,749,0
239577,363.43,785,748,0
239587,364.72,785,749,0
239597,365.19,785,748,0
239607,365.77,785,750,0
239617,365.58,785,748,0
239627,365.62,785,749,0
239637,364.84,785,748,0
239647,364.24,785,750,0
239657,362.84,785,748,0
239667,361.69,785,749,0
239677,360.15,785,748,0
239687,359.64,785,750,0
239697,360.39,785,748,0
239707,364.81,785,749,0
239717,373.61,785,748,0
239727,389.50,785,750,0
239737,412.79,785,748,0
239747,444.66,785,749,0
239766,483.07,785,749,0
239769,525.14,785,751,0
239778,567.61,785,748,0
239788,608.27,785,749,0
239798,644.15,785,748,0
239808,673.85,785,750,0
239818,696.09,785,748,0
239828,711.15,785,749,0
239838,718.78,785,748,0
239848,718.89,785,750,0
239858,710.91,785,748,0
239868,695.12,785,749,0
239878,671.73,785,748,0
239888,641.64,785,750,0
239898,605.87,785,748,0
239908,567.68,785,749,0
239918,529.12,785,748,0
239928,492.74,785,750,0
239938,459.39,785,748,0
239948,430.35,785,749,0
239959,405.64,785,748,0
239969,385.69,785,750,0
239979,370.36,785,748,0
239989,359.62,785,749,0
240000,353.09,785,748,0
240009,350.75,785,750,0
240019,351.90,785,748,0
240029,355.91,785,749,0
240039,362.24,785,748,0
240049,370.05,785,750,0
240059,378.65,785,748,0
240069,387.33,785,749,0
240079,395.33,785,748,0
240089,402.13,785,750,0
240099,407.19,785,748,0
240109,410.13,785,749,0
240119,410.78,785,748,0
240129,409.22,785,750,0
240139,405.51,785,748,0
240149,399.91,785,749,0
240159,392.83,785,748,0
240169,384.69,785,750,0
240179,376.17,785,748,0
240189,367.63,785,750,0
240199,359.60,785,748,0
240209,352.31,785,750,0
240219,346.09,785,748,0
240229,340.96,785,750,0
240239,337.41,785,748,0
240249,335.02,785,750,0
240259,333.90,785,748,0
240269,333.71,785,750,0
240279,334.49,785,747,0
240289,335.93,785,750,0
240300,338.01,785,748,0
240310,340.19,785,749,0
240320,342.66,785,748,0
240330,344.95,785,749,0
240340,347.32,785,748,0
240350,349.37,785,749,0
240360,351.36,785,748,0
240370,352.75,785,749,0
240380,354.15,785,748,0
240390,355.18,785,749,0
240400,356.24,785,748,0
240410,356.64,785,749,0
240420,356.92,785,748,0
240430,356.64,785,749,0
240440,356.45,785,748,0
240450,355.54,785,749,0
240460,354.61,785,748,0
240471,353.27,785,749,0
240481,353.02,785,748,0
240491,354.13,785,749,0
240501,358.63,785,749,0
240512,367.48,785,749,0
240521,383.07,785,748,0
240531,406.15,785,749,0
240550,438.25,784,748,0
240553,476.96,784,749,0
240562,519.57,784,748,0
240572,562.73,784,749,0
240582,604.17,784,749,0
240592,641.10,784,749,0
240602,671.80,784,749,0
240612,694.62,784,749,0
240622,710.63,784,749,0
240632,720.43,784,749,0
240642,723.99,784,748,0
240652,720.00,784,749,0
240662,708.60,784,749,0
240672,689.09,784,748,0
240683,662.45,784,748,0
240692,628.93,784,749,0
240702,591.24,784,749,0
240712,551.01,784,749,0
240722,511.88,784,748,0
240732,474.71,784,749,0
240742,442.10,784,749,0
240752,413.57,784,749,0
240762,390.56,784,749,0
240772,372.09,784,749,0
240782,359.25,784,749,0
240792,350.90,784,749,0
240802,347.72,784,749,0
240812,348.10,784,749,0
240822,352.61,784,749,0
240832,359.24,784,749,0
240842,368.43,784,749,0
240852,377.99,784,748,0
240862,388.10,784,749,0
240872,396.86,784,748,0
240882,404.83,784,749,0
240892,410.19,784,748,0
240902,413.87,784,749,0
240912,414.42,784,749,0
240922,413.18,784,749,0
240932,409.10,784,748,0
240942,403.75,784,749,0
240952,396.20,784,749,0
240962,388.25,784,749,0
240972,379.18,784,748,0
240983,370.51,784,750,0
240993,361.66,784,748,0
241003,354.13,784,749,0
241013,347.11,784,748,0
241024,341.89,784,750,0
241033,337.46,784,748,0
241043,334.93,784,749,0
241053,333.15,784,748,0
241063,333.10,784,750,0
241073,333.54,784,748,0
241083,335.39,784,749,0
241093,337.25,784,748,0
241103,340.04,784,750,0
241113,342.43,784,748,0
241123,345.47,784,749,0
241133,347.82,784,748,0
241143,350.57,784,749,0
241153,352.33,784,748,0
241163,354.42,784,749,0
241173,355.58,784,748,0
241183,356.90,784,750,0
241193,357.28,784,748,0
241203,357.88,784,749,0
241213,357.49,784,748,0
241223,357.43,784,750,0
241233,356.48,784,748,0
241243,355.95,784,750,0
241253,354.72,784,748,0
241263,353.95,784,750,0
241273,352.59,784,748,0
241283,352.16,784,749,0
241293,351.90,784,748,0
241303,353.90,784,750,0
241313,358.34,784,748,0
241324,368.10,784,750,0
241334,383.80,784,748,0
241353,408.16,803,747,0
241356,441.11,803,749,0
241366,480.85,803,750,0
241375,523.75,803,748,0
241385,567.50,803,750,0
241395,608.88,803,748,0
241405,645.86,803,750,0
241415,675.77,803,748,0
241425,697.44,803,750,0
241435,712.61,803,748,0
241445,723.23,803,750,0
241455,727.79,803,748,0
241465,725.49,803,750,0
241475,715.32,803,748,0
241485,697.18,803,750,0
241495,671.15,803,747,0
241505,638.06,803,750,0
241515,598.32,803,748,0
241525,555.75,803,750,0
241536,512.88,803,747,0
241545,472.72,803,750,0
241555,436.46,803,748,0
241565,405.64,803,750,0
241575,380.37,803,747,0
241585,361.49,803,750,0
241595,348.53,803,748,0
241605,341.60,803,750,0
241615,339.88,803,747,0
241625,343.04,803,750,0
241635,349.72,803,747,0
241645,359.40,803,750,0
241655,370.68,803,747,0
241665,382.99,803,750,0
241675,394.91,803,748,0
241685,405.74,803,750,0
241695,414.51,803,747,0
241705,421.00,803,750,0
241715,424.47,803,748,0
241725,425.19,803,750,0
241735,422.73,803,747,0
241745,417.84,803,750,0
241755,410.60,803,748,0
241765,401.85,803,750,0
241775,391.87,803,747,0
241785,381.45,803,750,0
241795,370.86,803,748,0
241805,361.13,803,750,0
241815,352.26,803,747,0
241825,344.81,803,750,0
241836,338.87,803,748,0
241846,334.62,803,750,0
241856,331.99,803,747,0
241866,330.88,803,750,0
241876,331.13,803,748,0
241886,332.55,803,750,0
241896,334.87,803,748,0
241906,337.69,803,750,0
241916,341.04,803,748,0
241926,344.54,803,750,0
241936,348.07,803,748,0
241946,351.18,803,750,0
241956,354.04,803,748,0
241966,356.34,803,750,0
241976,358.30,803,748,0
241986,359.58,803,750,0
241996,360.56,803,748,0
242007,360.99,803,749,0
242017,361.12,803,748,0
242027,360.74,803,749,0
242037,360.22,803,748,0
242048,359.13,803,749,0
242057,357.97,803,748,0
242067,356.18,803,749,0
242077,354.54,803,748,0
242087,352.71,803,749,0
242097,351.68,803,748,0
242107,351.91,803,749,0
242117,355.36,803,748,0
242127,363.01,803,749,0
242137,377.11,803,748,0
242147,398.76,803,749,0
242166,429.52,813,748,0
242169,467.68,813,750,0
242178,510.25,813,749,0
242188,553.93,813,749,0
242198,596.29,813,749,0
242208,634.65,813,749,0
242219,666.85,813,749,0
242228,691.20,813,749,0
242238,708.24,813,749,0
242248,720.17,813,749,0
242258,727.06,813,749,0
242268,727.34,813,749,0
242278,720.51,813,749,0
242288,705.36,813,749,0
242298,682.36,813,749,0
242308,651.53,813,749,0
242318,613.91,813,749,0
242328,571.17,813,749,0
242338,527.40,813,749,0
242348,484.34,813,749,0
242358,445.24,813,749,0
242368,410.49,813,749,0
242378,381.97,813,749,0
242388,359.23,813,749,0
242398,343.60,813,749,0
242408,333.86,813,749,0
242418,330.78,813,749,0
242428,332.69,813,748,0
242438,339.77,813,749,0
242448,349.86,813,749,0
242458,362.89,813,749,0
242468,376.42,813,748,0
242478,390.44,813,749,0
242488,402.69,813,749,0
242498,413.46,813,749,0
242508,420.95,813,748,0
242519,425.89,813,749,0
242529,426.95,813,749,0
242539,425.47,813,749,0
242549,420.48,813,748,0
242560,413.70,813,750,0
242569,404.40,813,749,0
242579,394.51,813,749,0
242589,383.39,813,748,0
242599,372.86,813,750,0
242609,362.36,813,749,0
242619,353.46,813,749,0
242629,345.31,813,748,0
242639,339.22,813,750,0
242649,334.01,813,749,0
242659,330.92,813,749,0
242669,328.59,813,748,0
242679,328.03,813,749,0
242689,327.93,813,749,0
242699,329.37,813,749,0
242709,330.97,813,748,0
242719,333.77,813,750,0
242729,336.36,813,748,0
242739,339.98,813,750,0
242749,342.95,813,748,0
242759,346.65,813,750,0
242769,349.37,813,748,0
242779,352.43,813,749,0
242789,354.40,813,748,0
242799,356.59,813,750,0
242809,357.66,813,748,0
242819,359.13,813,749,0
242829,359.65,813,748,0
242839,360.61,813,750,0
242849,360.64,813,748,0
242860,361.05,813,750,0
242870,360.48,813,748,0
242880,360.21,813,749,0
242890,359.12,813,748,0
242900,358.35,813,750,0
242910,357.30,813,748,0
242920,358.11,813,750,0
242930,360.99,813,748,0
242940,368.97,813,750,0
242950,382.35,813,748,0
242960,404.10,813,750,0
242979,434.33,813,748,0
242982,472.29,813,750,0
242991,514.16,813,748,0
243001,557.65,813,750,0
243011,599.29,813,748,0
243021,637.34,813,750,0
243031,668.74,813,748,0
243041,692.43,813,750,0
243051,709.02,813,748,0
243061,720.67,813,750,0
243072,728.78,813,748,0
243081,733.05,813,750,0
243091,731.23,813,748,0
243101,722.51,813,750,0
243111,705.77,813,748,0
243121,681.41,813,750,0
243131,649.40,813,748,0
243141,610.88,813,750,0
243151,567.50,813,748,0
243161,523.72,813,750,0
243171,481.33,813,748,0
243181,443.39,813,750,0
243191,410.49,813,748,0
243201,384.11,813,750,0
243211,363.98,813,748,0
243221,350.91,813,750,0
243231,343.83,813,748,0
243241,343.06,813,750,0
243251,346.86,813,748,0
243261,355.00,813,750,0
243271,365.76,813,748,0
243281,378.43,813,750,0
243291,391.42,813,748,0
243301,404.15,813,750,0
243311,415.08,813,748,0
243321,424.14,813,750,0
243331,430.14,813,748,0
243341,433.53,813,750,0
243351,433.54,813,748,0
243361,430.81,813,749,0
243372,425.12,813,748,0
243382,417.50,813,750,0
243392,408.05,813,748,0
243402,397.79,813,750,0
243412,386.88,813,748,0
243422,376.59,813,750,0
243432,366.81,813,748,0
243442,358.43,813,749,0
243452,351.23,813,748,0
243462,345.80,813,750,0
243472,341.79,813,748,0
243482,339.15,813,749,0
243492,337.69,813,748,0
243502,337.57,813,750,0
243512,338.47,813,748,0
243522,340.39,813,749,0
243532,342.84,813,748,0
243543,345.76,813,750,0
243553,349.26,813,748,0
243563,352.65,813,749,0
243573,356.10,813,748,0
243584,358.94,813,750,0
243593,361.66,813,748,0
243603,363.90,813,749,0
243613,365.86,813,748,0
243623,367.23,813,749,0
243633,368.32,813,748,0
243643,368.69,813,749,0
243653,368.96,813,748,0
243663,368.46,813,750,0
243673,367.72,813,748,0
243683,366.56,813,749,0
243693,365.71,813,748,0
243703,365.62,813,750,0
243713,367.92,813,748,0
243723,373.77,813,749,0
243733,385.33,813,748,0
243743,403.87,813,750,0
243753,431.08,813,749,0
243772,466.24,793,747,0
243775,506.58,793,749,0
243784,548.88,793,750,0
243794,590.66,793,749,0
243804,629.08,793,749,0
243814,662.10,793,749,0
243824,687.74,793,750,0
243834,705.77,793,749,0
243844,718.36,793,750,0
243854,726.78,793,749,0
243864,729.12,793,750,0
243874,724.54,793,749,0
243884,712.16,793,749,0
243894,692.06,793,748,0
243904,663.97,793,749,0
243914,629.05,793,749,0
243924,587.81,793,749,0
243934,544.75,793,748,0
243944,502.05,793,749,0
243954,462.35,793,749,0
243964,426.55,793,749,0
243974,396.77,793,748,0
243984,372.54,793,750,0
243994,355.23,793,749,0
244004,343.81,793,749,0
244014,338.68,793,748,0
244024,338.65,793,749,0
244034,343.77,793,749,0
244044,352.11,793,749,0
244055,363.43,793,749,0
244065,375.56,793,749,0
244075,388.33,793,749,0
244085,399.85,793,749,0
244096,410.35,793,749,0
244105,418.22,793,749,0
244115,423.77,793,749,0
244125,425.77,793,749,0
244135,425.28,793,749,0
244145,421.51,793,749,0
244155,416.00,793,749,0
244165,407.94,793,749,0
244175,398.96,793,749,0
244185,388.73,793,749,0
244195,379.00,793,749,0
244205,369.18,793,749,0
244215,360.64,793,749,0
244225,352.78,793,749,0
244235,346.76,793,749,0
244245,341.56,793,749,0
244255,338.26,793,749,0
244265,335.70,793,749,0
244275,334.89,793,749,0
244285,334.67,793,749,0
244295,335.75,793,749,0
244305,337.11,793,749,0
244315,339.44,793,749,0
244325,341.40,793,749,0
244335,344.20,793,749,0
244345,346.28,793,749,0
244355,348.85,793,749,0
244365,350.53,793,749,0
244375,352.43,793,749,0
244385,353.54,793,749,0
244396,355.05,793,749,0
244406,355.59,793,748,0
244416,356.44,793,750,0
244426,356.31,793,748,0
244436,356.60,793,750,0
244446,355.78,793,748,0
244456,355.16,793,749,0
244466,353.78,793,748,0
244476,353.46,793,750,0
244486,353.88,793,749,0
244496,357.47,793,749,0
244506,364.96,793,748,0
244516,379.16,793,750,0
244526,400.28,793,749,0
244536,430.37,793,749,0
244555,467.72,783,749,0
244558,509.84,783,751,0
244567,553.18,783,748,0
244577,595.17,783,750,0
244587,633.00,783,748,0
244597,665.32,783,750,0
244608,690.04,783,748,0
244617,707.42,783,750,0
244627,718.83,783,748,0
244637,723.98,783,750,0
244647,721.63,783,748,0
244657,712.14,783,750,0
244667,694.70,783,748,0
244677,670.15,783,750,0
244687,638.69,783,748,0
244697,602.35,783,749,0
244707,563.16,783,748,0
244717,524.67,783,750,0
244727,487.61,783,748,0
244737,454.69,783,750,0
244747,425.72,783,748,0
244757,402.02,783,750,0
244767,382.77,783,748,0
244777,369.00,783,750,0
244787,359.57,783,748,0
244797,355.20,783,750,0
244807,354.50,783,748,0
244817,357.78,783,750,0
244827,363.46,783,748,0
244837,371.72,783,750,0
244847,380.72,783,748,0
244857,390.66,783,750,0
244867,399.68,783,748,0
244877,408.04,783,750,0
244887,414.25,783,748,0
244897,418.63,783,750,0
244908,420.07,783,748,0
244918,419.41,783,750,0
244928,416.03,783,748,0
244938,410.96,783,750,0
244948,403.77,783,748,0
244958,395.78,783,750,0
244968,386.76,783,748,0
244978,377.92,783,750,0
244988,369.16,783,748,0
244998,361.40,783,750,0
245008,354.42,783,748,0
245018,348.89,783,750,0
245028,344.34,783,748,0
245038,341.37,783,750,0
245048,339.24,783,748,0
245058,338.40,783,750,0
245068,338.15,783,748,0
245079,338.75,783,750,0
245089,339.77,783,748,0
245099,341.29,783,750,0
245109,342.92,783,748,0
245120,344.83,783,750,0
245129,346.51,783,748,0
245139,348.16,783,750,0
245149,349.52,783,748,0
245159,350.61,783,750,0
245169,351.37,783,748,0
245179,351.82,783,750,0
245189,351.96,783,748,0
245199,351.71,783,750,0
245209,351.07,783,748,0
245219,350.15,783,750,0
245229,348.90,783,748,0
245239,347.69,783,750,0
245249,346.93,783,748,0
245259,347.63,783,750,0
245269,351.17,783,748,0
245279,358.92,783,750,0
245289,372.44,783,748,0
245299,392.84,783,750,0
245309,420.66,783,748,0
245328,455.73,773,747,0
245331,496.06,773,750,0
245340,538.51,773,750,0
245350,580.31,773,748,0
245360,618.88,773,750,0
245370,652.47,773,749,0
245380,679.72,773,750,0
245390,698.14,773,748,0
245400,706.76,773,750,0
245410,706.40,773,748,0
245420,697.67,773,750,0
245430,681.18,773,748,0
245440,657.34,773,749,0
245450,627.37,773,748,0
245460,593.66,773,749,0
245470,559.13,773,747,0
245480,525.15,773,749,0
245490,493.43,773,748,0
245500,464.55,773,749,0
245510,439.65,773,748,0
245520,418.37,773,750,0
245530,401.33,773,749,0
245540,387.78,773,749,0
245550,378.16,773,748,0
245560,371.81,773,749,0
245570,369.12,773,748,0
245580,369.17,773,749,0
245591,372.21,773,748,0
245601,377.03,773,749,0
245611,383.88,773,749,0
245621,391.37,773,749,0
245632,399.49,773,748,0
245641,406.84,773,749,0
245651,413.53,773,748,0
245661,418.17,773,749,0
245671,421.38,773,748,0
245681,422.04,773,749,0
245691,421.00,773,749,0
245701,417.44,773,749,0
245711,412.59,773,748,0
245721,406.12,773,749,0
245731,399.14,773,748,0
245741,391.17,773,749,0
245751,383.62,773,749,0
245761,375.98,773,749,0
245771,369.77,773,749,0
245781,363.92,773,749,0
245791,359.45,773,748,0
245801,355.58,773,749,0
245811,353.31,773,749,0
245821,351.63,773,749,0
245831,351.31,773,749,0
245841,351.13,773,749,0
245851,351.99,773,749,0
245861,352.81,773,749,0
245871,354.50,773,749,0
245881,355.80,773,749,0
245891,357.53,773,749,0
245901,358.79,773,749,0
245911,360.27,773,749,0
245921,361.13,773,749,0
245932,362.29,773,749,0
245942,362.80,773,749,0
245952,363.59,773,749,0
245962,363.50,773,749,0
245972,363.65,773,750,0
245982,362.98,773,749,0
245992,362.65,773,749,0
246002,361.55,773,749,0
246012,361.21,773,750,0
246022,361.24,773,749,0
246032,363.91,773,749,0
246042,369.29,773,749,0
246052,379.83,773,749,0
246062,395.40,773,749,0
246072,417.99,773,749,0
246082,446.41,773,749,0
246102,481.17,773,747,0
246105,519.26,773,749,0
246114,558.78,773,750,0
246124,596.56,773,748,0
246134,630.89,773,750,0
246145,658.01,773,748,0
246155,677.08,773,750,0
246165,685.67,773,748,0
246175,684.78,773,750,0
246185,674.52,773,748,0
246195,656.62,773,750,0
246205,632.09,773,748,0
246215,603.95,773,750,0
246225,573.45,773,748,0
246235,543.49,773,750,0
246245,514.37,773,748,0
246255,487.90,773,750,0
246265,463.85,773,748,0
246275,443.15,773,750,0
246285,425.19,773,748,0
246295,410.52,773,750,0
246305,398.28,773,748,0
246316,389.37,773,750,0
246326,383.08,773,748,0
246336,379.84,773,750,0
246346,379.03,773,748,0
246356,380.82,773,750,0
246366,384.26,773,748,0
246376,389.37,773,750,0
246386,395.00,773,748,0
246396,400.96,773,750,0
246406,406.20,773,747,0
246416,410.60,773,750,0
246426,413.37,773,748,0
246436,414.55,773,750,0
246446,413.70,773,747,0
246456,411.17,773,750,0
246466,406.92,773,748,0
246476,401.59,773,750,0
246487,395.20,773,748,0
246497,388.24,773,750,0
246507,381.18,773,748,0
246517,374.36,773,750,0
246528,368.03,773,748,0
246537,362.54,773,750,0
246547,357.96,773,748,0
246557,354.42,773,750,0
246567,352.15,773,748,0
246577,350.78,773,750,0
246587,350.46,773,748,0
246597,350.79,773,750,0
246607,351.84,773,748,0
246617,353.30,773,750,0
246627,355.10,773,748,0
246637,356.78,773,750,0
246647,358.52,773,748,0
246657,360.03,773,750,0
246667,361.61,773,748,0
246677,362.76,773,750,0
246687,363.81,773,748,0
246697,364.34,773,750,0
246707,364.75,773,748,0
246717,364.78,773,750,0
246727,364.68,773,748,0
246737,363.92,773,750,0
246747,363.00,773,748,0
246757,361.59,773,750,0
246767,360.38,773,748,0
246777,359.45,773,750,0
246787,359.96,773,748,0
246797,362.71,773,750,0
246807,369.40,773,748,0
246817,380.77,773,750,0
246828,398.24,773,749,0
246838,422.34,773,750,0
246857,452.79,756,748,0
246860,487.78,756,749,0
246870,526.25,756,749,0
246879,564.96,756,750,0
246889,601.96,756,749,0
246899,633.86,756,750,0
246909,658.63,756,749,0
246919,674.77,756,750,0
246929,682.25,756,749,0
246939,680.03,756,750,0
246949,670.08,756,749,0
246959,652.91,756,750,0
246969,631.25,756,749,0
246979,606.02,756,750,0
246989,579.96,756,749,0
246999,553.66,756,750,0
247009,529.07,756,749,0
247019,505.95,756,750,0
247029,485.61,756,749,0
247040,467.13,756,749,0
247049,451.53,756,749,0
247059,437.53,756,750,0
247069,426.10,756,749,0
247079,416.17,756,750,0
247089,408.79,756,749,0
247099,402.94,756,749,0
247109,399.61,756,749,0
247119,397.80,756,750,0
247129,398.16,756,749,0
247139,399.48,756,749,0
247149,402.68,756,749,0
247159,405.86,756,750,0
247169,409.68,756,749,0
247179,412.56,756,750,0
247189,415.18,756,749,0
247199,416.37,756,749,0
247209,416.73,756,749,0
247219,415.05,756,749,0
247229,412.68,756,749,0
247239,408.79,756,749,0
247249,404.57,756,749,0
247259,399.38,756,750,0
247269,394.30,756,749,0
247279,388.68,756,750,0
247289,383.93,756,750,0
247299,379.11,756,750,0
247309,375.48,756,749,0
247319,372.03,756,749,0
247329,369.75,756,749,0
247340,367.64,756,749,0
247350,366.93,756,750,0
247360,366.10,756,749,0
247370,366.54,756,750,0
247380,366.59,756,749,0
247390,367.53,756,750,0
247400,367.97,756,749,0
247410,369.14,756,750,0
247420,369.61,756,749,0
247430,370.71,756,750,0
247440,371.10,756,749,0
247450,372.05,756,750,0
247460,372.25,756,749,0
247470,373.03,756,750,0
247480,372.98,756,749,0
247490,373.37,756,750,0
247500,372.87,756,748,0
247511,372.61,756,750,0
247521,371.53,756,749,0
247531,370.81,756,750,0
247541,369.37,756,748,0
247552,368.66,756,750,0
247561,367.99,756,749,0
247571,369.45,756,750,0
247581,372.91,756,748,0
247591,380.70,756,750,0
247601,392.57,756,749,0
247611,410.74,756,750,0
247630,434.52,773,749,0
247633,464.66,773,750,0
247642,499.01,773,749,0
247652,536.68,773,751,0
247662,573.97,773,748,0
247672,609.64,773,751,0
247682,639.88,773,749,0
247692,663.70,773,750,0
247702,678.70,773,748,0
247712,685.09,773,750,0
247723,682.24,773,748,0
247732,672.35,773,750,0
247742,655.79,773,748,0
247752,635.07,773,750,0
247762,611.05,773,749,0
247772,586.35,773,751,0
247782,561.43,773,748,0
247792,538.07,773,750,0
247802,515.89,773,749,0
247812,496.12,773,750,0
247822,478.09,773,748,0
247832,462.46,773,750,0
247842,448.18,773,749,0
247852,436.08,773,751,0
247862,425.39,773,748,0
247872,417.00,773,750,0
247882,410.27,773,749,0
247892,405.90,773,751,0
247902,403.19,773,748,0
247912,402.75,773,750,0
247922,403.59,773,748,0
247932,406.03,773,750,0
247942,408.81,773,748,0
247952,412.16,773,750,0
247962,414.94,773,749,0
247972,417.40,773,750,0
247982,418.53,773,749,0
247992,419.01,773,750,0
248002,417.76,773,749,0
248012,415.56,773,750,0
248023,411.84,773,748,0
248033,407.56,773,750,0
248043,402.25,773,748,0
248053,396.73,773,750,0
248064,390.60,773,748,0
248073,385.10,773,750,0
248083,379.80,773,748,0
248093,375.19,773,751,0
248103,371.10,773,748,0
248113,367.94,773,750,0
248123,365.48,773,748,0
248133,363.83,773,751,0
248143,362.64,773,749,0
248153,362.11,773,750,0
248163,361.95,773,748,0
248173,362.30,773,750,0
248183,362.77,773,748,0
248193,363.44,773,750,0
248203,363.99,773,748,0
248213,364.47,773,750,0
248223,364.76,773,748,0
248233,365.00,773,750,0
248243,364.91,773,748,0
248253,364.94,773,750,0
248263,364.79,773,748,0
248273,364.76,773,750,0
248283,364.66,773,748,0
248293,364.42,773,750,0
248303,364.08,773,749,0
248313,363.41,773,750,0
248323,362.35,773,748,0
248333,361.21,773,750,0
248343,359.95,773,749,0
248353,359.02,773,750,0
248364,359.19,773,749,0
248374,361.10,773,750,0
248384,366.09,773,749,0
248394,374.80,773,750,0
248404,388.45,773,749,0
248414,407.13,773,750,0
248433,430.79,803,749,0
248436,458.50,803,750,0
248445,489.63,803,749,0
248455,521.29,803,750,0
248465,551.80,803,749,0
248475,578.26,803,749,0
248485,599.57,803,749,0
248495,614.18,803,750,0
248505,621.80,803,749,0
248515,621.39,803,750,0
248525,614.76,803,749,0
248535,602.53,803,750,0
248545,586.47,803,749,0
248555,567.30,803,749,0
248565,547.15,803,749,0
248576,526.32,803,750,0
248585,506.60,803,749,0
248595,487.69,803,749,0
248605,470.60,803,749,0
248615,454.86,803,750,0
248625,441.32,803,749,0
248635,428.84,803,749,0
248645,418.47,803,749,0
248655,409.24,803,750,0
248665,402.10,803,749,0
248675,396.24,803,750,0
248685,392.70,803,749,0
248695,390.47,803,750,0
248705,390.33,803,749,0
248715,391.26,803,750,0
248725,393.67,803,749,0
248735,396.34,803,750,0
248745,399.71,803,749,0
248755,402.45,803,750,0
248765,405.15,803,749,0
248775,406.56,803,750,0
248785,407.38,803,749,0
248795,406.62,803,750,0
248805,405.28,803,749,0
248815,402.45,803,750,0
248825,399.19,803,749,0
248835,395.10,803,750,0
248845,390.91,803,749,0
248855,386.14,803,750,0
248865,381.73,803,749,0
248876,376.88,803,750,0
248886,372.76,803,749,0
248896,368.42,803,750,0
248906,364.78,803,750,0
248916,361.50,803,749,0
248926,359.08,803,749,0
248936,356.70,803,750,0
248946,355.37,803,750,0
248956,353.93,803,749,0
248966,353.57,803,749,0
248976,352.93,803,750,0
248986,352.99,803,750,0
248996,352.78,803,749,0
249006,353.40,803,749,0
249016,353.67,803,750,0
249026,354.58,803,750,0
249036,354.88,803,749,0
249047,355.60,803,750,0
249057,355.55,803,749,0
249067,355.90,803,750,0
249077,355.41,803,749,0
249088,355.38,803,750,0
249097,354.71,803,749,0
249107,354.41,803,750,0
249117,353.51,803,749,0
249127,353.02,803,750,0
249137,351.85,803,749,0
249147,351.21,803,750,0
249157,349.91,803,749,0
249167,349.51,803,750,0
249177,349.27,803,749,0
249187,351.03,803,750,0
249197,354.45,803,749,0
249207,361.47,803,750,0
249217,371.36,803,749,0
249227,385.82,803,750,0
249246,403.66,813,749,0
249249,425.49,813,750,0
249259,449.43,813,749,0
249268,475.02,813,751,0
249278,499.10,813,749,0
249288,521.61,813,750,0
249298,539.73,813,748,0
249308,553.44,813,750,0
249318,561.32,813,749,0
249328,563.84,813,750,0
249338,560.54,813,749,0
249348,553.52,813,750,0
249358,542.57,813,749,0
249368,529.97,813,750,0
249378,515.71,813,749,0
249388,501.57,813,750,0
249398,487.25,813,749,0
249408,474.28,813,750,0
249418,461.81,813,748,0
249428,450.89,813,750,0
249438,440.47,813,749,0
249448,431.50,813,750,0
249458,422.82,813,749,0
249468,415.59,813,751,0
249478,408.77,813,749,0
249488,403.52,813,750,0
249498,399.00,813,749,0
249508,396.13,813,750,0
249518,393.90,813,749,0
249528,393.37,813,750,0
249538,393.39,813,749,0
249548,394.69,813,750,0
249559,395.85,813,748,0
249569,397.53,813,750,0
249579,398.70,813,749,0
249589,399.90,813,750,0
249600,400.19,813,748,0
249609,400.17,813,750,0
249619,399.05,813,748,0
249629,397.66,813,751,0
249639,395.41,813,748,0
249649,392.93,813,750,0
249659,389.69,813,749,0
249669,386.48,813,751,0
249679,382.78,813,748,0
249689,379.42,813,750,0
249699,375.82,813,748,0
249709,372.62,813,750,0
249719,369.43,813,748,0
249729,366.95,813,750,0
249739,364.56,813,748,0
249749,362.89,813,750,0
249759,361.25,813,748,0
249769,360.23,813,750,0
249779,359.31,813,748,0
249789,358.87,813,750,0
249799,358.44,813,748,0
249809,358.44,813,750,0
249819,358.31,813,748,0
249829,358.51,813,750,0
249839,358.53,813,748,0
249849,358.80,813,750,0
249859,358.77,813,748,0
249869,358.93,813,751,0
249879,358.78,813,748,0
249889,358.59,813,750,0
249900,358.11,813,748,0
249910,357.74,813,750,0
249920,357.17,813,749,0
249930,356.78,813,750,0
249940,356.12,813,748,0
249950,355.44,813,750,0
249960,354.62,813,748,0
249970,353.75,813,750,0
249980,352.97,813,748,0
249990,352.16,813,751,0
250000,351.39,813,749,0
250010,351.06,813,750,0
250020,352.02,813,748,0
250030,354.55,813,750,0
250040,359.10,813,748,0
250050,366.22,813,750,0
250060,376.57,813,748,0
250080,390.33,834,747,0
250083,407.76,834,751,0
250092,427.46,834,750,0
250102,449.05,834,749,0
250113,470.68,834,750,0
250123,491.13,834,749,0
250133,508.58,834,750,0
250143,522.38,834,749,0
250153,530.79,834,750,0
250163,534.58,834,749,0
250173,533.21,834,750,0
250183,528.22,834,749,0
250193,519.49,834,750,0
250203,509.23,834,749,0
250213,497.59,834,750,0
250223,486.14,834,749,0
250233,474.40,834,750,0
250243,463.69,834,749,0
250253,453.37,834,750,0
250263,444.69,834,749,0
250273,436.17,834,750,0
250284,428.83,834,750,0
250294,421.68,834,749,0
250304,415.91,834,749,0
250314,410.36,834,749,0
250324,406.31,834,750,0
250334,402.53,834,749,0
250344,400.49,834,750,0
250354,398.71,834,749,0
250364,398.67,834,750,0
250374,398.68,834,749,0
250384,399.94,834,749,0
250394,400.98,834,749,0
250404,402.83,834,750,0
250414,404.04,834,749,0
250424,405.44,834,749,0
250434,405.57,834,749,0
250444,405.65,834,750,0
250455,404.47,834,749,0
250465,403.04,834,750,0
250475,400.33,834,749,0
250485,397.49,834,750,0
250496,393.70,834,749,0
250505,390.23,834,750,0
250515,386.13,834,749,0
250525,382.62,834,750,0
250535,378.88,834,749,0
250545,376.04,834,750,0
250555,373.03,834,749,0
250565,371.14,834,750,0
250575,369.12,834,749,0
250585,368.19,834,750,0
250595,367.06,834,749,0
250605,366.83,834,750,0
250615,366.28,834,749,0
250625,366.50,834,750,0
250635,366.22,834,749,0
250645,366.58,834,750,0
250655,366.36,834,748,0
250665,366.68,834,750,0
250675,366.35,834,749,0
250685,366.59,834,750,0
250695,366.11,834,749,0
250705,366.08,834,750,0
250715,365.41,834,749,0
250725,365.16,834,750,0
250735,364.25,834,749,0
250745,363.75,834,750,0
250755,362.54,834,749,0
250765,361.99,834,750,0
250775,360.84,834,749,0
250785,360.24,834,750,0
250796,359.23,834,748,0
250806,358.64,834,750,0
250816,357.64,834,748,0
250826,357.19,834,750,0
250836,356.49,834,749,0
250846,356.77,834,750,0
250856,357.31,834,748,0
250866,359.45,834,750,0
250876,363.26,834,748,0
250886,369.91,834,750,0
250896,379.06,834,748,0
250915,391.60,835,746,0
250918,407.02,835,749,0
250927,425.44,835,750,0
250937,445.28,835,748,0
250947,465.77,835,750,0
250957,485.21,835,748,0
250967,502.98,835,750,0
250977,517.25,835,748,0
250987,527.55,835,750,0
250997,533.17,835,748,0
251008,534.58,835,750,0
251017,531.92,835,748,0
251027,526.16,835,750,0
251037,517.54,835,748,0
251047,507.52,835,750,0
251057,496.52,835,748,0
251067,485.61,835,750,0
251077,474.93,835,748,0
251087,465.05,835,750,0
251097,455.82,835,748,0
251107,447.73,835,750,0
251117,440.44,835,748,0
251127,434.14,835,750,0
251137,428.40,835,748,0
251147,423.65,835,750,0
251157,419.51,835,748,0
251167,416.40,835,750,0
251177,414.01,835,748,0
251187,412.59,835,750,0
251197,411.77,835,748,0
251207,411.71,835,750,0
251217,412.01,835,748,0
251227,412.99,835,750,0
251237,413.90,835,748,0
251247,414.83,835,750,0
251257,415.39,835,748,0
251267,415.83,835,750,0
251277,415.67,835,748,0
251287,415.08,835,750,0
251297,413.81,835,748,0
251308,411.98,835,750,0
251318,409.72,835,748,0
251328,406.85,835,750,0
251338,403.68,835,748,0
251348,400.26,835,750,0
251358,396.71,835,748,0
251368,393.03,835,750,0
251378,389.63,835,748,0
251388,386.27,835,750,0
251398,383.53,835,748,0
251408,380.97,835,750,0
251418,379.05,835,748,0
251428,377.45,835,750,0
251438,376.29,835,748,0
251448,375.34,835,750,0
251458,374.90,835,748,0
251468,374.50,835,750,0
251479,374.61,835,748,0
251489,374.42,835,750,0
251499,374.60,835,749,0
251509,374.46,835,750,0
251520,374.62,835,748,0
251529,374.48,835,750,0
251539,374.59,835,749,0
251549,374.11,835,750,0
251559,374.04,835,748,0
251569,373.47,835,750,0
251579,373.41,835,749,0
251589,372.78,835,750,0
251599,372.59,835,748,0
251609,371.72,835,750,0
251619,371.12,835,749,0
251629,370.14,835,750,0
251639,369.33,835,748,0
251649,367.99,835,750,0
251659,367.05,835,749,0
251669,365.62,835,750,0
251679,364.92,835,748,0
251689,364.34,835,749,0
251699,364.93,835,749,0
251709,366.53,835,749,0
251719,370.57,835,748,0
251729,376.87,835,749,0
251739,386.51,835,749,0
251758,399.00,843,747,0
251761,415.50,843,749,0
251770,434.72,843,749,0
251780,456.58,843,749,0
251790,478.78,843,749,0
251800,500.87,843,749,0
251810,520.67,843,749,0
251820,537.95,843,749,0
251830,550.48,843,749,0
251840,558.65,843,749,0
251850,561.58,843,749,0
251860,560.68,843,749,0
251870,555.59,843,749,0
251880,548.13,843,749,0
251890,538.02,843,749,0
251900,527.34,843,749,0
251910,515.88,843,749,0
251920,505.20,843,749,0
251930,494.51,843,749,0
251940,485.19,843,749,0
251950,476.35,843,749,0
251960,469.04,843,749,0
251970,461.96,843,749,0
251980,456.14,843,749,0
251991,450.40,843,749,0
252001,445.99,843,749,0
252011,441.75,843,749,0
252021,438.87,843,750,0
252032,436.25,843,748,0
252041,435.10,843,749,0
252051,434.13,843,749,0
252061,434.43,843,750,0
252071,434.69,843,748,0
252081,435.77,843,749,0
252091,436.22,843,748,0
252101,437.06,843,750,0
252111,436.83,843,748,0
252121,436.62,843,749,0
252131,435.19,843,748,0
252141,433.63,843,749,0
252151,430.83,843,748,0
252161,428.09,843,749,0
252171,424.30,843,748,0
252181,420.82,843,750,0
252191,416.50,843,748,0
252201,412.75,843,750,0
252211,408.37,843,748,0
252221,404.70,843,750,0
252231,400.68,843,748,0
252241,397.52,843,750,0
252251,394.10,843,748,0
252261,391.76,843,750,0
252271,389.13,843,748,0
252281,387.55,843,750,0
252291,385.80,843,748,0
252301,385.00,843,750,0
252311,384.06,843,748,0
252321,384.04,843,750,0
252332,383.64,843,748,0
252342,384.09,843,750,0
252352,384.07,843,748,0
252362,384.73,843,750,0
252372,384.73,843,748,0
252382,385.07,843,750,0
252392,384.49,843,748,0
252402,384.21,843,750,0
252412,383.21,843,748,0
252422,382.72,843,750,0
252432,381.52,843,748,0
252442,380.85,843,750,0
252452,379.61,843,748,0
252462,379.04,843,750,0
252472,377.91,843,748,0
252482,377.21,843,750,0
252492,375.99,843,748,0
252503,375.18,843,750,0
252513,373.88,843,748,0
252523,373.06,843,750,0
252533,371.93,843,748,0
252544,371.39,843,750,0
252553,370.85,843,748,0
252563,371.41,843,750,0
252573,372.70,843,747,0
252583,376.05,843,750,0
252593,381.26,843,748,0
252603,389.67,843,750,0
252613,401.08,843,747,0
252633,416.36,874,747,0
252636,435.11,874,749,0
252645,457.28,874,750,0
252655,481.11,874,748,0
252665,505.55,874,750,0
252675,528.65,874,748,0
252685,549.50,874,750,0
252695,566.41,874,748,0
252705,578.24,874,750,0
252716,584.64,874,748,0
252726,585.82,874,750,0
252736,582.70,874,748,0
252746,575.72,874,749,0
252756,566.08,874,748,0
252766,554.52,874,750,0
252776,542.20,874,748,0
252786,529.58,874,750,0
252796,517.62,874,748,0
252806,506.16,874,750,0
252816,496.00,874,748,0
252826,486.57,874,749,0
252836,478.43,874,748,0
252846,471.10,874,750,0
252856,464.81,874,748,0
252866,459.17,874,749,0
252876,454.75,874,748,0
252887,450.88,874,749,0
252897,448.34,874,748,0
252907,446.40,874,749,0
252917,445.72,874,749,0
252928,445.51,874,749,0
252937,446.25,874,748,0
252947,446.91,874,749,0
252957,448.13,874,749,0
252967,448.69,874,749,0
252977,449.30,874,748,0
252987,448.87,874,749,0
252997,448.26,874,749,0
253007,446.34,874,749,0
253017,444.14,874,748,0
253027,440.67,874,749,0
253037,437.21,874,749,0
253047,432.73,874,749,0
253057,428.31,874,748,0
253067,423.29,874,749,0
253077,418.88,874,749,0
253087,413.98,874,749,0
253097,409.87,874,749,0
253107,405.50,874,749,0
253117,402.13,874,749,0
253127,398.75,874,749,0
253137,396.25,874,748,0
253147,393.69,874,749,0
253157,392.16,874,749,0
253167,390.61,874,749,0
253177,389.91,874,749,0
253187,388.91,874,749,0
253197,388.64,874,749,0
253207,387.93,874,749,0
253217,387.82,874,749,0
253228,387.28,874,749,0
253238,387.11,874,749,0
253248,386.30,874,749,0
253258,385.96,874,749,0
253268,385.03,874,749,0
253278,384.89,874,749,0
253288,383.94,874,749,0
253298,383.44,874,749,0
253308,382.32,874,749,0
253318,381.88,874,749,0
253328,380.89,874,749,0
253338,380.41,874,749,0
253348,379.09,874,748,0
253358,378.55,874,749,0
253368,377.48,874,749,0
253378,377.17,874,749,0
253388,376.26,874,748,0
253399,376.18,874,749,0
253409,375.96,874,748,0
253419,377.21,874,750,0
253429,379.42,874,748,0
253440,384.27,874,750,0
253449,391.21,874,748,0
253459,402.08,874,750,0
253469,416.07,874,748,0
253489,434.65,856,747,0
253492,456.31,856,748,0
253501,481.42,856,750,0
253511,507.69,856,748,0
253521,534.31,856,750,0
253531,558.95,856,748,0
253541,580.91,856,750,0
253551,597.95,856,748,0
253561,610.01,856,750,0
253571,615.70,856,748,0
253581,616.26,856,750,0
253591,611.56,856,748,0
253601,603.08,856,750,0
253612,591.01,856,748,0
253622,576.95,856,750,0
253632,561.36,856,747,0
253642,545.66,856,750,0
253652,529.73,856,748,0
253662,514.98,856,750,0
253672,501.19,856,747,0
253682,489.22,856,750,0
253692,478.61,856,748,0
253702,469.81,856,750,0
253712,462.07,856,747,0
253722,455.88,856,750,0
253732,450.90,856,748,0
253742,447.16,856,750,0
253752,444.28,856,747,0
253762,442.61,856,750,0
253772,441.74,856,748,0
253783,441.99,856,750,0
253793,442.89,856,748,0
253803,444.04,856,750,0
253813,445.44,856,748,0
253824,446.55,856,750,0
253833,447.29,856,748,0
253843,447.33,856,750,0
253853,446.54,856,748,0
253863,444.75,856,750,0
253873,442.17,856,748,0
253883,438.52,856,750,0
253893,434.46,856,748,0
253903,429.70,856,750,0
253913,424.69,856,748,0
253923,419.47,856,750,0
253933,414.48,856,748,0
253943,409.62,856,750,0
253953,405.19,856,748,0
253963,401.15,856,750,0
253973,397.76,856,748,0
253983,394.75,856,750,0
253993,392.38,856,748,0
254003,390.30,856,750,0
254013,388.88,856,748,0
254023,387.67,856,750,0
254033,386.83,856,748,0
254043,386.06,856,750,0
254053,385.57,856,748,0
254063,385.10,856,750,0
254073,384.81,856,748,0
254083,384.27,856,750,0
254093,383.93,856,748,0
254103,383.40,856,750,0
254113,383.02,856,748,0
254124,382.59,856,750,0
254134,382.37,856,748,0
254144,381.91,856,750,0
254154,381.73,856,748,0
254164,381.21,856,749,0
254174,380.93,856,749,0
254184,380.27,856,749,0
254194,379.71,856,748,0
254204,378.56,856,749,0
254214,377.75,856,749,0
254224,376.49,856,750,0
254234,375.62,856,748,0
254244,374.45,856,749,0
254254,374.06,856,749,0
254264,374.08,856,750,0
254274,376.03,856,748,0
254284,379.71,856,749,0
254295,386.74,856,749,0
254305,396.97,856,749,0
254315,411.90,856,749,0
254334,430.66,846,748,0
254338,454.12,846,750,0
254347,480.44,846,749,0
254357,509.06,846,750,0
254367,537.16,846,748,0
254377,564.15,846,750,0
254387,587.12,846,749,0
254397,605.86,846,750,0
254407,618.07,846,748,0
254417,624.44,846,750,0
254427,624.26,846,749,0
254437,619.34,846,750,0
254447,609.21,846,748,0
254457,596.20,846,750,0
254467,580.33,846,749,0
254477,563.82,846,750,0
254487,546.30,846,748,0
254497,529.62,846,750,0
254508,513.28,846,748,0
254518,498.80,846,750,0
254528,485.27,846,748,0
254538,473.88,846,750,0
254548,463.54,846,748,0
254558,455.49,846,750,0
254568,448.45,846,748,0
254578,443.51,846,750,0
254588,439.54,846,748,0
254598,437.50,846,750,0
254608,436.15,846,748,0
254618,436.23,846,750,0
254628,436.63,846,748,0
254638,438.16,846,750,0
254648,439.35,846,748,0
254658,440.96,846,750,0
254668,441.70,846,748,0
254679,442.31,846,750,0
254689,441.70,846,748,0
254699,440.55,846,750,0
254709,438.20,846,748,0
254720,435.10,846,750,0
254729,430.74,846,748,0
254739,426.02,846,750,0
254749,420.40,846,748,0
254759,415.01,846,750,0
254769,408.96,846,748,0
254779,403.10,846,750,0
254789,397.20,846,748,0
254799,391.87,846,750,0
254809,386.68,846,748,0
254819,382.36,846,750,0
254829,378.14,846,748,0
254839,375.01,846,750,0
254849,372.22,846,747,0
254859,370.53,846,750,0
254869,369.21,846,748,0
254879,368.68,846,750,0
254889,368.22,846,747,0
254899,368.37,846,750,0
254909,368.47,846,748,0
254919,368.84,846,750,0
254929,368.89,846,747,0
254939,369.09,846,750,0
254949,368.98,846,748,0
254959,368.99,846,750,0
254969,368.60,846,747,0
254979,368.47,846,750,0
254989,367.98,846,748,0
254999,367.73,846,750,0
255009,367.17,846,747,0
255020,366.65,846,750,0
255030,365.94,846,748,0
255040,365.19,846,750,0
255050,364.14,846,747,0
255060,363.24,846,750,0
255070,362.10,846,748,0
255080,361.08,846,750,0
255090,360.24,846,748,0
255100,359.70,846,750,0
255110,360.00,846,748,0
255120,361.42,846,750,0
255130,364.72,846,748,0
255140,370.46,846,750,0
255150,379.19,846,748,0
255160,391.39,846,750,0
255179,407.35,845,748,0
255182,426.87,845,750,0
255191,449.71,845,748,0
255201,473.97,845,750,0
255211,498.62,845,748,0
255221,521.92,845,750,0
255232,542.56,845,749,0
255241,559.15,845,750,0
255251,570.59,845,748,0
255261,576.03,845,750,0
255271,576.19,845,748,0
255281,571.25,845,750,0
255291,562.39,845,748,0
255301,550.10,845,750,0
255311,535.84,845,748,0
255321,520.46,845,750,0
255331,505.07,845,748,0
255341,489.92,845,750,0
255351,475.97,845,748,0
255361,463.12,845,750,0
255371,451.99,845,748,0
255381,442.18,845,750,0
255391,434.15,845,748,0
255401,427.42,845,750,0
255411,423.01,845,748,0
255421,419.79,845,750,0
255431,418.10,845,748,0
255441,417.51,845,750,0
255451,418.26,845,748,0
255461,419.64,845,749,0
255471,422.06,845,748,0
255481,424.23,845,749,0
255491,426.99,845,748,0
255501,429.52,845,749,0
255511,432.15,845,748,0
255521,433.86,845,750,0
255532,435.19,845,749,0
255542,435.09,845,749,0
255552,434.33,845,748,0
255562,432.13,845,749,0
255572,429.48,845,749,0
255582,425.56,845,749,0
255592,421.54,845,749,0
255602,416.58,845,749,0
255612,412.07,845,749,0
255622,407.17,845,749,0
255632,402.87,845,749,0
255642,398.37,845,749,0
255652,394.74,845,749,0
255662,391.18,845,749,0
255672,388.68,845,749,0
255682,386.16,845,749,0
255692,384.61,845,749,0
255703,383.10,845,749,0
255713,382.51,845,749,0
255723,381.72,845,749,0
255733,381.67,845,749,0
255744,381.30,845,749,0
255753,381.47,845,749,0
255763,381.20,845,749,0
255773,381.52,845,749,0
255783,381.15,845,749,0
255793,381.36,845,749,0
255803,380.78,845,749,0
255813,380.68,845,749,0
255823,379.92,845,748,0
255833,379.56,845,749,0
255843,378.45,845,749,0
255853,377.93,845,749,0
255863,376.75,845,749,0
255873,376.22,845,749,0
255883,375.21,845,749,0
255893,374.81,845,749,0
255903,373.84,845,748,0
255913,373.54,845,749,0
255923,372.95,845,749,0
255933,373.22,845,749,0
255943,373.41,845,748,0
255953,375.17,845,749,0
255963,378.04,845,749,0
255973,383.90,845,749,0
255983,392.07,845,748,0
255993,404.18,845,749,0
256012,419.04,833,748,0
256015,438.14,833,751,0
256024,459.53,833,748,0
256034,483.20,833,750,0
256044,506.37,833,749,0
256054,528.67,833,750,0
256064,547.50,833,748,0
256074,562.99,833,750,0
256084,572.77,833,748,0
256094,577.64,833,750,0
256104,576.63,833,748,0
256114,571.51,833,750,0
256124,562.19,833,748,0
256134,550.56,833,750,0
256144,536.55,833,748,0
256154,522.37,833,750,0
256164,507.56,833,748,0
256174,494.02,833,750,0
256184,480.94,833,748,0
256194,469.73,833,750,0
256204,459.44,833,748,0
256215,451.25,833,750,0
256225,443.93,833,748,0
256235,438.60,833,750,0
256245,434.09,833,748,0
256256,431.53,833,750,0
256265,429.53,833,748,0
256275,429.20,833,750,0
256285,429.40,833,748,0
256295,430.86,833,750,0
256305,432.32,833,748,0
256315,434.54,833,750,0
256325,436.30,833,748,0
256335,438.36,833,750,0
256345,439.49,833,748,0
256355,440.42,833,750,0
256365,440.08,833,748,0
256375,439.37,833,750,0
256385,437.33,833,748,0
256395,435.04,833,750,0
256405,431.69,833,748,0
256415,428.31,833,750,0
256425,424.06,833,748,0
256435,420.06,833,750,0
256445,415.54,833,748,0
256455,411.48,833,750,0
256465,407.01,833,748,0
256475,403.23,833,750,0
256485,399.26,833,748,0
256495,396.10,833,750,0
256505,393.03,833,748,0
256515,390.92,833,749,0
256525,388.97,833,748,0
256535,387.91,833,750,0
256545,386.91,833,748,0
256556,386.64,833,750,0
256566,386.32,833,748,0
256576,386.44,833,750,0
256586,386.35,833,748,0
256596,386.59,833,750,0
256606,386.54,833,748,0
256616,386.63,833,750,0
256626,386.40,833,748,0
256636,386.32,833,750,0
256646,385.97,833,748,0
256656,385.76,833,750,0
256666,385.28,833,748,0
256676,384.89,833,750,0
256686,384.24,833,748,0
256696,383.74,833,750,0
256706,383.05,833,748,0
256716,382.43,833,750,0
256727,381.75,833,748,0
256737,381.14,833,750,0
256747,380.62,833,748,0
256757,380.57,833,750,0
256768,381.08,833,748,0
256777,382.73,833,750,0
256787,385.98,833,748,0
256797,391.34,833,749,0
256807,399.64,833,748,0
256817,411.02,833,750,0
256836,425.76,824,748,0
256839,443.66,824,750,0
256848,464.46,824,748,0
256858,486.52,824,750,0
256868,508.65,824,748,0
256878,529.20,824,749,0
256888,547.27,824,748,0
256898,561.54,824,750,0
256908,571.32,824,748,0
256918,575.68,824,749,0
256928,575.61,824,748,0
256939,571.18,824,749,0
256948,563.54,824,748,0
256958,553.09,824,749,0
256968,541.07,824,748,0
256978,527.89,824,749,0
256988,515.02,824,748,0
256998,502.33,824,749,0
257008,491.22,824,748,0
257018,480.91,824,749,0
257028,472.19,824,748,0
257038,464.42,824,749,0
257048,458.21,824,748,0
257058,452.75,824,749,0
257068,448.75,824,748,0
257078,445.27,824,749,0
257088,443.30,824,748,0
257098,442.05,824,749,0
257108,442.30,824,748,0
257118,443.06,824,749,0
257128,444.89,824,748,0
257138,446.72,824,749,0
257148,449.08,824,748,0
257158,450.98,824,749,0
257168,452.87,824,748,0
257178,453.60,824,749,0
257188,454.02,824,748,0
257198,453.20,824,749,0
257208,451.98,824,748,0
257218,449.42,824,749,0
257228,446.42,824,748,0
257239,442.31,824,749,0
257249,438.23,824,748,0
257259,433.36,824,749,0
257269,428.84,824,748,0
257280,423.92,824,748,0
257289,419.78,824,748,0
257299,415.52,824,749,0
257309,412.19,824,748,0
257319,408.92,824,748,0
257329,406.76,824,748,0
257339,404.65,824,749,0
257349,403.64,824,748,0
257359,402.55,824,749,0
257369,402.43,824,748,0
257379,402.08,824,749,0
257389,402.40,824,748,0
257399,402.15,824,749,0
257409,402.41,824,748,0
257419,401.98,824,749,0
257429,401.99,824,748,0
257439,401.26,824,749,0
257449,400.88,824,748,0
257459,399.93,824,749,0
257469,399.44,824,748,0
257479,398.28,824,749,0
257489,397.60,824,748,0
257499,396.30,824,749,0
257509,395.53,824,748,0
257519,394.21,824,749,0
257529,393.46,824,748,0
257539,392.51,824,749,0
257549,392.66,824,748,0
257559,393.27,824,748,0
257569,396.02,824,748,0
257580,400.47,824,748,0
257590,408.43,824,748,0
257600,419.23,824,748,0
257610,434.33,824,749,0
257620,452.45,824,748,0
257639,474.04,803,747,0
257642,497.09,803,749,0
257651,521.79,803,749,0
257661,545.30,803,748,0
257671,567.45,803,749,0
257681,585.44,803,748,0
257691,599.71,803,749,0
257701,608.54,803,747,0
257711,612.96,803,749,0
257721,611.69,803,747,0
257731,606.55,803,748,0
257741,597.17,803,747,0
257751,585.89,803,749,0
257761,572.30,803,747,0
257771,558.45,803,748,0
257781,543.79,803,747,0
257792,529.92,803,749,0
257801,516.40,803,747,0
257811,504.58,803,748,0
257821,493.31,803,747,0
257831,483.92,803,749,0
257841,475.37,803,747,0
257851,468.87,803,748,0
257861,463.47,803,747,0
257871,460.11,803,749,0
257881,457.47,803,747,0
257891,456.77,803,748,0
257901,456.62,803,747,0
257911,457.85,803,749,0
257921,459.05,803,747,0
257931,461.05,803,749,0
257941,462.45,803,747,0
257951,464.16,803,749,0
257961,464.71,803,747,0
257971,465.10,803,749,0
257981,464.04,803,747,0
257991,462.70,803,749,0
258001,460.05,803,747,0
258011,457.20,803,749,0
258021,453.11,803,747,0
258031,448.88,803,749,0
258041,443.64,803,747,0
258051,438.87,803,749,0
258061,433.46,803,747,0
258071,428.65,803,749,0
258081,423.40,803,747,0
258092,419.08,803,749,0
258102,414.90,803,747,0
258112,411.93,803,749,0
258122,409.04,803,747,0
258132,407.14,803,749,0
258142,405.30,803,747,0
258152,404.52,803,749,0
258162,403.72,803,747,0
258172,403.72,803,749,0
258182,403.50,803,747,0
258192,403.91,803,749,0
258202,404.11,803,747,0
258212,404.63,803,749,0
258222,404.61,803,747,0
258232,404.77,803,749,0
258242,404.33,803,747,0
258252,403.97,803,749,0
258263,402.91,803,747,0
258273,401.82,803,749,0
258283,400.20,803,747,0
258293,398.73,803,749,0
258304,396.97,803,747,0
258313,395.56,803,749,0
258323,394.28,803,747,0
258333,394.20,803,749,0
258343,395.59,803,747,0
258353,399.49,803,749,0
258363,406.20,803,747,0
258373,416.85,803,750,0
258383,431.68,803,747,0
258393,450.94,803,750,0
258403,473.71,803,747,0
258422,499.26,783,746,0
258425,526.09,783,748,0
258434,553.02,783,749,0
258444,577.96,783,747,0
258454,599.19,783,749,0
258464,615.42,783,747,0
258475,625.88,783,749,0
258484,630.33,783,747,0
258494,628.99,783,749,0
258504,622.26,783,747,0
258514,611.08,783,749,0
258524,596.96,783,747,0
258534,580.94,783,749,0
258544,564.29,783,746,0
258554,547.57,783,749,0
258564,531.67,783,747,0
258574,517.07,783,749,0
258584,504.15,783,746,0
258594,492.62,783,749,0
258604,482.75,783,747,0
258614,474.29,783,749,0
258624,467.48,783,747,0
258634,461.98,783,749,0
258644,457.91,783,747,0
258654,455.02,783,749,0
258664,453.47,783,747,0
258674,452.86,783,749,0
258684,453.37,783,747,0
258694,454.50,783,749,0
258704,456.15,783,746,0
258714,457.74,783,749,0
258724,459.32,783,747,0
258734,460.42,783,749,0
258744,461.02,783,746,0
258754,460.54,783,749,0
258764,459.27,783,747,0
258775,456.92,783,749,0
258785,453.86,783,747,0
258795,449.66,783,749,0
258805,444.96,783,747,0
258816,439.44,783,749,0
258825,433.95,783,747,0
258835,428.14,783,749,0
258845,422.74,783,748,0
258855,417.29,783,748,0
258865,412.66,783,747,0
258875,408.26,783,749,0
258885,404.88,783,747,0
258895,401.70,783,749,0
258905,399.44,783,747,0
258915,397.33,783,748,0
258925,396.16,783,748,0
258935,395.00,783,749,0
258945,394.49,783,747,0
258955,394.04,783,749,0
258965,394.28,783,747,0
258975,394.33,783,748,0
258985,394.92,783,748,0
258995,395.15,783,749,0
259005,395.84,783,748,0
259015,396.06,783,748,0
259025,396.43,783,748,0
259035,396.17,783,749,0
259045,396.12,783,748,0
259055,395.35,783,748,0
259065,394.73,783,747,0
259075,393.49,783,749,0
259085,392.53,783,748,0
259095,391.08,783,748,0
259105,390.54,783,748,0
259116,390.59,783,748,0
259126,392.94,783,748,0
259136,397.46,783,748,0
259146,405.89,783,748,0
259156,418.01,783,748,0
259166,435.02,783,748,0
259176,455.59,783,748,0
259195,479.93,773,747,0
259198,505.53,773,748,0
259207,532.42,773,748,0
259217,557.62,773,748,0
259227,580.41,773,749,0
259237,598.24,773,748,0
259247,611.20,773,748,0
259257,617.61,773,748,0
259267,618.80,773,749,0
259277,613.50,773,747,0
259287,603.97,773,748,0
259297,590.18,773,748,0
259307,574.57,773,748,0
259317,557.08,773,747,0
259328,540.00,773,749,0
259337,522.94,773,748,0
259347,507.79,773,748,0
259357,493.54,773,747,0
259367,481.51,773,749,0
259377,470.51,773,748,0
259387,461.74,773,749,0
259397,453.89,773,747,0
259407,448.10,773,749,0
259417,443.05,773,748,0
259427,439.91,773,749,0
259437,437.41,773,747,0
259447,436.73,773,749,0
259457,436.55,773,748,0
259467,437.84,773,749,0
259477,439.13,773,747,0
259487,441.28,773,749,0
259497,442.78,773,747,0
259507,444.60,773,749,0
259517,445.19,773,747,0
259527,445.48,773,749,0
259537,444.22,773,747,0
259547,442.61,773,749,0
259557,439.56,773,747,0
259567,436.22,773,749,0
259577,431.57,773,747,0
259587,427.07,773,749,0
259597,421.78,773,747,0
259607,417.09,773,749,0
259617,411.96,773,747,0
259628,407.69,773,749,0
259638,403.41,773,747,0
259648,400.29,773,749,0
259658,397.16,773,747,0
259668,395.10,773,749,0
259678,392.97,773,747,0
259688,391.86,773,749,0
259698,390.62,773,747,0
259708,390.22,773,749,0
259718,389.51,773,747,0
259728,389.61,773,749,0
259738,389.43,773,747,0
259748,389.86,773,749,0
259758,389.77,773,747,0
259768,390.14,773,749,0
259778,389.84,773,747,0
259788,389.97,773,749,0
259799,389.43,773,747,0
259809,389.21,773,749,0
259819,388.46,773,747,0
259829,387.98,773,749,0
259840,387.00,773,746,0
259849,386.44,773,749,0
259859,385.54,773,747,0
259869,385.16,773,749,0
259879,384.90,773,746,0
259889,385.96,773,749,0
259899,388.46,773,747,0
259909,393.85,773,749,0
259919,402.25,773,746,0
259929,414.90,773,749,0
259939,431.69,773,747,0
259949,452.95,773,749,0
259969,477.27,773,748,0
259972,503.67,773,750,0
259981,530.64,773,747,0
259991,556.64,773,749,0
260001,579.50,773,747,0
260012,597.95,773,749,0
260022,610.74,773,747,0
260032,617.54,773,749,0
260042,618.67,773,747,0
260052,614.01,773,749,0
260062,604.88,773,747,0
260072,592.31,773,749,0
260082,577.69,773,747,0
260092,561.88,773,749,0
260102,546.28,773,747,0
260112,531.11,773,749,0
260122,517.28,773,747,0
260132,504.25,773,748,0
260142,492.73,773,747,0
260152,482.10,773,749,0
260162,472.77,773,747,0
260172,464.22,773,748,0
260183,457.09,773,748,0
260193,450.72,773,749,0
260203,446.13,773,747,0
260213,442.32,773,748,0
260224,440.25,773,748,0
260233,438.98,773,749,0
260243,439.03,773,747,0
260253,439.28,773,748,0
260263,440.39,773,748,0
260273,441.13,773,748,0
260283,442.08,773,748,0
260293,442.01,773,748,0
260303,441.84,773,748,0
260313,440.51,773,749,0
260323,438.86,773,748,0
260333,435.94,773,748,0
260343,432.66,773,748,0
260353,428.48,773,749,0
260363,424.35,773,748,0
260373,419.49,773,748,0
260383,415.05,773,748,0
260393,410.24,773,748,0
260403,406.18,773,748,0
260413,402.10,773,748,0
260423,398.90,773,748,0
260433,395.67,773,748,0
260443,393.41,773,748,0
260453,391.19,773,748,0
260463,389.98,773,748,0
260473,388.74,773,748,0
260483,388.35,773,748,0
260493,388.07,773,748,0
260503,388.56,773,748,0
260513,388.61,773,748,0
260524,389.15,773,748,0
260534,389.32,773,748,0
260544,389.83,773,748,0
260554,389.66,773,748,0
260564,389.51,773,749,0
260574,388.71,773,748,0
260584,388.37,773,748,0
260594,387.32,773,748,0
260604,386.79,773,748,0
260614,385.53,773,748,0
260624,384.90,773,748,0
260634,383.56,773,748,0
260644,382.70,773,748,0
260654,381.76,773,748,0
260664,381.66,773,748,0
260674,381.72,773,748,0
260684,384.21,773,748,0
260695,388.56,773,747,0
260705,397.00,773,749,0
260715,408.96,773,747,0
260725,425.64,773,749,0
260736,446.19,773,747,0
260754,470.74,786,746,0
260757,496.79,786,748,0
260766,524.06,786,749,0
260776,549.67,786,747,0
260786,572.91,786,749,0
260796,591.15,786,747,0
260806,604.39,786,749,0
260816,611.43,786,747,0
260826,613.36,786,749,0
260836,609.27,786,747,0
260846,601.04,786,749,0
260856,588.82,786,746,0
260866,574.86,786,749,0
260876,559.34,786,747,0
260886,543.94,786,749,0
260896,528.32,786,746,0
260907,514.12,786,749,0
260916,500.67,786,747,0
260926,488.98,786,749,0
260936,477.93,786,746,0
260946,468.39,786,749,0
260956,459.36,786,747,0
260966,451.88,786,749,0
260976,444.97,786,746,0
260986,439.58,786,749,0
260996,434.82,786,747,0
261006,431.88,786,749,0
261016,429.47,786,747,0
261026,428.47,786,749,0
261036,427.86,786,747,0
261046,428.33,786,749,0
261056,428.70,786,747,0
261066,429.73,786,749,0
261076,429.90,786,747,0
261086,430.36,786,749,0
261096,429.91,786,747,0
261106,429.29,786,749,0
261116,427.49,786,747,0
261126,425.41,786,749,0
261136,422.16,786,747,0
261146,418.81,786,749,0
261156,414.63,786,747,0
261166,410.71,786,749,0
261176,406.21,786,747,0
261186,402.25,786,749,0
261196,398.14,786,747,0
261207,394.80,786,749,0
261217,391.65,786,747,0
261227,389.27,786,749,0
261237,387.04,786,747,0
261248,385.62,786,749,0
261257,384.32,786,747,0
261267,383.71,786,749,0
261277,383.02,786,746,0
261287,382.67,786,749,0
261297,382.13,786,747,0
261307,381.83,786,749,0
261317,381.41,786,747,0
261327,381.25,786,749,0
261337,380.83,786,747,0
261347,380.62,786,749,0
261357,380.26,786,746,0
261367,380.14,786,749,0
261377,379.71,786,747,0
261387,379.50,786,749,0
261397,378.92,786,747,0
261407,378.39,786,749,0
261417,377.59,786,746,0
261427,376.85,786,749,0
261437,375.83,786,747,0
261447,374.94,786,749,0
261457,373.88,786,747,0
261467,373.53,786,749,0
261477,373.97,786,746,0
261487,376.25,786,749,0
261497,380.85,786,746,0
261507,388.69,786,749,0
261517,400.19,786,746,0
261527,415.77,786,749,0
261547,435.00,792,748,0
261550,457.41,792,749,0
261559,481.93,792,747,0
261569,506.72,792,749,0
261579,530.21,792,747,0
261590,550.54,792,748,0
261599,566.67,792,747,0
261609,577.48,792,749,0
261619,582.87,792,747,0
261629,582.26,792,748,0
261639,577.04,792,747,0
261649,567.77,792,749,0
261659,556.01,792,747,0
261669,542.25,792,748,0
261679,527.95,792,747,0
261689,513.43,792,749,0
261699,499.93,792,747,0
261709,487.01,792,748,0
261719,475.35,792,747,0
261729,464.49,792,749,0
261739,454.91,792,747,0
261749,446.02,792,748,0
261760,438.35,792,747,0
261769,431.30,792,749,0
261779,425.55,792,747,0
261789,420.59,792,748,0
261799,417.11,792,747,0
261809,414.51,792,749,0
261819,413.33,792,747,0
261829,412.63,792,748,0
261839,412.95,792,747,0
261849,413.57,792,749,0
261859,414.77,792,747,0
261869,415.61,792,748,0
261879,416.54,792,747,0
261889,416.76,792,749,0
261899,416.79,792,747,0
261909,415.65,792,748,0
261919,414.04,792,747,0
261929,411.29,792,748,0
261939,408.24,792,747,0
261949,404.27,792,748,0
261959,400.16,792,747,0
261969,395.53,792,748,0
261979,391.34,792,747,0
261989,387.00,792,748,0
261999,383.48,792,747,0
262009,379.95,792,748,0
262019,377.35,792,747,0
262029,374.89,792,748,0
262039,373.29,792,747,0
262049,371.71,792,749,0
262060,370.89,792,747,0
262070,369.90,792,748,0
262080,369.59,792,747,0
262090,368.94,792,748,0
262100,368.91,792,748,0
262110,368.51,792,748,0
262120,368.66,792,748,0
262130,368.29,792,748,0
262140,368.33,792,748,0
262150,367.93,792,748,0
262160,368.00,792,748,0
262170,367.48,792,748,0
262180,367.42,792,748,0
262190,366.74,792,748,0
262200,366.47,792,748,0
262210,365.52,792,748,0
262220,364.89,792,748,0
262231,363.60,792,748,0
262241,362.82,792,748,0
262251,361.63,792,748,0
262261,361.44,792,748,0
262272,361.61,792,747,0
262281,363.91,792,748,0
262291,367.84,792,748,0
262301,375.17,792,749,0
262311,385.06,792,747,0
262321,398.84,792,748,0
262331,415.31,792,748,0
262350,434.97,804,746,0
262353,455.72,804,747,0
262362,477.71,804,749,0
262372,497.98,804,748,0
262382,516.37,804,749,0
262392,530.62,804,747,0
262402,541.06,804,749,0
262412,546.31,804,747,0
262422,547.55,804,749,0
262432,543.61,804,747,0
262443,536.74,804,749,0
262452,526.83,804,747,0
262462,516.04,804,749,0
262472,503.99,804,747,0
262482,492.29,804,749,0
262492,480.33,804,747,0
262502,469.69,804,749,0
262512,459.37,804,747,0
262522,450.47,804,748,0
262532,441.80,804,747,0
262542,434.45,804,749,0
262552,427.24,804,747,0
262562,421.25,804,748,0
262572,415.48,804,747,0
262582,411.09,804,749,0
262592,406.95,804,747,0
262602,404.27,804,748,0
262612,401.91,804,747,0
262622,401.04,804,749,0
262632,400.39,804,747,0
262642,400.83,804,748,0
262652,401.18,804,747,0
262662,402.37,804,749,0
262672,402.94,804,747,0
262682,403.77,804,748,0
262692,403.54,804,747,0
262702,403.51,804,749,0
262712,402.24,804,747,0
262722,400.80,804,749,0
262732,398.12,804,747,0
262743,395.34,804,749,0
262753,391.64,804,747,0
262763,388.23,804,749,0
262773,384.18,804,747,0
262784,380.74,804,749,0
262793,377.09,804,747,0
262803,374.36,804,749,0
262813,371.77,804,747,0
262823,370.04,804,749,0
262833,368.53,804,747,0
262843,367.68,804,749,0
262853,366.79,804,747,0
262863,366.51,804,749,0
262873,365.89,804,747,0
262883,365.88,804,749,0
262893,365.57,804,747,0
262903,365.61,804,749,0
262913,365.30,804,747,0
262923,365.43,804,749,0
262933,365.25,804,747,0
262943,365.39,804,749,0
262953,364.97,804,747,0
262963,364.81,804,749,0
262973,364.01,804,747,0
262983,363.54,804,749,0
262993,362.60,804,747,0
263003,361.99,804,749,0
263013,361.18,804,747,0
263023,360.61,804,749,0
263033,359.74,804,747,0
263043,359.35,804,749,0
263053,358.73,804,747,0
263063,358.73,804,749,0
263073,358.85,804,747,0
263084,360.31,804,749,0
263094,363.05,804,747,0
263104,368.13,804,750,0
263114,375.46,804,747,0
263124,385.78,804,749,0
263134,398.40,804,747,0
263153,413.67,803,746,0
263156,430.40,803,749,0
263165,448.19,803,749,0
263175,465.41,803,747,0
263185,481.14,803,749,0
263195,494.21,803,747,0
263205,504.22,803,749,0
263215,510.50,803,747,0
263225,512.83,803,749,0
263235,511.30,803,747,0
263245,506.58,803,749,0
263255,499.63,803,747,0
263265,491.09,803,749,0
263275,481.68,803,747,0
263285,471.74,803,749,0
263296,462.09,803,747,0
263305,452.89,803,749,0
263315,444.53,803,747,0
263325,436.48,803,749,0
263335,429.18,803,747,0
263345,422.40,803,749,0
263355,416.49,803,747,0
263365,411.16,803,749,0
263375,406.70,803,747,0
263385,402.97,803,749,0
263395,400.32,803,747,0
263405,398.43,803,749,0
263415,397.61,803,747,0
263425,397.43,803,749,0
263435,398.11,803,747,0
263445,399.07,803,749,0
263455,400.37,803,747,0
263465,401.59,803,749,0
263475,402.79,803,747,0
263485,403.41,803,749,0
263495,403.50,803,747,0
263505,402.71,803,749,0
263515,401.47,803,747,0
263525,399.48,803,749,0
263535,397.24,803,747,0
263545,394.38,803,749,0
263555,391.44,803,747,0
263565,388.44,803,749,0
263575,385.60,803,747,0
263585,382.64,803,749,0
263596,380.05,803,747,0
263606,377.29,803,749,0
263616,375.19,803,747,0
263626,373.16,803,749,0
263636,371.70,803,748,0
263646,370.42,803,749,0
263656,369.86,803,747,0
263666,369.26,803,749,0
263676,369.40,803,748,0
263686,369.32,803,749,0
263696,369.74,803,747,0
263706,369.73,803,749,0
263716,370.11,803,748,0
263726,369.99,803,749,0
263736,370.21,803,747,0
263746,369.98,803,749,0
263756,370.03,803,748,0
263767,369.59,803,749,0
263777,369.54,803,747,0
263787,368.95,803,748,0
263797,368.79,803,748,0
263808,368.04,803,748,0
263817,367.69,803,747,0
263827,366.97,803,748,0
263837,366.72,803,748,0
263847,366.07,803,748,0
263857,365.97,803,747,0
263867,365.51,803,749,0
263877,366.13,803,748,0
263887,367.07,803,748,0
263897,369.75,803,748,0
263907,373.64,803,748,0
263917,380.35,803,748,0
263927,389.20,803,748,0
263946,401.35,793,747,0
263949,415.61,793,748,0
263958,433.08,793,749,0
263968,451.40,793,748,0
263979,470.65,793,749,0
263988,488.41,793,748,0
263998,504.66,793,749,0
264008,517.45,793,748,0
264018,527.26,793,749,0
264028,532.11,793,748,0
264038,533.83,793,749,0
264048,531.74,793,748,0
264058,527.23,793,749,0
264068,520.18,793,748,0
264078,512.50,793,749,0
264088,503.60,793,748,0
264098,495.41,793,749,0
264108,486.76,793,748,0
264118,479.12,793,749,0
264128,471.80,793,748,0
264138,465.77,793,749,0
264148,459.71,793,748,0
264158,454.74,793,749,0
264168,449.42,793,748,0
264178,445.14,793,749,0
264188,440.60,793,747,0
264198,437.20,793,749,0
264208,433.80,793,748,0
264218,431.67,793,749,0
264228,429.63,793,748,0
264238,428.80,793,749,0
264248,428.00,793,748,0
264258,428.30,793,749,0
264268,428.34,793,748,0
264279,429.01,793,750,0
264289,428.96,793,748,0
264299,429.19,793,750,0
264309,428.36,793,748,0
264320,427.52,793,750,0
264329,425.57,793,748,0
264339,423.64,793,750,0
264349,420.83,793,748,0
264359,418.40,793,750,0
264369,415.32,793,748,0
264379,413.00,793,750,0
264389,410.25,793,748,0
264399,408.08,793,750,0
264409,405.23,793,749,0
264419,402.80,793,750,0
264429,399.73,793,748,0
264439,397.07,793,750,0
264449,393.71,793,749,0
264459,390.97,793,750,0
264469,388.02,793,748,0
264479,386.08,793,750,0
264489,384.09,793,748,0
264499,383.16,793,750,0
264509,382.38,793,748,0
264519,382.83,793,751,0
264529,383.18,793,749,0
264539,384.28,793,751,0
264549,384.84,793,748,0
264559,385.75,793,751,0
264569,385.91,793,749,0
264579,386.24,793,751,0
264589,385.39,793,749,0
264599,384.68,793,751,0
264609,383.14,793,749,0
264620,381.86,793,751,0
264630,380.10,793,749,0
264640,378.53,793,751,0
264650,376.57,793,749,0
264660,375.11,793,751,0
264670,373.28,793,749,0
264680,372.21,793,751,0
264690,371.42,793,749,0
264700,371.94,793,751,0
264710,373.58,793,749,0
264720,377.57,793,751,0
264730,383.78,793,749,0
264740,393.28,793,751,0
264750,405.32,793,749,0
264760,420.74,793,751,0
264779,438.52,833,750,0
264782,458.51,833,752,0
264791,479.40,833,749,0
264801,500.53,833,751,0
264811,520.05,833,749,0
264821,537.30,833,751,0
264832,550.80,833,749,0
264841,560.46,833,751,0
264851,565.89,833,749,0
264861,567.00,833,751,0
264871,564.13,833,749,0
264881,558.43,833,751,0
264891,550.54,833,749,0
264901,541.51,833,751,0
264911,531.80,833,749,0
264921,522.17,833,751,0
264931,512.82,833,749,0
264941,504.13,833,751,0
264951,495.99,833,749,0
264961,488.92,833,751,0
264971,482.26,833,749,0
264981,476.23,833,752,0
264991,470.50,833,749,0
265001,465.42,833,751,0
265011,460.97,833,749,0
265021,457.16,833,751,0
265031,453.60,833,749,0
265041,450.85,833,751,0
265051,448.79,833,749,0
265061,447.44,833,751,0
265071,446.67,833,749,0
265081,446.25,833,751,0
265091,446.05,833,749,0
265101,446.25,833,751,0
265111,446.26,833,749,0
265121,445.88,833,751,0
265132,445.06,833,749,0
265142,443.37,833,752,0
265152,441.12,833,749,0
265162,438.17,833,751,0
265172,434.56,833,749,0
265182,430.58,833,751,0
265192,426.42,833,749,0
265202,422.22,833,751,0
265212,418.38,833,749,0
265222,414.63,833,751,0
265232,411.48,833,749,0
265242,408.29,833,751,0
265252,405.63,833,750,0
265262,403.09,833,751,0
265272,400.88,833,749,0
265282,398.81,833,751,0
265292,397.20,833,750,0
265303,395.47,833,751,0
265313,394.56,833,750,0
265323,393.40,833,750,0
265333,392.90,833,750,0
265344,392.11,833,751,0
265353,391.74,833,750,0
265363,391.00,833,751,0
265373,390.53,833,750,0
265383,389.43,833,751,0
265393,389.00,833,750,0
265403,387.97,833,750,0
265413,387.34,833,750,0
265423,386.12,833,751,0
265433,385.27,833,749,0
265443,384.16,833,751,0
265453,383.51,833,750,0
265463,382.24,833,751,0
265473,381.53,833,750,0
265483,380.81,833,750,0
265493,381.51,833,750,0
265503,383.07,833,751,0
265513,386.99,833,750,0
265523,392.78,833,751,0
265533,402.28,833,750,0
265543,414.62,833,751,0
265553,431.02,833,750,0
265563,450.17,833,751,0
265582,471.89,803,750,0
265585,494.30,803,751,0
265594,517.78,803,750,0
265604,539.14,803,751,0
265614,558.39,803,750,0
265624,573.31,803,751,0
265634,584.11,803,750,0
265644,589.99,803,751,0
265654,591.71,803,750,0
265664,588.11,803,751,0
265674,581.43,803,751,0
265684,571.40,803,750,0
265694,560.01,803,750,0
265704,546.55,803,751,0
265714,533.06,803,751,0
265724,519.15,803,750,0
265734,506.55,803,750,0
265744,494.30,803,750,0
265754,483.71,803,751,0
265764,473.55,803,750,0
265774,465.50,803,750,0
265784,457.81,803,751,0
265794,451.65,803,751,0
265804,445.71,803,750,0
265815,441.17,803,751,0
265825,436.92,803,750,0
265835,434.33,803,752,0
265845,431.79,803,750,0
265856,430.61,803,751,0
265865,429.53,803,750,0
265875,430.05,803,752,0
265885,430.29,803,750,0
265895,431.32,803,752,0
265905,431.31,803,750,0
265915,431.39,803,752,0
265925,430.29,803,750,0
265935,429.21,803,752,0
265945,426.24,803,750,0
265955,423.38,803,751,0
265965,419.45,803,750,0
265975,415.89,803,752,0
265985,411.46,803,750,0
265995,407.64,803,752,0
266005,402.95,803,750,0
266015,399.66,803,752,0
266025,395.86,803,750,0
266035,392.95,803,752,0
266045,389.66,803,750,0
266055,387.75,803,751,0
266065,385.85,803,750,0
266075,385.38,803,752,0
266085,383.85,803,750,0
266095,383.60,803,751,0
266105,382.95,803,750,0
266115,383.31,803,752,0
266125,383.13,803,750,0
266135,383.86,803,751,0
266145,383.77,803,750,0
266156,384.96,803,752,0
266166,385.10,803,750,0
266176,385.88,803,752,0
266186,386.09,803,750,0
266196,386.62,803,752,0
266206,386.26,803,750,0
266216,386.74,803,752,0
266226,386.22,803,750,0
266236,386.20,803,752,0
266246,385.19,803,750,0
266256,384.32,803,752,0
266266,383.03,803,750,0
266276,382.12,803,752,0
266286,380.45,803,750,0
266296,379.80,803,752,0
266306,379.56,803,750,0
266316,381.62,803,752,0
266327,385.46,803,750,0
266337,392.74,803,752,0
266347,403.53,803,750,0
266357,418.80,803,752,0
266377,437.85,794,751,0
266380,460.86,794,752,0
266389,486.75,794,750,0
266399,514.29,794,752,0
266409,541.25,794,750,0
266419,566.12,794,752,0
266429,587.30,794,750,0
266439,603.24,794,753,0
266449,613.41,794,750,0
266459,616.97,794,752,0
266469,615.05,794,750,0
266479,608.01,794,752,0
266489,596.73,794,750,0
266499,582.54,794,752,0
266509,567.21,794,750,0
266519,551.37,794,752,0
266529,535.88,794,750,0
266540,520.91,794,751,0
266550,507.40,794,750,0
266560,495.23,794,752,0
266570,484.71,794,751,0
266580,475.28,794,751,0
266590,466.93,794,750,0
266600,459.58,794,752,0
266610,453.36,794,751,0
266620,447.94,794,752,0
266630,443.67,794,750,0
266640,439.91,794,752,0
266650,437.32,794,751,0
266660,435.43,794,752,0
266670,434.61,794,751,0
266680,434.09,794,752,0
266690,434.19,794,751,0
266700,434.35,794,752,0
266711,434.84,794,751,0
266721,434.55,794,752,0
266731,434.21,794,751,0
266741,432.56,794,751,0
266752,430.72,794,751,0
266761,427.76,794,752,0
266771,424.53,794,751,0
266781,420.47,794,751,0
266791,416.47,794,751,0
266801,411.96,794,752,0
266811,408.07,794,751,0
266821,403.42,794,752,0
266831,399.91,794,751,0
266841,395.99,794,752,0
266851,392.74,794,751,0
266861,389.22,794,752,0
266871,386.67,794,751,0
266881,384.19,794,752,0
266891,382.98,794,751,0
266901,381.14,794,752,0
266911,380.29,794,751,0
266921,379.26,794,752,0
266931,379.52,794,751,0
266941,379.28,794,752,0
266951,379.58,794,751,0
266961,379.49,794,752,0
266971,379.99,794,751,0
266981,380.03,794,752,0
266991,380.58,794,751,0
267001,380.49,794,752,0
267011,380.94,794,751,0
267021,380.62,794,752,0
267031,380.90,794,751,0
267041,380.33,794,752,0
267052,380.06,794,751,0
267062,379.06,794,751,0
267072,378.10,794,751,0
267082,376.35,794,751,0
267092,375.69,794,752,0
267102,374.37,794,751,0
267112,374.47,794,752,0
267122,375.27,794,751,0
267132,378.92,794,752,0
267142,384.94,794,751,0
267152,395.59,794,751,0
267162,409.51,794,751,0
267172,428.69,794,752,0
267191,451.71,815,750,0
267194,478.80,815,753,0
267203,507.44,815,751,0
267213,537.31,815,752,0
267223,564.69,815,751,0
267233,589.25,815,752,0
267243,608.72,815,751,0
267253,622.43,815,752,0
267264,628.99,815,751,0
267273,629.63,815,752,0
267283,623.49,815,751,0
267293,612.80,815,752,0
267303,597.69,815,750,0
267313,580.51,815,752,0
267323,561.80,815,751,0
267333,543.43,815,752,0
267343,525.17,815,751,0
267353,508.79,815,752,0
267363,493.47,815,751,0
267373,480.34,815,752,0
267383,468.07,815,750,0
267393,457.93,815,752,0
267403,448.95,815,751,0
267413,442.28,815,752,0
267423,436.50,815,750,0
267433,432.75,815,752,0
267443,430.00,815,751,0
267453,429.18,815,752,0
267463,428.83,815,751,0
267473,429.78,815,752,0
267483,430.40,815,751,0
267493,432.25,815,752,0
267503,433.51,815,751,0
267513,435.28,815,752,0
267523,435.76,815,750,0
267533,436.26,815,752,0
267543,435.45,815,750,0
267553,433.94,815,752,0
267564,430.66,815,750,0
267574,427.03,815,753,0
267584,422.01,815,750,0
267594,416.95,815,752,0
267604,411.14,815,750,0
267614,405.74,815,753,0
267624,400.07,815,750,0
267634,395.08,815,752,0
267644,390.34,815,750,0
267654,386.64,815,753,0
267664,383.10,815,750,0
267674,380.37,815,752,0
267684,377.78,815,750,0
267694,376.51,815,753,0
267704,375.37,815,751,0
267714,374.83,815,753,0
267724,374.03,815,750,0
267735,374.02,815,753,0
267745,373.76,815,750,0
267755,373.87,815,752,0
267765,373.40,815,750,0
267776,373.45,815,753,0
267785,373.23,815,750,0
267795,373.55,815,753,0
267805,373.21,815,750,0
267815,373.15,815,753,0
267825,372.72,815,750,0
267835,372.55,815,753,0
267845,372.00,815,750,0
267855,372.00,815,753,0
267865,371.27,815,750,0
267875,370.85,815,753,0
267885,370.42,815,750,0
267895,370.81,815,753,0
267905,372.02,815,750,0
267915,375.57,815,753,0
267925,381.66,815,750,0
267935,391.92,815,753,0
267945,406.60,815,750,0
267955,426.31,815,753,0
267974,451.16,783,752,0
267977,480.55,783,753,0
267986,513.22,783,751,0
267996,547.31,783,753,0
268006,580.43,783,750,0
268016,610.77,783,753,0
268026,636.21,783,751,0
268036,655.35,783,753,0
268046,667.33,783,750,0
268056,670.79,783,753,0
268066,666.48,783,750,0
268076,655.75,783,753,0
268086,639.97,783,750,0
268096,620.43,783,752,0
268106,598.79,783,751,0
268116,576.14,783,752,0
268126,554.33,783,750,0
268136,533.44,783,753,0
268146,514.24,783,750,0
268156,497.07,783,753,0
268166,482.13,783,750,0
268176,468.72,783,752,0
268186,457.23,783,750,0
268196,447.31,783,753,0
268206,439.46,783,750,0
268216,433.49,783,753,0
268226,429.36,783,751,0
268236,426.85,783,752,0
268247,426.34,783,750,0
268257,426.62,783,752,0
268267,428.15,783,751,0
268277,429.78,783,752,0
268288,432.29,783,751,0
268297,434.56,783,752,0
268307,436.32,783,751,0
268317,436.39,783,752,0
268327,436.02,783,751,0
268337,433.78,783,752,0
268347,431.58,783,751,0
268357,427.33,783,752,0
268367,422.05,783,750,0
268377,415.90,783,752,0
268387,410.23,783,751,0
268397,403.99,783,752,0
268407,398.42,783,750,0
268417,392.55,783,752,0
268427,387.72,783,751,0
268437,383.52,783,752,0
268447,380.40,783,751,0
268457,377.03,783,752,0
268467,374.96,783,751,0
268477,373.13,783,752,0
268487,371.85,783,751,0
268497,370.61,783,752,0
268507,370.25,783,751,0
268517,369.75,783,752,0
268527,370.47,783,751,0
268537,370.54,783,752,0
268547,371.28,783,751,0
268557,371.84,783,752,0
268567,372.62,783,751,0
268577,373.37,783,752,0
268588,374.72,783,751,0
268598,375.32,783,752,0
268608,376.16,783,751,0
268618,375.94,783,751,0
268628,376.78,783,752,0
268638,377.23,783,752,0
268648,376.90,783,751,0
268658,375.47,783,752,0
268668,374.26,783,751,0
268678,372.90,783,752,0
268688,372.84,783,751,0
268698,372.55,783,752,0
268708,374.78,783,751,0
268718,379.69,783,752,0
268728,389.64,783,751,0
268738,403.85,783,752,0
268748,424.85,783,752,0
268768,450.48,794,750,0
268771,481.15,794,752,0
268780,514.28,794,751,0
268790,549.72,794,753,0
268801,583.06,794,751,0
268811,613.86,794,752,0
268821,637.86,794,751,0
268831,655.51,794,753,0
268841,665.00,794,750,0
268851,667.36,794,753,0
268861,660.87,794,751,0
268871,648.13,794,752,0
268881,629.67,794,750,0
268891,608.08,794,752,0
268901,583.76,794,750,0
268911,559.83,794,753,0
268921,535.49,794,751,0
268931,513.57,794,753,0
268941,493.43,794,751,0
268951,475.90,794,753,0
268961,460.07,794,750,0
268972,447.24,794,753,0
268982,435.47,794,750,0
268992,426.67,794,753,0
269002,419.83,794,751,0
269012,415.51,794,753,0
269022,412.48,794,750,0
269032,411.65,794,753,0
269042,412.06,794,750,0
269052,414.23,794,753,0
269062,416.99,794,751,0
269072,420.38,794,753,0
269082,423.65,794,750,0
269092,427.40,794,753,0
269102,430.28,794,750,0
269112,432.94,794,753,0
269122,434.07,794,751,0
269132,434.01,794,753,0
269143,432.25,794,750,0
269153,429.22,794,753,0
269163,424.87,794,750,0
269173,419.68,794,753,0
269184,413.39,794,751,0
269193,406.93,794,753,0
269203,399.75,794,750,0
269213,392.97,794,753,0
269223,387.11,794,751,0
269233,381.85,794,753,0
269243,377.35,794,750,0
269253,373.52,794,753,0
269263,370.49,794,750,0
269273,369.27,794,753,0
269283,368.33,794,750,0
269293,367.80,794,753,0
269303,367.56,794,750,0
269313,367.87,794,753,0
269323,368.59,794,750,0
269333,369.96,794,753,0
269343,370.57,794,750,0
269353,371.38,794,753,0
269363,372.00,794,750,0
269373,372.68,794,753,0
269383,373.21,794,750,0
269393,373.70,794,753,0
269403,373.62,794,750,0
269413,373.69,794,753,0
269423,374.04,794,750,0
269433,374.41,794,753,0
269443,374.72,794,751,0
269453,375.06,794,753,0
269463,375.69,794,750,0
269473,377.19,794,753,0
269484,380.35,794,751,0
269494,385.64,794,753,0
269504,394.58,794,750,0
269514,408.46,794,752,0
269524,427.95,794,751,0
269534,452.95,794,753,0
269553,482.97,785,751,0
269556,516.06,785,752,0
269565,551.02,785,751,0
269575,585.00,785,752,0
269585,615.55,785,750,0
269595,640.55,785,752,0
269605,658.17,785,751,0
269615,668.19,785,753,0
269625,670.15,785,751,0
269635,663.33,785,752,0
269645,649.73,785,751,0
269655,631.00,785,752,0
269665,608.58,785,751,0
269675,583.98,785,752,0
269685,558.61,785,751,0
269696,533.79,785,751,0
269705,512.21,785,751,0
269715,493.37,785,753,0
269725,476.72,785,751,0
269735,461.80,785,752,0
269745,449.69,785,751,0
269755,439.03,785,752,0
269765,431.09,785,751,0
269775,423.56,785,752,0
269785,417.65,785,751,0
269795,413.17,785,752,0
269805,411.02,785,751,0
269815,409.77,785,752,0
269825,410.91,785,751,0
269835,412.82,785,752,0
269845,415.79,785,751,0
269855,418.17,785,752,0
269865,421.20,785,751,0
269875,423.29,785,752,0
269885,425.17,785,751,0
269895,425.33,785,753,0
269905,424.21,785,752,0
269915,421.44,785,752,0
269925,418.31,785,751,0
269935,413.93,785,752,0
269945,409.45,785,751,0
269955,403.96,785,752,0
269965,398.10,785,751,0
269975,392.03,785,752,0
269985,387.52,785,752,0
269996,383.03,785,752,0
270006,379.04,785,752,0
270016,374.74,785,752,0
270026,371.73,785,752,0
270036,368.94,785,751,0
270046,367.29,785,751,0
270056,365.57,785,752,0
270066,365.79,785,752,0
270076,365.81,785,751,0
270086,367.28,785,751,0
270096,368.95,785,752,0
270106,371.71,785,752,0
270116,373.47,785,751,0
270126,375.60,785,752,0
270136,375.63,785,752,0
270146,376.39,785,752,0
270156,376.23,785,751,0
270167,376.16,785,752,0
270177,375.21,785,751,0
270187,375.06,785,752,0
270197,374.40,785,751,0
270208,375.31,785,753,0
270217,375.64,785,751,0
270227,376.27,785,752,0
270237,376.10,785,750,0
270247,377.31,785,752,0
270257,379.53,785,751,0
270267,384.60,785,752,0
270277,392.61,785,751,0
270287,405.50,785,752,0
270297,423.18,785,751,0
270307,447.08,785,752,0
270326,474.96,773,751,0
270329,507.46,773,754,0
270338,541.05,773,752,0
270348,573.39,773,752,0
270358,601.73,773,750,0
270368,625.55,773,753,0
270379,642.02,773,751,0
270388,651.83,773,752,0
270398,653.08,773,750,0
270408,647.27,773,752,0
270418,635.96,773,751,0
270428,621.57,773,753,0
270438,603.19,773,750,0
270448,583.20,773,752,0
270458,562.06,773,750,0
270468,542.32,773,753,0
270478,523.24,773,750,0
270488,505.34,773,752,0
270498,487.58,773,750,0
270508,473.39,773,753,0
270518,460.93,773,751,0
270528,450.58,773,753,0
270538,440.38,773,751,0
270548,432.38,773,753,0
270558,425.92,773,751,0
270568,421.75,773,752,0
270578,417.66,773,751,0
270588,415.75,773,753,0
270598,414.50,773,750,0
270608,415.12,773,752,0
270618,416.88,773,751,0
270628,420.00,773,753,0
270638,423.22,773,751,0
270648,426.75,773,753,0
270658,428.71,773,751,0
270668,429.96,773,753,0
270679,429.20,773,750,0
270689,426.44,773,752,0
270699,421.98,773,751,0
270709,417.18,773,753,0
270720,410.96,773,750,0
270729,404.88,773,753,0
270739,398.66,773,751,0
270749,393.23,773,753,0
270759,388.66,773,750,0
270769,384.69,773,753,0
270779,380.67,773,750,0
270789,377.73,773,753,0
270799,375.11,773,750,0
270809,373.40,773,752,0
270819,372.60,773,751,0
270829,371.90,773,753,0
270839,371.12,773,750,0
270849,370.83,773,753,0
270859,370.92,773,750,0
270869,371.42,773,753,0
270879,372.06,773,750,0
270889,372.34,773,753,0
270899,372.93,773,750,0
270909,373.55,773,753,0
270919,373.56,773,750,0
270929,373.86,773,753,0
270939,373.60,773,750,0
270949,373.38,773,753,0
270959,373.31,773,750,0
270969,373.09,773,753,0
270979,372.59,773,750,0
270989,372.41,773,753,0
270999,371.60,773,750,0
271009,371.81,773,752,0
271020,373.07,773,750,0
271030,376.60,773,753,0
271040,383.11,773,750,0
271050,393.49,773,752,0
271060,408.43,773,750,0
271070,428.36,773,753,0
271089,452.76,763,752,0
271092,481.25,763,753,0
271101,511.77,763,751,0
271111,542.27,763,753,0
271121,571.33,763,750,0
271131,596.43,763,752,0
271141,616.45,763,751,0
271151,629.94,763,752,0
271161,636.77,763,751,0
271171,636.28,763,752,0
271181,629.77,763,751,0
271191,618.18,763,753,0
271201,602.78,763,750,0
271211,585.11,763,752,0
271221,566.13,763,750,0
271232,545.91,763,752,0
271241,526.86,763,750,0
271251,508.65,763,752,0
271261,491.87,763,750,0
271271,476.78,763,752,0
271281,463.86,763,751,0
271291,452.84,763,752,0
271301,443.59,763,750,0
271311,435.40,763,752,0
271321,429.32,763,750,0
271331,424.73,763,752,0
271341,422.07,763,750,0
271351,420.07,763,752,0
271361,419.62,763,750,0
271371,420.68,763,752,0
271381,423.30,763,751,0
271391,426.04,763,752,0
271401,428.60,763,750,0
271411,430.22,763,752,0
271421,430.88,763,750,0
271431,430.36,763,752,0
271441,428.88,763,751,0
271451,425.23,763,752,0
271461,421.13,763,750,0
271471,416.16,763,752,0
271481,411.14,763,751,0
271491,406.26,763,753,0
271501,401.25,763,751,0
271511,395.73,763,752,0
271521,391.01,763,751,0
271532,385.61,763,752,0
271542,380.84,763,750,0
271552,376.39,763,752,0
271562,372.41,763,751,0
271572,368.52,763,751,0
271582,365.36,763,750,0
271592,362.55,763,752,0
271602,361.32,763,751,0
271612,360.58,763,752,0
271622,360.19,763,750,0
271632,359.28,763,752,0
271642,359.28,763,751,0
271652,359.15,763,752,0
271662,359.32,763,750,0
271672,359.35,763,752,0
271682,359.59,763,751,0
271692,359.37,763,751,0
271703,360.37,763,751,0
271713,360.69,763,751,0
271723,361.21,763,751,0
271733,361.23,763,751,0
271744,361.46,763,751,0
271753,361.84,763,752,0
271763,364.54,763,752,0
271773,368.02,763,751,0
271783,374.83,763,752,0
271793,384.44,763,751,0
271803,398.54,763,751,0
271813,417.10,763,751,0
271823,440.30,763,751,0
271833,465.80,763,751,0
271852,494.61,763,750,0
271855,523.32,763,751,0
271864,552.15,763,752,0
271874,577.86,763,751,0
271884,599.37,763,752,0
271894,614.52,763,750,0
271904,624.22,763,752,0
271915,627.07,763,751,0
271924,624.43,763,752,0
271934,615.69,763,750,0
271944,603.83,763,752,0
271954,588.41,763,751,0
271964,572.34,763,752,0
271974,555.01,763,751,0
271984,538.16,763,752,0
271994,521.74,763,750,0
272004,507.46,763,752,0
272014,493.40,763,751,0
272024,480.68,763,751,0
272034,468.35,763,751,0
272044,458.04,763,752,0
272054,448.56,763,751,0
272064,440.80,763,751,0
272074,433.49,763,751,0
272084,427.99,763,752,0
272094,423.79,763,751,0
272104,421.58,763,751,0
272114,419.78,763,750,0
272124,419.63,763,752,0
272134,419.44,763,750,0
272144,420.17,763,751,0
272154,421.15,763,751,0
272164,422.60,763,752,0
272174,423.41,763,751,0
272184,424.36,763,752,0
272194,423.31,763,751,0
272204,422.53,763,752,0
272215,420.61,763,751,0
272225,418.07,763,752,0
272235,413.98,763,750,0
272245,409.53,763,752,0
272256,404.23,763,750,0
272265,400.13,763,752,0
272275,395.59,763,750,0
272285,391.47,763,752,0
272295,386.96,763,750,0
272305,383.37,763,752,0
272315,380.26,763,750,0
272325,378.17,763,753,0
272335,375.63,763,750,0
272345,374.03,763,752,0
272355,372.73,763,750,0
272365,372.39,763,752,0
272375,372.06,763,750,0
272385,372.21,763,752,0
272395,372.06,763,750,0
272405,372.34,763,753,0
272415,371.47,763,750,0
272425,370.43,763,752,0
272435,368.76,763,750,0
272445,368.06,763,753,0
272455,367.06,763,750,0
272465,365.92,763,752,0
272475,364.36,763,750,0
272485,363.82,763,752,0
272495,363.53,763,750,0
272505,364.27,763,752,0
272515,364.75,763,750,0
272525,367.05,763,752,0
272535,372.01,763,750,0
272545,381.05,763,752,0
272556,393.12,763,750,0
272566,409.67,763,752,0
272576,430.30,763,750,0
272586,455.41,763,752,0
272606,483.10,753,751,0
272609,512.04,753,752,0
272618,540.53,753,750,0
272628,567.24,753,752,0
272638,590.57,753,751,0
272648,609.26,753,753,0
272658,621.82,753,750,0
272668,627.70,753,752,0
272678,627.32,753,750,0
272688,620.80,753,753,0
272698,609.84,753,750,0
272708,594.38,753,752,0
272718,576.56,753,750,0
272728,557.88,753,753,0
272738,539.66,753,750,0
272748,522.32,753,752,0
272758,506.67,753,751,0
272769,492.41,753,752,0
272779,479.94,753,750,0
272789,467.79,753,752,0
272799,456.41,753,750,0
272809,445.57,753,752,0
272819,436.06,753,750,0
272829,427.21,753,751,0
272839,420.25,753,750,0
272849,414.95,753,752,0
272859,412.43,753,751,0
272869,411.32,753,752,0
272879,412.04,753,750,0
272889,413.27,753,752,0
272899,415.46,753,750,0
272909,417.51,753,752,0
272919,419.80,753,750,0
272929,420.89,753,752,0
272940,421.74,753,751,0
272950,421.13,753,752,0
272960,420.06,753,751,0
272970,417.64,753,751,0
272980,414.62,753,751,0
272990,410.36,753,752,0
273000,406.10,753,750,0
273010,400.93,753,751,0
273020,396.36,753,751,0
273030,391.45,753,751,0
273040,387.37,753,751,0
273050,383.28,753,751,0
273060,380.49,753,751,0
273070,377.73,753,751,0
273080,377.00,753,751,0
273090,376.48,753,752,0
273100,376.81,753,751,0
273111,376.65,753,751,0
273121,376.93,753,752,0
273131,375.88,753,751,0
273141,374.93,753,752,0
273152,372.25,753,750,0
273161,370.59,753,752,0
273171,368.83,753,751,0
273181,368.02,753,752,0
273191,367.24,753,751,0
273201,367.86,753,751,0
273211,368.37,753,751,0
273221,369.29,753,752,0
273231,368.39,753,751,0
273241,368.10,753,751,0
273251,367.38,753,751,0
273261,367.48,753,752,0
273271,367.30,753,751,0
273281,368.58,753,751,0
273291,371.06,753,751,0
273301,376.14,753,752,0
273311,382.49,753,750,0
273321,392.54,753,751,0
273331,405.66,753,751,0
273341,423.76,753,752,0
273351,445.61,753,751,0
273371,472.04,765,749,0
273374,500.53,765,751,0
273383,530.50,765,753,0
273393,557.82,765,750,0
273403,580.89,765,752,0
273413,597.42,765,750,0
273423,607.84,765,752,0
273433,611.23,765,751,0
273443,609.23,765,752,0
273453,601.23,765,751,0
273463,590.02,765,753,0
273473,575.96,765,750,0
273483,560.58,765,752,0
273494,543.91,765,750,0
273503,527.05,765,752,0
273513,509.89,765,750,0
273523,494.20,765,752,0
273533,479.14,765,750,0
273543,466.62,765,752,0
273553,455.55,765,750,0
273563,446.39,765,752,0
273573,438.04,765,750,0
273583,431.34,765,752,0
273593,425.37,765,750,0
273603,421.02,765,752,0
273613,417.37,765,750,0
273623,415.63,765,752,0
273633,414.88,765,750,0
273643,415.56,765,752,0
273653,416.76,765,750,0
273664,418.72,765,752,0
273673,420.65,765,750,0
273683,422.68,765,752,0
273693,423.63,765,750,0
273703,424.04,765,752,0
273713,423.09,765,750,0
273723,421.43,765,752,0
273733,418.60,765,750,0
273743,415.17,765,752,0
273753,410.70,765,750,0
273763,406.21,765,752,0
273773,401.17,765,750,0
273783,396.53,765,752,0
273793,391.66,765,750,0
273803,387.52,765,752,0
273813,383.55,765,750,0
273823,381.58,765,753,0
273833,380.08,765,750,0
273843,378.73,765,752,0
273853,377.01,765,750,0
273863,375.98,765,753,0
273873,375.38,765,750,0
273883,375.53,765,753,0
273893,374.55,765,750,0
273903,373.70,765,753,0
273913,372.85,765,750,0
273923,372.12,765,752,0
273933,370.67,765,750,0
273943,368.84,765,752,0
273953,366.45,765,750,0
273964,364.30,765,752,0
273974,362.24,765,749,0
273984,361.14,765,753,0
273994,360.84,765,750,0
274004,361.66,765,752,0
274014,363.22,765,749,0
274024,367.35,765,753,0
274034,373.68,765,750,0
274044,382.60,765,753,0
274054,394.08,765,749,0
274064,409.48,765,753,0
274074,428.41,765,750,0
274084,450.92,765,752,0
274094,474.94,765,749,0
274113,501.27,743,749,0
274116,527.29,743,753,0
274125,552.10,743,752,0
274135,573.37,743,750,0
274145,591.35,743,753,0
274155,604.40,743,751,0
274165,611.35,743,752,0
274176,611.20,743,750,0
274185,606.04,743,753,0
274195,597.16,743,750,0
274205,584.94,743,752,0
274215,569.27,743,750,0
274225,552.09,743,752,0
274235,535.01,743,750,0
274245,518.38,743,752,0
274255,502.83,743,750,0
274265,488.01,743,753,0
274275,475.24,743,750,0
274285,463.81,743,752,0
274295,453.15,743,750,0
274305,443.33,743,752,0
274315,434.66,743,750,0
274325,427.78,743,753,0
274335,422.23,743,750,0
274345,416.80,743,752,0
274355,412.71,743,750,0
274365,409.84,743,752,0
274375,408.43,743,750,0
274385,408.13,743,752,0
274395,407.88,743,750,0
274405,407.78,743,752,0
274415,408.58,743,750,0
274425,409.30,743,751,0
274435,411.40,743,751,0
274445,413.68,743,753,0
274455,415.49,743,751,0
274465,415.43,743,752,0
274476,413.76,743,750,0
274486,410.19,743,752,0
274496,406.45,743,751,0
274506,400.44,743,752,0
274516,393.58,743,751,0
274526,386.38,743,752,0
274536,380.56,743,750,0
274546,375.77,743,752,0
274556,372.66,743,751,0
274566,369.68,743,752,0
274576,368.28,743,751,0
274586,367.46,743,752,0
274596,367.33,743,751,0
274606,367.06,743,752,0
274616,367.43,743,750,0
274626,368.37,743,752,0
274636,370.23,743,751,0
274647,370.93,743,752,0
274657,371.21,743,751,0
274667,370.50,743,751,0
274677,370.05,743,751,0
274688,368.88,743,751,0
274697,367.29,743,751,0
274707,364.80,743,751,0
274717,363.40,743,751,0
274727,362.43,743,752,0
274737,363.63,743,752,0
274747,364.94,743,752,0
274757,366.71,743,751,0
274767,367.31,743,751,0
274777,368.38,743,751,0
274787,369.51,743,751,0
274797,372.65,743,751,0
274807,376.96,743,751,0
274817,385.67,743,752,0
274827,398.84,743,751,0
274837,418.30,743,751,0
274847,442.13,743,752,0
274867,470.97,753,750,0
274870,501.02,753,751,0
274879,532.05,753,752,0
274889,560.58,753,750,0
274899,586.37,753,753,0
274909,607.69,753,751,0
274919,624.15,753,753,0
274929,632.68,753,751,0
274939,634.88,753,752,0
274949,629.60,753,750,0
274959,619.48,753,752,0
274969,604.16,753,750,0
274979,585.47,753,752,0
274989,564.33,753,750,0
274999,544.56,753,752,0
275009,525.41,753,750,0
275019,508.70,753,752,0
275030,493.06,753,750,0
275039,479.84,753,752,0
275049,468.45,753,751,0
275059,459.36,753,753,0
275069,450.12,753,750,0
275079,442.46,753,752,0
275089,435.03,753,751,0
275099,428.94,753,752,0
275109,423.13,753,750,0
275119,418.38,753,753,0
275129,413.89,753,751,0
275139,411.01,753,753,0
275149,409.04,753,750,0
275159,408.64,753,752,0
275169,408.36,753,751,0
275179,409.07,753,753,0
275189,409.00,753,750,0
275200,409.05,753,753,0
275209,408.13,753,751,0
275219,407.54,753,753,0
275229,405.36,753,750,0
275239,402.77,753,753,0
275249,398.98,753,751,0
275259,395.13,753,752,0
275269,390.59,753,750,0
275279,386.47,753,753,0
275289,382.13,753,751,0
275299,379.30,753,753,0
275309,376.60,753,751,0
275319,374.70,753,753,0
275329,372.65,753,751,0
275339,370.74,753,752,0
275349,368.46,753,751,0
275359,365.97,753,752,0
275369,363.58,753,751,0
275379,362.07,753,753,0
275389,360.21,753,750,0
275399,359.59,753,753,0
275409,359.58,753,750,0
275419,359.97,753,752,0
275429,359.93,753,750,0
275439,360.60,753,752,0
275449,361.36,753,751,0
275459,363.44,753,753,0
275469,364.68,753,750,0
275479,365.67,753,752,0
275489,366.46,753,750,0
275500,367.65,753,753,0
275510,367.58,753,750,0
275520,367.11,753,752,0
275530,365.96,753,751,0
275540,365.16,753,753,0
275550,363.91,753,750,0
275560,363.42,753,752,0
275570,364.71,753,751,0
275580,368.48,753,753,0
275590,374.64,753,750,0
275600,384.69,753,752,0
275610,399.35,753,751,0
275620,420.21,753,753,0
275639,446.11,773,752,0
275642,475.95,773,754,0
275651,508.28,773,750,0
275661,541.50,773,753,0
275671,572.63,773,750,0
275681,600.21,773,753,0
275691,622.01,773,750,0
275701,636.83,773,753,0
275712,643.83,773,750,0
275721,643.49,773,752,0
275731,636.83,773,750,0
275741,626.12,773,753,0
275751,611.04,773,750,0
275761,592.86,773,752,0
275771,572.80,773,750,0
275781,553.28,773,753,0
275791,533.78,773,750,0
275801,515.07,773,752,0
275811,497.14,773,751,0
275821,480.90,773,753,0
275831,466.14,773,750,0
275841,453.07,773,752,0
275851,441.14,773,751,0
275861,431.41,773,753,0
275871,422.84,773,750,0
275881,414.92,773,751,0
275891,408.26,773,750,0
275901,403.64,773,752,0
275911,401.47,773,750,0
275921,400.48,773,752,0
275931,400.25,773,750,0
275941,401.63,773,752,0
275951,404.14,773,750,0
275961,407.74,773,752,0
275971,411.50,773,750,0
275981,414.14,773,752,0
275991,415.55,773,750,0
276001,415.73,773,752,0
276012,414.53,773,750,0
276022,411.71,773,752,0
276032,407.25,773,750,0
276042,401.35,773,751,0
276052,395.63,773,751,0
276062,390.60,773,753,0
276072,386.43,773,751,0
276082,382.62,773,752,0
276092,379.43,773,751,0
276102,375.70,773,752,0
276112,372.11,773,750,0
276122,367.83,773,752,0
276132,364.50,773,751,0
276142,361.48,773,753,0
276152,358.68,773,750,0
276162,356.03,773,752,0
276172,354.74,773,750,0
276183,354.47,773,752,0
276193,355.36,773,751,0
276203,355.12,773,751,0
276213,355.00,773,750,0
276224,355.56,773,752,0
276233,357.88,773,751,0
276243,359.71,773,751,0
276253,361.47,773,751,0
276263,362.27,773,752,0
276273,363.56,773,751,0
276283,364.04,773,752,0
276293,363.90,773,750,0
276303,362.08,773,752,0
276313,361.29,773,750,0
276323,361.20,773,751,0
276333,364.91,773,751,0
276343,370.42,773,752,0
276353,379.85,773,751,0
276363,394.00,773,752,0
276373,414.36,773,751,0
276383,439.88,773,752,0
276393,470.69,773,751,0
276412,503.65,773,749,0
276415,538.47,773,752,0
276424,572.23,773,751,0
276434,604.26,773,752,0
276444,630.15,773,751,0
276454,648.92,773,751,0
276464,658.89,773,751,0
276474,661.58,773,752,0
276484,656.13,773,751,0
276494,644.35,773,751,0
276504,625.82,773,752,0
276514,604.36,773,751,0
276524,580.59,773,751,0
276534,556.93,773,751,0
276544,533.59,773,752,0
276554,513.06,773,752,0
276564,493.37,773,751,0
276574,476.50,773,751,0
276584,460.62,773,751,0
276594,447.36,773,752,0
276604,435.30,773,751,0
276614,424.11,773,751,0
276624,412.76,773,751,0
276634,404.86,773,752,0
276644,397.70,773,751,0
276654,392.86,773,751,0
276664,388.66,773,751,0
276674,387.01,773,752,0
276684,387.43,773,752,0
276695,390.56,773,752,0
276705,392.92,773,751,0
276715,395.77,773,752,0
276725,397.81,773,751,0
276736,400.14,773,752,0
276745,400.70,773,751,0
276755,399.72,773,752,0
276765,396.54,773,750,0
276775,394.20,773,752,0
276785,391.22,773,751,0
276795,388.76,773,752,0
276805,384.93,773,751,0
276815,380.88,773,751,0
276825,376.24,773,751,0
276835,372.83,773,752,0
276845,368.21,773,751,0
276855,363.90,773,751,0
276865,359.22,773,750,0
276875,356.20,773,752,0
276885,353.69,773,751,0
276895,352.54,773,751,0
276905,350.67,773,750,0
276915,349.74,773,751,0
276925,349.56,773,751,0
276935,350.16,773,751,0
276945,350.50,773,751,0
276955,351.46,773,752,0
276965,352.01,773,751,0
276975,353.25,773,752,0
276985,353.82,773,751,0
276995,354.17,773,752,0
277005,354.21,773,751,0
277015,354.23,773,752,0
277025,354.38,773,751,0
277036,354.01,773,753,0
277046,352.63,773,751,0
277056,351.50,773,752,0
277066,349.94,773,750,0
277076,348.71,773,753,0
277086,348.07,773,751,0
277096,348.05,773,753,0
277106,348.98,773,750,0
277116,352.80,773,753,0
277126,359.33,773,750,0
277136,370.85,773,753,0
277146,387.65,773,750,0
277156,410.43,773,753,0
277175,438.97,763,752,0
277178,473.74,763,753,0
277187,512.30,763,750,0
277197,552.97,763,754,0
277207,592.15,763,751,0
277217,628.15,763,753,0
277227,657.76,763,750,0
277237,679.52,763,753,0
277248,691.62,763,750,0
277257,694.69,763,753,0
277267,689.13,763,750,0
277277,676.96,763,753,0
277287,657.90,763,750,0
277297,634.96,763,753,0
277307,608.74,763,749,0
277317,581.91,763,752,0
277327,555.15,763,750,0
277337,530.59,763,753,0
277347,507.18,763,750,0
277357,486.30,763,753,0
277367,468.12,763,751,0
277377,453.26,763,753,0
277387,439.94,763,750,0
277397,428.00,763,752,0
277407,416.94,763,750,0
277417,407.40,763,753,0
277427,399.01,763,750,0
277437,391.68,763,752,0
277447,386.38,763,750,0
277457,383.82,763,753,0
277467,382.72,763,749,0
277477,383.74,763,753,0
277487,386.05,763,750,0
277497,389.21,763,753,0
277507,393.39,763,750,0
277517,397.21,763,753,0
277527,398.99,763,750,0
277537,399.64,763,753,0
277548,397.82,763,749,0
277558,394.74,763,753,0
277568,391.35,763,750,0
277578,385.93,763,752,0
277588,378.88,763,750,0
277598,373.13,763,753,0
277608,367.78,763,750,0
277618,363.00,763,752,0
277628,357.90,763,749,0
277638,352.53,763,753,0
277648,348.34,763,750,0
277658,344.77,763,752,0
277668,340.98,763,749,0
277678,338.76,763,753,0
277688,336.99,763,750,0
277698,336.95,763,753,0
277708,338.16,763,750,0
277719,339.74,763,753,0
277729,341.66,763,750,0
277739,343.44,763,752,0
277749,345.32,763,751,0
277760,346.89,763,752,0
277769,347.96,763,750,0
277779,348.01,763,752,0
277789,348.52,763,751,0
277799,349.22,763,752,0
277809,350.14,763,750,0
277819,350.10,763,752,0
277829,350.20,763,750,0
277839,349.84,763,752,0
277849,349.54,763,750,0
277859,348.14,763,752,0
277869,347.03,763,751,0
277879,345.82,763,752,0
277889,345.36,763,751,0
277899,346.02,763,753,0
277909,348.07,763,751,0
277919,352.34,763,752,0
277929,360.12,763,751,0
277939,371.74,763,753,0
277949,389.73,763,751,0
277968,413.99,793,750,0
277971,445.58,793,752,0
277980,483.07,793,753,0
277990,524.24,793,751,0
278000,565.95,793,752,0
278010,606.21,793,752,0
278020,642.15,793,753,0
278030,672.53,793,751,0
278040,693.37,793,752,0
278050,705.17,793,752,0
278060,707.65,793,752,0
278070,702.14,793,751,0
278080,688.86,793,752,0
278090,669.70,793,752,0
278100,644.72,793,752,0
278110,616.69,793,751,0
278120,586.70,793,752,0
278130,556.87,793,751,0
278140,527.64,793,752,0
278150,501.56,793,751,0
278160,477.14,793,752,0
278170,455.67,793,751,0
278180,437.08,793,752,0
278190,421.54,793,751,0
278200,408.65,793,752,0
278210,399.71,793,752,0
278220,392.13,793,752,0
278231,386.90,793,751,0
278241,383.50,793,752,0
278251,382.75,793,752,0
278261,383.73,793,752,0
278272,386.98,793,753,0
278281,390.63,793,752,0
278291,395.07,793,752,0
278301,399.03,793,752,0
278311,402.50,793,752,0
278321,404.15,793,752,0
278331,404.36,793,752,0
278341,402.54,793,752,0
278351,399.12,793,752,0
278361,394.11,793,751,0
278371,388.76,793,752,0
278381,382.96,793,752,0
278391,377.36,793,752,0
278401,371.08,793,751,0
278411,365.79,793,752,0
278421,360.41,793,751,0
278431,356.30,793,752,0
278441,353.17,793,751,0
278451,350.80,793,752,0
278461,348.12,793,751,0
278471,346.50,793,752,0
278481,344.98,793,751,0
278491,344.56,793,751,0
278501,343.75,793,751,0
278511,344.08,793,752,0
278521,344.66,793,751,0
278531,346.04,793,751,0
278541,347.23,793,751,0
278551,348.45,793,752,0
278561,349.38,793,750,0
278572,350.94,793,752,0
278582,350.62,793,751,0
278592,351.20,793,753,0
278602,352.04,793,750,0
278612,353.01,793,752,0
278622,352.67,793,750,0
278632,352.51,793,752,0
278642,351.59,793,750,0
278652,352.05,793,753,0
278662,351.91,793,751,0
278672,351.81,793,752,0
278682,351.48,793,750,0
278692,353.01,793,752,0
278702,355.92,793,750,0
278712,363.96,793,752,0
278722,375.71,793,750,0
278732,392.90,793,752,0
278743,416.50,793,751,0
278762,448.49,794,749,0
278765,486.83,794,749,0
278774,528.97,794,754,0
278785,570.33,794,751,0
278795,609.75,794,753,0
278805,644.92,794,750,0
278815,674.35,794,753,0
278825,694.47,794,750,0
278835,705.73,794,754,0
278845,707.31,794,749,0
278855,700.23,794,753,0
278865,685.12,794,750,0
278875,663.83,794,753,0
278885,637.31,794,750,0
278895,607.56,794,753,0
278905,574.82,794,750,0
278915,542.86,794,753,0
278925,512.26,794,750,0
278935,484.67,794,753,0
278945,460.04,794,751,0
278956,437.91,794,752,0
278966,418.65,794,750,0
278976,402.77,794,752,0
278986,390.67,794,751,0
278996,381.90,794,752,0
279006,375.58,794,750,0
279016,371.81,794,753,0
279026,370.58,794,751,0
279036,371.48,794,752,0
279046,375.36,794,751,0
279056,380.01,794,753,0
279066,385.28,794,750,0
279076,390.94,794,752,0
279086,395.50,794,750,0
279096,399.12,794,752,0
279106,401.96,794,750,0
279116,402.48,794,753,0
279127,401.70,794,751,0
279137,399.52,794,753,0
279147,396.10,794,751,0
279157,391.32,794,753,0
279168,385.86,794,751,0
279177,379.56,794,752,0
279187,373.31,794,752,0
279197,366.23,794,753,0
279207,359.13,794,751,0
279217,351.55,794,752,0
279227,345.13,794,751,0
279237,339.60,794,753,0
279247,335.82,794,751,0
279257,332.28,794,752,0
279267,331.12,794,752,0
279277,331.26,794,753,0
279287,332.38,794,751,0
279297,333.29,794,752,0
279307,334.45,794,751,0
279317,335.69,794,753,0
279327,337.88,794,751,0
279337,338.60,794,752,0
279347,339.54,794,751,0
279357,340.79,794,752,0
279367,342.87,794,751,0
279377,344.84,794,752,0
279387,346.94,794,751,0
279397,349.02,794,753,0
279407,351.07,794,751,0
279417,352.38,794,752,0
279427,353.34,794,751,0
279437,353.23,794,752,0
279447,353.08,794,751,0
279457,352.24,794,752,0
279468,351.61,794,751,0
279478,351.13,794,752,0
279488,352.50,794,751,0
279498,356.98,794,752,0
279508,366.93,794,751,0
279518,382.04,794,752,0
279528,405.30,794,752,0
279547,435.59,785,751,0
279550,473.99,785,753,0
279559,516.33,785,752,0
279569,559.82,785,752,0
279579,601.19,785,751,0
279589,639.23,785,752,0
279599,670.45,785,751,0
279609,694.74,785,752,0
279619,711.71,785,751,0
279629,723.15,785,752,0
279639,728.81,785,752,0
279649,728.01,785,752,0
279659,719.73,785,750,0
279669,704.86,785,752,0
279680,683.17,785,751,0
279689,656.89,785,752,0
279699,624.95,785,751,0
279709,590.38,785,752,0
279719,555.21,785,751,0
279729,523.99,785,753,0
279739,494.89,785,751,0
279749,469.34,785,752,0
279759,444.98,785,751,0
279769,424.89,785,752,0
279779,407.78,785,750,0
279789,395.93,785,753,0
279799,385.02,785,751,0
279809,377.34,785,752,0
279819,371.84,785,751,0
279829,370.05,785,752,0
279839,370.16,785,751,0
279849,373.88,785,753,0
279859,377.05,785,751,0
279869,381.32,785,752,0
279879,385.42,785,751,0
279889,390.22,785,753,0
279899,394.31,785,751,0
279909,397.31,785,752,0
279919,397.00,785,751,0
279929,395.80,785,752,0
279939,392.86,785,751,0
279949,389.26,785,752,0
279959,385.02,785,752,0
279969,380.35,785,753,0
279980,374.24,785,750,0
279990,367.91,785,752,0
280000,360.65,785,750,0
280010,353.99,785,752,0
280020,347.18,785,750,0
280030,340.35,785,752,0
280040,334.25,785,751,0
280050,331.47,785,753,0
280060,329.66,785,750,0
280070,329.33,785,752,0
280080,329.45,785,750,0
280090,331.07,785,752,0
280100,332.63,785,750,0
280110,334.50,785,752,0
280120,334.95,785,750,0
280130,337.37,785,753,0
280140,339.66,785,750,0
280151,342.33,785,752,0
280161,344.80,785,750,0
280171,347.43,785,752,0
280181,349.70,785,750,0
280192,352.06,785,752,0
280201,352.60,785,750,0
280211,353.66,785,753,0
280221,355.56,785,751,0
280231,357.15,785,752,0
280241,357.45,785,750,0
280251,357.36,785,753,0
280261,357.25,785,750,0
280271,356.92,785,752,0
280281,356.13,785,750,0
280291,356.48,785,753,0
280301,359.93,785,750,0
280311,368.82,785,752,0
280321,383.23,785,751,0
280331,405.88,785,753,0
280350,436.60,803,751,0
280353,475.25,803,754,0
280363,517.39,803,750,0
280372,560.21,803,753,0
280382,601.64,803,751,0
280392,639.37,803,752,0
280402,670.20,803,750,0
280412,694.44,803,753,0
280422,711.45,803,750,0
280432,723.36,803,752,0
280442,730.02,803,750,0
280452,731.69,803,753,0
280462,726.42,803,750,0
280472,714.17,803,752,0
280482,694.96,803,750,0
280492,669.39,803,752,0
280502,638.16,803,750,0
280512,603.44,803,752,0
280522,567.69,803,751,0
280532,532.68,803,752,0
280542,499.95,803,750,0
280552,470.35,803,752,0
280562,444.19,803,750,0
280572,421.50,803,752,0
280582,403.48,803,751,0
280592,388.08,803,752,0
280602,376.61,803,750,0
280612,370.00,803,753,0
280622,366.57,803,750,0
280632,366.06,803,752,0
280642,369.34,803,750,0
280652,373.82,803,753,0
280663,379.79,803,750,0
280673,386.75,803,752,0
280683,393.21,803,751,0
280693,399.41,803,752,0
280704,404.81,803,750,0
280713,407.57,803,752,0
280723,409.03,803,751,0
280733,408.63,803,753,0
280743,407.20,803,751,0
280753,403.93,803,753,0
280763,399.32,803,751,0
280773,393.18,803,753,0
280783,386.14,803,751,0
280793,378.21,803,753,0
280803,370.99,803,751,0
280813,362.98,803,753,0
280823,354.67,803,751,0
280833,346.67,803,752,0
280843,340.81,803,751,0
280853,335.98,803,752,0
280863,333.46,803,751,0
280873,331.09,803,752,0
280883,330.34,803,750,0
280893,330.58,803,752,0
280903,333.36,803,751,0
280913,336.77,803,753,0
280923,340.69,803,750,0
280933,343.10,803,752,0
280943,346.50,803,751,0
280953,350.25,803,753,0
280963,354.42,803,751,0
280973,356.31,803,752,0
280983,357.71,803,752,0
280993,358.40,803,752,0
281004,359.52,803,751,0
281014,359.11,803,752,0
281024,357.96,803,751,0
281034,356.47,803,752,0
281044,356.20,803,751,0
281054,355.80,803,752,0
281064,359.20,803,752,0
281074,364.88,803,752,0
281084,375.63,803,751,0
281094,391.64,803,752,0
281104,415.28,803,751,0
281114,446.14,803,752,0
281124,484.24,803,751,0
281143,524.54,793,750,0
281146,566.29,793,752,0
281155,606.28,793,752,0
281165,642.84,793,751,0
281175,673.14,793,752,0
281185,696.71,793,752,0
281195,713.21,793,753,0
281205,724.81,793,752,0
281216,730.82,793,751,0
281225,731.43,793,751,0
281235,725.17,793,752,0
281245,712.26,793,751,0
281255,691.91,793,751,0
281265,666.78,793,752,0
281275,635.90,793,752,0
281285,601.18,793,751,0
281295,563.84,793,752,0
281305,527.37,793,751,0
281315,492.29,793,752,0
281325,461.26,793,751,0
281335,432.17,793,752,0
281345,407.60,793,751,0
281355,387.58,793,751,0
281365,373.09,793,751,0
281375,362.74,793,752,0
281385,358.83,793,752,0
281395,358.75,793,753,0
281405,362.38,793,752,0
281415,367.50,793,752,0
281425,374.98,793,752,0
281435,382.83,793,752,0
281445,390.98,793,751,0
281455,396.21,793,751,0
281465,400.18,793,752,0
281475,403.00,793,752,0
281485,404.97,793,751,0
281495,404.59,793,751,0
281505,403.17,793,752,0
281516,401.49,793,752,0
281526,399.29,793,751,0
281536,394.83,793,751,0
281546,389.18,793,752,0
281556,382.06,793,751,0
281566,376.60,793,752,0
281576,370.76,793,752,0
281586,363.59,793,752,0
281596,356.08,793,751,0
281606,350.70,793,751,0
281616,345.52,793,750,0
281626,343.35,793,753,0
281636,340.33,793,751,0
281646,338.43,793,752,0
281656,337.66,793,751,0
281666,339.95,793,753,0
281676,342.36,793,752,0
281687,345.25,793,752,0
281697,345.78,793,751,0
281707,346.53,793,752,0
281717,346.67,793,750,0
281728,347.58,793,752,0
281737,347.58,793,752,0
281747,347.96,793,753,0
281757,347.97,793,751,0
281767,349.10,793,752,0
281777,350.14,793,751,0
281787,351.73,793,752,0
281797,352.54,793,751,0
281807,352.46,793,752,0
281817,351.81,793,751,0
281827,352.21,793,752,0
281837,353.73,793,751,0
281847,358.83,793,753,0
281857,367.19,793,752,0
281867,380.98,793,753,0
281877,401.13,793,751,0
281887,428.60,793,753,0
281907,462.75,763,752,0
281910,502.43,763,755,0
281919,543.40,763,751,0
281929,584.29,763,754,0
281939,622.26,763,750,0
