Time,PPG,IBI,GSR,GSR_Event
5415,595.18,763,742,0
5425,539.89,763,745,0
5435,481.38,763,743,0
5445,425.16,763,745,0
5455,372.79,763,743,0
5465,327.72,763,744,0
5475,290.01,763,743,0
5485,266.52,763,745,0
5495,253.98,763,743,0
5505,251.93,763,744,0
5515,257.26,763,743,0
5525,269.23,763,745,0
5535,284.72,763,743,0
5545,303.14,763,744,0
5555,321.74,763,743,0
5565,340.03,763,745,0
5575,355.67,763,743,0
5585,368.97,763,744,0
5595,378.45,763,743,0
5605,385.00,763,744,0
5615,387.66,763,743,0
5625,387.89,763,744,0
5635,385.09,763,743,0
5645,380.91,763,744,0
5655,374.76,763,743,0
5665,368.32,763,744,0
5676,360.94,763,743,0
5686,354.40,763,745,0
5696,348.07,763,743,0
5706,342.65,763,744,0
5716,336.97,763,742,0
5726,332.26,763,744,0
5736,327.86,763,742,0
5746,324.90,763,743,0
5756,322.10,763,742,0
5766,320.31,763,744,0
5776,320.26,763,744,0
5786,324.47,763,746,0
5796,330.29,763,744,0
5806,338.60,763,745,0
5816,347.51,763,744,0
5826,355.97,763,745,0
5836,365.66,763,747,0
5847,375.28,763,748,0
5857,379.95,763,744,0
5867,378.85,763,745,0
5877,372.21,763,743,0
5888,362.63,763,745,0
5897,352.24,763,744,0
5907,339.57,763,745,0
5917,324.31,763,742,0
5927,310.93,763,744,0
5937,303.80,763,742,0
5947,304.33,763,743,0
5957,313.23,763,742,0
5967,332.62,763,744,0
5977,362.48,763,742,0
5987,403.78,763,744,0
5997,452.01,763,743,0
6017,503.57,793,743,0
6019,554.48,793,745,0
6029,601.52,793,745,0
6039,641.22,793,744,0
6049,672.19,793,746,0
6060,693.94,793,744,0
6070,709.22,793,745,0
6080,719.91,793,744,0
6090,727.35,793,746,0
6100,732.60,793,745,0
6110,736.28,793,745,0
6120,738.85,793,745,0
6130,737.78,793,746,0
6140,731.12,793,745,0
6150,717.03,793,745,0
6160,694.65,793,745,0
6170,663.68,793,746,0
6180,624.82,793,745,0
6190,578.80,793,746,0
6200,529.70,793,745,0
6210,481.06,793,746,0
6220,436.30,793,745,0
6231,397.47,793,746,0
6241,366.30,793,745,0
6251,342.94,793,746,0
6261,328.00,793,745,0
6272,320.76,793,746,0
6281,320.79,793,745,0
6291,326.47,793,746,0
6301,337.17,793,745,0
6311,350.75,793,745,0
6321,366.59,793,745,0
6331,382.32,793,746,0
6341,397.48,793,745,0
6351,409.93,793,745,0
6361,420.07,793,745,0
6371,426.22,793,746,0
6381,429.07,793,745,0
6391,427.72,793,745,0
6401,423.52,793,745,0
6411,416.12,793,746,0
6421,407.26,793,745,0
6431,396.46,793,745,0
6441,385.65,793,745,0
6451,374.74,793,746,0
6461,365.22,793,745,0
6471,356.71,793,746,0
6481,350.50,793,746,0
6491,345.72,793,746,0
6501,343.06,793,746,0
6511,341.29,793,746,0
6521,341.07,793,746,0
6531,341.22,793,746,0
6541,342.05,793,746,0
6551,342.17,793,746,0
6561,342.20,793,746,0
6572,341.16,793,746,0
6582,340.00,793,746,0
6592,337.85,793,746,0
6602,336.01,793,746,0
6612,334.47,793,746,0
6622,335.27,793,746,0
6632,339.35,793,746,0
6642,349.70,793,746,0
6652,367.49,793,746,0
6662,394.99,793,746,0
6672,431.89,793,746,0
6682,475.17,793,746,0
6692,521.19,793,746,0
6702,567.37,793,746,0
6712,610.29,793,746,0
6731,647.66,715,745,0
6733,677.12,715,746,0
6743,697.78,715,747,0
6753,712.25,715,746,0
6763,722.37,715,746,0
6773,729.46,715,746,0
6784,734.47,715,747,0
6793,735.87,715,746,0
6803,732.22,715,746,0
6813,721.70,715,745,0
6823,703.96,715,747,0
6833,678.43,715,745,0
6843,645.86,715,746,0
6853,606.09,715,745,0
6863,562.47,715,747,0
6873,517.42,715,746,0
6883,474.48,715,746,0
6893,434.69,715,745,0
6903,400.58,715,747,0
6913,371.74,715,745,0
6923,349.96,715,746,0
6933,334.37,715,745,0
6943,325.69,715,747,0
6953,322.31,715,745,0
6963,324.75,715,746,0
6973,330.57,715,745,0
6983,339.87,715,747,0
6993,350.32,715,745,0
7003,361.97,715,746,0
7013,372.39,715,745,0
7023,381.75,715,747,0
7033,388.04,715,745,0
7043,392.05,715,746,0
7053,392.77,715,745,0
7063,391.16,715,747,0
7073,386.27,715,745,0
7084,379.85,715,746,0
7094,371.58,715,745,0
7104,363.05,715,747,0
7114,353.86,715,745,0
7124,345.29,715,746,0
7134,336.93,715,745,0
7144,330.14,715,747,0
7154,324.10,715,745,0
7164,319.82,715,746,0
7174,316.49,715,745,0
7184,314.93,715,747,0
7194,314.22,715,745,0
7204,315.01,715,747,0
7214,316.21,715,745,0
7224,318.37,715,747,0
7234,320.32,715,745,0
7244,322.75,715,747,0
7255,325.23,715,746,0
7265,328.46,715,747,0
7275,331.02,715,745,0
7285,333.41,715,746,0
7296,335.09,715,745,0
7305,336.95,715,747,0
7315,338.46,715,745,0
7325,340.55,715,747,0
7335,344.03,715,745,0
7345,351.44,715,747,0
7355,364.33,715,745,0
7365,385.58,715,747,0
7375,415.96,715,745,0
7385,454.59,715,747,0
7395,497.91,715,745,0
7405,543.02,715,747,0
7425,587.07,693,746,0
7427,627.59,693,747,0
7437,661.40,693,745,0
7447,686.87,693,747,0
7457,704.69,693,745,0
7468,717.17,693,747,0
7478,725.91,693,745,0
7488,732.02,693,747,0
7498,736.26,693,745,0
7508,737.77,693,747,0
7518,734.96,693,745,0
7528,726.19,693,747,0
7538,710.53,693,746,0
7548,687.36,693,747,0
7558,657.08,693,745,0
7568,619.94,693,747,0
7578,577.92,693,745,0
7588,533.67,693,747,0
7598,490.44,693,745,0
7608,450.11,693,747,0
7618,414.63,693,746,0
7628,384.49,693,747,0
7639,360.81,693,746,0
7649,343.51,693,746,0
7659,333.03,693,746,0
7669,328.18,693,747,0
7680,328.81,693,746,0
7689,333.41,693,747,0
7699,341.47,693,746,0
7709,351.32,693,747,0
7719,362.19,693,746,0
7729,372.21,693,747,0
7739,381.19,693,746,0
7749,387.73,693,747,0
7759,392.18,693,746,0
7769,393.67,693,747,0
7779,392.66,693,746,0
7789,389.16,693,747,0
7799,384.31,693,746,0
7809,378.05,693,747,0
7819,371.30,693,746,0
7829,363.71,693,746,0
7839,356.56,693,746,0
7849,349.49,693,747,0
7859,343.43,693,746,0
7869,337.94,693,747,0
7879,333.76,693,746,0
7889,330.36,693,746,0
7899,328.75,693,745,0
7909,327.84,693,746,0
7919,328.23,693,746,0
7929,328.89,693,746,0
7939,330.42,693,745,0
7949,332.01,693,746,0
7959,334.19,693,746,0
7969,335.94,693,746,0
7980,337.93,693,745,0
7990,339.36,693,746,0
8000,341.01,693,746,0
8010,341.99,693,746,0
8020,342.77,693,746,0
8030,342.84,693,746,0
8040,343.53,693,746,0
8050,344.91,693,746,0
8060,349.44,693,746,0
8070,357.49,693,746,0
8080,371.96,693,746,0
8090,394.04,693,746,0
8100,425.83,693,746,0
8110,464.75,693,746,0
8120,508.16,693,746,0
8139,552.34,715,745,0
8141,595.48,715,748,0
8151,634.25,715,746,0
8161,666.70,715,747,0
8171,690.62,715,746,0
8181,707.36,715,747,0
8192,719.04,715,746,0
8201,727.26,715,747,0
8211,732.19,715,746,0
8221,732.44,715,746,0
8231,726.09,715,746,0
8241,713.16,715,747,0
8251,692.59,715,746,0
8261,664.98,715,746,0
8271,630.14,715,746,0
8281,590.20,715,747,0
8291,547.37,715,746,0
8301,505.34,715,747,0
8311,464.87,715,746,0
8321,428.57,715,747,0
8331,396.25,715,746,0
8341,370.08,715,747,0
8351,349.14,715,745,0
8361,334.57,715,747,0
8371,325.23,715,746,0
8381,321.60,715,747,0
8391,322.19,715,746,0
8401,328.52,715,748,0
8411,336.85,715,746,0
8421,346.92,715,747,0
8431,356.89,715,745,0
8441,366.78,715,747,0
8451,374.95,715,746,0
8461,381.90,715,747,0
8471,384.89,715,745,0
8481,386.04,715,747,0
8492,384.57,715,745,0
8502,381.66,715,747,0
8512,376.57,715,745,0
8522,370.74,715,747,0
8532,363.41,715,745,0
8542,356.26,715,747,0
8552,348.68,715,745,0
8562,342.05,715,747,0
8572,335.69,715,745,0
8582,330.81,715,747,0
8592,326.63,715,745,0
8602,324.04,715,747,0
8612,322.01,715,745,0
8622,321.54,715,747,0
8632,321.59,715,745,0
8642,323.00,715,747,0
8652,324.67,715,745,0
8663,327.43,715,747,0
8673,330.34,715,745,0
8683,333.97,715,747,0
8693,337.36,715,745,0
8704,340.98,715,747,0
8713,343.90,715,745,0
8723,346.89,715,747,0
8733,348.76,715,745,0
8743,350.34,715,747,0
8753,350.92,715,745,0
8763,351.59,715,747,0
8773,352.70,715,745,0
8783,356.22,715,747,0
8793,362.84,715,745,0
8803,375.44,715,747,0
8813,395.32,715,745,0
8823,424.76,715,747,0
8833,461.94,715,745,0
8852,504.05,713,745,0
8854,547.75,713,746,0
8864,590.77,713,747,0
8875,629.96,713,745,0
8884,663.15,713,747,0
8894,688.09,713,745,0
8904,705.55,713,748,0
8914,717.73,713,745,0
8924,726.25,713,747,0
8934,732.22,713,745,0
8944,734.77,713,747,0
8954,731.88,713,745,0
8964,722.83,713,747,0
8974,706.72,713,745,0
8984,683.36,713,747,0
8994,652.61,713,745,0
9004,615.36,713,747,0
9014,573.46,713,745,0
9024,530.34,713,747,0
9034,487.89,713,745,0
9044,448.28,713,747,0
9054,412.93,713,745,0
9064,383.21,713,747,0
9074,359.49,713,745,0
9084,342.33,713,747,0
9094,331.51,713,745,0
9104,326.82,713,747,0
9114,327.39,713,745,0
9124,332.54,713,747,0
9134,340.82,713,745,0
9144,351.08,713,747,0
9154,362.02,713,745,0
9164,372.86,713,747,0
9175,382.50,713,745,0
9185,390.49,713,747,0
9195,396.00,713,745,0
9205,399.04,713,747,0
9216,399.29,713,745,0
9225,398.13,713,748,0
9235,395.39,713,746,0
9245,390.90,713,747,0
9255,385.10,713,746,0
9265,378.47,713,747,0
9275,371.52,713,746,0
9285,364.72,713,747,0
9295,357.47,713,746,0
9305,350.30,713,747,0
9315,344.04,713,746,0
9325,338.71,713,747,0
9335,334.60,713,746,0
9345,331.59,713,747,0
9355,329.61,713,746,0
9365,328.49,713,747,0
9375,328.21,713,746,0
9385,328.66,713,747,0
9395,329.71,713,747,0
9405,331.17,713,748,0
9415,332.79,713,746,0
9425,334.27,713,747,0
9435,335.56,713,746,0
9445,336.33,713,748,0
9455,336.83,713,746,0
9465,337.05,713,748,0
9475,337.60,713,746,0
9485,339.56,713,747,0
9495,344.88,713,746,0
9505,355.11,713,748,0
9516,372.57,713,746,0
9526,398.50,713,747,0
9536,434.09,713,747,0
9546,475.89,713,747,0
9556,520.88,713,747,0
9575,565.96,723,746,0
9577,608.57,723,748,0
9587,645.86,723,748,0
9597,675.81,723,747,0
9607,696.91,723,747,0
9617,711.72,723,747,0
9627,722.09,723,747,0
9637,729.35,723,747,0
9647,733.10,723,747,0
9657,731.87,723,747,0
9667,724.20,723,747,0
9677,709.78,723,747,0
9687,688.25,723,747,0
9697,659.80,723,746,0
9707,624.50,723,747,0
9717,584.41,723,747,0
9728,541.90,723,747,0
9737,500.27,723,747,0
9747,460.55,723,747,0
9757,424.60,723,747,0
9767,392.88,723,747,0
9777,366.77,723,747,0
9787,345.97,723,747,0
9797,331.53,723,747,0
9807,322.20,723,746,0
9817,318.37,723,747,0
9827,318.69,723,747,0
9837,323.24,723,747,0
9847,330.11,723,746,0
9857,339.12,723,747,0
9867,348.34,723,747,0
9877,357.62,723,747,0
9887,365.37,723,746,0
9897,371.77,723,747,0
9907,375.48,723,747,0
9917,377.27,723,747,0
9927,376.24,723,747,0
9937,373.64,723,747,0
9947,369.03,723,747,0
9957,363.50,723,747,0
9967,356.45,723,746,0
9977,349.41,723,747,0
9987,342.05,723,747,0
9997,335.65,723,747,0
10007,329.54,723,746,0
10017,324.79,723,747,0
10028,320.78,723,747,0
10038,318.62,723,747,0
10048,317.19,723,746,0
10058,317.30,723,747,0
10068,317.81,723,746,0
10078,319.37,723,747,0
10088,320.84,723,746,0
10098,323.29,723,747,0
10108,325.30,723,747,0
10118,327.87,723,747,0
10128,329.71,723,746,0
10138,331.90,723,747,0
10148,333.34,723,746,0
10158,335.00,723,747,0
10168,335.47,723,746,0
10178,336.01,723,747,0
10188,335.58,723,746,0
10199,335.79,723,747,0
10209,335.94,723,746,0
10219,338.53,723,747,0
10229,344.33,723,746,0
10240,356.62,723,747,0
10249,376.02,723,746,0
10259,405.24,723,748,0
10269,442.88,723,746,0
10289,486.46,713,745,0
10292,532.14,713,746,0
10301,577.48,713,748,0
10311,618.95,713,746,0
10321,654.75,713,748,0
10331,682.21,713,746,0
10341,701.48,713,748,0
10351,714.92,713,746,0
10361,724.37,713,748,0
10371,730.95,713,746,0
10381,734.09,713,748,0
10391,731.49,713,746,0
10401,722.17,713,748,0
10412,705.15,713,746,0
10422,680.50,713,748,0
10432,648.21,713,746,0
10442,608.93,713,748,0
10452,564.68,713,745,0
10462,519.35,713,748,0
10472,474.93,713,746,0
10482,433.77,713,748,0
10492,396.81,713,746,0
10502,366.09,713,748,0
10512,340.82,713,746,0
10522,321.55,713,748,0
10532,307.97,713,746,0
10542,300.35,713,747,0
10552,297.80,713,746,0
10562,299.96,713,747,0
10572,304.94,713,746,0
10583,312.93,713,747,0
10593,322.64,713,746,0
10603,333.16,713,747,0
10613,343.10,713,746,0
10624,351.81,713,747,0
10633,358.60,713,746,0
10643,363.05,713,747,0
10653,365.09,713,746,0
10663,364.68,713,747,0
10673,361.99,713,746,0
10683,357.49,713,747,0
10693,351.60,713,746,0
10703,344.69,713,747,0
10713,337.33,713,746,0
10723,329.90,713,747,0
10733,322.77,713,746,0
10743,316.24,713,747,0
10753,310.64,713,746,0
10763,306.16,713,747,0
10773,302.86,713,746,0
10783,300.67,713,747,0
10793,299.53,713,746,0
10803,299.28,713,747,0
10813,299.88,713,746,0
10823,300.95,713,747,0
10833,302.46,713,745,0
10843,304.25,713,747,0
10853,306.23,713,746,0
10863,308.31,713,747,0
10873,310.61,713,746,0
10883,312.92,713,747,0
10893,315.26,713,746,0
10903,317.36,713,747,0
10913,319.27,713,746,0
10924,320.73,713,747,0
10934,321.93,713,746,0
10944,322.76,713,746,0
10954,324.12,713,746,0
10964,327.00,713,747,0
10974,333.13,713,746,0
10984,344.32,713,746,0
10994,363.12,713,746,0
11004,390.90,713,747,0
11014,428.39,713,746,0
11033,471.86,745,745,0
11036,518.36,745,747,0
11045,564.84,745,747,0
11055,608.51,745,746,0
11065,646.33,745,746,0
11075,676.23,745,746,0
11085,697.16,745,747,0
11095,711.81,745,746,0
11105,722.07,745,746,0
11115,729.25,745,746,0
11125,734.27,745,747,0
11136,735.82,745,746,0
11145,731.89,745,746,0
11155,721.42,745,746,0
11165,703.17,745,746,0
11175,677.15,745,746,0
11185,643.63,745,746,0
11195,603.33,745,746,0
11205,558.44,745,746,0
11215,512.62,745,746,0
11225,467.99,745,746,0
11235,427.41,745,746,0
11245,391.76,745,747,0
11255,362.35,745,746,0
11265,338.97,745,746,0
11275,322.78,745,746,0
11285,312.73,745,746,0
11295,309.08,745,746,0
11305,310.30,745,746,0
11315,316.13,745,746,0
11325,324.40,745,746,0
11335,334.87,745,746,0
11345,345.32,745,746,0
11355,355.72,745,746,0
11365,364.29,745,747,0
11375,370.98,745,746,0
11385,374.50,745,746,0
11395,375.68,745,746,0
11405,373.72,745,746,0
11415,369.77,745,746,0
11425,363.24,745,746,0
11436,355.45,745,746,0
11446,346.23,745,746,0
11456,337.12,745,746,0
11466,327.53,745,746,0
11476,318.84,745,747,0
11486,310.45,745,746,0
11496,303.67,745,746,0
11506,297.64,745,746,0
11516,293.50,745,746,0
11526,290.05,745,746,0
11536,288.49,745,746,0
11546,287.66,745,746,0
11556,288.66,745,746,0
11566,290.01,745,746,0
11576,292.53,745,746,0
11586,294.94,745,746,0
11596,298.35,745,746,0
11607,301.41,745,746,0
11617,305.02,745,747,0
11627,307.80,745,745,0
11637,310.86,745,747,0
11648,313.13,745,746,0
11657,315.92,745,747,0
11667,318.69,745,746,0
11677,323.79,745,747,0
11687,332.00,745,746,0
11697,346.06,745,747,0
11707,367.04,745,746,0
11717,397.84,745,747,0
11727,437.06,745,746,0
11737,481.87,745,747,0
11747,528.58,745,746,0
11766,574.65,733,744,0
11769,616.97,733,746,0
11778,653.41,733,747,0
11788,681.18,733,746,0
11798,700.63,733,747,0
11808,714.24,733,746,0
11819,723.77,733,747,0
11828,730.44,733,746,0
11838,735.11,733,747,0
11848,736.40,733,745,0
11858,732.60,733,747,0
11868,722.09,733,746,0
11878,704.28,733,746,0
11888,678.35,733,745,0
11898,645.07,733,747,0
11908,604.42,733,745,0
11918,559.51,733,746,0
11928,512.81,733,745,0
11938,468.00,733,747,0
11948,426.43,733,746,0
11958,390.60,733,746,0
11968,360.33,733,745,0
11978,337.22,733,747,0
11988,320.65,733,745,0
11998,311.33,733,746,0
12008,307.67,733,746,0
12018,309.87,733,747,0
12028,315.95,733,745,0
12038,325.78,733,747,0
12048,337.08,733,746,0
12058,349.40,733,747,0
12068,360.85,733,746,0
12078,371.27,733,747,0
12088,378.94,733,746,0
12098,384.45,733,747,0
12108,386.58,733,746,0
12119,386.37,733,747,0
12129,383.04,733,745,0
12139,377.80,733,747,0
12149,370.36,733,746,0
12160,362.07,733,747,0
12169,352.62,733,746,0
12179,343.48,733,748,0
12189,334.20,733,746,0
12199,326.00,733,747,0
12209,318.37,733,746,0
12219,312.17,733,748,0
12229,306.89,733,746,0
12239,303.33,733,747,0
12249,300.57,733,746,0
12259,299.20,733,747,0
12269,298.50,733,746,0
12279,298.90,733,747,0
12289,299.62,733,746,0
12299,301.32,733,748,0
12309,303.02,733,746,0
12319,305.33,733,747,0
12329,307.50,733,746,0
12339,310.14,733,748,0
12349,312.45,733,746,0
12359,314.97,733,747,0
12369,316.87,733,746,0
12379,318.96,733,748,0
12389,321.20,733,746,0
12399,325.56,733,747,0
12409,333.15,733,746,0
12419,346.56,733,748,0
12429,367.43,733,746,0
12439,398.29,733,748,0
12449,437.63,733,746,0
12460,482.57,733,748,0
12470,529.63,733,746,0
12489,575.94,723,745,0
12492,618.60,723,747,0
12502,655.02,723,748,0
12511,682.53,723,746,0
12521,701.78,723,748,0
12531,715.26,723,746,0
12541,724.70,723,748,0
12551,731.35,723,746,0
12561,735.96,723,748,0
12571,739.18,723,746,0
12581,741.40,723,748,0
12591,739.57,723,746,0
12601,731.47,723,747,0
12611,715.68,723,746,0
12621,691.44,723,747,0
12631,659.16,723,746,0
12641,619.17,723,747,0
12651,572.36,723,746,0
12661,523.01,723,747,0
12672,474.79,723,746,0
12681,430.41,723,747,0
12691,392.02,723,746,0
12701,360.34,723,747,0
12711,336.24,723,746,0
12721,319.67,723,747,0
12731,310.42,723,745,0
12741,307.60,723,747,0
12751,310.33,723,746,0
12761,317.18,723,747,0
12771,326.85,723,745,0
12781,337.87,723,747,0
12791,349.14,723,746,0
12801,359.51,723,747,0
12811,368.23,723,745,0
12821,374.59,723,747,0
12831,378.35,723,746,0
12841,379.32,723,747,0
12851,377.85,723,745,0
12861,373.95,723,748,0
12871,368.10,723,746,0
12881,360.52,723,747,0
12891,352.01,723,745,0
12901,343.05,723,747,0
12911,334.33,723,746,0
12921,325.83,723,747,0
12931,318.26,723,746,0
12941,311.66,723,748,0
12951,306.49,723,746,0
12961,302.40,723,747,0
12972,299.62,723,746,0
12982,297.77,723,747,0
12992,297.11,723,746,0
13002,297.12,723,747,0
13012,298.07,723,746,0
13022,299.38,723,747,0
13032,301.45,723,746,0
13042,303.67,723,747,0
13052,306.90,723,746,0
13062,310.44,723,747,0
13072,314.47,723,747,0
13082,317.93,723,747,0
13092,321.21,723,746,0
13102,323.54,723,747,0
13112,325.48,723,746,0
13122,326.07,723,747,0
13132,326.09,723,746,0
13143,325.12,723,747,0
13153,324.40,723,746,0
13163,323.46,723,747,0
13173,323.24,723,746,0
13184,323.47,723,747,0
13193,325.73,723,747,0
13203,330.69,723,747,0
13213,341.24,723,746,0
13223,358.74,723,747,0
13233,385.65,723,747,0
13243,422.27,723,747,0
13262,465.60,773,745,0
13265,512.18,773,747,0
13274,559.48,773,747,0
13284,603.95,773,747,0
13294,642.97,773,747,0
13304,673.92,773,747,0
13314,695.63,773,747,0
13324,710.87,773,747,0
13334,721.58,773,747,0
13344,729.03,773,747,0
13355,734.30,773,747,0
13364,738.02,773,747,0
13374,740.63,773,747,0
13384,742.41,773,746,0
13394,742.37,773,747,0
13404,737.46,773,747,0
13414,726.14,773,747,0
13424,706.51,773,746,0
13434,678.80,773,747,0
13444,642.99,773,747,0
13454,600.09,773,747,0
13464,551.72,773,746,0
13474,502.78,773,747,0
13484,455.70,773,747,0
13494,414.18,773,747,0
13504,378.85,773,746,0
13514,351.47,773,747,0
13524,331.44,773,746,0
13534,319.61,773,747,0
13544,314.16,773,746,0
13554,315.27,773,747,0
13564,320.71,773,746,0
13574,329.93,773,747,0
13584,340.45,773,746,0
13594,352.10,773,747,0
13604,362.48,773,746,0
13614,371.77,773,747,0
13624,377.97,773,746,0
13634,381.70,773,747,0
13644,381.92,773,746,0
13655,379.80,773,747,0
13665,374.46,773,746,0
13675,367.59,773,747,0
13685,358.76,773,746,0
13696,349.66,773,747,0
13705,339.86,773,746,0
13715,330.95,773,747,0
13725,322.35,773,746,0
13735,315.47,773,747,0
13745,309.33,773,746,0
13755,305.16,773,748,0
13765,301.85,773,746,0
13775,300.40,773,747,0
13785,299.64,773,746,0
13795,300.35,773,747,0
13805,301.27,773,746,0
13815,303.46,773,747,0
13825,305.47,773,746,0
13835,308.45,773,747,0
13845,311.02,773,746,0
13855,313.97,773,747,0
13865,316.34,773,745,0
13875,319.62,773,747,0
13885,323.72,773,746,0
13895,331.22,773,747,0
13905,342.60,773,745,0
13915,360.85,773,747,0
13925,386.91,773,746,0
13935,423.06,773,747,0
13945,465.43,773,746,0
13955,511.42,773,747,0
13965,557.49,773,746,0
13984,601.44,722,745,0
13986,640.18,722,747,0
13996,671.88,722,747,0
14006,694.25,722,746,0
14016,709.94,722,748,0
14026,720.89,722,745,0
14036,728.59,722,748,0
14046,733.94,722,746,0
14056,737.73,722,747,0
14066,736.87,722,745,0
14076,729.84,722,747,0
14086,715.10,722,746,0
14096,692.40,722,747,0
14106,661.17,722,745,0
14116,622.24,722,747,0
14126,575.97,722,746,0
14136,527.17,722,747,0
14146,478.47,722,745,0
14156,433.25,722,747,0
14167,392.84,722,746,0
14177,359.46,722,747,0
14187,333.14,722,746,0
14197,314.84,722,747,0
14208,303.87,722,746,0
14217,300.31,722,747,0
14227,302.49,722,746,0
14237,309.93,722,747,0
14247,320.49,722,746,0
14257,333.46,722,747,0
14267,346.61,722,746,0
14277,359.37,722,747,0
14287,370.06,722,746,0
14297,378.61,722,747,0
14307,383.87,722,746,0
14317,386.31,722,747,0
14327,385.36,722,746,0
14337,382.08,722,747,0
14347,376.18,722,746,0
14357,368.84,722,747,0
14367,360.06,722,746,0
14377,350.87,722,748,0
14387,341.35,722,746,0
14397,332.42,722,747,0
14407,323.85,722,746,0
14417,316.52,722,748,0
14427,310.07,722,746,0
14437,305.08,722,747,0
14447,301.24,722,746,0
14457,298.98,722,748,0
14467,297.66,722,746,0
14477,297.72,722,747,0
14487,298.27,722,746,0
14497,299.78,722,747,0
14508,301.60,722,745,0
14518,304.04,722,747,0
14528,306.51,722,746,0
14538,309.36,722,747,0
14548,312.12,722,746,0
14558,315.17,722,747,0
14568,317.99,722,746,0
14578,320.78,722,747,0
14588,323.20,722,746,0
14598,325.46,722,747,0
14608,327.29,722,746,0
14618,328.79,722,747,0
14628,329.75,722,746,0
14638,330.43,722,747,0
14648,330.86,722,746,0
14658,331.88,722,747,0
14668,334.75,722,746,0
14679,341.55,722,747,0
14689,354.50,722,746,0
14699,376.25,722,747,0
14709,408.83,722,746,0
14729,449.38,744,745,0
14732,494.78,744,748,0
14741,542.03,744,747,0
14751,588.05,744,746,0
14761,629.82,744,747,0
14771,664.29,744,746,0
14781,688.89,744,747,0
14791,706.11,744,747,0
14801,718.12,744,746,0
14811,726.57,744,746,0
14821,732.48,744,747,0
14831,736.67,744,746,0
14841,739.55,744,746,0
14851,741.62,744,746,0
14861,743.06,744,747,0
14871,744.11,744,747,0
14881,741.38,744,746,0
14892,732.82,744,746,0
14902,716.38,744,747,0
14912,691.75,744,746,0
14922,658.57,744,746,0
14932,618.11,744,747,0
14942,570.81,744,747,0
14952,521.66,744,747,0
14962,473.64,744,746,0
14972,430.67,744,747,0
14982,393.79,744,747,0
14992,364.92,744,746,0
15002,343.35,744,746,0
15012,329.78,744,747,0
15022,322.61,744,747,0
15032,321.91,744,747,0
15042,325.28,744,746,0
15052,332.35,744,747,0
15063,340.65,744,746,0
15073,349.84,744,747,0
15083,357.86,744,745,0
15093,365.02,744,747,0
15104,369.55,744,746,0
15113,372.30,744,747,0
15123,372.13,744,745,0
15133,370.37,744,747,0
15143,366.19,744,746,0
15153,360.99,744,747,0
15163,354.14,744,746,0
15173,347.02,744,747,0
15183,339.00,744,746,0
15193,331.67,744,747,0
15203,324.14,744,745,0
15213,318.01,744,747,0
15223,312.18,744,746,0
15233,307.80,744,747,0
15243,304.04,744,746,0
15253,301.97,744,747,0
15263,300.48,744,746,0
15273,300.55,744,747,0
15283,300.86,744,746,0
15293,302.49,744,747,0
15303,304.27,744,746,0
15313,307.06,744,747,0
15323,309.57,744,746,0
15333,312.70,744,747,0
15343,315.88,744,746,0
15353,319.17,744,747,0
15363,321.65,744,746,0
15373,324.80,744,747,0
15383,328.59,744,746,0
15393,335.52,744,747,0
15404,346.30,744,745,0
15414,363.61,744,747,0
15424,389.22,744,746,0
15434,425.20,744,747,0
15444,467.44,744,746,0
15454,513.29,744,747,0
15473,559.36,745,746,0
15475,603.44,745,749,0
15485,642.05,745,745,0
15495,673.28,745,747,0
15505,695.14,745,746,0
15515,710.44,745,747,0
15525,721.15,745,746,0
15535,728.65,745,747,0
15545,733.85,745,746,0
15555,737.54,745,747,0
15565,736.61,745,746,0
15575,729.82,745,747,0
15585,715.35,745,745,0
15595,693.00,745,747,0
15605,662.40,745,746,0
15616,624.14,745,747,0
15625,578.71,745,746,0
15635,530.93,745,747,0
15645,483.08,745,746,0
15655,438.83,745,747,0
15665,399.36,745,746,0
15675,366.73,745,747,0
15685,341.14,745,745,0
15695,323.35,745,747,0
15705,312.53,745,746,0
15715,308.90,745,747,0
15725,310.86,745,746,0
15735,317.97,745,747,0
15745,328.14,745,745,0
15755,340.78,745,747,0
15765,353.83,745,745,0
15775,366.78,745,747,0
15785,377.86,745,745,0
15795,386.99,745,747,0
15805,392.82,745,746,0
15815,395.92,745,747,0
15825,395.47,745,745,0
15835,392.50,745,747,0
15845,386.74,745,746,0
15855,379.32,745,747,0
15865,370.14,745,746,0
15875,360.62,745,747,0
15885,350.62,745,745,0
15895,341.48,745,747,0
15905,332.81,745,746,0
15916,325.49,745,747,0
15926,319.17,745,745,0
15936,314.45,745,747,0
15946,310.97,745,745,0
15956,309.14,745,747,0
15966,308.20,745,745,0
15976,308.61,745,747,0
15986,309.80,745,745,0
15996,311.92,745,747,0
16006,314.34,745,745,0
16016,317.15,745,747,0
16026,319.94,745,745,0
16036,322.83,745,747,0
16046,325.41,745,745,0
16056,327.98,745,747,0
16066,330.30,745,745,0
16076,332.66,745,747,0
16087,334.60,745,745,0
16097,336.31,745,746,0
16107,337.59,745,745,0
16117,338.48,745,747,0
16128,338.89,745,745,0
16137,339.01,745,746,0
16147,339.05,745,745,0
16157,339.85,745,747,0
16167,342.81,745,745,0
16177,349.47,745,746,0
16187,362.10,745,745,0
16197,382.98,745,747,0
16207,414.10,745,745,0
16217,453.11,745,747,0
16236,497.01,763,745,0
16239,542.69,763,747,0
16248,587.53,763,746,0
16258,628.47,763,746,0
16268,662.61,763,745,0
16278,687.54,763,746,0
16288,705.04,763,745,0
16299,717.24,763,746,0
16308,725.78,763,745,0
16318,731.76,763,746,0
16328,735.99,763,745,0
16338,738.91,763,746,0
16348,740.95,763,745,0
16358,739.98,763,746,0
16368,733.60,763,745,0
16378,719.92,763,746,0
16388,698.64,763,745,0
16398,669.39,763,747,0
16408,632.68,763,746,0
16418,588.97,763,746,0
16428,541.80,763,745,0
16438,494.71,763,746,0
16448,451.13,763,746,0
16458,412.48,763,746,0
16468,380.75,763,746,0
16478,356.22,763,747,0
16488,339.48,763,746,0
16498,329.91,763,746,0
16508,327.19,763,746,0
16518,329.66,763,747,0
16528,336.49,763,746,0
16538,345.65,763,746,0
16548,356.38,763,745,0
16558,366.85,763,746,0
16568,376.28,763,745,0
16578,383.35,763,746,0
16588,388.22,763,745,0
16599,390.00,763,746,0
16609,389.27,763,746,0
16619,385.50,763,746,0
16629,379.91,763,746,0
16640,372.44,763,746,0
16649,364.46,763,746,0
16659,355.88,763,746,0
16669,347.82,763,746,0
16679,339.99,763,746,0
16689,333.30,763,746,0
16699,327.21,763,746,0
16709,322.61,763,746,0
16719,318.48,763,746,0
16729,315.59,763,746,0
16739,313.27,763,746,0
16749,312.29,763,745,0
16759,311.82,763,746,0
16769,312.47,763,746,0
16779,313.45,763,746,0
16789,315.54,763,745,0
16799,317.69,763,746,0
16809,320.57,763,746,0
16819,323.06,763,746,0
16829,325.91,763,745,0
16839,328.17,763,746,0
16849,330.39,763,746,0
16859,331.77,763,746,0
16869,333.34,763,745,0
16879,334.82,763,746,0
16889,338.18,763,746,0
16899,344.21,763,746,0
16909,355.72,763,745,0
16919,374.06,763,746,0
16929,402.16,763,746,0
16940,439.10,763,746,0
16950,481.92,763,746,0
16960,527.29,763,746,0
16979,572.76,743,745,0
16983,615.05,743,746,0
16991,651.85,743,746,0
17001,680.09,743,746,0
17011,699.86,743,747,0
17021,713.71,743,745,0
17031,723.39,743,746,0
17041,730.18,743,745,0
17051,734.92,743,747,0
17061,738.25,743,745,0
17071,738.43,743,746,0
17081,732.69,743,746,0
17091,719.97,743,747,0
17101,698.98,743,745,0
17111,670.35,743,746,0
17121,633.69,743,745,0
17131,590.20,743,747,0
17141,542.40,743,745,0
17152,494.88,743,746,0
17161,449.70,743,745,0
17171,409.93,743,747,0
17181,375.75,743,745,0
17191,349.26,743,746,0
17201,329.72,743,746,0
17211,318.15,743,747,0
17221,313.05,743,745,0
17231,314.58,743,746,0
17241,320.45,743,745,0
17251,330.38,743,747,0
17261,342.05,743,745,0
17271,354.98,743,746,0
17281,366.86,743,745,0
17291,377.83,743,747,0
17301,385.94,743,745,0
17311,391.78,743,746,0
17321,394.08,743,745,0
17331,393.88,743,747,0
17341,390.49,743,745,0
17351,385.33,743,747,0
17361,377.82,743,745,0
17371,369.56,743,747,0
17381,360.13,743,745,0
17391,351.14,743,746,0
17401,341.84,743,745,0
17411,334.13,743,747,0
17421,327.06,743,745,0
17431,321.81,743,747,0
17441,317.41,743,745,0
17452,315.02,743,747,0
17462,313.38,743,745,0
17472,313.53,743,747,0
17482,313.84,743,745,0
17492,315.30,743,747,0
17502,316.75,743,745,0
17512,319.01,743,747,0
17522,320.98,743,745,0
17532,323.64,743,747,0
17542,325.89,743,745,0
17552,328.75,743,747,0
17562,331.19,743,745,0
17572,333.92,743,747,0
17582,336.00,743,746,0
17592,338.27,743,747,0
17602,339.56,743,745,0
17612,340.89,743,747,0
17623,341.18,743,745,0
17633,341.64,743,747,0
17643,341.41,743,745,0
17653,341.41,743,747,0
17664,340.95,743,745,0
17673,341.69,743,747,0
17683,343.76,743,745,0
17693,349.91,743,747,0
17703,361.21,743,745,0
17713,380.82,743,747,0
17723,409.89,743,745,0
17742,447.72,763,744,0
17745,490.75,763,746,0
17754,536.51,763,747,0
17764,581.49,763,745,0
17774,623.08,763,747,0
17784,658.07,763,745,0
17794,684.45,763,747,0
17804,702.92,763,745,0
17814,715.88,763,747,0
17824,724.96,763,745,0
17835,731.32,763,747,0
17844,735.81,763,745,0
17854,738.95,763,747,0
17864,741.19,763,745,0
17874,742.81,763,747,0
17884,741.02,763,745,0
17894,733.86,763,747,0
17904,719.33,763,745,0
17914,696.82,763,747,0
17924,666.19,763,745,0
17934,627.99,763,747,0
17944,582.95,763,745,0
17954,535.14,763,747,0
17964,487.82,763,745,0
17974,444.42,763,747,0
17984,406.58,763,745,0
17994,375.76,763,747,0
18004,352.31,763,745,0
18014,336.40,763,747,0
18024,327.37,763,745,0
18034,324.56,763,747,0
18044,326.70,763,745,0
18054,332.92,763,747,0
18064,341.52,763,745,0
18074,351.43,763,747,0
18084,361.25,763,745,0
18094,370.30,763,747,0
18104,377.58,763,745,0
18114,382.72,763,747,0
18124,385.12,763,745,0
18135,384.83,763,747,0
18145,381.92,763,745,0
18155,376.89,763,747,0
18165,370.11,763,745,0
18176,362.19,763,747,0
18185,353.65,763,745,0
18195,345.10,763,747,0
18205,337.22,763,745,0
18215,330.17,763,747,0
18225,324.29,763,745,0
18235,319.58,763,747,0
18245,316.32,763,745,0
18255,314.21,763,747,0
18265,313.46,763,746,0
18275,313.66,763,747,0
18285,314.75,763,745,0
18295,316.33,763,747,0
18305,318.33,763,745,0
18315,320.59,763,747,0
18325,323.11,763,745,0
18335,325.43,763,747,0
18345,327.75,763,745,0
18355,330.01,763,747,0
18365,332.15,763,745,0
18375,333.73,763,747,0
18385,334.84,763,745,0
18395,335.75,763,747,0
18405,337.41,763,745,0
18415,340.80,763,747,0
18425,347.76,763,746,0
18435,360.00,763,747,0
18445,379.85,763,745,0
18455,408.56,763,747,0
18465,446.11,763,746,0
18476,488.89,763,747,0
18495,534.01,753,746,0
18497,578.36,753,747,0
18507,619.53,753,746,0
18518,654.81,753,747,0
18527,682.25,753,746,0
18537,701.42,753,746,0
18547,714.88,753,746,0
18557,724.30,753,746,0
18567,730.94,753,746,0
18577,734.04,753,746,0
18587,731.84,753,746,0
18597,722.42,753,746,0
18607,705.45,753,746,0
18617,680.12,753,746,0
18627,647.12,753,746,0
18637,606.50,753,746,0
18647,561.09,753,746,0
18657,513.79,753,746,0
18667,468.47,753,746,0
18677,426.46,753,747,0
18688,390.41,753,746,0
18697,360.54,753,746,0
18707,338.26,753,746,0
18717,322.84,753,746,0
18727,315.05,753,746,0
18737,313.28,753,746,0
18747,317.65,753,746,0
18757,326.16,753,746,0
18767,338.37,753,746,0
18777,352.14,753,746,0
18787,366.84,753,746,0
18797,380.26,753,746,0
18807,392.31,753,746,0
18817,401.22,753,746,0
18827,407.32,753,746,0
18837,409.46,753,746,0
18847,408.68,753,746,0
18857,404.27,753,746,0
18867,397.72,753,746,0
18877,388.85,753,746,0
18887,379.16,753,746,0
18897,368.27,753,746,0
18907,357.82,753,746,0
18917,347.33,753,746,0
18927,338.32,753,746,0
18937,329.95,753,746,0
18947,323.45,753,746,0
18957,318.09,753,747,0
18967,314.85,753,746,0
18977,312.58,753,746,0
18988,312.02,753,746,0
18998,312.06,753,746,0
19008,313.67,753,747,0
19018,315.52,753,746,0
19028,318.24,753,746,0
19038,320.65,753,746,0
19048,323.67,753,747,0
19058,326.08,753,746,0
19068,328.84,753,747,0
19078,330.91,753,746,0
19088,333.08,753,747,0
19098,334.38,753,746,0
19108,336.02,753,747,0
19118,336.83,753,746,0
19128,337.82,753,746,0
19138,337.96,753,746,0
19148,338.15,753,746,0
19159,337.67,753,746,0
19169,338.16,753,747,0
19179,339.57,753,745,0
19189,344.71,753,747,0
19200,354.74,753,746,0
19209,372.56,753,747,0
19219,399.39,753,746,0
19229,436.05,753,747,0
19249,478.55,753,746,0
19251,524.37,753,747,0
19261,569.90,753,745,0
19271,612.70,753,747,0
19281,649.73,753,746,0
19291,678.83,753,747,0
19301,699.15,753,745,0
19311,713.42,753,747,0
19321,723.41,753,746,0
19331,730.44,753,747,0
19341,735.32,753,746,0
19351,738.74,753,747,0
19361,740.40,753,746,0
19372,737.88,753,747,0
19382,728.62,753,745,0
19392,711.80,753,747,0
19402,686.58,753,745,0
19412,653.62,753,747,0
19422,613.15,753,745,0
19432,566.95,753,747,0
19442,518.66,753,745,0
19452,472.31,753,747,0
19462,430.00,753,746,0
19472,394.17,753,747,0
19482,365.02,753,745,0
19492,343.54,753,747,0
19502,329.79,753,745,0
19512,322.87,753,747,0
19522,321.79,753,745,0
19532,325.84,753,747,0
19543,333.43,753,745,0
19553,343.55,753,747,0
19563,354.61,753,745,0
19573,365.10,753,747,0
19584,374.50,753,745,0
19593,382.19,753,747,0
19603,387.32,753,745,0
19613,389.71,753,747,0
19623,389.37,753,745,0
19633,386.73,753,747,0
19643,381.92,753,745,0
19653,375.60,753,747,0
19663,368.18,753,745,0
19673,360.24,753,747,0
19683,352.07,753,745,0
19693,344.08,753,747,0
19703,336.51,753,745,0
19713,330.01,753,747,0
19723,324.74,753,745,0
19733,320.75,753,747,0
19743,318.08,753,745,0
19753,316.64,753,747,0
19763,316.41,753,745,0
19773,317.10,753,747,0
19783,318.44,753,745,0
19793,320.37,753,746,0
19803,322.40,753,745,0
19813,324.42,753,747,0
19823,326.44,753,745,0
19833,328.24,753,747,0
19843,329.79,753,745,0
19853,331.14,753,747,0
19863,332.13,753,745,0
19873,333.25,753,746,0
19884,334.93,753,745,0
19894,338.68,753,747,0
19904,345.85,753,745,0
19914,358.28,753,746,0
19924,378.17,753,746,0
19934,406.62,753,747,0
19944,443.85,753,745,0
19954,486.62,753,746,0
19964,531.69,753,746,0
19983,576.40,735,744,0
19985,618.02,735,747,0
19995,653.54,735,746,0
20005,681.45,735,746,0
20015,700.99,735,747,0
20025,714.71,735,746,0
20035,724.27,735,746,0
20045,731.00,735,746,0
20055,735.63,735,747,0
20065,736.77,735,746,0
20075,732.12,735,746,0
20085,720.43,735,746,0
20096,700.54,735,746,0
20105,672.91,735,746,0
20115,637.41,735,746,0
20125,595.03,735,746,0
20135,548.22,735,746,0
20145,501.18,735,746,0
20155,456.30,735,746,0
20165,416.44,735,746,0
20175,382.11,735,746,0
20185,354.95,735,746,0
20195,334.73,735,746,0
20205,322.51,735,746,0
20215,316.62,735,746,0
20225,317.03,735,745,0
20235,322.12,735,746,0
20245,331.47,735,746,0
20255,342.90,735,746,0
20265,355.83,735,746,0
20275,367.97,735,746,0
20285,379.29,735,745,0
20295,388.25,735,746,0
20305,394.99,735,746,0
20315,398.38,735,747,0
20325,399.12,735,745,0
20335,396.47,735,746,0
20345,391.74,735,746,0
20355,384.71,735,746,0
20365,376.65,735,745,0
20375,367.16,735,746,0
20385,357.72,735,746,0
20396,347.99,735,746,0
20406,339.59,735,746,0
20416,331.66,735,746,0
20426,325.63,735,746,0
20436,320.47,735,746,0
20446,317.50,735,746,0
20456,315.34,735,746,0
20466,314.85,735,746,0
20476,314.77,735,746,0
20486,316.17,735,745,0
20496,317.57,735,746,0
20506,320.06,735,746,0
20516,322.10,735,746,0
20526,324.81,735,745,0
20536,327.18,735,746,0
20546,330.08,735,746,0
20556,332.29,735,746,0
20567,334.82,735,746,0
20577,336.50,735,746,0
20587,338.49,735,746,0
20597,339.59,735,745,0
20608,340.91,735,746,0
20617,341.20,735,745,0
20627,341.74,735,746,0
20637,341.39,735,745,0
20647,341.91,735,746,0
20657,342.93,735,746,0
20667,347.49,735,746,0
20677,356.26,735,745,0
20687,372.81,735,746,0
20697,397.51,735,746,0
20707,432.50,735,746,0
20726,473.71,743,745,0
20728,518.79,743,748,0
20738,564.07,743,745,0
20748,607.25,743,747,0
20758,644.76,743,745,0
20768,675.09,743,746,0
20779,696.32,743,745,0
20788,711.18,743,747,0
20798,721.63,743,745,0
20808,728.94,743,746,0
20818,734.06,743,745,0
20828,737.64,743,747,0
20838,739.03,743,745,0
20848,736.19,743,746,0
20858,726.71,743,745,0
20868,710.51,743,746,0
20878,686.40,743,745,0
20888,655.21,743,746,0
20898,617.00,743,745,0
20908,574.23,743,747,0
20918,529.42,743,745,0
20928,486.82,743,746,0
20938,447.10,743,745,0
20948,413.17,743,747,0
20958,384.84,743,745,0
20968,363.41,743,746,0
20978,347.95,743,745,0
20988,339.61,743,747,0
20998,336.51,743,746,0
21008,339.19,743,747,0
21018,345.30,743,745,0
21028,354.68,743,747,0
21038,365.02,743,746,0
21048,376.03,743,747,0
21058,385.32,743,745,0
21068,393.32,743,747,0
21079,398.11,743,745,0
21089,400.56,743,747,0
21099,399.58,743,745,0
21109,396.45,743,747,0
21120,390.66,743,745,0
21129,383.82,743,747,0
21139,375.39,743,745,0
21149,366.87,743,747,0
21159,358.00,743,745,0
21169,350.03,743,747,0
21179,342.47,743,745,0
21189,336.38,743,747,0
21199,330.99,743,745,0
21209,327.35,743,747,0
21219,324.72,743,745,0
21229,323.82,743,747,0
21239,323.57,743,745,0
21249,324.64,743,747,0
21259,326.08,743,745,0
21269,328.58,743,747,0
21279,331.02,743,745,0
21289,333.97,743,747,0
21299,336.38,743,745,0
21309,339.14,743,747,0
21319,341.20,743,745,0
21329,343.37,743,747,0
21339,344.88,743,745,0
21349,347.23,743,747,0
21359,350.85,743,745,0
21369,358.05,743,747,0
21379,369.56,743,745,0
21389,388.42,743,747,0
21399,415.21,743,745,0
21409,451.02,743,747,0
21420,492.11,743,745,0
21430,535.84,743,747,0
21449,579.00,723,746,0
21451,619.59,723,748,0
21462,654.47,723,745,0
21471,682.18,723,747,0
21481,701.59,723,745,0
21491,715.17,723,747,0
21501,724.67,723,745,0
21511,730.60,723,747,0
21521,730.81,723,745,0
21531,724.18,723,747,0
21541,709.77,723,745,0
21551,687.64,723,747,0
21561,657.75,723,745,0
21571,620.54,723,747,0
21581,577.30,723,745,0
21591,532.17,723,747,0
21601,487.46,723,745,0
21611,445.67,723,747,0
21621,408.18,723,745,0
21632,376.28,723,747,0
21641,350.70,723,745,0
21651,332.02,723,747,0
21661,320.06,723,745,0
21671,314.81,723,747,0
21681,315.38,723,745,0
21691,321.10,723,747,0
21701,330.71,723,745,0
21711,342.97,723,747,0
21721,356.39,723,745,0
21731,369.73,723,747,0
21741,382.03,723,745,0
21751,392.43,723,747,0
21761,399.93,723,745,0
21771,404.54,723,747,0
21781,406.05,723,745,0
21791,404.62,723,747,0
21801,400.53,723,745,0
21811,394.12,723,747,0
21821,386.07,723,745,0
21831,377.09,723,747,0
21841,367.81,723,745,0
21851,358.61,723,747,0
21861,349.90,723,745,0
21871,342.13,723,747,0
21881,335.62,723,745,0
21891,330.63,723,747,0
21901,327.06,723,745,0
21911,324.64,723,747,0
21921,323.51,723,745,0
21932,323.44,723,747,0
21942,324.25,723,745,0
21952,325.59,723,747,0
21962,327.38,723,745,0
21972,329.28,723,747,0
21982,331.38,723,745,0
21992,333.41,723,747,0
22002,335.65,723,746,0
22012,337.64,723,747,0
22022,339.76,723,745,0
22032,341.46,723,747,0
22042,343.34,723,745,0
22052,344.82,723,747,0
22062,346.20,723,745,0
22072,347.21,723,747,0
22082,348.09,723,745,0
22092,348.36,723,747,0
22103,348.81,723,745,0
22113,349.55,723,747,0
22123,352.60,723,746,0
22133,359.24,723,747,0
22144,372.24,723,746,0
22153,393.17,723,747,0
22163,424.27,723,746,0
22173,462.93,723,747,0
22193,506.41,743,745,0
22195,551.37,743,746,0
22205,595.32,743,746,0
22215,634.74,743,746,0
22225,667.56,743,746,0
22235,691.31,743,746,0
22245,707.93,743,746,0
22255,719.52,743,746,0
22265,727.68,743,747,0
22275,733.39,743,746,0
22285,737.39,743,747,0
22295,740.19,743,746,0
22305,742.19,743,747,0
22316,740.89,743,745,0
22326,734.88,743,747,0
22336,722.10,743,746,0
22346,702.31,743,747,0
22356,674.71,743,745,0
22366,640.25,743,747,0
22376,598.78,743,745,0
22386,554.40,743,746,0
22396,509.11,743,745,0
22406,466.73,743,747,0
22416,428.07,743,745,0
22426,395.91,743,747,0
22436,369.53,743,745,0
22446,350.52,743,747,0
22456,337.46,743,746,0
22466,331.15,743,747,0
22476,329.56,743,745,0
22487,332.91,743,747,0
22497,338.68,743,745,0
22507,346.92,743,747,0
22517,355.43,743,745,0
22528,364.30,743,747,0
22537,371.62,743,745,0
22547,377.82,743,747,0
22557,381.43,743,745,0
22567,383.15,743,747,0
22577,382.03,743,745,0
22587,379.41,743,747,0
22597,374.49,743,745,0
22607,368.64,743,747,0
22617,361.38,743,745,0
22627,354.15,743,747,0
22637,346.60,743,745,0
22647,340.08,743,747,0
22657,333.58,743,745,0
22667,328.70,743,747,0
22677,324.46,743,745,0
22687,321.96,743,747,0
22697,320.17,743,745,0
22707,319.86,743,747,0
22717,320.12,743,745,0
22727,321.71,743,747,0
22737,323.34,743,745,0
22747,325.85,743,747,0
22757,328.13,743,745,0
22767,330.96,743,747,0
22777,333.33,743,745,0
22787,335.89,743,747,0
22797,337.81,743,745,0
22807,340.14,743,747,0
22817,341.60,743,745,0
22828,343.17,743,747,0
22838,344.02,743,745,0
22848,345.90,743,747,0
22858,349.36,743,745,0
22868,357.01,743,747,0
22878,369.48,743,745,0
22888,390.12,743,747,0
22898,419.44,743,745,0
22908,457.28,743,747,0
22918,499.88,743,745,0
22937,544.53,745,744,0
22940,588.00,745,746,0
22949,628.11,745,747,0
22959,661.72,745,745,0
22969,687.35,745,748,0
22979,705.29,745,745,0
22989,717.84,745,747,0
22999,726.63,745,745,0
23009,732.74,745,747,0
23019,736.25,745,745,0
23029,735.23,745,747,0
23040,728.18,745,745,0
23049,714.71,745,747,0
23059,694.01,745,745,0
23069,666.24,745,747,0
23079,631.67,745,745,0
23089,591.82,745,747,0
23099,549.53,745,745,0
23109,507.72,745,747,0
23119,467.56,745,745,0
23129,431.09,745,747,0
23139,399.01,745,745,0
23149,372.22,745,747,0
23159,350.94,745,745,0
23169,335.53,745,747,0
23179,325.56,745,745,0
23189,321.06,745,747,0
23199,321.21,745,745,0
23209,325.39,745,747,0
23219,332.30,745,745,0
23229,341.08,745,747,0
23239,350.53,745,745,0
23249,359.89,745,747,0
23259,368.06,745,745,0
23269,374.64,745,747,0
23279,378.99,745,745,0
23289,381.27,745,747,0
23299,380.97,745,745,0
23309,378.62,745,747,0
23319,374.28,745,745,0
23329,368.37,745,747,0
23340,361.31,745,745,0
23350,353.72,745,747,0
23360,346.00,745,745,0
23370,338.67,745,747,0
23380,332.17,745,746,0
23390,326.59,745,747,0
23400,322.34,745,745,0
23410,319.20,745,747,0
23420,317.55,745,745,0
23430,316.83,745,747,0
23440,317.14,745,745,0
23450,318.00,745,747,0
23460,319.67,745,745,0
23470,321.70,745,747,0
23480,324.10,745,745,0
23490,326.47,745,747,0
23500,329.12,745,745,0
23511,331.65,745,746,0
23521,334.41,745,746,0
23531,336.82,745,746,0
23541,339.32,745,746,0
23552,341.49,745,746,0
23561,343.53,745,746,0
23571,345.00,745,746,0
23581,346.33,745,746,0
23591,346.79,745,747,0
23601,347.02,745,746,0
23611,346.42,745,746,0
23621,345.73,745,745,0
23631,344.31,745,746,0
23641,342.85,745,746,0
23651,341.01,745,746,0
23661,340.06,745,745,0
23671,340.39,745,747,0
23681,343.91,745,746,0
23691,352.21,745,746,0
23701,368.30,745,746,0
23720,393.58,783,745,0
23724,429.11,783,748,0
23732,471.03,783,746,0
23742,516.67,783,746,0
23752,562.92,783,747,0
23762,606.88,783,746,0
23772,645.18,783,746,0
23782,675.64,783,746,0
23792,696.92,783,747,0
23802,711.86,783,746,0
23812,722.27,783,746,0
23822,729.56,783,746,0
23832,734.67,783,747,0
23842,738.28,783,746,0
23852,740.08,783,746,0
23862,737.96,783,746,0
23872,729.83,783,746,0
23882,715.14,783,746,0
23892,692.85,783,746,0
23902,663.67,783,746,0
23912,627.38,783,746,0
23922,585.70,783,746,0
23932,541.26,783,746,0
23942,497.77,783,746,0
23952,456.48,783,746,0
23962,419.95,783,746,0
23972,388.16,783,746,0
23982,362.74,783,746,0
23992,343.19,783,746,0
24002,330.62,783,746,0
24012,323.71,783,746,0
24023,323.02,783,746,0
24033,326.49,783,746,0
24043,334.10,783,746,0
24053,343.58,783,745,0
24064,354.77,783,747,0
24073,365.38,783,746,0
24083,375.42,783,746,0
24093,382.71,783,746,0
24103,388.11,783,747,0
24113,390.18,783,746,0
24123,390.21,783,746,0
24133,387.32,783,746,0
24143,382.98,783,747,0
24153,376.60,783,746,0
24163,369.86,783,746,0
24173,362.15,783,746,0
24183,354.82,783,747,0
24193,347.16,783,746,0
24203,340.68,783,746,0
24213,334.48,783,746,0
24223,329.92,783,746,0
24233,326.04,783,746,0
24243,324.02,783,746,0
24253,322.68,783,746,0
24263,323.08,783,746,0
24273,323.83,783,746,0
24283,326.15,783,746,0
24293,328.50,783,746,0
24303,331.95,783,746,0
24313,334.92,783,745,0
24323,338.68,783,746,0
24333,341.77,783,746,0
24343,345.06,783,746,0
24353,347.22,783,746,0
24364,349.26,783,747,0
24374,350.04,783,745,0
24384,350.97,783,746,0
24394,351.58,783,745,0
24404,354.45,783,747,0
24414,360.10,783,746,0
24424,371.51,783,747,0
24434,389.40,783,746,0
24444,416.41,783,747,0
24454,451.82,783,746,0
24464,493.14,783,747,0
24483,536.60,763,746,0
24485,580.05,763,748,0
24495,620.06,763,745,0
24505,655.02,763,747,0
24515,682.22,763,745,0
24525,701.53,763,747,0
24535,715.00,763,746,0
24545,724.47,763,747,0
24555,729.22,763,745,0
24565,728.38,763,747,0
24576,720.34,763,745,0
24585,705.24,763,747,0
24595,682.19,763,745,0
24605,652.09,763,747,0
24615,614.86,763,745,0
24625,573.63,763,746,0
24635,530.20,763,745,0
24645,488.01,763,747,0
24655,447.81,763,745,0
24665,412.21,763,746,0
24675,380.95,763,745,0
24685,355.68,763,747,0
24695,335.67,763,745,0
24705,322.31,763,746,0
24715,314.55,763,745,0
24725,312.97,763,747,0
24735,315.98,763,745,0
24745,323.70,763,747,0
24755,333.95,763,745,0
24765,346.52,763,747,0
24775,359.18,763,745,0
24785,371.64,763,746,0
24795,382.12,763,745,0
24805,390.83,763,747,0
24815,396.28,763,745,0
24825,399.19,763,747,0
24835,398.54,763,745,0
24845,395.50,763,747,0
24855,389.65,763,745,0
24865,382.34,763,746,0
24876,373.20,763,745,0
24886,363.84,763,747,0
24896,353.94,763,745,0
24906,345.13,763,747,0
24916,336.91,763,745,0
24926,330.42,763,747,0
24936,324.98,763,745,0
24946,321.34,763,746,0
24956,318.97,763,745,0
24966,318.46,763,747,0
24976,318.67,763,745,0
24986,320.01,763,747,0
24996,321.64,763,745,0
25006,324.02,763,747,0
25016,326.33,763,745,0
25026,328.67,763,747,0
25036,330.57,763,745,0
25047,332.58,763,747,0
25057,334.25,763,745,0
25067,335.93,763,746,0
25077,337.20,763,745,0
25088,338.42,763,747,0
25097,339.28,763,745,0
25107,340.05,763,747,0
25117,340.51,763,745,0
25127,340.87,763,747,0
25137,341.00,763,745,0
25147,341.08,763,747,0
25157,340.89,763,745,0
25167,340.62,763,747,0
25177,340.09,763,745,0
25187,339.42,763,747,0
25197,338.48,763,745,0
25207,337.35,763,747,0
25217,336.09,763,745,0
25227,335.63,763,747,0
25237,337.11,763,745,0
25247,342.44,763,747,0
25257,353.92,763,745,0
25267,373.53,763,747,0
25286,403.11,803,746,0
25289,441.61,803,748,0
25298,485.70,803,746,0
25308,532.29,803,747,0
25318,578.32,803,745,0
25328,620.48,803,747,0
25338,656.29,803,745,0
25348,683.38,803,747,0
25358,702.38,803,745,0
25368,715.68,803,747,0
25378,725.03,803,745,0
25388,731.54,803,747,0
25398,736.09,803,745,0
25408,739.23,803,747,0
25418,741.48,803,746,0
25428,743.01,803,747,0
25438,742.62,803,745,0
25448,737.89,803,747,0
25458,727.34,803,745,0
25468,709.54,803,747,0
25478,684.39,803,745,0
25488,651.79,803,747,0
25498,612.21,803,745,0
25508,567.62,803,746,0
25518,521.57,803,744,0
25528,476.62,803,747,0
25538,435.42,803,745,0
25548,399.25,803,747,0
25559,369.47,803,745,0
25569,346.40,803,746,0
25579,330.51,803,745,0
25589,321.01,803,746,0
25600,317.75,803,745,0
25609,319.28,803,747,0
25619,324.98,803,746,0
25629,333.05,803,747,0
25639,342.63,803,745,0
25649,352.13,803,747,0
25659,361.00,803,745,0
25669,367.82,803,746,0
25679,373.10,803,745,0
25689,375.51,803,746,0
25699,375.79,803,745,0
25709,373.71,803,747,0
25719,370.28,803,745,0
25729,365.44,803,747,0
25739,360.21,803,746,0
25749,353.97,803,747,0
25759,348.07,803,745,0
25769,342.05,803,747,0
25779,336.76,803,746,0
25789,331.69,803,747,0
25799,327.84,803,745,0
25809,324.55,803,747,0
25819,322.54,803,746,0
25829,321.13,803,747,0
25839,321.01,803,745,0
25849,321.26,803,746,0
25859,322.47,803,746,0
25869,323.61,803,747,0
25879,325.44,803,745,0
25889,326.98,803,746,0
25900,329.04,803,746,0
25910,330.49,803,746,0
25920,332.23,803,745,0
25930,333.27,803,746,0
25940,334.56,803,746,0
25950,335.08,803,746,0
25960,335.83,803,745,0
25970,335.71,803,746,0
25980,335.97,803,746,0
25990,335.55,803,746,0
26000,335.38,803,746,0
26010,334.37,803,746,0
26020,333.66,803,746,0
26030,332.35,803,746,0
26040,331.56,803,746,0
26050,330.79,803,746,0
26060,332.18,803,746,0
26071,336.46,803,746,0
26081,346.82,803,746,0
26091,364.36,803,746,0
26101,392.15,803,747,0
26121,429.35,834,746,0
26124,473.09,834,748,0
26133,519.73,834,745,0
26143,566.74,834,747,0
26153,610.49,834,745,0
26163,648.61,834,747,0
26173,678.00,834,745,0
26183,698.62,834,747,0
26193,713.05,834,745,0
26203,723.15,834,747,0
26213,730.17,834,745,0
26223,735.09,834,747,0
26233,738.54,834,745,0
26243,738.55,834,747,0
26253,732.60,834,745,0
26263,720.08,834,747,0
26273,699.87,834,745,0
26284,672.39,834,747,0
26294,637.43,834,745,0
26304,595.99,834,747,0
26314,550.78,834,745,0
26324,505.80,834,747,0
26334,462.58,834,745,0
26344,423.75,834,747,0
26354,389.66,834,745,0
26364,361.95,834,747,0
26374,340.19,834,745,0
26384,325.26,834,747,0
26394,316.31,834,745,0
26404,313.52,834,747,0
26414,315.34,834,745,0
26424,321.66,834,747,0
26434,330.38,834,745,0
26444,341.15,834,747,0
26455,352.08,834,745,0
26465,362.73,834,747,0
26475,371.64,834,745,0
26485,378.69,834,747,0
26496,382.77,834,745,0
26505,384.59,834,747,0
26515,383.43,834,745,0
26525,380.13,834,747,0
26535,374.52,834,745,0
26545,367.55,834,747,0
26555,359.37,834,745,0
26565,351.03,834,747,0
26575,342.66,834,745,0
26585,335.35,834,747,0
26595,328.90,834,745,0
26605,323.96,834,747,0
26615,320.12,834,745,0
26625,317.81,834,747,0
26635,316.62,834,745,0
26645,316.65,834,747,0
26655,317.27,834,745,0
26665,318.77,834,747,0
26675,320.64,834,745,0
26685,323.19,834,747,0
26695,325.75,834,745,0
26705,328.61,834,747,0
26715,331.17,834,745,0
26725,333.69,834,747,0
26735,335.88,834,745,0
26745,337.85,834,747,0
26755,339.22,834,745,0
26765,340.35,834,747,0
26775,340.63,834,745,0
26785,340.49,834,747,0
26796,340.00,834,745,0
26806,339.57,834,747,0
26816,340.43,834,745,0
26826,344.16,834,747,0
26836,352.94,834,745,0
26846,368.30,834,747,0
26856,392.17,834,745,0
26866,425.59,834,747,0
26876,466.34,834,746,0
26895,510.98,775,744,0
26897,556.46,775,747,0
26907,599.52,775,747,0
26917,638.15,775,746,0
26927,669.86,775,747,0
26937,693.00,775,745,0
26947,709.20,775,747,0
26957,720.54,775,746,0
26967,728.48,775,747,0
26977,732.15,775,745,0
26987,729.70,775,747,0
26997,720.24,775,746,0
27008,702.72,775,747,0
27017,677.52,775,745,0
27027,644.84,775,747,0
27037,605.37,775,746,0
27047,561.20,775,747,0
27057,516.01,775,745,0
27067,471.87,775,747,0
27077,431.32,775,746,0
27087,395.10,775,747,0
27097,364.30,775,745,0
27107,339.18,775,747,0
27117,320.74,775,746,0
27127,308.35,775,747,0
27137,302.20,775,745,0
27147,301.50,775,747,0
27157,305.85,775,746,0
27167,313.86,775,747,0
27177,324.88,775,746,0
27187,337.21,775,747,0
27197,350.52,775,746,0
27207,362.96,775,747,0
27217,374.12,775,746,0
27227,382.65,775,747,0
27237,388.67,775,746,0
27247,391.30,775,747,0
27257,391.21,775,746,0
27267,387.89,775,747,0
27277,382.48,775,746,0
27287,374.92,775,747,0
27297,366.37,775,746,0
27308,356.79,775,747,0
27318,347.47,775,746,0
27328,338.03,775,747,0
27338,329.66,775,746,0
27348,322.09,775,747,0
27358,316.02,775,746,0
27368,311.00,775,747,0
27378,307.91,775,746,0
27388,305.93,775,747,0
27398,305.73,775,746,0
27408,306.11,775,747,0
27418,307.92,775,746,0
27428,309.96,775,746,0
27438,313.01,775,746,0
27448,315.67,775,747,0
27458,318.64,775,746,0
27468,320.98,775,747,0
27479,323.81,775,746,0
27489,325.80,775,747,0
27499,328.21,775,747,0
27509,329.65,775,746,0
27520,331.43,775,747,0
27529,332.50,775,747,0
27539,333.89,775,746,0
27549,334.31,775,746,0
27559,335.03,775,747,0
27569,334.89,775,747,0
27579,335.14,775,746,0
27589,334.67,775,746,0
27599,334.64,775,747,0
27609,333.93,775,747,0
27619,333.82,775,747,0
27629,333.02,775,746,0
27639,332.80,775,747,0
27649,332.09,775,746,0
27659,332.79,775,746,0
27669,335.12,775,746,0
27679,342.24,775,747,0
27689,354.99,775,746,0
27708,376.80,813,745,0
27711,408.49,813,746,0
27720,448.76,813,747,0
27730,493.75,813,746,0
27740,540.92,813,747,0
27750,586.55,813,745,0
27760,628.30,813,747,0
27770,662.79,813,746,0
27780,688.05,813,747,0
27790,705.70,813,745,0
27800,718.04,813,747,0
27810,726.69,813,746,0
27820,732.74,813,747,0
27830,736.93,813,746,0
27840,739.87,813,747,0
27850,741.92,813,746,0
27860,743.40,813,747,0
27870,741.78,813,746,0
27880,735.29,813,747,0
27890,721.53,813,746,0
27900,700.41,813,747,0
27910,671.15,813,746,0
27920,634.59,813,747,0
27930,590.74,813,746,0
27940,543.76,813,747,0
27950,495.96,813,746,0
27960,451.62,813,747,0
27970,411.53,813,746,0
27980,378.33,813,747,0
27991,351.66,813,745,0
28001,333.03,813,747,0
28011,321.15,813,745,0
28021,316.52,813,747,0
28032,317.01,813,745,0
28041,322.58,813,747,0
28051,330.93,813,746,0
28061,341.54,813,747,0
28071,352.01,813,745,0
28081,362.33,813,747,0
28091,370.50,813,746,0
28101,377.30,813,747,0
28111,381.02,813,745,0
28121,382.51,813,747,0
28131,381.03,813,746,0
28141,377.89,813,747,0
28151,372.35,813,745,0
28161,366.21,813,747,0
28171,358.47,813,746,0
28181,350.92,813,747,0
28191,342.84,813,745,0
28201,335.73,813,747,0
28211,328.87,813,745,0
28221,323.51,813,747,0
28231,318.56,813,745,0
28241,315.26,813,747,0
28251,312.61,813,745,0
28261,311.48,813,747,0
28271,310.74,813,745,0
28281,311.33,813,747,0
28291,312.00,813,745,0
28301,313.80,813,747,0
28311,315.45,813,745,0
28321,317.84,813,747,0
28332,319.86,813,745,0
28342,322.39,813,747,0
28352,324.29,813,745,0
28362,326.47,813,747,0
28372,327.92,813,745,0
28382,329.66,813,747,0
28392,330.70,813,745,0
28402,332.29,813,747,0
28412,334.43,813,745,0
28422,339.19,813,747,0
28432,347.49,813,745,0
28442,362.00,813,747,0
28452,384.03,813,745,0
28462,415.43,813,747,0
28472,454.56,813,745,0
28482,498.49,813,747,0
28502,543.90,793,746,0
28504,588.29,793,748,0
28514,628.53,793,745,0
28524,662.27,793,747,0
28534,687.69,793,745,0
28545,705.48,793,747,0
28555,717.94,793,745,0
28565,726.66,793,747,0
28575,732.76,793,745,0
28585,735.57,793,747,0
28595,733.35,793,745,0
28605,724.46,793,747,0
28615,708.08,793,745,0
28625,683.54,793,746,0
28635,651.58,793,745,0
28645,612.40,793,747,0
28655,568.23,793,745,0
28665,522.17,793,747,0
28675,477.33,793,745,0
28685,435.75,793,747,0
28695,399.52,793,745,0
28705,368.81,793,747,0
28716,344.91,793,745,0
28726,327.58,793,747,0
28736,317.16,793,746,0
28746,312.66,793,746,0
28756,314.00,793,746,0
28766,319.53,793,746,0
28776,328.76,793,746,0
28786,339.54,793,746,0
28796,351.51,793,746,0
28806,362.63,793,746,0
28816,372.85,793,745,0
28826,380.48,793,746,0
28836,385.95,793,746,0
28846,388.37,793,746,0
28856,388.43,793,746,0
28866,385.47,793,747,0
28876,380.74,793,746,0
28887,373.71,793,746,0
28897,365.87,793,746,0
28907,356.82,793,746,0
28917,347.87,793,746,0
28928,338.57,793,746,0
28937,330.38,793,746,0
28947,322.64,793,746,0
28957,316.58,793,746,0
28967,311.18,793,745,0
28977,307.52,793,745,0
28987,304.54,793,746,0
28997,303.39,793,746,0
29007,302.67,793,745,0
29017,303.33,793,746,0
29027,304.13,793,746,0
29037,305.98,793,746,0
29047,307.61,793,745,0
29057,310.09,793,745,0
29067,312.16,793,746,0
29077,314.77,793,746,0
29087,316.77,793,745,0
29097,319.24,793,746,0
29107,321.09,793,746,0
29117,323.47,793,746,0
29127,325.04,793,746,0
29137,326.83,793,746,0
29147,327.91,793,746,0
29157,329.31,793,746,0
29167,329.86,793,746,0
29177,330.80,793,746,0
29187,330.95,793,746,0
29197,331.56,793,746,0
29207,331.44,793,746,0
29217,331.69,793,746,0
29228,331.14,793,746,0
29238,330.93,793,746,0
29248,329.92,793,745,0
29258,329.94,793,747,0
29268,330.78,793,745,0
29278,335.21,793,746,0
29288,344.02,793,745,0
29307,360.86,806,744,0
29310,387.47,806,746,0
29319,424.44,806,747,0
29329,467.55,806,745,0
29339,514.40,806,747,0
29349,561.47,806,746,0
29359,606.37,806,747,0
29369,645.39,806,745,0
29379,675.79,806,747,0
29389,697.06,806,746,0
29399,712.00,806,747,0
29409,722.42,806,746,0
29419,729.71,806,747,0
29429,734.81,806,746,0
29440,738.42,806,747,0
29449,740.91,806,746,0
29459,742.65,806,747,0
29469,741.04,806,745,0
29479,734.34,806,747,0
29489,720.48,806,746,0
29499,699.08,806,747,0
29509,669.40,806,745,0
29519,632.34,806,747,0
29529,588.09,806,746,0
29539,540.97,806,747,0
29549,493.66,806,745,0
29559,450.05,806,747,0
29569,411.42,806,746,0
29579,380.18,806,747,0
29589,355.95,806,745,0
29599,340.07,806,747,0
29609,331.09,806,745,0
29619,329.18,806,746,0
29629,332.08,806,745,0
29639,339.60,806,747,0
29649,349.36,806,745,0
29659,361.38,806,747,0
29669,372.71,806,745,0
29679,383.43,806,747,0
29689,391.44,806,745,0
29699,397.61,806,747,0
29709,400.30,806,746,0
29719,400.38,806,747,0
29729,396.67,806,745,0
29740,391.02,806,747,0
29750,383.00,806,745,0
29760,374.26,806,747,0
29770,364.37,806,745,0
29780,354.79,806,747,0
29790,345.21,806,745,0
29800,337.04,806,747,0
29810,329.62,806,745,0
29820,323.86,806,747,0
29830,319.15,806,745,0
29840,316.02,806,747,0
29850,313.78,806,745,0
29860,313.25,806,747,0
29870,313.30,806,745,0
29880,314.71,806,747,0
29890,316.43,806,745,0
29900,319.08,806,747,0
29911,321.72,806,745,0
29921,324.89,806,747,0
29931,327.54,806,745,0
29941,330.37,806,747,0
29952,332.53,806,745,0
29961,335.93,806,749,0
29971,339.42,806,746,0
29981,343.20,806,748,0
29991,345.45,806,745,0
30001,347.76,806,747,0
30011,351.60,806,745,0
30021,359.74,806,747,0
30031,372.93,806,745,0
30041,393.57,806,747,0
30051,423.05,806,745,0
30061,461.35,806,747,0
30071,505.00,806,745,0
30090,550.64,783,744,0
30092,594.68,783,747,0
30102,634.03,783,747,0
30112,666.47,783,745,0
30123,690.50,783,747,0
30132,707.36,783,745,0
30142,719.17,783,747,0
30152,727.43,783,745,0
30162,731.76,783,747,0
30172,730.29,783,745,0
30182,721.50,783,747,0
30192,704.42,783,745,0
30202,678.67,783,747,0
30212,644.91,783,745,0
30222,603.41,783,747,0
30232,556.36,783,745,0
30242,507.35,783,747,0
30252,459.80,783,745,0
30262,416.23,783,747,0
30272,378.36,783,745,0
30282,347.05,783,747,0
30292,323.25,783,745,0
30302,307.28,783,747,0
30312,298.84,783,745,0
30322,297.09,783,747,0
30332,301.26,783,745,0
30342,310.31,783,747,0
30352,322.73,783,745,0
30362,337.08,783,747,0
30372,351.89,783,745,0
30382,366.02,783,747,0
30392,378.61,783,745,0
30402,388.37,783,747,0
30412,395.03,783,745,0
30423,398.24,783,747,0
30433,398.17,783,745,0
30443,394.94,783,747,0
30453,389.26,783,745,0
30464,381.13,783,747,0
30473,371.87,783,745,0
30483,361.58,783,747,0
30493,351.25,783,746,0
30503,340.89,783,747,0
30513,331.49,783,745,0
30523,322.90,783,747,0
30533,315.95,783,745,0
30543,310.09,783,747,0
30553,305.91,783,745,0
30563,302.98,783,747,0
30573,301.74,783,745,0
30583,301.52,783,747,0
30593,302.65,783,745,0
30603,304.38,783,747,0
30613,307.18,783,746,0
30623,310.26,783,747,0
30633,313.91,783,745,0
30643,317.49,783,747,0
30653,321.20,783,745,0
30663,324.48,783,747,0
30673,327.81,783,745,0
30683,330.57,783,747,0
30693,333.27,783,745,0
30703,335.29,783,747,0
30713,337.26,783,745,0
30723,338.72,783,747,0
30733,340.09,783,745,0
30743,340.92,783,747,0
30753,341.80,783,745,0
30764,343.10,783,747,0
30774,346.59,783,746,0
30784,353.35,783,746,0
30794,366.23,783,745,0
30804,386.99,783,746,0
30814,417.72,783,746,0
30824,456.29,783,747,0
30843,499.83,753,745,0
30845,545.18,753,746,0
30855,589.74,753,746,0
30865,630.15,753,746,0
30875,663.92,753,746,0
30885,688.71,753,746,0
30895,706.11,753,746,0
30905,718.25,753,746,0
30915,726.75,753,746,0
30925,732.65,753,746,0
30935,736.83,753,746,0
30945,739.71,753,746,0
30955,741.72,753,746,0
30965,741.85,753,746,0
30976,737.78,753,746,0
30985,727.39,753,746,0
30995,709.70,753,746,0
31005,683.69,753,746,0
31015,650.14,753,746,0
31025,609.26,753,746,0
31035,563.62,753,746,0
31045,516.34,753,746,0
31055,471.41,753,746,0
31065,430.57,753,746,0
31075,396.63,753,746,0
31085,369.35,753,746,0
31095,350.13,753,746,0
31105,337.66,753,746,0
31115,332.58,753,746,0
31125,332.66,753,746,0
31135,337.91,753,746,0
31145,345.78,753,746,0
31155,356.09,753,746,0
31165,366.39,753,746,0
31175,376.73,753,746,0
31185,384.83,753,746,0
31195,391.35,753,746,0
31205,394.76,753,746,0
31215,396.03,753,746,0
31225,394.14,753,746,0
31235,390.50,753,746,0
31245,384.39,753,746,0
31255,377.54,753,746,0
31265,369.11,753,746,0
31276,360.89,753,746,0
31286,352.10,753,746,0
31296,344.48,753,747,0
31306,336.92,753,746,0
31316,331.03,753,747,0
31326,325.54,753,746,0
31336,321.95,753,747,0
31346,318.92,753,746,0
31356,317.87,753,747,0
31366,317.18,753,745,0
31376,317.98,753,747,0
31386,318.93,753,745,0
31396,321.22,753,747,0
31406,323.21,753,745,0
31416,326.11,753,747,0
31426,328.47,753,746,0
31436,331.42,753,747,0
31447,333.95,753,745,0
31457,336.75,753,747,0
31467,338.75,753,745,0
31477,341.10,753,747,0
31488,342.31,753,745,0
31497,343.55,753,747,0
31507,343.68,753,745,0
31517,343.86,753,747,0
31527,343.30,753,745,0
31537,343.64,753,747,0
31547,344.95,753,745,0
31557,350.19,753,747,0
31567,360.16,753,745,0
31577,377.94,753,747,0
31587,404.10,753,745,0
31597,440.03,753,747,0
31617,481.72,773,746,0
31620,526.76,773,748,0
31629,571.49,773,745,0
31639,613.60,773,747,0
31649,649.98,773,745,0
31660,678.87,773,747,0
31670,699.05,773,745,0
31680,713.18,773,747,0
31690,723.03,773,745,0
31700,729.92,773,747,0
31710,734.74,773,745,0
31720,738.12,773,747,0
31730,738.56,773,745,0
31740,733.85,773,747,0
31750,722.71,773,745,0
31760,704.19,773,747,0
31770,677.82,773,744,0
31780,644.02,773,747,0
31790,603.38,773,745,0
31800,558.78,773,747,0
31810,513.55,773,744,0
31820,470.44,773,747,0
31831,431.78,773,745,0
31841,399.23,773,747,0
31851,373.66,773,745,0
31861,355.29,773,747,0
31872,344.06,773,745,0
31881,339.50,773,747,0
31891,340.68,773,745,0
31901,346.30,773,747,0
31911,355.38,773,745,0
31921,366.28,773,747,0
31931,377.86,773,745,0
31941,388.61,773,747,0
31951,398.29,773,746,0
31961,405.91,773,747,0
31971,411.21,773,745,0
31981,413.33,773,747,0
31991,412.63,773,746,0
32001,409.10,773,747,0
32011,403.46,773,745,0
32021,395.52,773,747,0
32031,386.15,773,746,0
32041,375.69,773,747,0
32051,365.37,773,745,0
32061,355.44,773,747,0
32071,346.70,773,745,0
32081,339.16,773,747,0
32091,333.15,773,745,0
32101,328.52,773,747,0
32111,325.67,773,745,0
32121,324.05,773,747,0
32131,323.91,773,745,0
32141,324.62,773,747,0
32151,326.32,773,746,0
32161,328.54,773,747,0
32172,331.55,773,745,0
32182,334.47,773,747,0
32192,337.76,773,746,0
32202,340.44,773,747,0
32212,343.27,773,745,0
32222,345.46,773,747,0
32232,347.68,773,746,0
32242,349.06,773,747,0
32252,350.33,773,746,0
32262,350.79,773,747,0
32272,351.19,773,746,0
32282,350.79,773,747,0
32292,350.94,773,746,0
32302,351.73,773,747,0
32312,355.45,773,746,0
32322,363.33,773,747,0
32332,378.15,773,746,0
32343,401.29,773,747,0
32353,434.50,773,746,0
32363,474.29,773,747,0
32382,518.05,766,745,0
32386,562.52,766,745,0
32395,605.26,766,747,0
32405,643.03,766,746,0
32415,673.71,766,747,0
32425,695.44,766,746,0
32435,710.69,766,747,0
32445,721.37,766,746,0
32455,728.84,766,747,0
32465,734.03,766,745,0
32475,735.18,766,747,0
32485,729.77,766,745,0
32495,717.28,766,747,0
32505,696.41,766,745,0
32515,668.22,766,747,0
32525,632.24,766,746,0
32535,589.78,766,747,0
32545,543.52,766,745,0
32556,498.15,766,747,0
32566,454.99,766,745,0
32576,417.41,766,747,0
32586,385.10,766,745,0
32596,360.30,766,747,0
32606,342.04,766,746,0
32616,331.53,766,747,0
32626,327.25,766,745,0
32636,329.71,766,747,0
32646,336.74,766,745,0
32656,348.09,766,747,0
32666,361.30,766,745,0
32676,376.21,766,747,0
32686,390.51,766,745,0
32696,403.94,766,747,0
32706,414.37,766,745,0
32716,422.19,766,747,0
32727,426.08,766,745,0
32737,427.04,766,747,0
32747,424.33,766,745,0
32757,419.26,766,747,0
32768,411.42,766,745,0
32777,402.64,766,747,0
32787,392.38,766,745,0
32797,382.28,766,747,0
32807,371.95,766,745,0
32817,362.67,766,747,0
32827,353.89,766,745,0
32837,346.77,766,747,0
32847,340.50,766,745,0
32857,336.19,766,747,0
32867,332.88,766,745,0
32877,331.28,766,747,0
32887,330.60,766,745,0
32897,331.36,766,747,0
32907,332.75,766,745,0
32917,335.27,766,747,0
32927,337.85,766,745,0
32937,341.11,766,747,0
32947,344.07,766,744,0
32957,347.18,766,747,0
32967,349.61,766,745,0
32977,351.91,766,747,0
32987,353.31,766,744,0
32997,354.80,766,747,0
33007,356.02,766,745,0
33017,357.94,766,747,0
33027,360.75,766,745,0
33037,366.35,766,747,0
33047,375.67,766,745,0
33057,391.41,766,747,0
33068,414.39,766,745,0
33078,446.16,766,748,0
33088,484.13,766,745,0
33098,525.79,766,747,0
33118,568.19,735,746,0
33121,608.98,735,747,0
33130,645.24,735,746,0
33140,675.04,735,747,0
33150,696.59,735,745,0
33160,711.67,735,747,0
33170,722.22,735,746,0
33180,729.61,735,747,0
33190,734.14,735,745,0
33200,733.63,735,747,0
33210,726.84,735,746,0
33220,712.53,735,747,0
33230,690.77,735,745,0
33240,661.53,735,747,0
33250,625.33,735,746,0
33260,583.23,735,747,0
33270,539.06,735,745,0
33281,495.16,735,747,0
33291,454.57,735,746,0
33301,418.18,735,747,0
33311,387.70,735,745,0
33321,363.32,735,747,0
33331,346.04,735,746,0
33341,335.31,735,747,0
33351,331.32,735,745,0
33361,332.55,735,747,0
33371,338.81,735,746,0
33381,348.08,735,747,0
33391,359.93,735,745,0
33401,372.21,735,746,0
33411,384.49,735,746,0
33421,395.01,735,747,0
33431,403.71,735,745,0
33441,409.15,735,746,0
33452,412.06,735,746,0
33462,411.49,735,747,0
33472,408.60,735,745,0
33482,402.80,735,746,0
33492,395.66,735,746,0
33502,386.81,735,747,0
33512,377.82,735,746,0
33522,368.19,735,746,0
33532,359.52,735,746,0
33542,351.26,735,747,0
33552,344.67,735,746,0
33562,338.85,735,746,0
33572,335.08,735,746,0
33582,332.14,735,747,0
33592,331.03,735,746,0
33602,330.42,735,746,0
33612,331.45,735,746,0
33623,332.60,735,746,0
33633,334.78,735,746,0
33643,336.56,735,746,0
33653,339.18,735,747,0
33664,341.18,735,746,0
33673,343.74,735,746,0
33683,345.32,735,746,0
33693,347.41,735,747,0
33703,348.66,735,746,0
33713,350.13,735,746,0
33723,350.52,735,746,0
33733,351.22,735,747,0
33743,351.24,735,746,0
33753,352.45,735,747,0
33763,354.59,735,746,0
33773,360.71,735,747,0
33783,371.81,735,746,0
33793,390.94,735,746,0
33803,418.90,735,746,0
33813,455.57,735,747,0
33823,497.14,735,746,0
33843,541.46,725,744,0
33846,584.99,725,746,0
33855,625.41,725,747,0
33865,659.66,725,746,0
33875,685.90,725,747,0
33885,704.28,725,745,0
33895,717.14,725,748,0
33905,726.14,725,746,0
33915,732.40,725,747,0
33925,736.78,725,746,0
33935,739.84,725,747,0
33945,741.99,725,746,0
33955,741.91,725,747,0
33965,737.18,725,745,0
33975,726.80,725,747,0
33985,709.24,725,745,0
33995,684.70,725,747,0
34006,652.69,725,745,0
34015,614.34,725,747,0
34025,571.25,725,745,0
34035,527.33,725,747,0
34045,484.20,725,745,0
34055,445.06,725,747,0
34065,410.15,725,745,0
34075,381.52,725,747,0
34085,358.52,725,745,0
34095,342.47,725,747,0
34105,332.17,725,745,0
34115,328.22,725,747,0
34125,328.71,725,745,0
34135,333.77,725,747,0
34145,341.21,725,745,0
34155,350.92,725,747,0
34165,360.59,725,745,0
34176,370.27,725,747,0
34185,377.99,725,745,0
34195,384.21,725,747,0
34205,387.66,725,745,0
34215,389.13,725,747,0
34225,387.76,725,745,0
34235,384.92,725,747,0
34245,380.06,725,745,0
34255,374.34,725,747,0
34265,367.42,725,745,0
34275,360.65,725,747,0
34285,353.60,725,745,0
34295,347.46,725,747,0
34305,341.54,725,745,0
34315,336.96,725,747,0
34325,333.12,725,745,0
34335,330.85,725,747,0
34345,329.27,725,745,0
34355,329.23,725,747,0
34365,329.63,725,745,0
34375,331.16,725,747,0
34385,332.74,725,745,0
34395,335.13,725,747,0
34405,337.28,725,745,0
34415,339.72,725,747,0
34425,341.56,725,745,0
34435,343.62,725,747,0
34445,345.15,725,745,0
34455,346.78,725,747,0
34465,347.62,725,745,0
34476,348.46,725,747,0
34486,348.92,725,745,0
34496,349.37,725,747,0
34506,349.30,725,745,0
34516,349.08,725,747,0
34526,348.42,725,745,0
34536,348.29,725,747,0
34546,348.80,725,745,0
34556,351.73,725,747,0
34566,358.24,725,745,0
34576,371.03,725,748,0
34586,391.93,725,745,0
34596,422.90,725,748,0
34615,461.46,773,746,0
34618,504.78,773,748,0
34627,549.59,773,746,0
34637,593.55,773,748,0
34647,633.29,773,745,0
34657,666.42,773,747,0
34667,690.59,773,746,0
34677,707.51,773,748,0
34688,719.36,773,746,0
34697,727.65,773,747,0
34707,733.46,773,746,0
34717,737.52,773,748,0
34727,740.36,773,746,0
34737,742.35,773,748,0
34747,741.35,773,746,0
34757,735.67,773,748,0
34767,723.81,773,746,0
34777,705.40,773,747,0
34787,679.78,773,745,0
34797,647.15,773,748,0
34807,607.93,773,745,0
34817,565.31,773,747,0
34827,521.84,773,746,0
34837,479.93,773,748,0
34847,441.08,773,746,0
34857,406.86,773,747,0
34867,378.23,773,746,0
34877,355.66,773,748,0
34887,339.26,773,746,0
34897,328.77,773,747,0
34907,324.00,773,746,0
34917,324.04,773,748,0
34927,328.23,773,746,0
34937,335.23,773,747,0
34947,343.99,773,746,0
34957,353.38,773,748,0
34967,362.52,773,746,0
34977,370.55,773,747,0
34988,376.94,773,746,0
34998,380.99,773,747,0
35008,382.83,773,746,0
35018,382.28,773,747,0
35028,379.80,773,746,0
35038,375.62,773,747,0
35048,370.25,773,746,0
35058,363.79,773,747,0
35068,357.29,773,746,0
35078,350.73,773,747,0
35088,344.99,773,746,0
35098,339.59,773,747,0
35108,335.34,773,746,0
35118,331.85,773,747,0
35128,329.80,773,746,0
35138,328.44,773,747,0
35148,328.31,773,746,0
35159,328.65,773,747,0
35169,330.08,773,746,0
35179,331.47,773,746,0
35189,333.52,773,746,0
35200,335.25,773,747,0
35209,337.40,773,746,0
35219,339.08,773,747,0
35229,340.90,773,746,0
35239,342.00,773,747,0
35249,343.33,773,746,0
35259,343.79,773,746,0
35269,344.49,773,746,0
35279,344.30,773,747,0
35289,344.21,773,746,0
35299,343.33,773,747,0
35309,342.63,773,746,0
35319,341.24,773,747,0
35329,340.66,773,746,0
35339,340.25,773,747,0
35349,342.36,773,746,0
35359,347.78,773,747,0
35369,359.50,773,746,0
35379,378.34,773,746,0
35389,406.95,773,746,0
35408,444.12,793,745,0
35411,487.29,793,749,0
35420,532.76,793,747,0
35430,577.92,793,747,0
35440,619.38,793,747,0
35450,655.23,793,747,0
35460,682.80,793,747,0
35470,702.10,793,747,0
35480,715.57,793,747,0
35490,725.04,793,747,0
35500,731.67,793,747,0
35510,736.31,793,747,0
35520,737.12,793,747,0
35530,732.88,793,747,0
35540,721.86,793,746,0
35550,704.33,793,746,0
35560,679.38,793,746,0
35570,647.93,793,747,0
35580,609.51,793,746,0
35590,568.13,793,747,0
35600,525.06,793,747,0
35610,483.73,793,747,0
35620,444.30,793,746,0
35630,409.36,793,746,0
35640,378.57,793,746,0
35650,353.97,793,747,0
35660,334.39,793,746,0
35671,321.55,793,747,0
35681,314.01,793,746,0
35691,312.68,793,747,0
35701,315.48,793,746,0
35712,322.58,793,747,0
35721,331.75,793,746,0
35731,342.96,793,747,0
35741,353.78,793,746,0
35751,364.47,793,747,0
35761,372.90,793,746,0
35771,379.83,793,747,0
35781,383.65,793,746,0
35791,385.43,793,747,0
35801,384.06,793,746,0
35811,381.13,793,747,0
35821,375.65,793,746,0
35831,369.32,793,747,0
35841,361.51,793,746,0
35851,354.07,793,747,0
35861,346.34,793,746,0
35871,339.89,793,747,0
35881,333.75,793,746,0
35891,329.54,793,747,0
35901,326.08,793,746,0
35911,324.51,793,747,0
35921,323.50,793,746,0
35931,324.08,793,747,0
35941,324.74,793,746,0
35951,326.75,793,747,0
35961,328.49,793,746,0
35971,331.13,793,747,0
35981,333.19,793,746,0
35991,335.79,793,747,0
36001,337.61,793,746,0
36012,339.91,793,747,0
36022,341.40,793,745,0
36032,343.29,793,747,0
36042,344.58,793,745,0
36052,346.25,793,747,0
36062,347.20,793,746,0
36072,348.47,793,747,0
36082,348.89,793,745,0
36092,349.48,793,748,0
36102,349.33,793,746,0
36112,349.23,793,747,0
36122,348.44,793,745,0
36132,347.83,793,747,0
36142,347.24,793,746,0
36152,348.50,793,747,0
36162,352.03,793,746,0
36172,360.72,793,747,0
36183,375.81,793,745,0
36193,400.21,793,747,0
36212,434.30,804,746,0
36215,475.18,804,749,0
36225,519.44,804,745,0
36235,564.74,804,747,0
36245,607.59,804,746,0
36255,645.64,804,748,0
36265,675.92,804,746,0
36275,697.29,804,747,0
36285,712.20,804,746,0
36295,722.64,804,748,0
36305,729.95,804,746,0
36315,735.06,804,747,0
36325,737.27,804,745,0
36335,734.66,804,748,0
36345,725.46,804,746,0
36355,709.25,804,747,0
36365,685.56,804,745,0
36375,654.54,804,748,0
36385,616.62,804,745,0
36396,573.62,804,747,0
36406,528.95,804,746,0
36416,485.38,804,747,0
36426,444.89,804,746,0
36436,408.75,804,746,0
36446,378.27,804,746,0
36456,353.80,804,747,0
36466,336.29,804,746,0
36476,324.93,804,746,0
36486,319.85,804,746,0
36496,319.90,804,747,0
36506,324.77,804,746,0
36516,332.73,804,747,0
36526,343.05,804,746,0
36536,353.84,804,747,0
36546,364.73,804,746,0
36556,374.20,804,747,0
36567,381.98,804,746,0
36577,387.09,804,747,0
36587,389.85,804,746,0
36597,389.68,804,747,0
36608,388.49,804,747,0
36617,385.30,804,747,0
36627,380.71,804,746,0
36637,374.24,804,747,0
36647,367.22,804,746,0
36657,359.44,804,747,0
36667,352.20,804,746,0
36677,343.87,804,747,0
36687,336.49,804,746,0
36697,329.79,804,747,0
36707,325.22,804,747,0
36717,321.77,804,747,0
36727,319.91,804,746,0
36737,318.74,804,747,0
36747,319.03,804,746,0
36757,319.49,804,747,0
36767,321.10,804,746,0
36777,322.57,804,747,0
36787,324.67,804,746,0
36797,326.66,804,747,0
36807,329.24,804,746,0
36817,331.36,804,747,0
36827,333.95,804,746,0
36837,335.81,804,747,0
36847,337.75,804,746,0
36857,338.77,804,747,0
36867,340.17,804,746,0
36877,340.76,804,747,0
36887,341.56,804,746,0
36897,341.39,804,747,0
36908,341.45,804,746,0
36918,340.76,804,746,0
36928,340.44,804,746,0
36938,339.15,804,746,0
36948,338.51,804,747,0
36958,337.75,804,746,0
36968,339.11,804,746,0
36978,343.15,804,746,0
36988,352.96,804,747,0
36998,369.35,804,746,0
37008,395.60,804,747,0
37027,431.21,815,746,0
37030,473.66,815,749,0
37039,519.19,815,746,0
37049,565.33,815,747,0
37059,608.52,815,746,0
37069,646.72,815,747,0
37079,676.76,815,746,0
37089,697.83,815,747,0
37099,712.54,815,746,0
37109,722.88,815,747,0
37120,730.11,815,746,0
37129,735.18,815,747,0
37139,738.73,815,746,0
37149,741.21,815,747,0
37159,739.22,815,746,0
37169,732.04,815,747,0
37179,717.67,815,746,0
37189,696.04,815,747,0
37199,666.59,815,746,0
37209,630.50,815,747,0
37219,587.70,815,746,0
37229,543.26,815,747,0
37239,498.48,815,746,0
37249,456.94,815,747,0
37259,419.29,815,746,0
37269,387.83,815,747,0
37279,361.74,815,746,0
37289,342.66,815,747,0
37299,329.22,815,746,0
37309,322.47,815,747,0
37319,320.44,815,746,0
37329,323.48,815,747,0
37339,329.25,815,746,0
37349,337.92,815,747,0
37359,347.11,815,746,0
37369,356.98,815,747,0
37379,365.17,815,746,0
37389,372.49,815,747,0
37399,377.19,815,746,0
37409,380.17,815,747,0
37420,380.25,815,746,0
37430,378.59,815,747,0
37440,374.51,815,746,0
37450,369.30,815,747,0
37460,362.31,815,745,0
37470,355.23,815,747,0
37480,347.41,815,745,0
37490,340.38,815,747,0
37500,333.41,815,745,0
37510,327.93,815,747,0
37520,323.19,815,746,0
37530,320.18,815,747,0
37540,317.73,815,745,0
37550,316.95,815,747,0
37560,316.49,815,745,0
37570,317.46,815,747,0
37580,318.56,815,745,0
37591,320.58,815,747,0
37601,322.59,815,745,0
37611,325.29,815,747,0
37621,327.60,815,745,0
37632,330.21,815,747,0
37641,332.03,815,745,0
37651,333.82,815,747,0
37661,334.90,815,745,0
37671,335.79,815,748,0
37681,335.77,815,745,0
37691,335.62,815,747,0
37701,334.84,815,745,0
37711,334.16,815,747,0
37721,332.78,815,745,0
37731,331.43,815,747,0
37741,329.29,815,745,0
37751,327.14,815,747,0
37761,324.36,815,745,0
37771,322.15,815,747,0
37781,320.43,815,745,0
37791,321.46,815,747,0
37801,326.51,815,745,0
37811,338.40,815,747,0
37821,358.85,815,745,0
37840,390.22,813,744,0
37843,430.53,813,746,0
37852,476.74,813,748,0
37862,525.20,813,745,0
37872,572.89,813,748,0
37882,616.68,813,746,0
37892,653.85,813,748,0
37902,681.79,813,745,0
37912,701.35,813,748,0
37922,715.05,813,746,0
37932,724.63,813,748,0
37942,731.34,813,745,0
37952,736.04,813,747,0
37962,739.33,813,745,0
37972,738.63,813,747,0
37982,732.18,813,745,0
37992,718.89,813,747,0
38002,697.92,813,745,0
38012,669.36,813,747,0
38022,633.64,813,745,0
38032,591.36,813,747,0
38042,546.17,813,745,0
38052,500.99,813,747,0
38062,458.18,813,745,0
38072,419.72,813,747,0
38082,386.72,813,745,0
38092,359.76,813,747,0
38103,339.18,813,745,0
38113,325.02,813,747,0
38123,317.26,813,745,0
38133,315.12,813,747,0
38144,317.96,813,745,0
38153,324.44,813,747,0
38163,333.57,813,746,0
38173,344.11,813,747,0
38183,355.05,813,745,0
38193,365.28,813,747,0
38203,374.07,813,745,0
38213,380.56,813,747,0
38223,384.85,813,745,0
38233,386.82,813,748,0
38243,386.49,813,746,0
38253,383.94,813,747,0
38263,379.63,813,745,0
38273,373.96,813,747,0
38283,367.71,813,745,0
38293,360.98,813,747,0
38303,354.47,813,745,0
38313,348.38,813,747,0
38323,343.46,813,746,0
38333,339.42,813,747,0
38343,336.60,813,745,0
38353,334.66,813,747,0
38363,333.86,813,745,0
38373,333.65,813,747,0
38383,334.40,813,746,0
38393,335.43,813,747,0
38403,337.10,813,745,0
38413,338.92,813,747,0
38423,341.04,813,746,0
38433,342.91,813,747,0
38444,345.04,813,746,0
38454,346.49,813,747,0
38464,347.84,813,745,0
38474,348.53,813,747,0
38484,349.27,813,746,0
38494,349.53,813,747,0
38504,350.06,813,746,0
38514,349.83,813,747,0
38524,350.09,813,746,0
38534,349.85,813,747,0
38544,349.72,813,746,0
38554,348.78,813,747,0
38564,347.90,813,746,0
38574,346.30,813,747,0
38584,344.80,813,746,0
38594,342.67,813,747,0
38604,341.40,813,746,0
38615,341.32,813,747,0
38625,345.04,813,746,0
38635,353.77,813,747,0
38645,370.51,813,746,0
38665,396.41,824,745,0
38668,432.42,824,748,0
38677,474.72,824,746,0
38687,520.71,824,747,0
38697,566.78,824,746,0
38707,610.22,824,747,0
38717,647.78,824,746,0
38727,677.55,824,747,0
38737,698.38,824,746,0
38747,712.97,824,747,0
38757,723.18,824,746,0
38767,730.32,824,747,0
38777,735.33,824,746,0
38787,738.83,824,747,0
38797,739.74,824,746,0
38807,736.04,824,747,0
38817,725.32,824,746,0
38828,707.18,824,747,0
38838,680.68,824,745,0
38848,646.66,824,747,0
38858,605.11,824,745,0
38868,558.96,824,747,0
38878,511.02,824,745,0
38888,465.63,824,747,0
38898,423.78,824,745,0
38908,388.23,824,747,0
38918,358.85,824,746,0
38928,337.25,824,747,0
38938,322.35,824,746,0
38948,314.83,824,747,0
38958,313.12,824,746,0
38968,317.16,824,747,0
38978,324.70,824,745,0
38988,335.54,824,747,0
38999,347.34,824,745,0
39009,359.75,824,747,0
39019,370.93,824,746,0
39029,380.25,824,747,0
39040,386.82,824,745,0
39049,391.07,824,747,0
39059,391.95,824,746,0
39069,390.42,824,747,0
39079,386.05,824,745,0
39089,379.95,824,747,0
39099,372.25,824,745,0
39109,363.99,824,747,0
39119,355.08,824,745,0
39129,346.78,824,747,0
39139,338.83,824,746,0
39149,332.16,824,747,0
39159,326.41,824,745,0
39169,322.30,824,747,0
39179,319.25,824,745,0
39189,317.89,824,747,0
39199,317.45,824,745,0
39209,318.22,824,747,0
39219,319.65,824,745,0
39229,321.81,824,747,0
39239,324.14,824,745,0
39249,326.93,824,748,0
39259,329.43,824,746,0
39269,332.18,824,747,0
39279,334.52,824,745,0
39289,336.85,824,748,0
39299,338.65,824,746,0
39309,340.43,824,748,0
39319,341.63,824,745,0
39329,342.68,824,748,0
39340,342.95,824,745,0
39350,343.01,824,748,0
39360,342.36,824,745,0
39370,341.65,824,747,0
39380,340.73,824,746,0
39390,340.68,824,748,0
39400,342.41,824,745,0
39410,347.81,824,747,0
39420,358.80,824,745,0
39430,377.46,824,748,0
39440,405.39,824,745,0
39450,442.47,824,748,0
39470,485.19,805,747,0
39473,530.65,805,748,0
39482,575.80,805,746,0
39492,617.69,805,747,0
39502,653.78,805,746,0
39512,681.79,805,747,0
39522,701.40,805,746,0
39532,715.12,805,747,0
39542,724.68,805,746,0
39553,731.38,805,747,0
39563,736.06,805,746,0
39573,736.13,805,747,0
39583,730.09,805,746,0
39593,716.18,805,747,0
39603,694.61,805,746,0
39613,664.81,805,747,0
39623,627.67,805,746,0
39633,583.45,805,747,0
39643,536.78,805,746,0
39653,490.26,805,747,0
39663,447.45,805,746,0
39673,409.47,805,747,0
39683,378.17,805,746,0
39693,353.39,805,747,0
39703,336.43,805,746,0
39713,326.15,805,747,0
39724,323.06,805,746,0
39734,325.18,805,747,0
39744,332.11,805,747,0
39754,341.98,805,746,0
39764,354.50,805,746,0
39774,367.08,805,746,0
39784,379.66,805,747,0
39794,389.92,805,746,0
39804,398.43,805,747,0
39814,403.48,805,747,0
39824,406.04,805,747,0
39834,404.83,805,746,0
39844,401.28,805,747,0
39854,394.72,805,747,0
39864,386.84,805,747,0
39874,377.07,805,746,0
39884,367.19,805,747,0
39895,356.68,805,746,0
39905,347.26,805,747,0
39915,338.31,805,746,0
39925,331.23,805,747,0
39936,325.08,805,746,0
39945,321.20,805,747,0
39955,318.31,805,746,0
39965,317.44,805,747,0
39975,317.18,805,746,0
39985,318.63,805,747,0
39995,320.11,805,746,0
40005,322.65,805,747,0
40015,324.68,805,746,0
40025,327.35,805,747,0
40035,329.34,805,746,0
40045,331.86,805,747,0
40055,333.44,805,746,0
40065,335.45,805,747,0
40075,336.77,805,746,0
40085,338.64,805,747,0
40095,339.78,805,746,0
40105,341.30,805,747,0
40115,342.20,805,746,0
40125,343.51,805,747,0
40135,344.00,805,746,0
40145,344.77,805,747,0
40155,344.71,805,746,0
40165,345.18,805,747,0
40175,345.43,805,746,0
40185,347.49,805,748,0
40195,351.41,805,746,0
40205,360.37,805,747,0
40215,375.22,805,746,0
40225,399.15,805,748,0
40245,432.32,776,746,0
40248,472.64,776,748,0
40257,516.29,776,745,0
40267,561.29,776,748,0
40278,604.10,776,746,0
40287,642.51,776,748,0
40297,673.39,776,746,0
40307,695.51,776,748,0
40317,710.96,776,746,0
40327,721.77,776,748,0
40337,729.34,776,745,0
40347,734.64,776,748,0
40357,738.35,776,746,0
40367,739.91,776,748,0
40377,736.47,776,745,0
40387,726.86,776,748,0
40397,709.71,776,746,0
40407,685.37,776,748,0
40417,653.59,776,745,0
40427,615.31,776,748,0
40437,571.98,776,746,0
40448,528.10,776,748,0
40457,485.77,776,745,0
40467,447.95,776,748,0
40477,415.27,776,746,0
40487,389.30,776,748,0
40497,369.45,776,745,0
40507,356.59,776,748,0
40517,349.68,776,746,0
40527,348.66,776,748,0
40537,351.94,776,745,0
40547,359.03,776,748,0
40557,368.10,776,746,0
40567,378.74,776,748,0
40577,388.94,776,745,0
40587,398.51,776,747,0
40597,406.07,776,746,0
40607,411.67,776,748,0
40617,414.25,776,745,0
40627,414.52,776,748,0
40637,412.01,776,746,0
40647,407.85,776,748,0
40657,401.55,776,745,0
40667,394.53,776,748,0
40677,386.44,776,746,0
40687,378.47,776,748,0
40697,370.53,776,745,0
40707,363.64,776,748,0
40717,357.45,776,746,0
40727,352.64,776,748,0
40737,348.51,776,745,0
40748,345.70,776,748,0
40758,343.60,776,746,0
40768,342.22,776,748,0
40778,341.13,776,746,0
40788,340.27,776,748,0
40798,339.51,776,746,0
40808,338.80,776,748,0
40818,337.83,776,746,0
40828,336.68,776,748,0
40838,335.28,776,746,0
40848,333.82,776,748,0
40858,332.16,776,746,0
40868,330.23,776,748,0
40878,328.19,776,746,0
40888,326.20,776,748,0
40898,324.43,776,746,0
40908,322.84,776,748,0
40919,321.39,776,746,0
40929,320.07,776,748,0
40939,318.89,776,746,0
40949,317.68,776,747,0
40960,316.88,776,746,0
40969,316.66,776,748,0
40979,318.30,776,746,0
40989,323.01,776,747,0
40999,333.21,776,746,0
41009,350.33,776,748,0
41019,376.63,776,746,0
41029,412.87,776,748,0
41049,456.28,803,746,0
41052,503.38,803,748,0
41061,551.18,803,746,0
41071,596.34,803,747,0
41081,636.57,803,747,0
41091,669.18,803,747,0
41101,692.57,803,747,0
41111,708.94,803,747,0
41121,720.40,803,747,0
41132,728.42,803,747,0
41142,734.04,803,747,0
41152,735.79,803,747,0
41162,732.12,803,747,0
41172,720.98,803,746,0
41182,702.65,803,747,0
41192,676.10,803,747,0
41202,642.38,803,747,0
41212,601.42,803,746,0
41222,556.81,803,747,0
41232,510.92,803,747,0
41242,467.70,803,747,0
41252,427.64,803,747,0
41262,393.55,803,747,0
41272,364.75,803,747,0
41282,343.01,803,747,0
41292,327.02,803,746,0
41303,317.93,803,747,0
41313,314.05,803,746,0
41323,315.88,803,747,0
41333,321.06,803,746,0
41344,329.91,803,747,0
41353,339.97,803,746,0
41363,351.68,803,747,0
41373,362.27,803,746,0
41383,372.26,803,748,0
41393,379.43,803,746,0
41403,384.74,803,747,0
41413,386.75,803,746,0
41423,386.65,803,747,0
41433,383.41,803,746,0
41443,378.70,803,747,0
41453,371.59,803,746,0
41463,364.04,803,747,0
41473,355.20,803,746,0
41483,347.08,803,747,0
41493,338.74,803,746,0
41503,331.62,803,748,0
41513,324.96,803,746,0
41523,320.26,803,748,0
41533,316.24,803,746,0
41543,314.28,803,748,0
41553,312.74,803,746,0
41563,313.03,803,747,0
41573,313.71,803,746,0
41583,315.77,803,748,0
41593,317.72,803,746,0
41603,320.76,803,747,0
41613,323.45,803,746,0
41623,326.96,803,748,0
41633,329.93,803,746,0
41644,333.33,803,748,0
41654,335.93,803,746,0
41664,338.87,803,748,0
41674,340.92,803,745,0
41684,343.17,803,748,0
41694,344.54,803,746,0
41704,345.96,803,748,0
41714,346.40,803,745,0
41724,346.97,803,748,0
41734,346.59,803,746,0
41744,346.41,803,748,0
41754,345.39,803,745,0
41764,344.54,803,748,0
41774,342.97,803,746,0
41784,341.78,803,748,0
41794,340.04,803,745,0
41804,339.13,803,748,0
41815,338.75,803,746,0
41825,341.14,803,748,0
41835,347.27,803,745,0
41845,360.00,803,748,0
41856,380.83,803,746,0
41874,411.70,826,745,0
41877,450.62,826,746,0
41886,494.79,826,748,0
41896,540.79,826,746,0
41906,585.90,826,748,0
41916,626.90,826,745,0
41926,661.22,826,748,0
41936,686.95,826,746,0
41946,704.97,826,748,0
41956,717.58,826,746,0
41966,726.40,826,748,0
41976,732.58,826,746,0
41986,736.91,826,748,0
41996,738.14,826,746,0
42006,734.19,826,748,0
42016,723.38,826,746,0
42027,705.01,826,748,0
42036,678.91,826,745,0
42046,645.55,826,748,0
42056,605.36,826,746,0
42066,560.98,826,748,0
42076,515.68,826,746,0
42086,472.58,826,748,0
42096,433.62,826,746,0
42106,400.18,826,748,0
42116,372.87,826,746,0
42126,352.46,826,748,0
42136,338.91,826,746,0
42146,332.08,826,748,0
42156,331.16,826,746,0
42166,335.39,826,748,0
42176,343.63,826,746,0
42186,354.71,826,748,0
42196,367.23,826,746,0
42206,380.06,826,748,0
42216,391.87,826,746,0
42226,401.98,826,748,0
42236,409.53,826,746,0
42246,414.34,826,747,0
42256,416.08,826,746,0
42266,414.77,826,748,0
42276,410.60,826,746,0
42286,404.20,826,748,0
42296,395.96,826,746,0
42306,386.46,826,748,0
42316,376.16,826,746,0
42327,365.70,826,747,0
42337,355.89,826,746,0
42347,346.97,826,747,0
42357,339.52,826,746,0
42368,333.45,826,747,0
42377,329.16,826,746,0
42387,326.41,826,747,0
42397,325.34,826,746,0
42407,325.20,826,747,0
42417,326.21,826,746,0
42427,327.78,826,748,0
42437,330.20,826,746,0
42447,332.75,826,747,0
42457,335.57,826,746,0
42467,338.23,826,748,0
42477,341.07,826,746,0
42487,343.41,826,747,0
42497,345.47,826,746,0
42507,346.92,826,747,0
42517,348.44,826,746,0
42527,350.19,826,747,0
42537,353.78,826,746,0
42547,360.10,826,748,0
42557,371.51,826,746,0
42567,389.57,826,747,0
42577,416.19,826,746,0
42587,451.19,826,748,0
42597,491.97,826,746,0
42607,535.18,826,747,0
42617,578.41,826,747,0
42636,618.79,762,745,0
42638,653.91,762,747,0
42648,681.58,762,747,0
42658,701.21,762,747,0
42668,714.94,762,747,0
42678,724.56,762,746,0
42688,729.96,762,747,0
42698,729.85,762,747,0
42708,722.48,762,747,0
42718,707.81,762,746,0
42728,685.06,762,747,0
42738,654.96,762,747,0
42748,617.56,762,747,0
42758,575.52,762,746,0
42768,531.18,762,747,0
42778,488.14,762,746,0
42788,447.25,762,747,0
42798,411.14,762,746,0
42808,379.85,762,747,0
42818,355.00,762,746,0
42828,335.80,762,747,0
42839,323.39,762,747,0
42849,316.76,762,747,0
42859,316.49,762,747,0
42869,320.75,762,747,0
42880,329.70,762,747,0
42889,341.10,762,747,0
42899,354.70,762,747,0
42909,368.38,762,747,0
42919,381.98,762,747,0
42929,393.56,762,747,0
42939,403.20,762,747,0
42949,409.19,762,747,0
42959,412.47,762,747,0
42969,411.99,762,747,0
42979,409.12,762,747,0
42989,403.08,762,747,0
42999,395.52,762,747,0
43009,386.15,762,747,0
43019,376.72,762,746,0
43029,366.60,762,747,0
43039,357.51,762,747,0
43049,348.53,762,746,0
43059,341.30,762,747,0
43069,334.82,762,747,0
43079,330.20,762,747,0
43089,326.20,762,747,0
43099,323.95,762,746,0
43109,322.08,762,747,0
43119,321.67,762,747,0
43129,321.30,762,746,0
43139,322.02,762,747,0
43149,322.66,762,747,0
43159,324.48,762,747,0
43169,326.00,762,746,0
43180,328.49,762,747,0
43190,330.49,762,746,0
43200,333.17,762,747,0
43210,335.22,762,746,0
43220,337.85,762,747,0
43230,339.57,762,746,0
43240,341.67,762,747,0
43250,342.84,762,746,0
43260,344.52,762,747,0
43270,345.35,762,746,0
43280,346.53,762,747,0
43290,346.76,762,746,0
43300,347.34,762,747,0
43310,347.28,762,746,0
43320,348.40,762,747,0
43330,350.59,762,746,0
43340,357.02,762,747,0
43351,368.58,762,746,0
43361,388.89,762,748,0
43371,418.58,762,746,0
43390,456.68,754,745,0
43394,499.59,754,747,0
43403,544.97,754,748,0
43413,589.16,754,746,0
43423,629.87,754,748,0
43433,663.55,754,746,0
43443,688.63,754,748,0
43453,706.18,754,746,0
43463,718.43,754,748,0
43473,727.00,754,746,0
43483,733.00,754,748,0
43493,737.20,754,746,0
43503,740.14,754,748,0
43513,741.26,754,746,0
43523,738.52,754,748,0
43533,729.71,754,746,0
43543,713.98,754,747,0
43553,690.37,754,746,0
43564,659.23,754,748,0
43574,620.72,754,746,0
43584,576.53,754,747,0
43594,529.83,754,746,0
43604,484.07,754,748,0
43614,441.49,754,746,0
43624,404.36,754,747,0
43634,373.52,754,746,0
43644,349.79,754,748,0
43654,333.31,754,746,0
43664,323.96,754,747,0
43674,321.19,754,746,0
43684,323.75,754,748,0
43694,330.46,754,746,0
43704,340.14,754,747,0
43714,351.50,754,746,0
43724,363.26,754,748,0
43735,374.33,754,746,0
43745,383.66,754,747,0
43755,390.87,754,746,0
43765,395.24,754,747,0
43776,396.80,754,746,0
43785,395.53,754,747,0
43795,391.90,754,746,0
43805,385.93,754,747,0
43815,378.54,754,746,0
43825,369.85,754,747,0
43835,361.06,754,746,0
43845,352.13,754,747,0
43855,343.82,754,746,0
43865,336.07,754,747,0
43875,329.75,754,746,0
43885,324.21,754,747,0
43895,320.25,754,746,0
43905,317.13,754,747,0
43915,315.38,754,746,0
43925,314.45,754,747,0
43935,314.74,754,746,0
43945,315.42,754,747,0
43955,317.18,754,746,0
43965,319.35,754,747,0
43975,322.29,754,746,0
43985,325.29,754,747,0
43995,328.67,754,746,0
44005,331.81,754,748,0
44015,335.30,754,746,0
44025,338.29,754,747,0
44035,341.21,754,746,0
44045,343.54,754,748,0
44055,345.65,754,747,0
44065,346.87,754,747,0
44076,347.98,754,746,0
44086,348.33,754,747,0
44096,349.65,754,746,0
44106,352.41,754,747,0
44116,359.36,754,747,0
44126,371.64,754,747,0
44136,392.27,754,747,0
44146,422.06,754,747,0
44156,460.19,754,747,0
44175,502.90,785,746,0
44178,547.76,785,748,0
44187,591.12,785,747,0
44197,630.98,785,747,0
44207,664.20,785,747,0
44217,689.04,785,747,0
44227,706.39,785,747,0
44237,718.53,785,747,0
44247,726.98,785,747,0
44257,732.95,785,747,0
44267,737.12,785,747,0
44277,740.04,785,747,0
44288,739.00,785,747,0
44297,733.00,785,747,0
44307,719.93,785,747,0
44317,699.64,785,747,0
44327,671.33,785,747,0
44337,636.09,785,747,0
44347,593.76,785,747,0
44357,549.00,785,747,0
44367,503.40,785,747,0
44377,460.90,785,747,0
44387,422.23,785,747,0
44397,390.02,785,747,0
44407,363.70,785,747,0
44417,344.85,785,747,0
44427,332.29,785,747,0
44437,326.85,785,747,0
44447,326.64,785,746,0
44457,331.85,785,747,0
44467,340.12,785,747,0
44477,351.36,785,746,0
44487,363.16,785,746,0
44497,375.24,785,747,0
44507,385.46,785,747,0
44517,394.06,785,746,0
44527,399.53,785,747,0
44537,402.67,785,747,0
44547,402.43,785,747,0
44557,400.16,785,746,0
44567,395.09,785,746,0
44577,388.85,785,747,0
44588,380.92,785,746,0
44598,372.89,785,747,0
44608,364.27,785,746,0
44618,356.39,785,748,0
44628,348.51,785,746,0
44638,342.19,785,747,0
44648,336.47,785,746,0
44658,332.60,785,748,0
44668,329.47,785,746,0
44678,328.00,785,747,0
44688,327.06,785,746,0
44698,327.72,785,747,0
44708,328.58,785,746,0
44718,330.76,785,747,0
44728,332.76,785,746,0
44738,335.53,785,748,0
44748,337.77,785,746,0
44759,340.58,785,747,0
44769,342.59,785,746,0
44779,345.03,785,748,0
44789,346.39,785,746,0
44800,347.90,785,747,0
44809,348.36,785,746,0
44819,348.90,785,748,0
44829,348.46,785,746,0
44839,348.19,785,747,0
44849,346.93,785,746,0
44859,346.22,785,748,0
44869,345.64,785,746,0
44879,347.55,785,747,0
44889,352.44,785,746,0
44899,363.24,785,748,0
44909,381.12,785,746,0
44919,408.94,785,747,0
44929,445.47,785,746,0
44948,487.93,773,745,0
44950,532.74,773,747,0
44960,577.60,773,748,0
44971,619.16,773,746,0
44980,655.12,773,748,0
44990,682.68,773,746,0
45000,701.98,773,748,0
45010,715.48,773,746,0
45020,724.94,773,748,0
45030,731.56,773,746,0
45040,736.19,773,748,0
45050,737.38,773,746,0
45060,733.71,773,748,0
45070,723.29,773,746,0
45080,705.68,773,748,0
45090,680.32,773,745,0
45100,648.04,773,748,0
45110,608.94,773,746,0
45120,566.01,773,748,0
45130,521.57,773,745,0
45140,479.05,773,748,0
45150,440.08,773,746,0
45160,406.67,773,748,0
45170,378.70,773,745,0
45180,357.57,773,748,0
45190,342.70,773,746,0
45200,334.91,773,748,0
45210,333.01,773,745,0
45220,336.65,773,748,0
45230,344.25,773,746,0
45240,355.28,773,748,0
45250,367.62,773,745,0
45260,380.68,773,748,0
45271,392.52,773,746,0
45281,402.73,773,748,0
45291,410.14,773,746,0
45301,414.64,773,748,0
45312,415.95,773,746,0
45321,414.46,773,748,0
45331,410.30,773,746,0
45341,403.95,773,747,0
45351,395.74,773,746,0
45361,386.52,773,748,0
45371,376.72,773,746,0
45381,366.90,773,748,0
45391,357.59,773,746,0
45401,349.23,773,748,0
45411,342.09,773,745,0
45421,336.49,773,748,0
45431,332.44,773,746,0
45441,330.04,773,748,0
45451,328.96,773,745,0
45461,329.10,773,748,0
45471,330.18,773,746,0
45481,332.01,773,748,0
45491,334.37,773,745,0
45501,337.04,773,747,0
45511,339.82,773,746,0
45521,342.61,773,748,0
45531,345.30,773,745,0
45541,348.04,773,748,0
45551,350.64,773,746,0
45561,353.02,773,748,0
45571,354.94,773,745,0
45581,356.59,773,748,0
45591,357.70,773,746,0
45601,358.22,773,748,0
45612,358.24,773,745,0
45622,358.38,773,747,0
45632,359.51,773,746,0
45642,363.17,773,747,0
45652,371.09,773,746,0
45662,385.16,773,747,0
45672,407.49,773,746,0
45682,439.01,773,747,0
45692,477.49,773,746,0
45711,519.90,763,745,0
45713,563.35,763,747,0
45723,604.90,763,747,0
45733,642.26,763,746,0
45743,672.82,763,747,0
45753,695.08,763,746,0
45763,710.65,763,747,0
45773,721.56,763,746,0
45783,729.19,763,747,0
45793,734.53,763,746,0
45803,735.83,763,747,0
45813,731.64,763,746,0
45824,720.43,763,747,0
45833,702.30,763,746,0
45843,676.88,763,747,0
45853,644.60,763,746,0
45863,605.59,763,747,0
45873,563.50,763,746,0
45883,520.54,763,747,0
45893,479.92,763,746,0
45903,442.27,763,747,0
45913,409.45,763,746,0
45923,381.67,763,747,0
45933,360.30,763,746,0
45943,344.48,763,747,0
45953,334.99,763,746,0
45963,330.67,763,747,0
45973,331.75,763,746,0
45983,336.58,763,747,0
45993,345.15,763,746,0
46003,355.22,763,747,0
46013,366.55,763,746,0
46023,377.32,763,747,0
46033,387.21,763,746,0
46043,394.65,763,747,0
46053,399.98,763,746,0
46063,402.04,763,747,0
46073,401.77,763,746,0
46083,398.50,763,747,0
46093,393.46,763,746,0
46103,386.12,763,746,0
46113,378.07,763,746,0
46124,368.88,763,747,0
46134,359.92,763,746,0
46144,350.77,763,746,0
46154,342.91,763,747,0
46164,335.48,763,746,0
46174,329.98,763,746,0
46184,325.23,763,746,0
46194,322.50,763,747,0
46204,320.47,763,746,0
46214,320.28,763,746,0
46224,320.50,763,746,0
46234,322.06,763,747,0
46244,323.54,763,746,0
46254,325.95,763,746,0
46264,328.02,763,746,0
46274,330.80,763,746,0
46284,332.92,763,746,0
46295,335.47,763,747,0
46305,337.30,763,745,0
46315,339.57,763,747,0
46325,341.11,763,746,0
46336,342.79,763,747,0
46345,343.71,763,745,0
46355,344.78,763,747,0
46365,344.81,763,745,0
46375,345.08,763,747,0
46385,344.50,763,745,0
46395,344.86,763,747,0
46405,345.93,763,745,0
46415,350.37,763,747,0
46425,358.70,763,745,0
46435,374.30,763,747,0
46445,398.00,763,746,0
46455,432.03,763,747,0
46474,472.39,763,745,0
46477,516.80,763,749,0
46486,561.52,763,746,0
46496,604.61,763,747,0
46507,642.61,763,745,0
46516,673.58,763,747,0
46526,695.44,763,745,0
46536,710.78,763,747,0
46546,721.47,763,745,0
46556,729.00,763,747,0
46566,734.23,763,745,0
46576,737.55,763,747,0
46586,735.93,763,745,0
46596,728.83,763,747,0
46606,714.66,763,745,0
46616,693.67,763,747,0
46626,665.19,763,744,0
46636,630.42,763,746,0
46646,589.71,763,745,0
46656,547.71,763,747,0
46666,505.88,763,745,0
46676,468.16,763,747,0
46686,434.64,763,746,0
46696,407.23,763,747,0
46706,385.01,763,745,0
46716,369.02,763,747,0
46726,358.08,763,746,0
46736,352.70,763,747,0
46746,350.48,763,746,0
46756,351.92,763,748,0
46766,355.42,763,746,0
46776,361.20,763,748,0
46786,367.49,763,745,0
46796,374.50,763,748,0
46807,380.48,763,746,0
46817,385.69,763,748,0
46827,388.61,763,746,0
46837,389.84,763,748,0
46848,388.39,763,746,0
46857,385.40,763,748,0
46867,380.14,763,746,0
46877,373.71,763,748,0
46887,365.91,763,746,0
46897,358.01,763,748,0
46907,349.69,763,746,0
46917,341.98,763,748,0
46927,334.45,763,746,0
46937,328.10,763,748,0
46947,322.50,763,746,0
46957,318.28,763,748,0
46967,314.81,763,746,0
46977,312.72,763,748,0
46987,311.39,763,746,0
46997,311.36,763,748,0
47007,311.94,763,746,0
47017,313.37,763,748,0
47027,315.02,763,746,0
47037,317.45,763,748,0
47047,319.98,763,745,0
47057,323.11,763,748,0
47067,325.91,763,746,0
47077,328.93,763,748,0
47087,331.74,763,746,0
47097,334.65,763,748,0
47107,337.15,763,746,0
47117,339.59,763,748,0
47127,341.34,763,746,0
47137,342.95,763,748,0
47148,343.91,763,746,0
47158,344.97,763,748,0
47168,346.86,763,746,0
47178,351.19,763,748,0
47188,359.75,763,746,0
47198,374.61,763,748,0
47208,397.53,763,746,0
47218,430.11,763,748,0
47238,469.81,763,747,0
47241,513.54,763,748,0
47250,558.29,763,746,0
47260,601.10,763,748,0
47270,639.43,763,747,0
47280,670.93,763,748,0
47290,693.75,763,746,0
47300,709.73,763,748,0
47310,720.91,763,747,0
47320,728.74,763,747,0
47330,734.21,763,746,0
47340,736.85,763,748,0
47350,734.80,763,747,0
47361,726.33,763,747,0
47371,711.27,763,747,0
47381,688.78,763,747,0
47391,659.44,763,747,0
47401,623.18,763,747,0
47411,582.46,763,747,0
47421,539.93,763,747,0
47431,498.98,763,747,0
47441,460.29,763,747,0
47451,426.47,763,747,0
47461,397.57,763,747,0
47471,375.20,763,747,0
47481,358.34,763,747,0
47491,347.91,763,747,0
47501,342.58,763,747,0
47511,342.88,763,747,0
47521,346.77,763,747,0
47532,354.21,763,747,0
47542,362.98,763,747,0
47552,372.93,763,747,0
47562,381.91,763,746,0
47572,390.12,763,747,0
47582,395.83,763,747,0
47592,399.56,763,747,0
47602,399.91,763,746,0
47612,398.09,763,747,0
47622,393.52,763,747,0
47632,387.49,763,747,0
47642,379.50,763,746,0
47652,370.95,763,747,0
47662,361.50,763,747,0
47672,352.86,763,747,0
47682,344.03,763,746,0
47692,336.52,763,747,0
47703,329.51,763,746,0
47713,324.30,763,748,0
47723,319.88,763,746,0
47733,317.30,763,748,0
47744,315.20,763,746,0
47753,314.84,763,748,0
47763,314.67,763,746,0
47773,315.88,763,748,0
47783,316.73,763,746,0
47793,318.61,763,748,0
47803,319.84,763,746,0
47813,321.56,763,748,0
47823,322.51,763,746,0
47833,323.86,763,748,0
47843,324.28,763,746,0
47853,325.23,763,748,0
47863,325.12,763,746,0
47873,325.34,763,748,0
47883,324.64,763,746,0
47893,324.19,763,748,0
47903,322.63,763,746,0
47913,321.24,763,748,0
47923,318.94,763,746,0
47933,317.76,763,748,0
47943,317.62,763,746,0
47953,321.59,763,748,0
47963,330.03,763,746,0
47973,346.48,763,748,0
47983,371.62,763,746,0
47993,407.73,763,748,0
48012,450.97,775,746,0
48015,498.59,775,749,0
48024,546.54,775,746,0
48034,592.71,775,748,0
48044,633.51,775,746,0
48054,667.09,775,748,0
48064,691.15,775,746,0
48074,707.99,775,748,0
48084,719.73,775,746,0
48094,727.96,775,748,0
48104,731.23,775,746,0
48114,728.46,775,748,0
48124,718.04,775,746,0
48134,700.28,775,748,0
48144,674.70,775,746,0
48154,642.43,775,748,0
48164,603.34,775,746,0
48174,561.33,775,748,0
48184,518.29,775,746,0
48194,477.70,775,748,0
48204,440.20,775,746,0
48215,407.83,775,748,0
48225,380.28,775,746,0
48235,358.94,775,748,0
48245,343.01,775,746,0
48256,333.28,775,748,0
48265,328.61,775,746,0
48275,329.16,775,748,0
48285,333.52,775,746,0
48295,341.25,775,748,0
48305,350.86,775,746,0
48315,361.83,775,748,0
48325,372.43,775,746,0
48335,382.28,775,748,0
48345,390.04,775,746,0
48355,395.64,775,748,0
48365,398.19,775,746,0
48375,398.14,775,748,0
48385,394.88,775,746,0
48395,389.73,775,748,0
48405,382.35,775,746,0
48415,373.85,775,748,0
48425,364.29,775,746,0
48435,354.91,775,748,0
48445,345.51,775,746,0
48455,337.17,775,748,0
48465,329.62,775,746,0
48475,323.90,775,748,0
48485,320.63,775,747,0
48495,321.00,775,749,0
48505,324.56,775,748,0
48515,331.16,775,751,0
48525,339.08,775,749,0
48535,347.89,775,750,0
48545,356.28,775,748,0
48556,363.18,775,751,0
48566,367.24,775,748,0
48576,368.67,775,750,0
48586,367.57,775,748,0
48596,365.25,775,751,0
48606,362.22,775,749,0
48616,359.41,775,750,0
48626,356.97,775,749,0
48636,355.27,775,751,0
48646,353.99,775,749,0
48656,353.35,775,750,0
48666,353.20,775,749,0
48676,353.35,775,751,0
48686,353.93,775,749,0
48696,355.41,775,750,0
48706,359.10,775,749,0
48716,366.79,775,751,0
48727,380.74,775,749,0
48737,402.76,775,751,0
48747,434.63,775,749,0
48757,473.57,775,751,0
48777,516.86,764,749,0
48779,561.47,764,751,0
48789,604.62,764,750,0
48799,643.13,764,750,0
48809,674.81,764,750,0
48819,697.49,764,750,0
48829,713.42,764,750,0
48839,724.52,764,750,0
48849,732.34,764,750,0
48859,737.76,764,750,0
48869,739.72,764,750,0
48879,735.26,764,750,0
48889,723.35,764,750,0
48899,702.81,764,750,0
48909,674.06,764,750,0
48919,636.76,764,750,0
48929,591.92,764,750,0
48940,541.80,764,750,0
48950,491.24,764,750,0
48960,442.23,764,750,0
48970,398.02,764,751,0
48980,359.10,764,749,0
48990,327.78,764,750,0
49000,303.76,764,750,0
49010,288.36,764,750,0
49020,280.28,764,749,0
49030,280.15,764,750,0
49040,285.85,764,750,0
49050,297.42,764,750,0
49060,312.17,764,749,0
49070,329.82,764,750,0
49080,347.40,764,750,0
49090,364.81,764,750,0
49100,379.61,764,749,0
49111,392.07,764,751,0
49121,400.23,764,749,0
49131,405.01,764,751,0
49141,404.92,764,749,0
49152,401.56,764,751,0
49161,394.36,764,749,0
49171,385.34,764,751,0
49181,374.05,764,749,0
49191,362.46,764,751,0
49201,350.20,764,749,0
49211,339.38,764,751,0
49221,329.24,764,749,0
49231,321.28,764,751,0
49241,314.43,764,750,0
49251,309.93,764,751,0
49261,306.52,764,749,0
49271,305.34,764,751,0
49281,304.89,764,749,0
49291,306.55,764,751,0
49301,308.70,764,749,0
49311,312.39,764,751,0
49321,316.17,764,749,0
49331,321.14,764,751,0
49341,325.77,764,749,0
49351,331.15,764,751,0
49361,335.73,764,749,0
49371,340.83,764,751,0
49381,345.04,764,749,0
49391,349.44,764,751,0
49401,352.82,764,749,0
49411,356.35,764,751,0
49421,358.73,764,749,0
49431,361.42,764,751,0
49441,363.65,764,749,0
49452,367.79,764,751,0
49462,374.32,764,749,0
49472,386.48,764,751,0
49482,405.41,764,749,0
49492,434.13,764,752,0
49502,470.22,764,749,0
49512,511.47,764,751,0
49531,554.48,755,750,0
49534,597.20,755,751,0
49543,636.14,755,749,0
49553,669.18,755,751,0
49563,693.60,755,749,0
49573,710.73,755,751,0
49583,722.68,755,749,0
49593,731.09,755,751,0
49603,736.94,755,749,0
49613,741.07,755,752,0
49623,742.76,755,749,0
49633,739.62,755,751,0
49643,729.58,755,749,0
49653,711.88,755,752,0
49664,685.90,755,749,0
49673,652.46,755,751,0
49683,611.61,755,749,0
49693,565.35,755,751,0
49703,517.16,755,749,0
49713,470.66,755,751,0
49723,427.60,755,749,0
49733,390.05,755,752,0
49743,358.28,755,748,0
49753,333.51,755,751,0
49763,315.66,755,749,0
49773,305.09,755,751,0
49783,300.78,755,748,0
49793,302.43,755,751,0
49803,308.60,755,749,0
49813,318.49,755,751,0
49823,330.34,755,748,0
49833,343.18,755,751,0
49843,355.39,755,749,0
49853,366.46,755,752,0
49863,375.19,755,748,0
49873,381.30,755,751,0
49883,384.21,755,749,0
49893,384.41,755,751,0
49903,381.76,755,748,0
49913,376.99,755,751,0
49923,370.22,755,749,0
49933,362.44,755,751,0
49943,353.99,755,748,0
49953,345.55,755,751,0
49964,337.29,755,749,0
49974,329.87,755,751,0
49984,323.31,755,749,0
49994,317.90,755,751,0
50004,313.65,755,749,0
50014,310.62,755,751,0
50024,308.68,755,749,0
50034,307.75,755,751,0
50044,307.82,755,749,0
50054,308.78,755,752,0
50064,310.47,755,749,0
50074,312.60,755,751,0
50084,315.16,755,748,0
50094,318.03,755,751,0
50104,321.06,755,749,0
50114,323.96,755,751,0
50124,326.93,755,749,0
50135,329.69,755,751,0
50145,332.27,755,749,0
50155,334.42,755,751,0
50165,336.35,755,749,0
50176,337.74,755,751,0
50185,339.19,755,749,0
50195,340.89,755,751,0
50205,344.57,755,749,0
50215,351.55,755,751,0
50225,364.07,755,749,0
50235,383.98,755,751,0
50245,413.81,755,749,0
50255,451.93,755,751,0
50274,495.36,743,750,0
50277,540.81,743,751,0
50286,585.70,743,750,0
50296,627.06,743,751,0
50306,662.31,743,750,0
50316,688.79,743,751,0
50326,707.37,743,750,0
50336,720.33,743,751,0
50347,729.40,743,750,0
50356,735.71,743,751,0
50366,740.17,743,750,0
50376,743.25,743,751,0
50386,742.92,743,750,0
50396,736.77,743,751,0
50406,723.72,743,749,0
50416,702.42,743,750,0
50426,673.37,743,750,0
50436,636.61,743,751,0
50446,593.19,743,749,0
50456,545.86,743,751,0
50466,498.84,743,750,0
50476,454.19,743,751,0
50486,414.96,743,749,0
50496,381.50,743,750,0
50506,355.51,743,750,0
50516,336.37,743,750,0
50526,324.99,743,749,0
50536,319.85,743,750,0
50546,321.01,743,750,0
50556,326.45,743,750,0
50566,335.79,743,749,0
50576,346.56,743,750,0
50586,358.44,743,750,0
50596,369.32,743,750,0
50606,379.17,743,749,0
50616,386.23,743,750,0
50626,391.05,743,750,0
50636,392.40,743,750,0
50647,391.30,743,749,0
50657,387.05,743,750,0
50667,381.12,743,750,0
50677,372.86,743,750,0
50688,363.99,743,750,0
50697,353.92,743,750,0
50707,344.34,743,750,0
50717,334.55,743,750,0
50727,326.25,743,750,0
50737,318.29,743,750,0
50747,312.16,743,750,0
50757,306.75,743,750,0
50767,303.40,743,750,0
50777,300.92,743,750,0
50787,300.43,743,750,0
50797,300.30,743,750,0
50807,301.80,743,750,0
50817,303.53,743,750,0
50827,306.46,743,750,0
50837,309.36,743,750,0
50847,312.94,743,750,0
50857,316.09,743,749,0
50867,319.92,743,750,0
50877,322.86,743,750,0
50887,326.16,743,750,0
50897,328.38,743,750,0
50907,330.50,743,750,0
50917,331.55,743,750,0
50927,332.67,743,750,0
50937,332.90,743,750,0
50947,334.30,743,750,0
50957,336.91,743,750,0
50967,343.84,743,750,0
50977,356.01,743,749,0
50988,377.01,743,751,0
50998,407.35,743,749,0
51008,446.54,743,751,0
51018,490.82,743,749,0
51038,537.68,763,748,0
51040,583.50,763,749,0
51050,625.87,763,751,0
51060,661.22,763,749,0
51070,687.94,763,751,0
51080,706.64,763,749,0
51090,719.74,763,751,0
51100,728.86,763,749,0
51110,735.29,763,751,0
51120,739.83,763,749,0
51130,743.01,763,752,0
51140,743.91,763,749,0
51150,740.12,763,751,0
51160,729.80,763,749,0
51170,711.99,763,751,0
51180,685.72,763,748,0
51190,651.56,763,751,0
51201,609.74,763,749,0
51211,562.84,763,751,0
51221,514.20,763,748,0
51231,467.30,763,751,0
51241,424.31,763,748,0
51251,387.70,763,751,0
51261,357.83,763,748,0
51271,336.07,763,752,0
51281,321.52,763,748,0
51291,314.51,763,751,0
51301,313.58,763,748,0
51311,317.99,763,752,0
51321,326.18,763,748,0
51331,337.23,763,751,0
51341,349.12,763,748,0
51351,361.08,763,752,0
51361,371.60,763,748,0
51372,380.29,763,751,0
51382,386.29,763,749,0
51392,389.29,763,751,0
51402,389.16,763,749,0
51412,386.07,763,751,0
51422,380.43,763,749,0
51432,372.85,763,751,0
51442,363.72,763,749,0
51452,353.73,763,751,0
51462,343.48,763,748,0
51472,333.31,763,751,0
51482,323.87,763,749,0
51492,315.21,763,751,0
51502,307.69,763,749,0
51512,301.53,763,751,0
51522,297.04,763,749,0
51532,293.90,763,751,0
51543,292.39,763,749,0
51553,292.01,763,751,0
51563,293.00,763,749,0
51573,294.71,763,751,0
51584,297.33,763,749,0
51593,300.06,763,751,0
51603,303.43,763,749,0
51613,306.64,763,751,0
51623,310.22,763,749,0
51633,313.54,763,751,0
51643,317.15,763,749,0
51653,320.19,763,751,0
51663,323.35,763,749,0
51673,325.90,763,751,0
51683,328.37,763,749,0
51693,330.06,763,751,0
51703,331.63,763,749,0
51713,332.77,763,751,0
51723,334.98,763,749,0
51733,338.89,763,751,0
51743,346.93,763,749,0
51753,360.88,763,751,0
51763,383.33,763,749,0
51773,415.50,763,751,0
51783,455.68,763,749,0
51803,500.39,765,748,0
51806,546.99,765,751,0
51815,592.12,765,750,0
51825,633.10,765,750,0
51835,667.05,765,750,0
51845,692.07,765,750,0
51855,709.58,765,750,0
51865,721.87,765,750,0
51875,730.44,765,750,0
51885,736.48,765,750,0
51895,740.66,765,750,0
51905,743.64,765,750,0
51915,743.49,765,750,0
51926,738.24,765,750,0
51935,725.70,765,750,0
51945,705.30,765,750,0
51955,676.24,765,750,0
51965,639.35,765,750,0
51975,595.02,765,750,0
51985,546.54,765,750,0
51995,496.71,765,750,0
52005,449.70,765,750,0
52015,406.97,765,750,0
52025,371.24,765,750,0
52035,342.37,765,750,0
52045,321.73,765,751,0
52055,308.40,765,750,0
52065,303.05,765,750,0
52075,303.76,765,750,0
52085,310.73,765,750,0
52096,321.18,765,750,0
52105,334.84,765,750,0
52115,348.95,765,750,0
52125,363.36,765,750,0
52135,375.90,765,750,0
52145,386.47,765,750,0
52155,393.02,765,750,0
52165,396.61,765,750,0
52175,396.08,765,750,0
52185,392.89,765,750,0
52195,386.36,765,750,0
52205,378.20,765,750,0
52215,367.94,765,750,0
52225,357.59,765,750,0
52235,346.52,765,750,0
52245,336.38,765,750,0
52255,326.32,765,750,0
52265,317.96,765,751,0
52275,310.25,765,750,0
52285,304.69,765,750,0
52295,300.07,765,750,0
52305,297.61,765,751,0
52315,296.05,765,750,0
52325,296.42,765,750,0
52335,297.37,765,750,0
52345,299.70,765,751,0
52355,302.02,765,750,0
52365,305.27,765,750,0
52375,308.06,765,750,0
52385,311.51,765,751,0
52396,314.40,765,749,0
52406,317.75,765,751,0
52416,320.57,765,749,0
52426,323.83,765,751,0
52436,326.37,765,749,0
52446,329.21,765,751,0
52456,331.03,765,749,0
52466,333.00,765,751,0
52476,333.90,765,749,0
52486,335.21,765,751,0
52496,336.65,765,749,0
52506,340.83,765,751,0
52516,348.42,765,749,0
52526,362.39,765,751,0
52536,383.96,765,749,0
52546,416.03,765,751,0
52556,455.71,765,749,0
52576,500.45,774,748,0
52578,546.43,774,749,0
52588,591.43,774,751,0
52598,632.27,774,748,0
52609,666.65,774,752,0
52619,691.83,774,749,0
52629,709.49,774,752,0
52639,721.82,774,748,0
52649,730.49,774,752,0
52659,736.51,774,749,0
52669,740.77,774,752,0
52679,743.71,774,748,0
52689,742.56,774,752,0
52699,735.27,774,749,0
52709,720.41,774,751,0
52719,696.88,774,748,0
52729,664.90,774,751,0
52739,624.99,774,749,0
52749,577.98,774,752,0
52759,527.71,774,748,0
52769,477.96,774,752,0
52780,431.56,774,749,0
52790,391.15,774,751,0
52800,357.85,774,748,0
52810,332.35,774,751,0
52820,315.02,774,749,0
52830,305.80,774,751,0
52840,303.84,774,748,0
52850,308.30,774,751,0
52860,317.60,774,749,0
52870,330.23,774,751,0
52880,344.61,774,749,0
52890,358.95,774,751,0
52900,372.30,774,749,0
52910,383.26,774,751,0
52920,391.07,774,749,0
52930,395.25,774,751,0
52940,396.07,774,749,0
52951,393.40,774,751,0
52961,388.01,774,749,0
52971,379.95,774,751,0
52981,370.41,774,749,0
52992,359.61,774,751,0
53001,348.76,774,749,0
53011,337.82,774,751,0
53021,327.84,774,750,0
53031,318.59,774,751,0
53041,311.00,774,749,0
53051,304.61,774,751,0
53061,300.23,774,749,0
53071,297.12,774,751,0
53081,295.67,774,749,0
53091,295.25,774,751,0
53101,296.42,774,750,0
53111,298.31,774,751,0
53121,301.30,774,749,0
53131,304.73,774,751,0
53141,309.05,774,750,0
53151,313.36,774,751,0
53161,318.14,774,749,0
53171,322.47,774,751,0
53181,326.87,774,749,0
53191,330.55,774,751,0
53201,333.94,774,750,0
53211,336.23,774,751,0
53221,338.18,774,750,0
53231,338.94,774,751,0
53241,339.34,774,749,0
53251,339.03,774,751,0
53261,338.97,774,750,0
53271,339.63,774,751,0
53281,343.17,774,749,0
53292,351.13,774,751,0
53302,366.95,774,750,0
53312,392.25,774,751,0
53322,427.83,774,750,0
53332,470.14,774,751,0
53351,516.38,775,749,0
53354,563.28,775,751,0
53363,608.11,775,750,0
53373,647.21,775,750,0
53383,678.13,775,750,0
53393,699.78,775,750,0
53403,714.97,775,751,0
53413,725.57,775,750,0
53423,733.03,775,750,0
53433,738.25,775,750,0
53443,741.94,775,751,0
53453,744.49,775,750,0
53463,746.31,775,750,0
53473,747.55,775,751,0
53483,746.23,775,750,0
53493,738.96,775,750,0
53504,724.57,775,751,0
53513,701.77,775,750,0
53523,670.90,775,750,0
53533,631.89,775,750,0
53543,586.11,775,750,0
53553,536.40,775,750,0
53563,488.07,775,750,0
53573,443.13,775,749,0
53583,404.82,775,751,0
53593,373.46,775,750,0
53603,350.87,775,750,0
53613,335.78,775,750,0
53623,328.73,775,751,0
53633,327.48,775,750,0
53643,332.01,775,750,0
53653,339.76,775,750,0
53663,350.29,775,751,0
53673,360.83,775,750,0
53683,371.55,775,750,0
53693,380.13,775,750,0
53703,387.12,775,750,0
53713,390.90,775,750,0
53723,392.34,775,750,0
53733,390.35,775,750,0
53743,386.39,775,750,0
53753,379.50,775,750,0
53763,371.59,775,750,0
53773,361.90,775,750,0
53783,352.20,775,750,0
53793,341.73,775,750,0
53804,332.47,775,751,0
53814,323.50,775,749,0
53824,316.53,775,751,0
53834,310.29,775,749,0
53844,306.22,775,751,0
53854,302.98,775,749,0
53864,301.83,775,751,0
53874,301.19,775,749,0
53884,302.12,775,751,0
53894,303.11,775,749,0
53904,305.22,775,751,0
53914,307.00,775,750,0
53924,309.40,775,751,0
53934,311.12,775,749,0
53944,313.19,775,751,0
53954,314.33,775,749,0
53964,315.82,775,751,0
53975,316.34,775,749,0
53985,317.10,775,751,0
53995,317.03,775,749,0
54005,317.19,775,751,0
54016,316.62,775,748,0
54025,316.60,775,751,0
54035,315.99,775,749,0
54045,316.30,775,751,0
54055,317.24,775,749,0
54065,321.15,775,751,0
54075,328.78,775,749,0
54085,343.46,775,751,0
54095,366.55,775,749,0
54105,400.50,775,751,0
54115,442.35,775,749,0
54134,489.30,783,748,0
54137,537.77,783,749,0
54146,585.32,783,751,0
54156,628.21,783,749,0
54166,663.89,783,752,0
54176,689.85,783,749,0
54187,708.07,783,752,0
54196,720.78,783,749,0
54206,729.71,783,751,0
54216,735.93,783,749,0
54226,740.32,783,752,0
54236,743.40,783,749,0
54246,745.59,783,751,0
54256,745.03,783,749,0
54266,739.28,783,751,0
54276,726.17,783,749,0
54286,705.07,783,751,0
54296,675.09,783,749,0
54306,636.92,783,751,0
54316,591.05,783,749,0
54326,540.80,783,751,0
54336,489.91,783,749,0
54346,442.11,783,751,0
54356,399.39,783,749,0
54366,364.00,783,751,0
54376,336.27,783,749,0
54386,316.99,783,751,0
54396,305.59,783,749,0
54406,301.60,783,751,0
54416,303.52,783,749,0
54426,310.52,783,751,0
54436,320.87,783,749,0
54446,333.59,783,751,0
54456,346.57,783,749,0
54466,358.96,783,751,0
54476,369.43,783,749,0
54487,377.78,783,752,0
54497,382.91,783,749,0
54507,384.95,783,751,0
54517,383.59,783,749,0
54528,379.51,783,751,0
54537,372.89,783,749,0
54547,364.57,783,751,0
54557,354.88,783,749,0
54567,344.59,783,751,0
54577,334.13,783,749,0
54587,324.15,783,751,0
54597,315.10,783,749,0
54607,307.27,783,752,0
54617,300.85,783,749,0
54627,295.96,783,751,0
54637,292.72,783,749,0
54647,291.17,783,751,0
54657,290.91,783,749,0
54667,292.01,783,751,0
54677,294.23,783,749,0
54687,297.38,783,751,0
54697,301.16,783,749,0
54707,305.49,783,751,0
54717,310.01,783,749,0
54727,314.72,783,751,0
54737,319.43,783,749,0
54747,323.93,783,751,0
54757,328.07,783,749,0
54767,331.69,783,751,0
54777,334.74,783,749,0
54787,337.18,783,751,0
54797,338.97,783,749,0
54807,339.88,783,751,0
54817,340.04,783,749,0
54828,339.39,783,751,0
54838,338.58,783,749,0
54848,338.41,783,751,0
54858,340.64,783,750,0
54868,347.18,783,751,0
54878,360.24,783,749,0
54888,382.37,783,751,0
54898,415.73,783,750,0
54918,456.82,783,748,0
54921,502.65,783,752,0
54930,549.85,783,751,0
54940,595.58,783,750,0
54950,636.85,783,750,0
54960,670.67,783,750,0
54970,694.60,783,751,0
54980,711.39,783,750,0
54990,723.10,783,750,0
55000,731.34,783,750,0
55010,737.07,783,751,0
55020,741.12,783,750,0
55030,743.91,783,750,0
55041,745.91,783,750,0
55051,743.19,783,750,0
55061,733.88,783,750,0
55071,715.87,783,750,0
55081,689.30,783,751,0
55091,653.98,783,750,0
55101,611.13,783,751,0
55111,560.82,783,750,0
55121,509.10,783,751,0
55131,458.84,783,750,0
55141,414.19,783,750,0
55151,375.99,783,750,0
55161,346.34,783,751,0
55171,324.29,783,750,0
55181,311.22,783,750,0
55191,305.20,783,750,0
55201,306.42,783,751,0
55212,312.38,783,750,0
55222,322.68,783,751,0
55232,334.82,783,750,0
55242,348.67,783,751,0
55252,361.63,783,750,0
55262,373.48,783,751,0
55272,382.12,783,750,0
55282,388.17,783,751,0
55292,390.22,783,749,0
55302,389.34,783,751,0
55312,384.65,783,750,0
55322,377.81,783,751,0
55332,368.44,783,750,0
55342,358.45,783,751,0
55352,347.22,783,750,0
55362,336.65,783,751,0
55372,325.83,783,750,0
55383,316.58,783,751,0
55393,307.92,783,749,0
55403,301.43,783,751,0
55413,296.03,783,749,0
55424,292.98,783,751,0
55433,290.97,783,749,0
55443,291.15,783,751,0
55453,292.05,783,749,0
55463,294.65,783,751,0
55473,297.50,783,749,0
55483,301.50,783,751,0
55493,305.47,783,749,0
55503,310.17,783,752,0
55513,314.45,783,749,0
55523,319.20,783,751,0
55533,323.47,783,749,0
55543,328.00,783,752,0
55553,331.51,783,749,0
55563,334.96,783,751,0
55573,337.24,783,749,0
55583,339.53,783,752,0
55593,340.65,783,749,0
55603,341.70,783,751,0
55613,341.83,783,749,0
55623,342.18,783,751,0
55633,342.26,783,749,0
55643,343.89,783,751,0
55653,347.48,783,749,0
55663,356.08,783,752,0
55673,370.76,783,749,0
55683,394.36,783,751,0
55693,428.02,783,749,0
55712,468.99,795,748,0
55715,513.86,795,750,0
55724,559.98,795,751,0
55734,603.91,795,749,0
55744,643.28,795,752,0
55754,675.25,795,750,0
55764,697.89,795,751,0
55774,713.74,795,750,0
55784,724.83,795,752,0
55794,732.64,795,749,0
55804,738.15,795,751,0
55814,741.96,795,749,0
55824,744.63,795,752,0
55834,746.50,795,749,0
55844,747.76,795,751,0
55854,747.36,795,749,0
55864,742.41,795,752,0
55874,730.37,795,749,0
55884,710.29,795,751,0
55895,681.66,795,749,0
55905,644.99,795,752,0
55915,601.06,795,750,0
55925,552.23,795,751,0
55936,502.96,795,750,0
55945,457.24,795,752,0
55955,417.44,795,749,0
55965,385.47,795,751,0
55975,361.84,795,749,0
55985,346.59,795,752,0
55995,339.08,795,749,0
56005,338.24,795,751,0
56015,342.76,795,750,0
56025,351.14,795,752,0
56035,361.43,795,749,0
56045,372.27,795,751,0
56055,382.26,795,749,0
56065,390.63,795,752,0
56075,396.35,795,749,0
56085,398.99,795,751,0
56095,398.48,795,749,0
56105,395.03,795,751,0
56115,388.98,795,749,0
56125,380.84,795,751,0
56135,371.03,795,749,0
56145,360.22,795,751,0
56155,349.10,795,750,0
56165,338.10,795,751,0
56175,327.70,795,749,0
56185,318.19,795,751,0
56195,309.86,795,750,0
56205,303.05,795,751,0
56215,297.76,795,749,0
56225,293.97,795,751,0
56236,291.54,795,749,0
56246,290.31,795,751,0
56256,290.21,795,749,0
56266,291.01,795,751,0
56276,292.46,795,750,0
56286,294.38,795,751,0
56296,296.84,795,750,0
56306,299.16,795,751,0
56316,301.72,795,750,0
56326,303.99,795,751,0
56336,306.27,795,749,0
56346,308.03,795,751,0
56356,309.65,795,750,0
56366,310.44,795,751,0
56376,311.29,795,749,0
56386,311.63,795,751,0
56396,312.30,795,750,0
56407,313.15,795,751,0
56417,315.81,795,750,0
56427,321.22,795,751,0
56437,332.17,795,750,0
56448,350.29,795,751,0
56457,377.89,795,750,0
56467,415.59,795,751,0
56477,460.24,795,750,0
56497,508.26,784,749,0
56499,556.91,784,752,0
56509,602.71,784,750,0
56519,643.04,784,751,0
56529,675.21,784,750,0
56539,697.78,784,750,0
56549,713.53,784,750,0
56559,724.60,784,751,0
56569,732.35,784,750,0
56579,737.82,784,750,0
56589,741.60,784,750,0
56599,744.29,784,751,0
56609,744.25,784,750,0
56620,739.46,784,751,0
56630,727.19,784,750,0
56640,707.25,784,751,0
56650,678.85,784,750,0
56660,642.76,784,751,0
56670,599.08,784,750,0
56680,551.35,784,751,0
56690,502.26,784,750,0
56700,456.84,784,751,0
56710,416.05,784,750,0
56720,382.90,784,751,0
56730,357.09,784,750,0
56740,340.05,784,751,0
56750,330.26,784,750,0
56760,328.73,784,751,0
56770,332.45,784,749,0
56780,341.57,784,751,0
56791,353.02,784,749,0
56801,366.51,784,751,0
56811,379.43,784,749,0
56821,391.60,784,751,0
56832,400.89,784,749,0
56841,408.04,784,752,0
56851,411.33,784,749,0
56861,411.57,784,751,0
56871,407.93,784,749,0
56881,402.04,784,751,0
56891,393.50,784,749,0
56901,383.75,784,751,0
56911,372.59,784,749,0
56921,361.79,784,751,0
56931,350.84,784,749,0
56941,341.37,784,751,0
56951,332.43,784,749,0
56961,325.19,784,751,0
56971,318.62,784,749,0
56981,313.67,784,751,0
56991,309.36,784,749,0
57001,306.81,784,752,0
57011,304.85,784,749,0
57021,304.51,784,751,0
57031,305.00,784,749,0
57041,306.80,784,752,0
57051,308.79,784,749,0
57061,311.72,784,751,0
57071,314.55,784,749,0
57081,318.11,784,752,0
57091,321.21,784,749,0
57101,324.62,784,751,0
57111,327.65,784,749,0
57121,331.18,784,752,0
57132,334.21,784,749,0
57142,337.58,784,751,0
57152,340.40,784,749,0
57162,343.80,784,752,0
57172,346.60,784,749,0
57182,349.81,784,752,0
57192,353.12,784,749,0
57202,358.49,784,752,0
57212,367.00,784,749,0
57222,381.05,784,752,0
57232,402.42,784,749,0
57242,433.71,784,752,0
57252,471.94,784,749,0
57271,514.64,775,748,0
57274,558.89,775,749,0
57283,602.04,775,752,0
57293,641.24,775,749,0
57303,673.70,775,752,0
57313,696.89,775,749,0
57323,713.12,775,752,0
57333,724.53,775,749,0
57344,732.43,775,752,0
57353,737.96,775,749,0
57363,741.83,775,752,0
57373,744.54,775,749,0
57383,746.43,775,752,0
57393,745.23,775,749,0
57403,738.43,775,752,0
57413,724.16,775,749,0
57423,701.31,775,751,0
57433,670.19,775,749,0
57443,631.00,775,752,0
57453,584.50,775,749,0
57463,534.21,775,751,0
57473,484.05,775,749,0
57483,437.49,775,752,0
57493,396.97,775,749,0
57503,363.51,775,752,0
57513,338.28,775,749,0
57523,321.27,775,752,0
57533,312.19,775,749,0
57543,310.25,775,751,0
57553,314.33,775,748,0
57563,323.10,775,752,0
57573,334.90,775,749,0
57583,348.04,775,751,0
57593,361.23,775,749,0
57603,373.16,775,751,0
57613,382.76,775,749,0
57623,389.00,775,752,0
57633,391.70,775,749,0
57644,390.80,775,752,0
57654,386.62,775,749,0
57664,379.45,775,752,0
57674,370.27,775,749,0
57684,359.52,775,751,0
57694,348.48,775,750,0
57704,337.32,775,752,0
57714,327.15,775,749,0
57724,317.72,775,751,0
57734,310.05,775,749,0
57744,303.65,775,752,0
57754,299.17,775,749,0
57764,295.99,775,751,0
57774,294.53,775,749,0
57784,294.16,775,752,0
57794,295.48,775,749,0
57804,297.61,775,751,0
57815,300.94,775,750,0
57825,304.60,775,751,0
57835,309.05,775,750,0
57845,313.41,775,751,0
57856,318.08,775,750,0
57865,322.22,775,751,0
57875,326.35,775,750,0
57885,329.55,775,751,0
57895,332.68,775,750,0
57905,334.66,775,751,0
57915,336.39,775,750,0
57925,336.83,775,751,0
57935,337.05,775,750,0
57945,336.01,775,751,0
57955,334.98,775,750,0
57965,333.57,775,751,0
57975,334.04,775,750,0
57985,337.07,775,751,0
57995,345.71,775,750,0
58005,361.40,775,751,0
58015,387.68,775,750,0
58025,424.16,775,751,0
