Time,PPG,IBI,GSR,GSR_Event
678617,554.63,693,767,0
678627,537.60,693,769,0
678637,515.90,693,767,0
678647,491.29,693,769,0
678657,467.20,693,767,0
678667,442.16,693,768,0
678677,416.70,693,767,0
678687,396.52,693,769,0
678697,379.65,693,768,0
678707,365.91,693,769,0
678717,354.67,693,767,0
678727,345.68,693,769,0
678737,338.36,693,768,0
678747,332.72,693,769,0
678757,328.31,693,767,0
678767,325.09,693,769,0
678777,322.70,693,768,0
678787,321.21,693,769,0
678797,320.42,693,767,0
678807,320.25,693,768,0
678817,320.43,693,768,0
678828,321.03,693,768,0
678838,321.79,693,768,0
678848,322.58,693,768,0
678858,323.52,693,769,0
678868,324.22,693,768,0
678878,324.97,693,768,0
678888,325.58,693,768,0
678898,326.22,693,769,0
678908,326.63,693,768,0
678918,327.12,693,768,0
678928,327.26,693,768,0
678938,327.65,693,769,0
678948,327.67,693,768,0
678958,327.68,693,768,0
678968,327.18,693,768,0
678978,326.53,693,769,0
678988,325.30,693,768,0
678999,323.92,693,769,0
679009,321.80,693,768,0
679019,319.63,693,769,0
679029,316.96,693,768,0
679040,314.57,693,769,0
679049,312.08,693,768,0
679059,310.09,693,769,0
679069,307.92,693,768,0
679079,306.27,693,769,0
679089,304.56,693,768,0
679099,303.45,693,769,0
679109,302.16,693,768,0
679119,301.68,693,769,0
679129,301.43,693,768,0
679139,302.63,693,769,0
679149,304.67,693,768,0
679159,308.50,693,769,0
679169,313.66,693,768,0
679179,320.96,693,769,0
679189,329.42,693,767,0
679199,339.71,693,769,0
679209,350.38,693,767,0
679228,361.84,642,767,0
679231,374.36,642,768,0
679240,388.01,642,771,0
679250,400.61,642,768,0
679260,412.34,642,770,0
679270,421.54,642,768,0
679280,428.88,642,771,0
679290,433.20,642,768,0
679300,433.87,642,770,0
679310,430.18,642,768,0
679320,424.34,642,771,0
679330,415.88,642,768,0
679340,406.74,642,771,0
679350,396.24,642,768,0
679360,386.22,642,771,0
679370,375.83,642,768,0
679380,366.62,642,770,0
679390,357.74,642,768,0
679400,350.27,642,771,0
679410,343.20,642,768,0
679420,337.83,642,770,0
679430,332.74,642,768,0
679440,329.17,642,771,0
679450,325.82,642,768,0
679460,323.82,642,771,0
679470,322.07,642,768,0
679480,321.49,642,771,0
679490,320.70,642,768,0
679500,320.79,642,770,0
679511,320.43,642,768,0
679521,320.68,642,771,0
679531,320.18,642,767,0
679541,320.08,642,771,0
679552,319.07,642,767,0
679561,318.71,642,771,0
679571,317.55,642,767,0
679581,316.92,642,771,0
679591,315.48,642,767,0
679601,314.57,642,771,0
679611,312.90,642,767,0
679621,311.77,642,771,0
679631,309.74,642,767,0
679641,308.32,642,771,0
679651,306.12,642,767,0
679661,304.63,642,771,0
679671,302.43,642,767,0
679681,300.88,642,771,0
679691,298.69,642,767,0
679701,297.20,642,770,0
679711,295.34,642,767,0
679721,294.42,642,771,0
679731,293.10,642,767,0
679741,292.68,642,770,0
679751,291.92,642,767,0
679761,292.33,642,771,0
679771,292.49,642,767,0
679781,293.46,642,770,0
679791,293.92,642,767,0
679801,295.19,642,770,0
679811,296.20,642,767,0
679821,298.33,642,771,0
679831,300.16,642,767,0
679841,303.02,642,771,0
679852,305.63,642,767,0
679862,309.38,642,770,0
679872,313.21,642,767,0
679882,318.21,642,770,0
679892,323.03,642,767,0
679902,328.59,642,771,0
679912,333.60,642,767,0
679922,339.16,642,771,0
679932,343.83,642,767,0
679942,348.47,642,770,0
679952,351.63,642,766,0
679962,354.40,642,770,0
679972,355.82,642,767,0
679991,357.03,763,766,0
679994,356.89,763,768,0
680003,356.84,763,770,0
680013,355.73,763,768,0
680023,354.74,763,770,0
680033,352.72,763,767,0
680043,350.92,763,770,0
680053,348.37,763,768,0
680064,346.24,763,770,0
680073,343.51,763,767,0
680083,341.30,763,770,0
680093,338.94,763,768,0
680103,337.37,763,770,0
680113,335.63,763,767,0
680123,334.67,763,770,0
680133,333.53,763,768,0
680143,333.07,763,770,0
680153,332.41,763,767,0
680163,332.41,763,770,0
680173,332.37,763,768,0
680183,333.03,763,770,0
680193,333.49,763,767,0
680203,334.76,763,770,0
680213,335.78,763,767,0
680223,337.34,763,770,0
680233,338.40,763,768,0
680243,339.82,763,770,0
680253,340.86,763,767,0
680263,342.40,763,770,0
680273,343.48,763,768,0
680283,344.97,763,770,0
680293,346.05,763,767,0
680303,347.36,763,770,0
680313,348.07,763,768,0
680323,348.90,763,770,0
680333,349.02,763,767,0
680343,349.27,763,770,0
680353,348.72,763,768,0
680364,348.12,763,770,0
680374,347.22,763,768,0
680384,346.86,763,770,0
680394,346.30,763,768,0
680404,346.17,763,770,0
680414,345.69,763,768,0
680424,345.87,763,770,0
680434,346.21,763,768,0
680444,346.83,763,770,0
680454,346.97,763,768,0
680464,347.19,763,770,0
680474,347.18,763,769,0
680484,347.21,763,770,0
680494,346.93,763,768,0
680504,346.57,763,770,0
680514,346.01,763,768,0
680524,345.58,763,770,0
680535,345.11,763,769,0
680545,344.82,763,769,0
680555,345.04,763,769,0
680565,345.46,763,769,0
680576,346.31,763,769,0
680585,347.41,763,769,0
680595,348.96,763,769,0
680605,350.69,763,769,0
680615,352.67,763,770,0
680625,354.44,763,769,0
680635,356.19,763,769,0
680645,357.38,763,769,0
680665,358.55,673,768,0
680668,359.29,673,769,0
680677,360.66,673,770,0
680687,361.32,673,768,0
680697,361.99,673,770,0
680707,362.30,673,768,0
680717,363.06,673,770,0
680727,363.39,673,768,0
680737,363.96,673,770,0
680748,363.20,673,767,0
680758,363.01,673,770,0
680768,362.15,673,767,0
680778,361.81,673,770,0
680788,360.75,673,767,0
680798,360.18,673,770,0
680808,359.06,673,767,0
680818,358.78,673,770,0
680828,358.03,673,767,0
680838,358.19,673,770,0
680848,357.79,673,767,0
680858,358.20,673,770,0
680868,358.18,673,766,0
680878,358.98,673,770,0
680888,359.25,673,767,0
680898,360.29,673,770,0
680908,360.63,673,767,0
680919,361.81,673,770,0
680929,362.25,673,766,0
680939,363.29,673,770,0
680949,363.50,673,766,0
680960,364.17,673,769,0
680969,363.65,673,765,0
680979,357.71,673,752,0
680989,337.52,673,747,0
680999,312.08,673,752,0
681009,292.43,673,751,0
681019,283.56,673,754,0
681029,284.59,673,750,0
681039,296.67,673,754,0
681049,322.53,673,750,0
681059,368.91,673,754,0
681078,424.74,414,752,0
681081,476.29,414,754,0
681090,517.77,414,749,0
681100,548.06,414,754,0
681110,564.97,414,749,0
681120,570.59,414,753,0
681131,565.27,414,749,0
681140,552.85,414,753,0
681150,534.59,414,750,0
681160,512.86,414,753,0
681170,488.69,414,750,0
681180,465.34,414,754,0
681190,442.69,414,750,0
681200,422.81,414,753,0
681210,404.66,414,750,0
681220,389.93,414,753,0
681230,377.48,414,750,0
681240,368.98,414,753,0
681250,362.73,414,750,0
681260,359.90,414,753,0
681270,358.73,414,750,0
681280,360.09,414,753,0
681290,362.34,414,750,0
681300,366.48,414,753,0
681310,370.49,414,750,0
681320,375.36,414,753,0
681330,379.45,414,750,0
681340,384.07,414,753,0
681350,387.69,414,750,0
681360,391.56,414,753,0
681370,394.26,414,750,0
681380,397.05,414,753,0
681390,398.67,414,750,0
681400,400.40,414,753,0
681410,401.05,414,750,0
681420,401.85,414,753,0
681431,401.64,414,750,0
681441,401.62,414,753,0
681451,400.70,414,750,0
681461,400.19,414,753,0
681472,399.11,414,751,0
681481,398.47,414,753,0
681491,397.52,414,751,0
681501,396.93,414,753,0
681511,395.93,414,751,0
681521,395.48,414,753,0
681531,394.52,414,750,0
681541,394.06,414,753,0
681551,393.19,414,751,0
681561,392.75,414,753,0
681571,392.18,414,750,0
681581,392.34,414,753,0
681591,392.45,414,751,0
681601,393.60,414,753,0
681611,394.71,414,750,0
681621,396.47,414,753,0
681631,397.83,414,751,0
681641,399.51,414,753,0
681651,400.60,414,750,0
681661,401.88,414,753,0
681671,402.43,414,751,0
681681,403.03,414,753,0
681691,402.93,414,750,0
681701,403.00,414,753,0
681711,402.48,414,751,0
681721,402.25,414,753,0
681731,401.28,414,751,0
681741,400.34,414,753,0
681751,398.78,414,751,0
681761,397.64,414,753,0
681772,396.34,414,751,0
681782,395.72,414,753,0
681792,395.12,414,751,0
681802,395.38,414,753,0
681812,395.70,414,752,0
681822,396.47,414,753,0
681832,396.89,414,752,0
681842,397.44,414,752,0
681852,397.73,414,752,0
681862,397.94,414,753,0
681872,397.66,414,751,0
681882,397.55,414,753,0
681892,397.51,414,752,0
681902,397.87,414,753,0
681912,398.30,414,751,0
681922,399.06,414,752,0
681932,400.16,414,752,0
681943,401.87,414,752,0
681953,403.92,414,752,0
681963,406.52,414,752,0
681973,409.75,414,752,0
681984,413.72,414,752,0
681993,418.35,414,752,0
682003,423.73,414,752,0
682022,429.73,944,750,0
682025,435.94,944,751,0
682034,442.98,944,753,0
682044,449.97,944,751,0
682054,457.01,944,753,0
682064,463.35,944,751,0
682074,469.07,944,753,0
682084,473.77,944,751,0
682094,477.99,944,753,0
682104,480.52,944,751,0
682114,482.38,944,753,0
682124,485.05,944,753,0
682134,487.57,944,754,0
682144,488.47,944,752,0
682155,488.11,944,754,0
682164,485.94,944,752,0
682174,483.00,944,754,0
682184,478.80,944,752,0
682194,472.34,944,754,0
682204,464.96,944,752,0
682214,458.54,944,754,0
682224,453.11,944,751,0
682234,449.52,944,754,0
682244,447.01,944,752,0
682254,446.23,944,754,0
682264,446.33,944,751,0
682274,447.99,944,754,0
682284,450.22,944,752,0
682294,453.41,944,753,0
682304,456.42,944,751,0
682314,459.76,944,754,0
682324,462.62,944,751,0
682334,465.52,944,753,0
682344,467.55,944,751,0
682354,469.36,944,754,0
682364,470.02,944,751,0
682374,470.53,944,753,0
682384,470.16,944,751,0
682394,469.55,944,754,0
682404,468.10,944,751,0
682414,466.66,944,753,0
682424,464.53,944,751,0
682434,462.74,944,754,0
682444,460.42,944,750,0
682455,458.45,944,753,0
682465,456.00,944,750,0
682475,454.07,944,753,0
682485,451.82,944,750,0
682496,450.38,944,753,0
682505,448.76,944,750,0
682515,448.06,944,753,0
682525,447.19,944,749,0
682535,447.17,944,753,0
682545,447.04,944,750,0
682555,447.71,944,753,0
682565,447.75,944,750,0
682575,448.43,944,753,0
682585,448.39,944,750,0
682595,448.91,944,753,0
682605,449.15,944,749,0
682615,450.31,944,753,0
682625,451.54,944,750,0
682635,454.47,944,753,0
682645,458.35,944,749,0
682655,464.81,944,753,0
682665,472.88,944,749,0
682675,483.67,944,754,0
682685,495.98,944,749,0
682695,510.77,944,753,0
682705,526.57,944,749,0
682724,543.67,702,749,0
682727,560.14,702,750,0
682736,576.86,702,753,0
682746,591.77,702,749,0
682756,605.43,702,754,0
682766,616.10,702,749,0
682776,624.68,702,753,0
682786,629.71,702,748,0
682796,632.71,702,753,0
682806,632.20,702,749,0
682816,629.91,702,753,0
682826,624.96,702,748,0
682836,618.80,702,754,0
682846,610.72,702,749,0
682856,602.32,702,753,0
682866,592.92,702,749,0
682876,584.12,702,754,0
682886,575.13,702,749,0
682896,567.20,702,753,0
682906,559.60,702,749,0
682916,553.42,702,754,0
682926,547.98,702,749,0
682936,544.04,702,753,0
682946,540.17,702,748,0
682956,537.46,702,753,0
682967,534.88,702,749,0
682977,533.37,702,753,0
682987,531.98,702,749,0
682997,531.30,702,754,0
683008,530.31,702,749,0
683017,530.13,702,753,0
683027,529.49,702,749,0
683037,529.22,702,753,0
683047,528.12,702,749,0
683057,526.84,702,753,0
683067,524.40,702,749,0
683077,521.75,702,753,0
683087,518.10,702,749,0
683097,514.34,702,753,0
683107,510.12,702,749,0
683117,506.19,702,753,0
683127,501.93,702,749,0
683137,498.22,702,753,0
683147,494.21,702,749,0
683157,490.89,702,753,0
683167,487.32,702,749,0
683177,483.97,702,753,0
683187,480.51,702,749,0
683197,477.70,702,752,0
683207,474.83,702,749,0
683217,472.70,702,753,0
683227,470.39,702,749,0
683237,468.86,702,752,0
683247,467.36,702,749,0
683257,466.39,702,753,0
683267,465.16,702,749,0
683277,464.64,702,752,0
683287,464.32,702,749,0
683297,465.12,702,753,0
683308,466.89,702,749,0
683318,470.74,702,752,0
683328,476.94,702,750,0
683338,486.65,702,753,0
683348,499.78,702,750,0
683358,516.86,702,752,0
683368,537.22,702,750,0
683378,560.85,702,753,0
683388,586.48,702,751,0
683398,612.57,702,753,0
683408,637.42,702,750,0
683427,659.97,703,749,0
683430,679.39,703,753,0
683439,695.43,703,753,0
683449,707.69,703,751,0
683459,716.48,703,753,0
683469,721.87,703,752,0
683479,724.18,703,752,0
683489,723.18,703,751,0
683499,718.88,703,753,0
683509,711.20,703,751,0
683520,700.04,703,752,0
683529,685.59,703,751,0
683539,668.74,703,753,0
683549,650.17,703,752,0
683559,630.84,703,752,0
683569,611.56,703,751,0
683579,592.96,703,752,0
683589,575.79,703,752,0
683599,560.42,703,752,0
683609,547.14,703,751,0
683619,536.17,703,753,0
683629,527.55,703,751,0
683639,521.08,703,752,0
683649,516.43,703,752,0
683659,514.89,703,754,0
683669,515.48,703,753,0
683679,517.01,703,753,0
683689,518.42,703,753,0
683699,519.41,703,753,0
683709,519.50,703,752,0
683719,518.66,703,753,0
683729,515.04,703,753,0
683739,509.11,703,753,0
683749,502.09,703,752,0
683759,494.95,703,753,0
683769,487.94,703,753,0
683779,481.06,703,753,0
683789,474.57,703,752,0
683799,468.78,703,753,0
683809,463.71,703,753,0
683820,459.08,703,753,0
683830,454.77,703,753,0
683840,450.90,703,752,0
683850,447.67,703,754,0
683860,444.64,703,752,0
683870,441.92,703,753,0
683880,439.16,703,752,0
683890,436.58,703,754,0
683900,433.96,703,752,0
683910,431.45,703,753,0
683920,428.78,703,752,0
683930,426.62,703,754,0
683940,424.33,703,752,0
683950,422.78,703,753,0
683960,421.26,703,752,0
683970,420.41,703,754,0
683980,419.73,703,752,0
683991,420.41,703,754,0
684001,422.30,703,751,0
684011,426.93,703,754,0
684021,433.98,703,751,0
684032,445.08,703,753,0
684041,459.54,703,751,0
684051,478.15,703,754,0
684061,499.62,703,751,0
684071,523.95,703,754,0
684081,548.86,703,751,0
684091,573.89,703,754,0
684101,596.68,703,751,0
684111,616.92,703,754,0
684130,632.93,703,752,0
684133,643.88,703,755,0
684142,649.62,703,750,0
684152,650.89,703,753,0
684162,647.15,703,750,0
684172,639.56,703,753,0
684182,627.69,703,750,0
684192,613.04,703,753,0
684203,596.19,703,749,0
684212,577.83,703,753,0
684222,557.87,703,750,0
684232,538.06,703,753,0
684242,517.99,703,749,0
684252,499.61,703,753,0
684262,482.28,703,750,0
684272,467.75,703,753,0
684282,455.01,703,749,0
684292,445.32,703,753,0
684302,437.56,703,750,0
684312,432.72,703,754,0
684322,429.33,703,749,0
684332,428.03,703,753,0
684342,427.16,703,750,0
684352,427.50,703,753,0
684362,427.61,703,749,0
684372,428.24,703,753,0
684382,428.13,703,750,0
684392,428.09,703,753,0
684402,427.38,703,750,0
684412,427.13,703,753,0
684422,426.11,703,750,0
684432,425.22,703,754,0
684442,423.31,703,750,0
684452,421.50,703,753,0
684462,418.69,703,750,0
684472,415.79,703,754,0
684482,411.61,703,750,0
684492,407.48,703,753,0
684503,402.58,703,750,0
684513,398.16,703,754,0
684523,393.40,703,749,0
684533,389.47,703,754,0
684544,385.43,703,749,0
684553,382.34,703,754,0
684563,379.32,703,749,0
684573,377.34,703,753,0
684583,375.31,703,749,0
684593,374.15,703,754,0
684603,372.77,703,749,0
684613,372.07,703,753,0
684623,371.11,703,749,0
684633,370.73,703,754,0
684643,370.08,703,749,0
684653,370.32,703,754,0
684663,370.48,703,749,0
684673,371.92,703,754,0
684683,374.09,703,749,0
684693,378.39,703,754,0
684703,384.49,703,749,0
684713,393.81,703,754,0
684723,405.53,703,750,0
684733,420.80,703,754,0
684743,438.47,703,751,0
684753,459.12,703,754,0
684763,480.81,703,751,0
684773,503.37,703,754,0
684783,524.64,703,751,0
684793,544.64,703,754,0
684812,561.29,682,753,0
684815,574.40,682,753,0
684824,582.94,682,751,0
684834,587.50,682,754,0
684844,587.14,682,751,0
684854,583.24,682,754,0
684864,575.15,682,751,0
684874,564.61,682,754,0
684884,553.75,682,753,0
684894,542.90,682,755,0
684904,530.93,682,752,0
684914,518.82,682,755,0
684924,506.02,682,753,0
684934,493.84,682,754,0
684944,481.50,682,753,0
684954,468.24,682,754,0
684964,454.07,682,752,0
684974,441.10,682,754,0
684984,429.16,682,752,0
684994,419.51,682,754,0
685004,411.47,682,752,0
685015,406.02,682,754,0
685025,402.03,682,753,0
685035,400.30,682,754,0
685045,399.70,682,753,0
685056,400.69,682,754,0
685065,401.81,682,753,0
685075,403.71,682,754,0
685085,405.30,682,753,0
685095,407.09,682,754,0
685105,407.84,682,753,0
685115,408.40,682,754,0
685125,408.15,682,753,0
685135,407.68,682,754,0
685145,406.23,682,752,0
685155,404.53,682,754,0
685165,402.14,682,752,0
685175,399.79,682,754,0
685185,397.07,682,752,0
685195,394.56,682,754,0
685205,391.99,682,752,0
685215,389.85,682,754,0
685225,387.71,682,753,0
685235,385.95,682,754,0
685245,384.17,682,752,0
685255,382.70,682,754,0
685265,381.34,682,752,0
685275,380.51,682,754,0
685285,379.63,682,752,0
685295,378.92,682,754,0
685305,378.43,682,752,0
685315,378.65,682,754,0
685325,379.09,682,752,0
685335,379.84,682,754,0
685345,380.74,682,752,0
685356,382.62,682,754,0
685366,385.86,682,753,0
685376,390.70,682,754,0
685386,397.65,682,753,0
685396,407.10,682,754,0
685406,419.45,682,753,0
685416,434.79,682,754,0
685426,452.77,682,753,0
685436,472.59,682,754,0
685455,493.54,643,753,0
685458,513.57,643,752,0
685467,533.20,643,754,0
685477,550.54,643,753,0
685487,565.03,643,754,0
685497,575.65,643,753,0
685507,582.31,643,754,0
685517,584.66,643,753,0
685527,583.86,643,754,0
685537,578.63,643,753,0
685547,570.26,643,754,0
685557,558.78,643,753,0
685568,545.35,643,754,0
685577,530.29,643,753,0
685587,514.77,643,754,0
685597,498.85,643,753,0
685607,483.68,643,754,0
685617,469.51,643,753,0
685627,457.01,643,754,0
685637,445.99,643,753,0
685647,437.25,643,754,0
685657,430.11,643,753,0
685667,425.19,643,754,0
685677,421.70,643,753,0
685687,419.91,643,754,0
685697,419.21,643,753,0
685707,419.83,643,754,0
685717,420.65,643,753,0
685727,422.00,643,754,0
685737,423.03,643,752,0
685747,424.05,643,754,0
685757,424.33,643,753,0
685767,424.41,643,755,0
685777,423.47,643,752,0
685787,422.39,643,755,0
685797,420.51,643,753,0
685807,418.60,643,755,0
685817,415.85,643,752,0
685827,413.11,643,754,0
685837,409.82,643,753,0
685847,406.92,643,755,0
685857,403.60,643,752,0
685868,400.76,643,754,0
685878,397.58,643,752,0
685888,395.26,643,755,0
685898,392.74,643,751,0
685908,390.89,643,754,0
685918,389.08,643,752,0
685928,388.11,643,755,0
685938,387.14,643,751,0
685948,387.05,643,754,0
685958,386.87,643,752,0
685968,387.51,643,755,0
685978,387.65,643,752,0
685988,388.23,643,755,0
685998,388.37,643,752,0
686008,389.16,643,755,0
686018,389.84,643,752,0
686028,391.69,643,754,0
686039,394.35,643,751,0
686049,399.73,643,755,0
686059,407.18,643,751,0
686069,418.40,643,755,0
686080,432.55,643,750,0
686089,450.73,643,755,0
686099,471.47,643,751,0
686109,495.11,643,755,0
686119,519.34,643,750,0
686138,543.96,683,750,0
686141,565.70,683,751,0
686150,585.68,683,755,0
686160,601.50,683,750,0
686170,613.61,683,755,0
686180,620.46,683,750,0
686190,623.10,683,755,0
686200,620.80,683,750,0
686210,615.76,683,755,0
686220,606.28,683,750,0
686230,594.24,683,755,0
686240,579.21,683,750,0
686251,562.86,683,755,0
686260,544.99,683,750,0
686270,527.38,683,755,0
686280,509.48,683,750,0
686290,493.01,683,755,0
686300,477.40,683,751,0
686310,464.13,683,755,0
686320,452.47,683,750,0
686330,443.50,683,755,0
686340,436.11,683,751,0
686350,431.36,683,755,0
686360,428.00,683,750,0
686370,426.80,683,755,0
686380,426.43,683,750,0
686390,427.54,683,755,0
686400,428.75,683,750,0
686410,430.67,683,755,0
686420,432.01,683,751,0
686430,433.38,683,755,0
686440,433.61,683,750,0
686450,433.73,683,755,0
686460,432.61,683,751,0
686470,431.40,683,755,0
686480,429.01,683,750,0
686490,426.60,683,755,0
686500,423.42,683,751,0
686510,420.60,683,755,0
686520,417.07,683,751,0
686530,414.05,683,755,0
686540,410.65,683,751,0
686551,408.01,683,755,0
686561,405.09,683,751,0
686571,402.79,683,755,0
686581,400.28,683,752,0
686592,398.44,683,755,0
686601,396.47,683,751,0
686611,394.91,683,755,0
686621,393.18,683,752,0
686631,392.10,683,755,0
686641,391.08,683,752,0
686651,390.80,683,755,0
686661,390.43,683,752,0
686671,390.73,683,755,0
686681,391.07,683,751,0
686691,392.25,683,756,0
686701,393.85,683,752,0
686711,396.89,683,755,0
686721,401.08,683,752,0
686731,407.96,683,755,0
686741,417.36,683,752,0
686751,430.79,683,755,0
686761,447.61,683,752,0
686771,468.26,683,755,0
686781,491.54,683,752,0
686791,517.39,683,755,0
686811,543.84,672,754,0
686814,569.52,672,756,0
686823,593.28,672,754,0
686833,613.98,672,755,0
686843,630.31,672,754,0
686853,641.96,672,755,0
686863,648.19,672,754,0
686873,649.12,672,755,0
686883,645.40,672,755,0
686893,636.75,672,755,0
686903,623.92,672,754,0
686913,607.66,672,755,0
686923,588.73,672,754,0
686934,567.90,672,755,0
686943,546.33,672,754,0
686953,524.85,672,755,0
686963,504.19,672,754,0
686973,485.11,672,755,0
686983,468.15,672,754,0
686993,453.74,672,755,0
687003,442.29,672,754,0
687013,433.42,672,755,0
687023,426.95,672,754,0
687033,422.55,672,755,0
687043,420.24,672,754,0
687053,419.66,672,755,0
687063,420.32,672,754,0
687073,421.42,672,754,0
687083,422.97,672,754,0
687093,424.65,672,754,0
687104,426.42,672,755,0
687113,427.63,672,755,0
687123,428.21,672,754,0
687133,427.76,672,754,0
687143,426.50,672,754,0
687153,424.55,672,754,0
687163,421.86,672,754,0
687173,418.39,672,754,0
687183,414.33,672,754,0
687193,409.73,672,754,0
687203,405.52,672,754,0
687213,401.64,672,754,0
687223,398.10,672,755,0
687233,394.94,672,754,0
687243,392.26,672,754,0
687253,390.04,672,754,0
687263,388.57,672,755,0
687273,387.11,672,754,0
687283,386.22,672,754,0
687293,385.56,672,754,0
687303,385.47,672,755,0
687313,385.59,672,754,0
687323,386.14,672,754,0
687333,386.31,672,754,0
687343,386.39,672,755,0
687353,386.10,672,754,0
687363,386.03,672,754,0
687373,386.02,672,754,0
687383,387.04,672,755,0
687393,389.04,672,754,0
687404,393.45,672,755,0
687414,400.34,672,753,0
687424,410.74,672,755,0
687434,424.45,672,753,0
687444,442.14,672,755,0
687454,462.76,672,753,0
687464,486.61,672,755,0
687474,512.06,672,753,0
687484,539.08,672,755,0
687503,565.37,693,753,0
687506,589.48,693,755,0
687515,609.82,693,752,0
687525,626.63,693,756,0
687535,638.91,693,752,0
687545,646.95,693,756,0
687555,648.94,693,752,0
687565,645.91,693,755,0
687575,638.27,693,752,0
687585,626.83,693,756,0
687595,611.02,693,752,0
687605,591.82,693,755,0
687616,569.29,693,751,0
687625,545.93,693,755,0
687635,521.82,693,752,0
687645,498.86,693,755,0
687655,476.83,693,752,0
687665,457.60,693,756,0
687675,440.49,693,752,0
687685,426.93,693,755,0
687695,415.85,693,752,0
687705,408.48,693,756,0
687715,403.32,693,752,0
687725,401.13,693,755,0
687735,400.19,693,752,0
687745,401.42,693,756,0
687755,403.26,693,752,0
687765,406.14,693,755,0
687775,408.37,693,752,0
687785,410.79,693,756,0
687795,412.05,693,752,0
687805,413.24,693,755,0
687815,413.17,693,752,0
687825,412.77,693,756,0
687835,411.21,693,752,0
687845,409.61,693,756,0
687855,406.77,693,752,0
687865,404.14,693,756,0
687875,400.62,693,752,0
687885,397.44,693,756,0
687895,393.58,693,752,0
687905,390.23,693,756,0
687916,386.39,693,751,0
687926,383.49,693,756,0
687936,380.38,693,751,0
687946,378.25,693,756,0
687956,375.95,693,751,0
687966,374.55,693,755,0
687976,372.80,693,751,0
687986,372.00,693,756,0
687996,370.97,693,751,0
688006,370.72,693,755,0
688016,370.04,693,751,0
688026,369.98,693,756,0
688036,369.69,693,751,0
688046,370.34,693,756,0
688056,370.67,693,751,0
688066,372.05,693,756,0
688076,373.66,693,751,0
688087,377.28,693,755,0
688097,382.38,693,751,0
688107,390.71,693,756,0
688117,401.85,693,751,0
688128,417.37,693,755,0
688137,436.16,693,751,0
688147,459.17,693,756,0
688157,484.49,693,751,0
688167,512.11,693,756,0
688186,539.21,683,754,0
688189,564.95,683,756,0
688198,587.68,683,752,0
688208,606.97,683,755,0
688218,620.82,683,751,0
688228,629.58,683,755,0
688238,632.06,683,752,0
688248,629.43,683,755,0
688258,621.67,683,752,0
688268,609.38,683,755,0
688278,592.68,683,752,0
688288,573.19,683,755,0
688299,551.28,683,753,0
688308,528.65,683,755,0
688318,505.66,683,752,0
688328,483.77,683,756,0
688338,463.06,683,753,0
688348,444.78,683,755,0
688358,428.56,683,752,0
688368,415.24,683,755,0
688378,404.24,683,753,0
688388,396.19,683,755,0
688398,390.22,683,752,0
688408,386.73,683,755,0
688418,384.79,683,753,0
688428,384.86,683,755,0
688438,385.88,683,752,0
688448,388.02,683,755,0
688458,390.29,683,753,0
688468,392.90,683,755,0
688478,394.90,683,752,0
688488,396.65,683,755,0
688498,397.39,683,752,0
688508,397.53,683,755,0
688518,396.60,683,752,0
688528,395.18,683,755,0
688538,392.81,683,753,0
688548,390.30,683,755,0
688558,387.16,683,752,0
688568,384.20,683,755,0
688578,380.84,683,753,0
688588,377.80,683,755,0
688599,374.52,683,753,0
688609,371.62,683,755,0
688619,368.69,683,754,0
688629,366.34,683,755,0
688640,364.01,683,754,0
688649,362.34,683,755,0
688659,360.95,683,754,0
688669,360.11,683,755,0
688679,359.60,683,754,0
688689,359.47,683,755,0
688699,359.33,683,754,0
688709,359.53,683,755,0
688719,359.88,683,755,0
688729,360.48,683,755,0
688739,361.36,683,754,0
688749,362.84,683,755,0
688759,365.33,683,755,0
688769,369.47,683,755,0
688779,375.72,683,754,0
688789,384.93,683,755,0
688799,397.64,683,754,0
688809,414.67,683,755,0
688819,435.73,683,754,0
688829,460.88,683,755,0
688839,489.20,683,755,0
688859,519.79,672,754,0
688862,550.62,672,757,0
688871,580.56,672,754,0
688881,607.52,672,756,0
688891,630.08,672,754,0
688901,646.98,672,755,0
688911,657.45,672,754,0
688921,661.17,672,756,0
688931,658.16,672,754,0
688941,648.90,672,755,0
688951,634.01,672,754,0
688961,614.94,672,756,0
688971,592.29,672,754,0
688982,567.81,672,756,0
688991,542.16,672,754,0
689001,516.82,672,756,0
689011,492.15,672,753,0
689021,469.39,672,756,0
689031,448.79,672,754,0
689041,431.19,672,756,0
689051,416.31,672,754,0
689061,404.69,672,755,0
689071,395.99,672,754,0
689081,390.34,672,756,0
689091,387.07,672,754,0
689101,386.32,672,756,0
689111,387.17,672,754,0
689121,389.39,672,756,0
689131,392.06,672,754,0
689141,395.25,672,756,0
689152,398.05,672,753,0
689161,400.82,672,756,0
689171,402.59,672,753,0
689181,403.74,672,756,0
689191,403.69,672,753,0
689201,403.23,672,756,0
689211,401.79,672,753,0
689221,400.18,672,756,0
689231,397.73,672,753,0
689241,395.41,672,756,0
689251,392.80,672,754,0
689261,390.80,672,756,0
689271,388.38,672,753,0
689281,386.42,672,756,0
689291,384.24,672,754,0
689301,382.71,672,756,0
689311,380.91,672,753,0
689321,379.48,672,756,0
689331,377.66,672,753,0
689341,376.48,672,756,0
689351,374.88,672,753,0
689361,373.93,672,755,0
689371,372.58,672,753,0
689381,371.85,672,756,0
689391,370.91,672,753,0
689401,370.42,672,756,0
689411,369.61,672,754,0
689421,369.51,672,756,0
689431,369.19,672,753,0
689441,369.77,672,755,0
689452,370.74,672,753,0
689462,373.73,672,756,0
689472,378.57,672,752,0
689482,386.84,672,756,0
689492,397.99,672,752,0
689502,413.29,672,756,0
689512,431.89,672,752,0
689522,454.34,672,755,0
689532,478.54,672,752,0
689551,504.30,693,751,0
689554,528.30,693,753,0
689563,551.18,693,755,0
689573,570.15,693,752,0
689583,585.11,693,756,0
689593,593.99,693,752,0
689603,597.59,693,756,0
689613,594.76,693,752,0
689623,587.89,693,756,0
689633,575.41,693,752,0
689643,559.51,693,756,0
689653,540.07,693,752,0
689664,519.18,693,756,0
689673,496.84,693,752,0
689683,475.07,693,756,0
689693,453.45,693,751,0
689703,433.90,693,756,0
689713,415.89,693,751,0
689723,400.79,693,756,0
689733,387.83,693,751,0
689743,378.15,693,756,0
689753,370.56,693,751,0
689763,366.07,693,756,0
689773,363.30,693,751,0
689783,363.08,693,756,0
689793,363.83,693,751,0
689803,366.32,693,756,0
689813,368.88,693,751,0
689823,372.35,693,756,0
689833,375.24,693,751,0
689843,378.34,693,756,0
689853,380.30,693,751,0
689863,382.22,693,756,0
689873,382.80,693,751,0
689883,383.16,693,756,0
689893,382.04,693,751,0
689903,380.61,693,756,0
689913,377.90,693,751,0
689923,375.23,693,756,0
689933,371.69,693,752,0
689943,368.57,693,756,0
689953,364.84,693,751,0
689964,362.10,693,756,0
689974,359.33,693,752,0
689984,357.69,693,756,0
689994,356.11,693,752,0
690004,355.52,693,756,0
690014,354.72,693,752,0
690024,354.85,693,756,0
690034,354.72,693,752,0
690044,355.23,693,756,0
690054,355.42,693,752,0
690064,356.15,693,756,0
690074,356.45,693,752,0
690084,357.39,693,756,0
690094,358.08,693,752,0
690104,359.43,693,756,0
690114,360.67,693,752,0
690124,362.87,693,756,0
690135,365.70,693,753,0
690145,370.54,693,756,0
690155,377.37,693,753,0
690165,387.46,693,756,0
690176,400.65,693,754,0
690185,417.94,693,756,0
690195,438.57,693,753,0
690205,462.70,693,756,0
690225,488.63,673,755,0
690228,515.06,673,757,0
690237,540.84,673,755,0
690247,564.25,673,755,0
690257,583.63,673,756,0
690267,598.10,673,756,0
690277,606.43,673,755,0
690287,608.61,673,755,0
690297,605.09,673,756,0
690307,595.72,673,755,0
690317,581.62,673,755,0
690327,563.52,673,755,0
690337,542.75,673,756,0
690348,520.24,673,755,0
690358,497.28,673,756,0
690368,474.40,673,754,0
690378,452.59,673,757,0
690388,432.27,673,754,0
690398,414.58,673,756,0
690408,399.27,673,754,0
690418,387.15,673,756,0
690428,377.59,673,754,0
690438,371.20,673,756,0
690448,367.15,673,754,0
690458,365.99,673,756,0
690468,366.55,673,754,0
690478,369.22,673,756,0
690488,372.75,673,754,0
690498,377.33,673,756,0
690508,381.94,673,754,0
690519,386.89,673,756,0
690529,390.78,673,753,0
690539,394.19,673,756,0
690549,396.02,673,753,0
690560,397.13,673,756,0
690569,396.87,673,753,0
690579,396.05,673,756,0
690589,393.81,673,753,0
690599,391.38,673,756,0
690609,387.92,673,753,0
690619,384.56,673,756,0
690629,380.36,673,753,0
690639,376.57,673,756,0
690649,372.16,673,753,0
690659,368.47,673,756,0
690669,364.43,673,753,0
690679,361.26,673,756,0
690689,357.84,673,753,0
690699,355.49,673,755,0
690709,353.20,673,753,0
690719,352.19,673,756,0
690729,351.24,673,752,0
690739,351.47,673,756,0
690749,351.67,673,753,0
690759,352.88,673,756,0
690769,353.86,673,752,0
690779,355.49,673,756,0
690789,356.76,673,753,0
690799,359.10,673,756,0
690809,361.68,673,752,0
690819,366.15,673,756,0
690829,372.15,673,753,0
690839,381.40,673,756,0
690849,393.50,673,752,0
690860,409.93,673,756,0
690870,429.54,673,752,0
690880,453.16,673,756,0
690890,478.70,673,751,0
690900,505.96,673,756,0
690919,532.20,695,755,0
690922,556.57,695,756,0
690931,576.97,695,752,0
690941,593.22,695,756,0
690951,603.31,695,752,0
690961,607.93,695,756,0
690971,605.90,695,752,0
690981,598.77,695,756,0
690991,586.45,695,752,0
691001,570.25,695,756,0
691011,550.24,695,752,0
691021,528.53,695,756,0
691031,505.18,695,752,0
691041,482.24,695,756,0
691051,459.50,695,752,0
691061,438.78,695,756,0
691072,419.73,695,752,0
691081,403.70,695,756,0
691091,389.82,695,752,0
691101,379.37,695,756,0
691111,371.42,695,752,0
691121,366.92,695,756,0
691131,364.37,695,752,0
691141,364.52,695,756,0
691151,365.99,695,752,0
691161,369.47,695,756,0
691171,373.18,695,751,0
691181,377.76,695,756,0
691191,381.69,695,752,0
691201,385.85,695,756,0
691211,388.85,695,752,0
691221,391.43,695,756,0
691231,392.54,695,752,0
691241,393.15,695,756,0
691251,392.25,695,752,0
691261,391.10,695,756,0
691271,388.59,695,752,0
691281,385.92,695,756,0
691291,382.22,695,751,0
691301,378.72,695,756,0
691311,374.56,695,752,0
691321,370.92,695,756,0
691331,366.79,695,751,0
691341,363.72,695,756,0
691351,360.85,695,752,0
691361,359.27,695,756,0
691372,357.64,695,752,0
691382,357.02,695,756,0
691392,356.50,695,753,0
691402,356.86,695,756,0
691412,357.03,695,753,0
691422,357.67,695,755,0
691432,357.98,695,752,0
691442,359.10,695,755,0
691452,360.40,695,753,0
691462,362.59,695,756,0
691472,365.20,695,753,0
691482,369.43,695,756,0
691492,374.91,695,753,0
691502,382.74,695,756,0
691512,392.63,695,753,0
691522,405.81,695,756,0
691532,422.11,695,753,0
691543,442.18,695,756,0
691553,464.80,695,753,0
691563,490.01,695,756,0
691582,515.98,663,754,0
691586,541.32,663,755,0
691595,565.22,663,756,0
691605,585.85,663,755,0
691615,601.71,663,756,0
691625,611.70,663,754,0
691635,615.26,663,755,0
691645,612.74,663,755,0
691655,605.10,663,756,0
691665,591.62,663,754,0
691675,574.03,663,755,0
691685,553.32,663,755,0
691695,531.11,663,756,0
691705,507.85,663,754,0
691715,484.88,663,755,0
691725,462.59,663,755,0
691735,442.23,663,756,0
691745,423.73,663,754,0
691756,407.91,663,756,0
691766,394.48,663,754,0
691776,384.31,663,756,0
691786,376.76,663,753,0
691796,372.55,663,756,0
691806,370.71,663,754,0
691816,371.65,663,756,0
691826,374.07,663,753,0
691836,378.34,663,756,0
691846,383.21,663,754,0
691856,388.84,663,756,0
691866,393.65,663,753,0
691876,398.04,663,756,0
691886,400.98,663,754,0
691896,403.22,663,756,0
691906,403.84,663,753,0
691916,403.59,663,756,0
691927,401.74,663,753,0
691937,399.37,663,756,0
691947,395.62,663,752,0
691957,391.58,663,756,0
691968,386.56,663,752,0
691977,381.98,663,756,0
691987,376.84,663,752,0
691997,372.48,663,756,0
692007,368.00,663,752,0
692017,364.79,663,756,0
692027,361.77,663,752,0
692037,360.04,663,755,0
692047,358.18,663,752,0
692057,357.53,663,756,0
692067,356.77,663,752,0
692077,357.10,663,755,0
692087,357.28,663,752,0
692097,358.40,663,756,0
692107,359.31,663,752,0
692117,361.23,663,756,0
692127,363.17,663,752,0
692137,366.42,663,756,0
692147,370.32,663,752,0
692157,376.53,663,756,0
692167,384.60,663,752,0
692177,396.25,663,756,0
692187,410.87,663,752,0
692197,430.07,663,756,0
692207,452.63,663,752,0
692217,479.06,663,756,0
692227,507.15,663,752,0
692237,536.64,663,756,0
692256,565.03,674,755,0
692259,591.29,674,757,0
692268,613.28,674,752,0
692278,630.89,674,756,0
692288,641.94,674,752,0
692298,647.27,674,756,0
692308,645.82,674,751,0
692318,638.89,674,756,0
692328,626.45,674,751,0
692338,609.64,674,756,0
692348,588.41,674,751,0
692358,565.27,674,756,0
692368,539.95,674,752,0
692378,514.55,674,756,0
692388,488.80,674,751,0
692398,464.86,674,756,0
692408,442.23,674,752,0
692418,422.70,674,756,0
692428,405.26,674,751,0
692439,391.43,674,756,0
692449,380.20,674,752,0
692459,372.68,674,756,0
692469,367.38,674,752,0
692480,365.34,674,756,0
692489,364.89,674,752,0
692499,366.77,674,756,0
692509,369.37,674,752,0
692519,373.24,674,756,0
692529,376.77,674,752,0
692539,380.70,674,756,0
692549,383.70,674,752,0
692559,386.62,674,756,0
692569,388.23,674,752,0
692579,389.58,674,756,0
692589,389.70,674,752,0
692599,389.79,674,756,0
692609,389.00,674,752,0
692619,388.31,674,756,0
692629,386.85,674,752,0
692639,385.74,674,756,0
692649,384.02,674,753,0
692659,382.68,674,756,0
692669,380.89,674,752,0
692679,379.60,674,756,0
692689,377.83,674,753,0
692699,376.68,674,756,0
692709,375.06,674,752,0
692719,373.89,674,756,0
692729,372.25,674,753,0
692739,370.97,674,756,0
692749,369.23,674,752,0
692759,368.04,674,756,0
692769,366.49,674,753,0
692780,365.78,674,756,0
692790,365.59,674,753,0
692800,367.21,674,756,0
692810,370.66,674,754,0
692820,377.41,674,756,0
692830,387.14,674,753,0
692840,401.33,674,756,0
692850,419.49,674,754,0
692870,442.06,613,753,0
692873,467.58,613,756,0
692882,495.44,613,756,0
692892,523.59,613,756,0
692902,550.71,613,756,0
692912,574.76,613,755,0
692922,594.54,613,756,0
692932,608.52,613,756,0
692942,616.38,613,755,0
692952,617.64,613,755,0
692962,612.78,613,756,0
692972,602.43,613,755,0
692982,587.34,613,755,0
692993,568.55,613,756,0
693003,547.09,613,755,0
693013,524.18,613,756,0
693023,500.55,613,755,0
693033,477.54,613,756,0
693043,455.78,613,755,0
693053,436.13,613,756,0
693063,418.69,613,754,0
693073,404.38,613,756,0
693083,392.95,613,755,0
693093,385.00,613,756,0
693103,379.64,613,754,0
693113,377.56,613,756,0
693123,377.99,613,755,0
693133,381.30,613,756,0
693143,386.31,613,754,0
693153,393.24,613,756,0
693164,401.06,613,754,0
693174,409.91,613,756,0
693184,418.12,613,754,0
693194,426.19,613,756,0
693204,432.64,613,753,0
693214,438.11,613,756,0
693224,441.50,613,753,0
693234,443.28,613,756,0
693244,442.55,613,753,0
693254,440.46,613,756,0
693264,436.16,613,753,0
693274,430.93,613,756,0
693284,423.79,613,753,0
693294,416.10,613,756,0
693304,407.33,613,753,0
693314,398.87,613,756,0
693324,390.00,613,753,0
693335,381.85,613,756,0
693345,373.75,613,752,0
693355,367.14,613,756,0
693365,360.97,613,752,0
693376,356.52,613,756,0
693385,352.72,613,752,0
693395,350.83,613,756,0
693405,349.86,613,752,0
693415,351.10,613,756,0
693425,353.56,613,752,0
693435,358.96,613,756,0
693445,366.81,613,752,0
693455,378.83,613,756,0
693465,394.14,613,752,0
693475,414.11,613,756,0
693485,437.48,613,752,0
693495,464.93,613,756,0
693505,494.01,613,752,0
693515,524.22,613,756,0
693525,552.70,613,752,0
693535,578.97,613,756,0
693545,600.24,613,752,0
693555,616.58,613,756,0
693565,625.88,613,752,0
693575,629.04,613,756,0
693585,625.00,613,752,0
693595,615.62,613,756,0
693605,600.56,613,752,0
693615,581.66,613,756,0
693625,558.84,613,752,0
693635,534.58,613,756,0
693645,508.82,613,752,0
693655,483.63,613,756,0
693665,458.63,613,752,0
693676,435.64,613,756,0
693686,414.41,613,752,0
693696,396.33,613,756,0
693706,380.63,613,752,0
693716,368.65,613,756,0
693726,359.46,613,751,0
693736,354.01,613,756,0
693746,351.13,613,752,0
693756,351.86,613,756,0
693766,354.73,613,751,0
693776,360.21,613,756,0
693786,366.75,613,752,0
693796,374.80,613,756,0
693806,382.70,613,752,0
693816,391.02,613,756,0
693826,398.13,613,752,0
693836,404.60,613,756,0
693847,409.22,613,752,0
693857,412.93,613,756,0
693867,414.66,613,752,0
693877,415.41,613,756,0
693888,414.47,613,753,0
693897,413.00,613,756,0
693907,410.30,613,753,0
693917,407.34,613,756,0
693927,403.51,613,753,0
693937,399.84,613,756,0
693947,395.69,613,753,0
693957,391.80,613,756,0
693967,387.44,613,753,0
693977,383.67,613,756,0
693987,379.74,613,752,0
693997,376.30,613,756,0
694007,372.57,613,753,0
694017,369.53,613,756,0
694027,366.54,613,752,0
694037,364.79,613,756,0
694047,364.00,613,753,0
694057,365.50,613,756,0
694067,369.03,613,752,0
694077,376.27,613,756,0
694087,386.94,613,753,0
694097,402.39,613,756,0
694107,421.60,613,752,0
694117,445.08,613,757,0
694127,471.33,613,753,0
694137,499.94,613,756,0
694156,528.59,0,755,0
694158,555.58,0,757,0
694168,579.84,0,754,0
694178,600.37,0,756,0
694188,615.39,0,753,0
694198,624.79,0,756,0
694208,627.72,0,754,0
694218,624.98,0,756,0
694228,617.31,0,754,0
694238,604.70,0,756,0
694248,587.65,0,754,0
694258,567.53,0,756,0
694268,545.08,0,755,0
694278,522.00,0,756,0
694288,498.64,0,754,0
694298,476.08,0,756,0
694308,454.63,0,754,0
694318,435.54,0,756,0
694328,418.88,0,754,0
694338,405.07,0,756,0
694348,393.86,0,755,0
694359,385.68,0,756,0
694369,380.42,0,755,0
694379,377.81,0,756,0
694389,377.56,0,755,0
694400,379.19,0,756,0
694409,382.35,0,755,0
694419,386.62,0,756,0
694429,391.45,0,756,0
694439,396.20,0,756,0
694449,400.77,0,755,0
694459,404.65,0,756,0
694469,407.84,0,756,0
694479,409.90,0,756,0
694489,410.92,0,756,0
694499,410.73,0,756,0
694509,409.61,0,755,0
694519,407.33,0,756,0
694529,404.27,0,755,0
694539,400.63,0,756,0
694549,396.67,0,756,0
694559,392.23,0,756,0
694569,387.74,0,756,0
694579,383.06,0,756,0
694589,378.63,0,756,0
694599,374.16,0,756,0
694609,369.87,0,756,0
694619,365.79,0,756,0
694629,362.21,0,756,0
694639,358.98,0,756,0
694649,356.58,0,756,0
694659,354.99,0,756,0
694669,354.78,0,756,0
694679,356.26,0,756,0
694689,360.25,0,756,0
694700,367.12,0,755,0
694710,377.84,0,756,0
694720,392.33,0,755,0
694730,411.26,0,757,0
694740,433.81,0,754,0
694750,459.50,0,757,0
694769,486.56,613,756,0
694772,513.69,613,758,0
694781,539.07,613,753,0
694791,561.85,613,757,0
694801,579.68,613,754,0
694811,592.55,613,757,0
694821,598.98,613,753,0
694831,599.93,613,757,0
694841,595.28,613,754,0
694851,585.94,613,757,0
694861,571.73,613,753,0
694871,554.88,613,756,0
694881,535.29,613,754,0
694891,514.97,613,757,0
694901,493.51,613,753,0
694912,472.66,613,757,0
694921,452.19,613,754,0
694931,433.70,613,757,0
694941,416.39,613,753,0
694951,401.62,613,756,0
694961,388.70,613,754,0
694971,378.89,613,757,0
694981,371.12,613,753,0
694991,366.42,613,757,0
695001,363.51,613,754,0
695011,363.14,613,757,0
695021,363.83,613,753,0
695031,366.15,613,757,0
695041,368.63,613,753,0
695051,371.96,613,757,0
695061,374.63,613,753,0
695071,377.44,613,757,0
695081,378.98,613,753,0
695091,380.31,613,757,0
695101,380.26,613,753,0
695111,379.88,613,757,0
695121,378.20,613,753,0
695131,376.43,613,757,0
695141,373.64,613,753,0
695151,371.31,613,757,0
695161,368.30,613,752,0
695171,366.07,613,757,0
695181,363.56,613,753,0
695191,361.89,613,757,0
695201,359.95,613,753,0
695212,358.90,613,757,0
695222,357.38,613,752,0
695232,356.75,613,757,0
695242,355.50,613,752,0
695252,354.92,613,757,0
695262,353.83,613,753,0
695272,353.41,613,757,0
695282,352.77,613,752,0
695292,353.53,613,757,0
695302,354.78,613,752,0
695312,358.36,613,757,0
695322,363.53,613,752,0
695332,371.94,613,757,0
695342,382.63,613,752,0
695352,396.84,613,757,0
695362,413.09,613,752,0
695382,432.09,612,751,0
695385,451.39,612,753,0
695394,471.46,612,757,0
695404,489.96,612,752,0
695414,506.90,612,757,0
695425,520.13,612,753,0
695435,529.86,612,756,0
695445,534.71,612,753,0
695455,535.78,612,757,0
695465,532.03,612,754,0
695475,524.82,612,756,0
695485,514.08,612,753,0
695495,501.20,612,756,0
695505,486.39,612,754,0
695515,470.93,612,756,0
695525,454.75,612,753,0
695535,439.10,612,756,0
695545,423.90,612,754,0
695555,410.30,612,756,0
695565,398.12,612,753,0
695575,388.02,612,757,0
695585,379.74,612,754,0
695596,373.99,612,756,0
695606,370.14,612,754,0
695616,368.29,612,756,0
695626,367.86,612,755,0
695636,368.76,612,756,0
695646,370.29,612,754,0
695656,372.26,612,756,0
695666,374.07,612,755,0
695676,375.68,612,756,0
695686,376.54,612,754,0
695696,376.42,612,756,0
695706,375.31,612,755,0
695716,373.46,612,756,0
695726,370.97,612,754,0
695736,368.23,612,756,0
695746,365.25,612,755,0
695756,362.65,612,756,0
695767,360.48,612,755,0
695777,358.84,612,756,0
695787,357.77,612,756,0
695797,356.98,612,755,0
695808,356.43,612,756,0
695817,356.09,612,756,0
695827,355.85,612,756,0
695837,355.59,612,755,0
695847,355.37,612,756,0
695857,354.87,612,756,0
695867,354.44,612,756,0
695877,353.58,612,755,0
695887,352.63,612,756,0
695897,351.37,612,756,0
695907,350.19,612,756,0
695917,348.98,612,755,0
695927,348.55,612,756,0
695937,348.90,612,756,0
695947,350.99,612,756,0
695957,354.94,612,755,0
695967,361.51,612,756,0
695977,370.40,612,755,0
695987,381.89,612,756,0
695997,395.08,612,755,0
696007,409.97,612,756,0
696017,425.32,612,755,0
696036,440.61,655,754,0
696039,453.59,655,753,0
696048,464.98,655,756,0
696058,473.60,655,754,0
696068,479.64,655,756,0
696078,482.14,655,754,0
696088,481.84,655,756,0
696098,478.08,655,754,0
696108,472.78,655,756,0
696118,464.70,655,754,0
696128,455.19,655,756,0
696138,443.56,655,754,0
696148,431.44,655,756,0
696158,418.41,655,754,0
696168,406.07,655,756,0
696178,393.79,655,754,0
696188,382.84,655,756,0
696198,372.69,655,754,0
696208,364.64,655,756,0
696218,357.72,655,754,0
696228,352.79,655,756,0
696238,348.78,655,754,0
696248,346.66,655,756,0
696258,345.43,655,754,0
696268,345.78,655,756,0
696279,346.49,655,753,0
696289,348.31,655,756,0
696299,350.02,655,753,0
696309,352.46,655,757,0
696320,354.29,655,753,0
696329,356.47,655,756,0
696339,357.79,655,753,0
696349,359.48,655,756,0
696359,360.15,655,752,0
696369,361.05,655,756,0
696379,361.12,655,753,0
696389,361.60,655,756,0
696399,361.25,655,752,0
696409,361.34,655,756,0
696419,360.90,655,753,0
696429,361.40,655,757,0
696439,361.79,655,753,0
696449,363.10,655,756,0
696459,364.27,655,753,0
696469,366.46,655,756,0
696479,368.34,655,753,0
696489,370.81,655,756,0
696499,372.54,655,753,0
696509,374.48,655,757,0
696519,375.40,655,752,0
696529,376.44,655,756,0
696539,376.57,655,752,0
696549,377.42,655,757,0
696559,378.15,655,752,0
696569,380.51,655,756,0
696579,383.57,655,752,0
696589,388.97,655,756,0
696599,395.79,655,752,0
696609,405.24,655,756,0
696629,415.84,593,755,0
696632,428.10,593,756,0
696641,440.63,593,752,0
696651,454.03,593,756,0
696662,466.36,593,752,0
696671,477.95,593,756,0
696681,486.92,593,752,0
696691,493.89,593,756,0
696701,497.65,593,752,0
696711,498.78,593,757,0
696721,496.32,593,752,0
696731,491.60,593,756,0
696741,484.05,593,752,0
696751,475.33,593,757,0
696761,464.69,593,752,0
696771,453.98,593,757,0
696781,442.72,593,752,0
696791,432.39,593,757,0
696801,422.33,593,752,0
696811,413.87,593,756,0
696821,406.20,593,752,0
696832,400.74,593,757,0
696841,396.36,593,752,0
696851,393.98,593,756,0
696861,392.44,593,752,0
696871,392.57,593,757,0
696881,393.04,593,752,0
696891,394.66,593,757,0
696901,396.09,593,752,0
696911,398.03,593,757,0
696921,399.35,593,752,0
696931,400.87,593,756,0
696941,401.56,593,752,0
696951,402.29,593,756,0
696961,402.03,593,752,0
696971,401.98,593,756,0
696981,401.04,593,752,0
696991,400.22,593,757,0
697001,398.56,593,753,0
697011,397.24,593,756,0
697021,395.32,593,752,0
697031,393.81,593,757,0
697041,391.73,593,753,0
697051,390.14,593,756,0
697061,388.08,593,752,0
697071,386.56,593,757,0
697081,384.55,593,753,0
697091,383.05,593,756,0
697101,381.20,593,752,0
697111,379.85,593,757,0
697121,378.14,593,753,0
697132,376.94,593,756,0
697142,375.54,593,753,0
697152,374.87,593,757,0
697162,374.43,593,754,0
697172,375.42,593,756,0
697182,377.26,593,753,0
697192,381.39,593,757,0
697202,387.57,593,754,0
697212,396.70,593,756,0
697222,408.15,593,753,0
697232,422.50,593,757,0
697251,438.64,622,755,0
697254,456.36,622,755,0
697263,474.72,622,754,0
697273,492.94,622,756,0
697283,509.63,622,755,0
697293,524.61,622,756,0
697303,536.60,622,754,0
697313,545.55,622,756,0
697323,551.08,622,755,0
697333,552.82,622,756,0
697344,551.11,622,755,0
697353,546.41,622,756,0
697363,538.87,622,755,0
697373,529.22,622,756,0
697383,517.89,622,755,0
697393,505.71,622,756,0
697403,493.07,622,755,0
697413,480.45,622,756,0
697423,468.35,622,756,0
697433,457.32,622,756,0
697443,447.41,622,755,0
697453,439.06,622,756,0
697463,432.14,622,755,0
697473,426.91,622,756,0
697483,423.17,622,755,0
697493,420.85,622,756,0
697503,419.56,622,755,0
697513,419.31,622,756,0
697523,419.82,622,755,0
697533,420.90,622,756,0
697543,422.30,622,755,0
697553,423.80,622,755,0
697563,425.14,622,755,0
697573,426.30,622,756,0
697583,427.07,622,755,0
697593,427.13,622,756,0
697603,426.54,622,755,0
697613,425.39,622,756,0
697623,423.73,622,755,0
697633,421.67,622,756,0
697644,419.24,622,756,0
697654,416.47,622,755,0
697664,413.50,622,756,0
697674,410.18,622,755,0
697684,406.78,622,757,0
697694,403.38,622,755,0
697704,400.22,622,756,0
697714,397.20,622,754,0
697724,394.78,622,757,0
697734,392.75,622,756,0
697744,391.71,622,756,0
697754,391.07,622,755,0
697764,391.39,622,756,0
697774,392.26,622,756,0
697784,394.50,622,756,0
697794,397.90,622,755,0
697804,403.50,622,757,0
697815,411.11,622,754,0
697825,421.83,622,756,0
697835,435.30,622,754,0
697845,452.14,622,757,0
697865,471.12,613,756,0
697868,492.04,613,756,0
697877,513.50,613,752,0
697887,535.21,613,757,0
697897,555.20,613,752,0
697907,573.14,613,757,0
697917,587.11,613,752,0
697927,597.58,613,757,0
697937,603.45,613,752,0
697947,605.46,613,757,0
697957,602.62,613,752,0
697967,596.22,613,757,0
697977,585.78,613,752,0
697987,573.50,613,757,0
697997,559.00,613,753,0
698007,544.08,613,757,0
698017,528.07,613,753,0
698028,513.01,613,757,0
698038,498.39,613,752,0
698048,485.67,613,757,0
698058,473.81,613,753,0
698068,464.23,613,757,0
698078,455.67,613,752,0
698088,449.51,613,757,0
698098,444.39,613,752,0
698108,441.49,613,757,0
698118,439.41,613,752,0
698128,439.12,613,757,0
698138,439.00,613,752,0
698148,440.11,613,757,0
698158,440.89,613,752,0
698168,442.21,613,757,0
698178,442.53,613,752,0
698188,442.84,613,757,0
698199,441.82,613,752,0
698209,440.50,613,757,0
698219,438.12,613,753,0
698229,435.77,613,757,0
698240,432.54,613,753,0
698249,429.46,613,757,0
698259,425.72,613,753,0
698269,422.68,613,757,0
698279,419.43,613,753,0
698289,416.69,613,757,0
698299,413.57,613,753,0
698309,411.08,613,757,0
698319,408.27,613,754,0
698329,406.48,613,757,0
698339,404.40,613,754,0
698349,403.30,613,757,0
698359,401.97,613,754,0
698369,401.63,613,757,0
698379,401.27,613,754,0
698389,402.26,613,757,0
698399,403.55,613,754,0
698409,406.60,613,757,0
698419,410.79,613,754,0
698429,417.76,613,757,0
698439,426.87,613,754,0
698449,439.42,613,757,0
698459,454.17,613,754,0
698469,471.82,613,757,0
698479,490.56,613,754,0
698489,510.45,613,757,0
698499,529.26,613,754,0
698518,547.01,654,752,0
698521,560.85,654,757,0
698530,571.95,654,757,0
698540,578.65,654,755,0
698550,582.01,654,757,0
698560,580.72,654,755,0
698570,576.22,654,757,0
698580,567.71,654,755,0
698590,557.51,654,757,0
698600,544.37,654,755,0
698610,529.86,654,757,0
698620,513.79,654,755,0
698630,497.87,654,757,0
698640,481.92,654,755,0
698650,467.24,654,757,0
698660,453.54,654,756,0
698670,442.02,654,757,0
698680,432.07,654,755,0
698690,424.47,654,757,0
698700,418.54,654,756,0
698711,414.78,654,757,0
698721,412.49,654,756,0
698731,411.91,654,757,0
698741,412.20,654,756,0
698752,413.55,654,756,0
698761,415.10,654,756,0
698771,416.87,654,757,0
698781,418.28,654,756,0
698791,419.44,654,756,0
698801,419.86,654,756,0
698811,419.69,654,757,0
698821,418.71,654,756,0
698831,417.13,654,756,0
698841,414.77,654,756,0
698851,411.93,654,757,0
698861,408.56,654,756,0
698871,404.88,654,756,0
698881,400.89,654,756,0
698891,397.11,654,756,0
698901,393.43,654,756,0
698911,390.13,654,756,0
698921,387.31,654,757,0
698931,385.20,654,756,0
698941,383.64,654,756,0
698951,382.76,654,756,0
698961,382.23,654,757,0
698971,382.29,654,756,0
698981,382.68,654,756,0
698991,383.37,654,756,0
699001,384.50,654,756,0
699011,386.50,654,757,0
699021,389.60,654,756,0
699031,394.35,654,756,0
699041,401.06,654,757,0
699052,410.30,654,756,0
699062,422.34,654,757,0
699072,436.85,654,756,0
699082,453.57,654,757,0
699092,471.83,654,755,0
699102,490.91,654,757,0
699112,509.58,654,756,0
699131,527.15,613,754,0
699134,541.42,613,755,0
699143,553.29,613,757,0
699153,561.69,613,755,0
699163,566.75,613,757,0
699173,567.64,613,754,0
699183,565.31,613,757,0
699193,559.21,613,755,0
699203,551.31,613,757,0
699213,540.16,613,754,0
699223,527.34,613,757,0
699233,512.75,613,755,0
699243,497.87,613,757,0
699253,482.09,613,754,0
699264,466.94,613,757,0
699273,452.17,613,754,0
699283,438.96,613,757,0
699293,426.72,613,754,0
699303,416.60,613,757,0
699313,407.94,613,754,0
699323,401.87,613,757,0
699333,397.32,613,753,0
699343,394.91,613,757,0
699353,393.48,613,754,0
699363,393.68,613,757,0
699373,393.99,613,753,0
699383,394.98,613,757,0
699393,395.29,613,754,0
699403,395.71,613,757,0
699413,395.03,613,753,0
699423,394.08,613,757,0
699433,391.78,613,753,0
699443,389.19,613,757,0
699453,385.36,613,754,0
699463,381.61,613,757,0
699473,376.88,613,753,0
699483,372.68,613,757,0
699493,368.02,613,754,0
699503,364.11,613,757,0
699513,359.92,613,753,0
699523,356.82,613,757,0
699533,353.49,613,753,0
699543,351.15,613,757,0
699553,348.41,613,753,0
699564,346.61,613,757,0
699574,344.54,613,752,0
699584,343.40,613,757,0
699594,341.99,613,752,0
699604,341.69,613,757,0
699614,341.74,613,752,0
699624,343.41,613,757,0
699634,345.77,613,752,0
699644,350.25,613,757,0
699654,356.05,613,752,0
699664,364.56,613,757,0
699674,374.68,613,752,0
699684,387.33,613,757,0
699694,401.08,613,752,0
699704,416.52,613,757,0
699714,431.84,613,752,0
699724,447.53,613,757,0
699735,461.43,613,752,0
699745,473.90,613,757,0
699755,483.06,613,752,0
699765,489.56,613,757,0
699776,492.09,613,752,0
699785,491.89,613,756,0
699795,487.89,613,751,0
699805,481.58,613,757,0
699825,472.32,693,756,0
699828,461.08,693,757,0
699837,448.29,693,753,0
699847,435.17,693,757,0
699857,421.36,693,754,0
699867,408.10,693,757,0
699877,394.87,693,753,0
699887,382.82,693,757,0
699897,372.12,693,754,0
699907,362.78,693,756,0
699917,354.41,693,753,0
699927,347.68,693,757,0
699937,342.16,693,754,0
699948,338.30,693,756,0
699958,335.55,693,755,0
699968,334.10,693,756,0
699978,333.56,693,755,0
699988,334.03,693,756,0
699998,334.92,693,755,0
700008,336.32,693,757,0
700018,338.02,693,755,0
700028,340.12,693,756,0
700038,342.44,693,755,0
700048,345.22,693,757,0
700058,348.11,693,756,0
700068,351.34,693,756,0
700078,354.45,693,755,0
700088,357.61,693,757,0
700098,360.56,693,756,0
700108,363.31,693,756,0
700119,365.61,693,756,0
700129,367.70,693,756,0
700139,369.29,693,756,0
700149,370.83,693,756,0
700160,372.21,693,757,0
700169,373.69,693,756,0
700179,375.11,693,756,0
700189,376.49,693,756,0
700199,377.97,693,757,0
700209,379.74,693,756,0
700219,381.45,693,757,0
700229,383.20,693,756,0
700239,385.28,693,757,0
700249,388.07,693,756,0
700259,391.65,693,757,0
700269,396.30,693,756,0
700279,401.99,693,757,0
700289,409.15,693,756,0
700299,417.34,693,757,0
700309,426.32,693,756,0
700319,435.82,693,756,0
700329,445.35,693,755,0
700339,454.54,693,755,0
700349,462.70,693,755,0
700359,469.64,693,756,0
700379,474.98,554,756,0
700382,478.54,554,758,0
700391,480.22,554,753,0
700401,480.63,554,757,0
700411,479.02,554,754,0
700421,476.49,554,757,0
700431,472.27,554,754,0
700441,467.26,554,757,0
700451,460.93,554,754,0
700461,453.92,554,757,0
700471,445.63,554,754,0
700481,437.51,554,757,0
700491,428.79,554,754,0
700502,420.84,554,757,0
700511,413.09,554,754,0
700521,406.72,554,757,0
700531,400.76,554,754,0
700541,396.16,554,757,0
700551,391.83,554,754,0
700561,388.62,554,757,0
700571,385.56,554,754,0
700581,383.38,554,757,0
700591,381.08,554,754,0
700601,379.64,554,757,0
700611,377.99,554,754,0
700621,376.79,554,757,0
700631,375.14,554,755,0
700641,373.86,554,757,0
700651,372.23,554,755,0
700661,371.09,554,757,0
700672,369.35,554,754,0
700681,368.30,554,757,0
700691,367.27,554,755,0
700701,367.36,554,757,0
700711,367.64,554,754,0
700721,369.03,554,757,0
700731,370.65,554,755,0
700741,373.37,554,757,0
700751,376.00,554,754,0
700761,379.26,554,757,0
700771,381.97,554,754,0
700781,384.85,554,757,0
700791,386.74,554,754,0
700801,388.49,554,757,0
700811,389.28,554,754,0
700821,390.14,554,757,0
700831,390.06,554,753,0
700841,390.04,554,757,0
700851,389.30,554,753,0
700861,388.95,554,757,0
700871,388.11,554,753,0
700881,388.08,554,757,0
700891,387.88,554,754,0
700901,389.07,554,757,0
700911,390.68,554,753,0
700921,393.95,554,757,0
700931,397.82,554,754,0
700941,403.27,554,757,0
700951,408.89,554,753,0
700961,415.35,554,757,0
700972,421.12,554,753,0
700982,426.91,554,757,0
700992,431.14,554,752,0
701002,434.74,554,757,0
701012,436.57,554,752,0
701022,437.73,554,757,0
701032,437.13,554,752,0
701042,435.93,554,757,0
701052,433.34,554,752,0
701062,430.75,554,757,0
701072,426.93,554,752,0
701082,423.18,554,757,0
701092,418.28,554,752,0
701102,413.78,554,757,0
701112,408.53,554,752,0
701122,403.53,554,757,0
701132,397.93,554,752,0
701143,393.11,554,757,0
701153,388.19,554,752,0
701163,384.53,554,756,0
701173,381.16,554,752,0
701184,379.18,554,757,0
701193,377.76,554,752,0
701203,377.79,554,756,0
701213,378.11,554,752,0
701223,379.40,554,757,0
701233,380.65,554,752,0
701243,382.43,554,756,0
701253,383.84,554,752,0
701263,385.56,554,757,0
701273,386.42,554,752,0
701283,387.41,554,757,0
701293,387.54,554,752,0
701303,387.64,554,757,0
701313,386.76,554,752,0
701323,385.89,554,757,0
701333,384.25,554,752,0
701343,382.85,554,757,0
701353,380.79,554,753,0
701363,379.10,554,756,0
701373,376.84,554,752,0
701383,375.13,554,757,0
701393,372.99,554,753,0
701403,371.37,554,757,0
701413,369.37,554,752,0
701423,367.84,554,757,0
701433,365.88,554,753,0
701443,364.50,554,757,0
701453,362.68,554,752,0
701463,361.40,554,757,0
701473,359.78,554,753,0
701484,358.78,554,757,0
701494,357.77,554,753,0
701504,357.67,554,757,0
701514,357.90,554,754,0
701524,359.51,554,756,0
701534,361.76,554,753,0
701544,365.65,554,757,0
701554,370.51,554,754,0
701564,376.87,554,756,0
701574,383.81,554,753,0
701584,391.71,554,756,0
701594,399.64,554,754,0
701604,407.80,554,757,0
701614,415.28,554,753,0
701624,422.18,554,756,0
701634,427.70,554,754,0
701644,432.33,554,756,0
701655,435.36,554,755,0
701665,437.14,554,757,0
701675,437.35,554,755,0
701685,436.30,554,756,0
701696,433.90,554,756,0
701705,430.63,554,757,0
701715,426.28,554,755,0
701734,421.40,0,754,0
701736,415.79,0,757,0
701746,410.28,0,756,0
701756,404.88,0,756,0
701766,399.69,0,756,0
701776,394.85,0,756,0
701786,390.48,0,756,0
701796,386.61,0,756,0
701806,383.34,0,756,0
701816,380.45,0,757,0
701826,377.92,0,756,0
701836,375.93,0,756,0
701846,374.32,0,756,0
701856,373.32,0,757,0
701867,372.58,0,756,0
701876,372.49,0,756,0
701886,372.65,0,756,0
701896,373.31,0,757,0
701906,373.99,0,756,0
701916,374.93,0,756,0
701926,375.68,0,756,0
701936,376.76,0,757,0
701946,377.61,0,755,0
701956,378.50,0,756,0
701966,379.03,0,756,0
701976,379.54,0,757,0
701986,379.55,0,755,0
701996,379.47,0,756,0
702006,378.77,0,756,0
702016,377.98,0,757,0
702026,376.79,0,756,0
702036,375.57,0,757,0
702046,374.07,0,756,0
702056,372.72,0,757,0
702066,371.17,0,755,0
702076,369.97,0,757,0
702086,368.69,0,756,0
702096,367.71,0,756,0
702106,366.68,0,755,0
702116,366.26,0,757,0
702126,366.27,0,756,0
702136,367.30,0,756,0
702146,369.06,0,755,0
702156,372.25,0,757,0
702167,376.63,0,755,0
702177,382.79,0,757,0
702187,389.88,0,754,0
702197,398.49,0,757,0
702217,407.73,482,756,0
702220,417.79,482,756,0
702229,427.84,482,753,0
702239,438.17,482,757,0
702249,447.38,482,752,0
702259,456.09,482,757,0
702269,462.79,482,753,0
702279,468.26,482,757,0
702289,471.52,482,752,0
702299,473.21,482,756,0
702309,472.37,482,753,0
702319,470.46,482,757,0
702329,466.59,482,752,0
702339,462.26,482,756,0
702349,456.57,482,753,0
702359,450.87,482,757,0
702369,444.27,482,753,0
702380,438.14,482,757,0
702390,431.54,482,752,0
702400,425.85,482,757,0
702410,420.11,482,752,0
702420,415.62,482,757,0
702430,411.28,482,753,0
702440,408.32,482,757,0
702450,405.57,482,752,0
702460,404.11,482,757,0
702470,402.75,482,752,0
702480,402.44,482,757,0
702490,402.01,482,752,0
702500,402.39,482,756,0
702510,402.40,482,752,0
702520,402.97,482,757,0
702530,402.89,482,752,0
702540,403.14,482,756,0
702551,402.75,482,753,0
702561,402.61,482,757,0
702571,401.92,482,753,0
702581,401.51,482,756,0
702592,400.59,482,753,0
702601,400.07,482,757,0
702611,399.02,482,753,0
702621,398.24,482,756,0
702631,397.01,482,753,0
702641,396.19,482,757,0
702651,394.98,482,753,0
702661,394.09,482,756,0
702671,392.73,482,753,0
702681,391.95,482,757,0
702691,390.98,482,753,0
702701,390.56,482,756,0
702711,389.88,482,753,0
702721,389.70,482,757,0
702731,389.49,482,753,0
702741,390.11,482,757,0
702751,390.85,482,753,0
702761,392.70,482,757,0
702771,395.32,482,753,0
702781,399.85,482,757,0
702791,405.98,482,753,0
702801,414.64,482,757,0
702820,425.34,604,755,0
702823,438.48,604,757,0
702832,454.11,604,754,0
702842,471.65,604,757,0
702852,489.58,604,753,0
702862,507.92,604,757,0
702872,525.13,604,754,0
702882,541.21,604,757,0
702892,555.16,604,753,0
702902,566.08,604,757,0
702912,573.77,604,754,0
702922,578.81,604,757,0
702932,580.67,604,754,0
702942,580.08,604,757,0
702952,576.59,604,754,0
702962,570.92,604,756,0
702972,563.28,604,754,0
702982,554.62,604,757,0
702992,544.79,604,754,0
703002,534.57,604,757,0
703012,523.90,604,754,0
703022,513.69,604,756,0
703032,503.92,604,754,0
703042,495.16,604,757,0
703052,487.18,604,755,0
703063,480.66,604,757,0
703073,475.23,604,756,0
703083,471.22,604,757,0
703093,468.37,604,756,0
703104,466.54,604,756,0
703113,465.44,604,756,0
703123,465.05,604,757,0
703133,464.99,604,756,0
703143,465.08,604,756,0
703153,465.06,604,755,0
703163,464.74,604,757,0
703173,464.22,604,756,0
703183,463.21,604,756,0
703193,461.78,604,756,0
703203,459.74,604,757,0
703213,457.42,604,756,0
703223,454.59,604,757,0
703233,451.54,604,756,0
703243,448.34,604,757,0
703253,445.15,604,756,0
703263,441.81,604,756,0
703273,438.52,604,756,0
703283,435.36,604,757,0
703293,432.56,604,756,0
703303,429.95,604,756,0
703313,427.52,604,756,0
703323,425.18,604,757,0
703333,423.02,604,756,0
703343,420.87,604,756,0
703353,418.90,604,756,0
703363,417.21,604,757,0
703373,416.08,604,756,0
703383,415.67,604,757,0
703393,416.71,604,756,0
703404,419.46,604,756,0
703414,425.02,604,757,0
703424,433.28,604,755,0
703434,445.20,604,757,0
703444,460.14,604,755,0
703454,478.35,604,757,0
703464,498.78,604,755,0
703474,521.00,604,757,0
703484,543.33,604,755,0
703494,565.43,604,757,0
703513,585.44,693,756,0
703516,603.01,693,758,0
703525,617.28,693,754,0
703535,628.42,693,757,0
703545,635.58,693,754,0
703555,639.26,693,757,0
703565,638.80,693,754,0
703575,635.30,693,757,0
703585,628.65,693,754,0
703595,619.54,693,757,0
703605,607.51,693,754,0
703616,594.03,693,757,0
703625,578.98,693,754,0
703635,563.77,693,757,0
703645,547.72,693,754,0
703655,532.46,693,757,0
703665,517.50,693,754,0
703675,504.40,693,757,0
703685,492.24,693,754,0
703695,482.27,693,757,0
703705,473.62,693,754,0
703715,467.30,693,757,0
703725,462.11,693,754,0
703735,458.74,693,757,0
703745,455.86,693,754,0
703755,454.40,693,757,0
703765,452.91,693,754,0
703775,452.16,693,757,0
703785,450.96,693,753,0
703795,450.16,693,757,0
703805,448.61,693,754,0
703815,447.31,693,757,0
703825,445.16,693,753,0
703835,443.27,693,757,0
703845,440.66,693,754,0
703855,438.41,693,757,0
703865,435.46,693,753,0
703875,433.09,693,757,0
703885,430.11,693,754,0
703895,427.67,693,757,0
703905,424.51,693,753,0
703916,421.75,693,757,0
703926,418.39,693,753,0
703936,415.66,693,757,0
703946,412.42,693,753,0
703956,409.94,693,757,0
703966,407.08,693,753,0
703976,405.17,693,757,0
703986,403.11,693,752,0
703996,402.09,693,757,0
704006,401.21,693,753,0
704016,401.87,693,757,0
704026,403.32,693,753,0
704036,407.34,693,757,0
704046,413.11,693,753,0
704056,422.42,693,757,0
704066,434.51,693,753,0
704076,450.73,693,757,0
704087,469.54,693,752,0
704097,491.62,693,757,0
704107,514.79,693,752,0
704117,539.32,693,757,0
704137,562.63,623,756,0
704140,584.08,623,758,0
704149,602.23,623,753,0
704159,616.82,623,757,0
704169,626.22,623,754,0
704179,631.34,623,757,0
704189,631.24,623,753,0
704199,627.18,623,757,0
704209,619.11,623,754,0
704219,607.68,623,757,0
704229,593.16,623,753,0
704239,577.04,623,757,0
704249,559.37,623,754,0
704259,541.47,623,757,0
704269,523.37,623,753,0
704279,506.33,623,757,0
704289,490.08,623,754,0
704300,475.74,623,757,0
704310,462.87,623,754,0
704320,451.94,623,756,0
704330,442.79,623,755,0
704340,435.48,623,756,0
704350,429.72,623,754,0
704360,425.69,623,757,0
704370,422.70,623,755,0
704380,420.95,623,756,0
704390,419.85,623,754,0
704400,419.25,623,757,0
704410,418.88,623,755,0
704420,418.57,623,757,0
704430,418.01,623,754,0
704440,417.45,623,757,0
704450,416.59,623,755,0
704460,415.55,623,757,0
704471,414.15,623,755,0
704481,412.60,623,756,0
704491,410.92,623,756,0
704501,409.19,623,756,0
704512,407.33,623,756,0
704521,405.56,623,756,0
704531,403.98,623,756,0
704541,402.40,623,756,0
704551,401.04,623,756,0
704561,399.65,623,756,0
704571,398.39,623,756,0
704581,397.16,623,756,0
704591,396.08,623,756,0
704601,394.94,623,756,0
704611,394.23,623,756,0
704621,393.90,623,756,0
704631,394.79,623,756,0
704641,397.30,623,756,0
704651,402.22,623,755,0
704661,410.04,623,756,0
704671,421.64,623,756,0
704681,437.18,623,755,0
704691,456.75,623,755,0
704710,479.67,574,755,0
704713,505.31,574,758,0
704722,532.56,574,754,0
704732,560.04,574,756,0
704742,585.87,574,755,0
704752,609.18,574,757,0
704762,628.37,574,754,0
704772,643.17,574,757,0
704782,652.72,574,755,0
704792,657.13,574,757,0
704802,656.15,574,754,0
704812,651.09,574,756,0
704822,641.64,574,755,0
704832,629.14,574,757,0
704842,613.29,574,754,0
704852,595.37,574,756,0
704862,575.37,574,755,0
704872,554.78,574,757,0
704882,533.20,574,754,0
704892,511.97,574,756,0
704902,491.02,574,755,0
704912,471.64,574,757,0
704922,453.49,574,754,0
704932,437.70,574,756,0
704942,423.91,574,755,0
704952,413.01,574,757,0
704962,404.26,574,754,0
704972,398.44,574,757,0
704983,394.49,574,754,0
704993,393.06,574,757,0
705003,392.74,574,753,0
705013,394.02,574,757,0
705024,395.43,574,753,0
705033,397.74,574,757,0
705043,399.58,574,753,0
705053,401.68,574,757,0
705063,402.67,574,753,0
705073,403.54,574,757,0
705083,403.12,574,753,0
705093,402.61,574,756,0
705103,401.10,574,753,0
705113,399.79,574,757,0
705123,397.71,574,753,0
705133,396.12,574,757,0
705143,393.90,574,753,0
705153,392.30,574,757,0
705163,390.37,574,753,0
705173,389.02,574,757,0
705183,387.00,574,753,0
705193,385.58,574,757,0
705203,383.74,574,753,0
705213,382.79,574,757,0
705223,381.52,574,753,0
705233,381.37,574,757,0
705243,381.64,574,753,0
705253,384.23,574,757,0
705263,388.88,574,753,0
705273,397.36,574,757,0
705283,409.16,574,753,0
705293,425.92,574,757,0
705312,446.43,602,756,0
705315,471.20,602,758,0
705324,498.70,602,753,0
705334,528.32,602,757,0
705344,557.45,602,752,0
705354,585.64,602,757,0
705364,610.26,602,752,0
705374,631.31,602,757,0
705384,646.78,602,752,0
705394,656.87,602,757,0
705404,660.47,602,752,0
705414,659.17,602,757,0
705424,652.22,602,752,0
705434,641.44,602,757,0
705444,626.05,602,752,0
705454,608.29,602,757,0
705464,587.50,602,752,0
705474,565.71,602,757,0
705484,542.35,602,752,0
705495,519.23,602,757,0
705505,495.85,602,752,0
705515,474.21,602,757,0
705525,453.49,602,752,0
705536,435.47,602,757,0
705545,419.34,602,752,0
705555,406.34,602,757,0
705565,395.61,602,752,0
705575,387.93,602,757,0
705585,382.08,602,751,0
705595,378.97,602,757,0
705605,377.18,602,752,0
705615,377.38,602,757,0
705625,378.17,602,751,0
705635,380.17,602,757,0
705645,382.05,602,752,0
705655,384.65,602,757,0
705665,386.38,602,752,0
705675,388.24,602,757,0
705685,389.07,602,752,0
705695,389.86,602,757,0
705705,389.52,602,752,0
705715,389.19,602,757,0
705725,387.68,602,752,0
705735,386.36,602,757,0
705745,384.19,602,752,0
705755,382.16,602,757,0
705765,379.33,602,752,0
705775,376.87,602,757,0
705785,373.87,602,752,0
705795,371.51,602,757,0
705805,368.83,602,752,0
705815,366.86,602,757,0
705825,364.68,602,752,0
705836,363.57,602,757,0
705846,362.89,602,753,0
705856,364.08,602,757,0
705866,366.80,602,753,0
705876,372.64,602,757,0
705886,381.15,602,753,0
705896,393.88,602,757,0
705906,410.29,602,753,0
705926,431.03,613,752,0
705929,454.93,613,756,0
705938,482.00,613,757,0
705948,510.24,613,755,0
705958,538.71,613,756,0
705968,565.41,613,755,0
705978,589.16,613,756,0
705988,608.48,613,755,0
705998,622.87,613,756,0
706008,631.48,613,755,0
706018,634.46,613,756,0
706028,632.27,613,755,0
706038,625.37,613,756,0
706049,614.46,613,756,0
706059,600.09,613,756,0
706069,583.01,613,756,0
706079,563.51,613,755,0
706089,542.78,613,757,0
706099,521.16,613,756,0
706109,499.56,613,756,0
706119,478.13,613,755,0
706129,457.86,613,757,0
706139,439.00,613,756,0
706149,422.33,613,756,0
706159,407.53,613,755,0
706169,395.24,613,757,0
706179,385.27,613,756,0
706189,378.12,613,756,0
706199,373.03,613,755,0
706209,370.32,613,757,0
706220,369.24,613,755,0
706230,370.02,613,757,0
706240,371.56,613,754,0
706250,374.01,613,757,0
706260,376.36,613,754,0
706270,379.08,613,757,0
706280,380.86,613,754,0
706290,382.31,613,757,0
706300,382.48,613,753,0
706310,382.51,613,757,0
706320,381.54,613,754,0
706330,380.52,613,757,0
706340,378.44,613,753,0
706350,376.59,613,757,0
706360,374.10,613,754,0
706370,371.88,613,757,0
706380,368.96,613,753,0
706391,366.27,613,757,0
706401,362.93,613,753,0
706411,360.17,613,757,0
706421,356.86,613,753,0
706432,354.20,613,757,0
706441,351.44,613,753,0
706451,349.59,613,757,0
706461,347.96,613,753,0
706471,347.93,613,756,0
706481,348.94,613,753,0
706491,352.68,613,757,0
706501,358.56,613,753,0
706511,368.38,613,757,0
706521,381.34,613,753,0
706531,398.89,613,757,0
706550,419.63,625,756,0
706553,444.08,625,757,0
706562,470.84,625,752,0
706572,499.48,625,757,0
706582,527.15,625,752,0
706592,553.85,625,757,0
706603,576.82,625,752,0
706612,596.37,625,757,0
706622,610.53,625,752,0
706632,619.46,625,757,0
706642,622.36,625,752,0
706652,620.84,625,757,0
706662,614.07,625,752,0
706672,603.68,625,757,0
706682,589.08,625,752,0
706692,572.21,625,757,0
706702,552.65,625,752,0
706712,532.22,625,757,0
706722,510.21,625,752,0
706732,488.68,625,757,0
706742,467.09,625,752,0
706752,447.13,625,757,0
706762,428.15,625,752,0
706772,411.73,625,757,0
706782,397.03,625,752,0
706792,385.58,625,757,0
706802,376.02,625,751,0
706812,369.63,625,757,0
706822,365.11,625,752,0
706832,363.32,625,757,0
706842,362.88,625,752,0
706852,364.46,625,757,0
706862,366.64,625,752,0
706872,370.09,625,757,0
706882,373.36,625,752,0
706892,377.24,625,757,0
706903,380.34,625,752,0
706913,383.28,625,757,0
706923,385.00,625,752,0
706933,386.28,625,757,0
706944,386.16,625,753,0
706953,385.77,625,757,0
706963,384.34,625,752,0
706973,382.99,625,757,0
706983,380.89,625,753,0
706993,379.04,625,757,0
707003,376.50,625,752,0
707013,374.46,625,757,0
707023,371.80,625,753,0
707033,369.41,625,757,0
707043,366.50,625,752,0
707053,364.17,625,757,0
707063,361.63,625,753,0
707073,359.86,625,757,0
707083,357.97,625,752,0
707093,357.21,625,757,0
707103,356.89,625,753,0
707113,358.16,625,757,0
707123,360.43,625,752,0
707133,365.23,625,757,0
707143,372.40,625,753,0
707153,383.51,625,757,0
707163,397.80,625,752,0
707173,416.59,625,757,0
707183,438.74,625,753,0
707203,464.62,652,752,0
707206,491.78,652,756,0
707215,520.34,652,757,0
707225,547.93,652,755,0
707235,573.79,652,757,0
707245,595.58,652,754,0
707255,613.06,652,757,0
707265,625.00,652,755,0
707275,632.29,652,757,0
707286,633.79,652,755,0
707295,630.47,652,757,0
707305,622.23,652,755,0
707315,609.94,652,756,0
707325,594.06,652,755,0
707335,575.61,652,757,0
707345,555.03,652,755,0
707355,533.21,652,757,0
707365,510.56,652,755,0
707375,488.36,652,757,0
707385,467.17,652,755,0
707395,447.66,652,757,0
707405,430.06,652,756,0
707415,414.83,652,757,0
707425,401.98,652,755,0
707435,391.74,652,757,0
707445,384.06,652,756,0
707456,378.90,652,757,0
707465,375.80,652,755,0
707475,374.66,652,757,0
707485,374.85,652,756,0
707495,376.18,652,757,0
707505,377.97,652,755,0
707515,379.95,652,757,0
707525,381.72,652,756,0
707535,383.09,652,757,0
707545,383.66,652,755,0
707555,383.59,652,757,0
707565,382.60,652,756,0
707575,380.96,652,757,0
707585,378.49,652,755,0
707595,375.68,652,757,0
707605,372.57,652,756,0
707615,369.48,652,757,0
707625,366.42,652,756,0
707635,363.85,652,757,0
707645,361.80,652,756,0
707655,360.62,652,757,0
707665,360.17,652,756,0
707675,360.68,652,757,0
707685,361.89,652,756,0
707695,363.85,652,757,0
707705,366.47,652,756,0
707715,369.63,652,757,0
707725,373.25,652,756,0
707735,377.12,652,757,0
707745,381.37,652,756,0
707756,386.06,652,756,0
707766,391.78,652,757,0
707776,398.79,652,756,0
707786,408.03,652,757,0
707806,419.80,603,756,0
707809,435.12,603,758,0
707818,453.90,603,754,0
707828,476.81,603,757,0
707838,502.41,603,753,0
707848,530.57,603,757,0
707858,559.07,603,753,0
707868,587.29,603,757,0
707878,612.79,603,753,0
707888,635.14,603,757,0
707898,652.11,603,753,0
707908,664.21,603,757,0
707918,670.02,603,753,0
707928,670.78,603,757,0
707938,665.53,603,753,0
707948,656.03,603,757,0
707958,641.54,603,753,0
707969,623.89,603,757,0
707979,602.79,603,752,0
707989,580.01,603,757,0
707999,555.32,603,752,0
708009,530.75,603,757,0
708019,505.84,603,753,0
708029,482.62,603,757,0
708039,460.53,603,752,0
708049,441.22,603,757,0
708059,423.97,603,752,0
708069,410.09,603,757,0
708079,398.53,603,753,0
708089,390.45,603,757,0
708099,384.44,603,752,0
708109,381.57,603,757,0
708119,380.28,603,753,0
708129,381.31,603,757,0
708140,383.06,603,752,0
708150,386.09,603,757,0
708160,388.93,603,752,0
708170,392.29,603,757,0
708180,394.82,603,752,0
708190,397.36,603,757,0
708200,398.67,603,752,0
708210,399.62,603,757,0
708220,399.31,603,752,0
708230,398.66,603,757,0
708240,396.62,603,752,0
708250,394.29,603,757,0
708260,390.69,603,752,0
708270,387.05,603,757,0
708280,382.58,603,752,0
708290,378.59,603,757,0
708300,374.04,603,752,0
708311,370.22,603,757,0
708321,366.21,603,753,0
708331,363.32,603,757,0
708341,360.65,603,752,0
708352,359.08,603,757,0
708361,357.34,603,753,0
708371,356.73,603,757,0
708381,356.38,603,753,0
708391,357.12,603,757,0
708401,357.94,603,753,0
708411,360.10,603,757,0
708421,363.46,603,753,0
708431,369.53,603,757,0
708441,377.73,603,753,0
708451,389.47,603,757,0
708461,404.63,603,753,0
708471,424.37,603,757,0
708481,447.49,603,753,0
708500,474.13,695,751,0
708503,502.12,695,755,0
708512,531.65,695,757,0
708523,560.51,695,755,0
708532,587.62,695,757,0
708542,610.79,695,754,0
708552,629.62,695,757,0
708562,642.51,695,755,0
708572,650.33,695,757,0
708582,651.86,695,754,0
708592,648.00,695,757,0
708602,638.74,695,754,0
708612,625.49,695,757,0
708622,608.42,695,754,0
708632,588.75,695,757,0
708642,566.75,695,755,0
708652,543.68,695,757,0
708662,519.69,695,754,0
708672,496.04,695,757,0
708682,472.84,695,754,0
708692,451.20,695,757,0
708702,431.47,695,754,0
708712,414.36,695,757,0
708722,399.77,695,755,0
708732,388.35,695,757,0
708742,379.67,695,754,0
708752,374.16,695,757,0
708762,371.15,695,755,0
708772,370.55,695,757,0
708782,371.46,695,754,0
708792,373.81,695,757,0
708802,376.69,695,754,0
708812,380.17,695,757,0
708823,383.38,695,755,0
708833,386.22,695,757,0
708843,388.38,695,756,0
708853,389.81,695,756,0
708864,390.42,695,756,0
708873,390.30,695,757,0
708883,389.35,695,756,0
708893,387.66,695,756,0
708903,385.53,695,756,0
708913,382.84,695,757,0
708923,379.89,695,756,0
708933,376.88,695,756,0
708943,374.17,695,756,0
708953,371.68,695,757,0
708963,369.63,695,756,0
708973,367.86,695,756,0
708983,366.70,695,756,0
708993,366.10,695,756,0
709003,365.86,695,756,0
709013,365.73,695,756,0
709023,365.98,695,756,0
709033,366.29,695,756,0
709043,367.02,695,756,0
709053,367.87,695,756,0
709063,369.19,695,756,0
709073,370.94,695,756,0
709083,373.74,695,756,0
709093,377.85,695,756,0
709103,384.36,695,756,0
709113,393.60,695,756,0
709123,406.45,695,756,0
709133,423.37,695,756,0
709152,444.77,652,754,0
709155,469.70,652,754,0
709164,498.50,652,756,0
709174,529.12,652,755,0
709184,560.29,652,756,0
709194,590.07,652,754,0
709204,616.92,652,757,0
709214,639.15,652,755,0
709224,656.37,652,756,0
709234,666.59,652,754,0
709244,670.70,652,756,0
709254,668.52,652,754,0
709264,661.08,652,756,0
709274,648.58,652,754,0
709284,632.72,652,757,0
709294,613.82,652,754,0
709304,593.39,652,756,0
709314,571.29,652,754,0
709324,549.26,652,756,0
709335,527.32,652,754,0
709345,506.91,652,756,0
709355,487.31,652,753,0
709365,469.73,652,756,0
709376,453.65,652,753,0
709385,440.56,652,756,0
709395,429.25,652,753,0
709405,420.56,652,756,0
709415,413.36,652,753,0
709425,408.63,652,757,0
709435,405.18,652,753,0
709445,403.67,652,757,0
709455,402.27,652,753,0
709465,401.63,652,757,0
709475,400.24,652,753,0
709485,398.80,652,757,0
709495,395.94,652,753,0
709505,392.70,652,757,0
709515,388.21,652,753,0
709525,383.82,652,757,0
709535,378.30,652,753,0
709545,373.24,652,756,0
709555,367.77,652,753,0
709565,363.29,652,757,0
709575,358.79,652,753,0
709585,355.43,652,756,0
709595,352.43,652,753,0
709605,351.01,652,757,0
709615,349.94,652,753,0
709625,350.26,652,757,0
709635,350.91,652,754,0
709645,352.82,652,757,0
709655,354.42,652,753,0
709665,356.56,652,757,0
709676,358.15,652,753,0
709686,360.21,652,757,0
709696,361.47,652,752,0
709706,363.00,652,757,0
709716,363.47,652,752,0
709726,364.40,652,757,0
709736,364.75,652,752,0
709746,366.16,652,756,0
709756,367.95,652,752,0
709766,372.08,652,757,0
709776,378.19,652,752,0
709786,388.37,652,757,0
709796,402.19,652,752,0
709806,420.99,652,757,0
709816,443.58,652,752,0
709826,470.58,652,757,0
709836,499.63,652,752,0
709856,530.17,704,751,0
709859,559.13,704,753,0
709868,586.48,704,757,0
709878,609.35,704,752,0
709889,627.29,704,757,0
709899,638.43,704,753,0
709909,643.44,704,757,0
709919,641.60,704,753,0
709929,634.30,704,757,0
709939,620.80,704,753,0
709949,603.03,704,756,0
709959,581.94,704,754,0
709969,558.90,704,757,0
709979,534.11,704,753,0
709989,509.01,704,756,0
709999,483.81,704,753,0
710009,459.82,704,757,0
710019,437.46,704,753,0
710029,417.52,704,757,0
710039,400.05,704,754,0
710049,386.02,704,757,0
710060,375.09,704,754,0
710070,368.03,704,756,0
710080,364.25,704,754,0
710090,363.70,704,757,0
710100,365.38,704,755,0
710110,369.38,704,756,0
710120,374.79,704,755,0
710130,381.37,704,757,0
710140,388.20,704,755,0
710150,395.00,704,757,0
710160,400.91,704,755,0
710170,405.70,704,757,0
710180,408.92,704,755,0
710190,410.66,704,756,0
710200,410.76,704,755,0
710210,409.33,704,756,0
710220,406.57,704,755,0
710231,402.80,704,756,0
710241,398.49,704,756,0
710251,393.76,704,756,0
710261,388.94,704,756,0
710272,384.16,704,755,0
710281,379.87,704,756,0
710291,376.05,704,756,0
710301,373.12,704,756,0
710311,370.73,704,755,0
710321,369.22,704,756,0
710331,368.21,704,756,0
710341,367.98,704,756,0
710351,367.90,704,755,0
710361,368.02,704,756,0
710371,367.84,704,756,0
710381,367.80,704,756,0
710391,367.22,704,755,0
710401,366.38,704,756,0
710411,365.20,704,756,0
710421,364.41,704,756,0
710431,364.07,704,755,0
710441,365.34,704,757,0
710451,368.28,704,756,0
710461,374.28,704,756,0
710471,383.84,704,755,0
710481,397.86,704,757,0
710491,415.99,704,756,0
710501,438.45,704,756,0
710511,463.77,704,755,0
710521,491.35,704,757,0
710531,519.32,704,756,0
710550,546.35,694,754,0
710553,569.56,694,753,0
710562,589.15,694,757,0
710572,603.59,694,754,0
710582,613.06,694,757,0
710592,616.73,694,754,0
710602,615.52,694,757,0
710612,609.19,694,753,0
710622,600.05,694,757,0
710632,587.01,694,754,0
710642,571.66,694,757,0
710652,553.63,694,753,0
710662,534.76,694,757,0
710672,514.69,694,754,0
710682,494.81,694,757,0
710692,474.51,694,754,0
710702,455.37,694,757,0
710712,436.87,694,754,0
710722,420.54,694,757,0
710732,405.51,694,753,0
710743,393.01,694,757,0
710753,382.34,694,753,0
710763,374.56,694,757,0
710773,368.61,694,753,0
710784,365.21,694,757,0
710793,363.35,694,754,0
710803,363.54,694,757,0
710813,364.24,694,753,0
710823,366.35,694,757,0
710833,368.48,694,754,0
710843,371.29,694,757,0
710853,373.47,694,753,0
710863,375.82,694,757,0
710873,377.16,694,753,0
710883,378.65,694,757,0
710893,378.89,694,753,0
710903,379.05,694,757,0
710913,378.05,694,753,0
710923,377.22,694,757,0
710933,375.40,694,753,0
710943,373.82,694,757,0
710953,371.43,694,753,0
710963,369.50,694,757,0
710973,366.91,694,753,0
710983,364.88,694,757,0
710993,362.22,694,752,0
711003,360.09,694,757,0
711013,357.41,694,753,0
711023,355.57,694,757,0
711033,353.39,694,752,0
711043,352.07,694,757,0
711053,350.42,694,753,0
711063,349.78,694,757,0
711073,348.95,694,753,0
711084,349.22,694,757,0
711094,349.37,694,752,0
711104,350.93,694,757,0
711114,352.92,694,752,0
711124,357.27,694,757,0
711134,363.15,694,752,0
711144,372.53,694,757,0
711154,384.89,694,752,0
711164,401.72,694,757,0
711183,421.78,633,756,0
711186,445.59,633,758,0
711195,471.81,633,752,0
711205,500.20,633,757,0
711215,528.04,633,752,0
711225,554.68,633,757,0
711235,577.54,633,752,0
711245,596.49,633,757,0
711255,610.06,633,752,0
711265,617.97,633,757,0
711275,619.48,633,752,0
711285,615.95,633,757,0
711296,606.96,633,752,0
711305,594.42,633,757,0
711315,578.01,633,752,0
711325,559.40,633,757,0
711335,538.54,633,752,0
711345,517.21,633,757,0
711355,495.07,633,752,0
711365,473.71,633,757,0
711375,452.54,633,752,0
711385,433.13,633,757,0
711395,415.01,633,752,0
711405,399.49,633,757,0
711415,385.84,633,752,0
711425,375.13,633,756,0
711435,366.57,633,752,0
711445,361.12,633,757,0
711455,357.70,633,752,0
711465,356.98,633,756,0
711475,357.58,633,752,0
711485,360.15,633,757,0
711495,363.32,633,752,0
711505,367.60,633,756,0
711515,371.49,633,752,0
711525,375.58,633,757,0
711535,378.67,633,752,0
711545,381.30,633,756,0
711555,382.36,633,752,0
711565,382.90,633,757,0
711575,381.94,633,752,0
711585,380.37,633,756,0
711596,377.56,633,753,0
711606,374.56,633,756,0
711616,371.01,633,753,0
711626,367.75,633,756,0
711636,364.18,633,754,0
711646,361.21,633,757,0
711656,358.45,633,753,0
711666,356.43,633,756,0
711676,354.54,633,754,0
711686,353.35,633,757,0
711696,352.22,633,753,0
711706,351.72,633,756,0
711716,351.21,633,754,0
711726,351.14,633,757,0
711736,350.93,633,753,0
711746,351.12,633,756,0
711756,351.30,633,754,0
711767,351.81,633,756,0
711777,352.17,633,754,0
711787,352.93,633,756,0
711797,354.02,633,755,0
711808,356.24,633,756,0
711817,359.47,633,754,0
711827,364.56,633,756,0
711837,372.02,633,755,0
711847,382.60,633,756,0
711857,396.31,633,754,0
711867,413.49,633,756,0
711877,433.83,633,755,0
711887,456.98,633,756,0
711906,481.71,723,755,0
711909,506.10,723,757,0
711918,530.20,723,756,0
711928,552.55,723,756,0
711938,571.89,723,755,0
711948,587.18,723,756,0
711958,597.71,723,756,0
711968,603.24,723,756,0
711979,604.71,723,756,0
711988,600.98,723,756,0
711998,592.89,723,756,0
712008,580.75,723,756,0
712018,565.40,723,756,0
712028,547.62,723,756,0
712038,528.28,723,756,0
712048,507.58,723,756,0
712058,486.41,723,756,0
712068,465.24,723,756,0
712078,444.98,723,756,0
712088,425.92,723,756,0
712098,408.76,723,756,0
712108,393.57,723,756,0
712118,381.06,723,756,0
712128,371.01,723,756,0
712138,363.77,723,756,0
712148,358.91,723,755,0
712158,356.62,723,756,0
712168,356.05,723,756,0
712178,357.28,723,756,0
712188,359.64,723,755,0
712198,362.96,723,756,0
712208,366.53,723,756,0
712218,370.36,723,756,0
712228,373.59,723,755,0
712238,376.59,723,756,0
712248,378.64,723,756,0
712258,380.03,723,757,0
712268,380.24,723,755,0
712279,379.82,723,757,0
712289,378.25,723,754,0
712299,376.29,723,757,0
712309,373.24,723,754,0
712320,370.04,723,757,0
712329,366.09,723,755,0
712339,362.33,723,757,0
712349,358.08,723,754,0
712359,354.28,723,757,0
712369,350.34,723,755,0
712379,347.28,723,757,0
712389,344.15,723,754,0
712399,341.84,723,757,0
712409,339.61,723,754,0
712419,338.40,723,756,0
712429,337.25,723,754,0
712439,337.13,723,757,0
712449,337.18,723,754,0
712459,338.24,723,757,0
712469,339.11,723,754,0
712479,340.66,723,756,0
712489,342.26,723,753,0
712499,345.31,723,757,0
712509,348.91,723,754,0
712519,354.63,723,757,0
712529,362.03,723,753,0
712539,372.82,723,757,0
712549,386.33,723,754,0
712559,403.50,723,756,0
712569,423.15,723,753,0
712579,445.82,723,757,0
712589,469.62,723,754,0
712599,494.55,723,756,0
712619,518.55,712,756,0
712622,540.80,712,758,0
712631,560.06,712,752,0
712641,576.03,712,756,0
712651,587.33,712,752,0
712662,594.56,712,757,0
712671,596.71,712,752,0
712681,595.00,712,756,0
712691,589.43,712,752,0
712701,580.60,712,757,0
712711,568.38,712,752,0
712721,554.29,712,756,0
712731,537.75,712,752,0
712741,520.59,712,757,0
712751,502.24,712,752,0
712761,484.39,712,757,0
712771,466.53,712,752,0
712781,450.25,712,757,0
712791,434.92,712,752,0
712801,422.04,712,756,0
712811,410.59,712,752,0
712821,401.97,712,757,0
712832,395.12,712,752,0
712841,390.97,712,756,0
712851,388.19,712,752,0
712861,387.58,712,757,0
712871,387.75,712,752,0
712881,389.41,712,757,0
712891,391.04,712,752,0
712901,393.30,712,757,0
712911,394.97,712,752,0
712921,396.86,712,757,0
712931,397.68,712,752,0
712941,398.37,712,757,0
712951,397.58,712,752,0
712961,396.55,712,757,0
712971,394.28,712,752,0
712981,392.05,712,757,0
712991,388.82,712,752,0
713001,385.83,712,757,0
713011,381.98,712,752,0
713021,378.90,712,757,0
713031,375.42,712,752,0
713041,372.51,712,757,0
713051,369.14,712,752,0
713061,366.48,712,757,0
713071,363.68,712,752,0
713081,362.06,712,757,0
713091,360.29,712,752,0
713101,359.60,712,757,0
713111,358.95,712,752,0
713121,359.22,712,757,0
713132,359.24,712,753,0
713142,359.77,712,757,0
713152,359.45,712,754,0
713162,359.79,712,757,0
713172,359.55,712,754,0
713182,360.37,712,757,0
713192,361.63,712,753,0
713202,364.83,712,757,0
713212,369.64,712,753,0
713222,377.72,712,757,0
713232,388.09,712,752,0
713242,402.16,712,757,0
713252,418.91,712,753,0
713262,438.82,712,757,0
713272,460.61,712,752,0
713282,484.30,712,757,0
713302,507.91,683,756,0
713305,530.52,683,757,0
713314,551.24,683,754,0
713324,569.29,683,756,0
713334,583.39,683,755,0
713345,593.22,683,756,0
713355,598.08,683,755,0
713365,598.36,683,756,0
713375,594.74,683,756,0
713385,586.67,683,756,0
713395,574.94,683,755,0
713405,560.26,683,756,0
713415,543.55,683,756,0
713425,525.39,683,756,0
713435,506.76,683,755,0
713445,488.10,683,756,0
713455,470.37,683,756,0
713465,453.76,683,756,0
713475,438.87,683,755,0
713485,425.88,683,756,0
713495,415.20,683,756,0
713505,406.66,683,756,0
713516,400.55,683,756,0
713526,396.44,683,755,0
713536,394.51,683,757,0
713546,394.10,683,755,0
713556,395.05,683,757,0
713566,396.71,683,755,0
713576,398.94,683,757,0
713586,400.89,683,755,0
713596,402.85,683,757,0
713606,404.05,683,755,0
713616,404.98,683,757,0
713626,404.86,683,755,0
713636,404.43,683,757,0
713646,403.01,683,755,0
713656,401.38,683,757,0
713666,398.87,683,755,0
713676,396.16,683,757,0
713687,392.60,683,754,0
713697,389.21,683,757,0
713707,385.07,683,754,0
713717,381.37,683,757,0
713728,377.18,683,753,0
713737,373.66,683,757,0
713747,370.12,683,754,0
713757,367.55,683,757,0
713767,364.99,683,753,0
713777,363.41,683,757,0
713787,361.74,683,754,0
713797,361.13,683,757,0
713807,360.41,683,753,0
713817,360.41,683,756,0
713827,360.08,683,754,0
713837,360.61,683,757,0
713847,360.90,683,753,0
713857,362.30,683,756,0
713867,364.01,683,754,0
713877,367.26,683,757,0
713887,371.47,683,753,0
713897,378.14,683,756,0
713907,386.41,683,754,0
713917,397.95,683,757,0
713927,411.76,683,753,0
713937,429.06,683,756,0
713947,448.59,683,753,0
713957,470.74,683,757,0
713967,493.70,683,753,0
713977,517.75,683,757,0
713996,540.58,695,756,0
713999,561.54,695,757,0
714008,578.99,695,752,0
714018,592.88,695,756,0
714028,601.83,695,753,0
714038,606.55,695,757,0
714048,605.74,695,752,0
714058,600.89,695,756,0
714068,592.01,695,752,0
714078,580.35,695,757,0
714088,565.84,695,752,0
714098,550.21,695,756,0
714108,533.09,695,752,0
714118,516.52,695,757,0
714128,499.86,695,752,0
714138,484.65,695,757,0
714148,470.10,695,752,0
714158,457.55,695,757,0
714168,446.16,695,752,0
714178,437.15,695,757,0
714188,429.44,695,752,0
714199,423.99,695,757,0
714209,419.54,695,752,0
714219,417.02,695,756,0
714229,415.30,695,752,0
714240,415.08,695,757,0
714249,415.01,695,752,0
714259,415.78,695,756,0
714269,415.98,695,752,0
714279,416.58,695,757,0
714289,416.24,695,752,0
714299,415.78,695,757,0
714309,414.00,695,752,0
714319,411.73,695,757,0
714329,408.00,695,752,0
714339,404.10,695,756,0
714349,399.10,695,752,0
714359,394.05,695,757,0
714369,388.12,695,752,0
714379,382.64,695,757,0
714389,376.88,695,752,0
714399,371.94,695,757,0
714409,366.95,695,752,0
714419,362.89,695,757,0
714429,358.77,695,752,0
714439,355.58,695,757,0
714449,352.62,695,752,0
714459,350.81,695,756,0
714469,349.19,695,752,0
714479,348.92,695,757,0
714489,348.90,695,752,0
714499,350.26,695,757,0
714509,351.81,695,751,0
714519,354.10,695,757,0
714529,356.30,695,752,0
714540,359.34,695,757,0
714550,361.98,695,752,0
714560,365.28,695,757,0
714570,368.63,695,753,0
714580,373.24,695,756,0
714590,378.82,695,752,0
714600,386.85,695,757,0
714610,396.97,695,753,0
714620,410.56,695,756,0
714630,427.06,695,752,0
714640,447.32,695,757,0
714650,470.19,695,753,0
714660,495.72,695,757,0
714670,521.78,695,752,0
714680,547.90,695,757,0
714699,571.93,703,755,0
714702,592.65,703,757,0
714711,609.30,703,753,0
714721,621.21,703,756,0
714731,627.45,703,754,0
714741,628.73,703,756,0
714752,624.48,703,754,0
714761,616.02,703,756,0
714771,604.23,703,754,0
714781,589.03,703,756,0
714791,571.24,703,754,0
714801,552.14,703,756,0
714811,531.65,703,754,0
714821,511.06,703,756,0
714831,490.34,703,754,0
714841,470.57,703,757,0
714851,452.01,703,754,0
714861,435.51,703,757,0
714871,420.70,703,754,0
714881,408.53,703,757,0
714891,398.56,703,754,0
714901,391.19,703,757,0
714911,385.73,703,754,0
714921,382.34,703,757,0
714931,380.35,703,754,0
714941,379.90,703,757,0
714951,380.19,703,755,0
714961,381.29,703,757,0
714971,382.62,703,754,0
714981,384.19,703,757,0
714991,385.38,703,754,0
715001,386.46,703,757,0
715011,386.97,703,754,0
715021,387.32,703,757,0
715031,387.18,703,755,0
715041,386.57,703,757,0
715052,385.41,703,755,0
715062,383.92,703,757,0
715072,381.93,703,756,0
715082,379.59,703,756,0
715092,376.93,703,756,0
715102,374.12,703,756,0
715112,371.21,703,756,0
715122,368.32,703,756,0
715132,365.74,703,756,0
715142,363.46,703,757,0
715152,361.65,703,756,0
715162,360.17,703,756,0
715172,359.26,703,756,0
715182,359.01,703,756,0
715192,359.35,703,756,0
715202,359.80,703,756,0
715212,360.68,703,756,0
715223,361.76,703,756,0
715233,363.16,703,756,0
715243,364.44,703,755,0
715253,366.19,703,757,0
715264,368.24,703,755,0
715273,371.72,703,756,0
715283,376.52,703,755,0
715293,383.69,703,757,0
715303,393.43,703,754,0
715313,407.06,703,757,0
715323,424.23,703,755,0
715333,445.84,703,757,0
715353,470.49,653,756,0
715356,497.60,653,757,0
715365,525.49,653,753,0
715375,553.50,653,757,0
715385,578.94,653,752,0
715395,601.28,653,757,0
715405,618.26,653,753,0
715415,630.09,653,757,0
715425,635.89,653,753,0
715436,636.40,653,757,0
715446,630.88,653,752,0
715456,621.27,653,757,0
715466,606.96,653,752,0
715476,589.96,653,757,0
715486,570.04,653,752,0
715496,549.12,653,757,0
715506,526.80,653,752,0
715516,504.70,653,757,0
715526,482.42,653,753,0
715536,461.76,653,757,0
715546,442.03,653,752,0
715556,424.80,653,757,0
715566,409.39,653,752,0
715576,397.27,653,757,0
715586,387.63,653,752,0
715596,381.61,653,757,0
715607,377.70,653,752,0
715617,376.98,653,757,0
715627,377.84,653,752,0
715637,380.76,653,757,0
715648,384.09,653,752,0
715657,388.39,653,757,0
715667,392.05,653,752,0
715677,395.93,653,757,0
715687,398.57,653,752,0
715697,400.80,653,757,0
715707,401.41,653,752,0
715717,401.38,653,757,0
715727,399.76,653,752,0
715737,397.52,653,757,0
715747,393.72,653,752,0
715757,389.56,653,757,0
715767,384.38,653,753,0
715777,379.38,653,757,0
715787,373.69,653,752,0
715797,368.51,653,757,0
715807,363.00,653,752,0
715817,358.42,653,757,0
715827,353.88,653,752,0
715837,350.40,653,757,0
715847,347.19,653,752,0
715857,345.42,653,757,0
715867,344.01,653,753,0
715877,344.01,653,757,0
715887,344.18,653,753,0
715897,345.32,653,757,0
715907,346.38,653,753,0
715917,348.24,653,757,0
715927,349.80,653,753,0
715937,352.26,653,757,0
715948,354.79,653,753,0
715958,358.93,653,756,0
715968,364.48,653,753,0
715978,373.12,653,757,0
715988,384.61,653,754,0
715998,400.46,653,757,0
716008,419.95,653,753,0
716018,444.26,653,757,0
716028,472.08,653,753,0
716038,503.05,653,757,0
716048,534.92,653,752,0
716067,566.96,715,752,0
716070,596.07,715,757,0
716079,622.32,715,756,0
716089,643.27,715,753,0
716099,658.62,715,756,0
716109,667.39,715,754,0
716119,670.23,715,756,0
716129,666.77,715,753,0
716139,658.78,715,757,0
716149,645.61,715,754,0
716160,628.50,715,756,0
716169,608.03,715,753,0
716179,585.39,715,757,0
716189,561.06,715,755,0
716199,536.14,715,756,0
716209,511.11,715,754,0
716219,486.99,715,756,0
716229,464.41,715,754,0
716239,443.89,715,756,0
716249,425.66,715,754,0
716259,410.08,715,756,0
716269,397.20,715,754,0
716279,387.32,715,756,0
716289,380.20,715,754,0
716299,375.90,715,756,0
716309,374.00,715,754,0
716319,374.17,715,756,0
716329,375.83,715,755,0
716339,378.63,715,757,0
716349,381.82,715,755,0
716359,385.13,715,756,0
716369,388.01,715,755,0
716379,390.19,715,757,0
716389,391.38,715,755,0
716399,391.65,715,756,0
716409,390.90,715,755,0
716419,389.39,715,756,0
716429,386.96,715,755,0
716439,383.67,715,756,0
716449,379.83,715,755,0
716460,375.63,715,756,0
716470,371.16,715,756,0
716480,366.65,715,756,0
716490,362.30,715,756,0
716500,358.27,715,755,0
716510,354.89,715,756,0
716520,352.14,715,756,0
716530,350.38,715,756,0
716540,349.15,715,755,0
716550,348.59,715,756,0
716560,348.37,715,756,0
716570,348.86,715,756,0
716580,349.59,715,755,0
716590,350.74,715,756,0
716600,351.85,715,756,0
716610,353.56,715,756,0
716620,355.54,715,755,0
716631,358.38,715,756,0
716641,361.82,715,755,0
716651,367.23,715,757,0
716661,374.62,715,754,0
716672,385.36,715,757,0
716681,399.22,715,754,0
716691,417.16,715,757,0
716701,438.80,715,754,0
716711,464.44,715,757,0
716721,492.12,715,755,0
716740,521.23,673,753,0
716743,548.76,673,754,0
716752,574.98,673,757,0
716762,597.57,673,754,0
716772,615.78,673,757,0
716782,627.89,673,753,0
716792,634.44,673,757,0
716802,634.78,673,753,0
716812,630.77,673,757,0
716822,621.11,673,753,0
716832,607.49,673,757,0
716843,589.77,673,753,0
716852,570.00,673,757,0
716862,547.97,673,753,0
716872,525.44,673,757,0
716882,501.99,673,753,0
716892,479.58,673,757,0
716902,457.76,673,753,0
716912,438.12,673,757,0
716922,420.00,673,753,0
716932,404.87,673,757,0
716942,391.88,673,753,0
716952,382.27,673,757,0
716962,374.91,673,753,0
716972,370.69,673,757,0
716982,368.43,673,753,0
716992,368.77,673,757,0
717002,370.17,673,753,0
717012,373.20,673,757,0
717022,376.40,673,753,0
717032,380.35,673,757,0
717042,383.55,673,753,0
717052,386.85,673,757,0
717062,388.87,673,753,0
717072,390.58,673,757,0
717082,390.96,673,753,0
717092,390.93,673,757,0
717102,389.62,673,753,0
717112,388.19,673,757,0
717122,385.52,673,753,0
717132,383.09,673,757,0
717143,379.81,673,752,0
717153,376.82,673,757,0
717163,373.32,673,752,0
717173,370.31,673,757,0
717184,367.04,673,751,0
717193,364.72,673,757,0
717203,362.19,673,752,0
717213,360.72,673,757,0
717223,359.09,673,751,0
717233,358.50,673,757,0
717243,357.80,673,752,0
717253,358.03,673,756,0
717263,358.11,673,752,0
717273,359.02,673,757,0
717283,359.74,673,752,0
717293,361.66,673,757,0
717303,363.86,673,752,0
717313,367.98,673,757,0
717323,373.47,673,752,0
717333,382.07,673,757,0
717343,393.32,673,752,0
717353,408.91,673,757,0
717363,427.92,673,752,0
717373,451.30,673,757,0
717392,477.36,652,755,0
717395,505.53,652,757,0
717404,534.17,652,752,0
717414,562.54,652,757,0
717424,587.70,652,752,0
717434,609.26,652,757,0
717444,625.08,652,752,0
717454,635.43,652,757,0
717464,639.37,652,751,0
717474,637.20,652,757,0
717484,628.79,652,752,0
717494,615.86,652,757,0
717504,598.12,652,751,0
717514,577.51,652,757,0
717524,554.04,652,752,0
717534,529.86,652,757,0
717544,504.83,652,752,0
717554,480.50,652,757,0
717564,456.82,652,752,0
717574,435.53,652,757,0
717584,416.09,652,752,0
717594,399.77,652,757,0
717604,385.87,652,752,0
717614,375.49,652,757,0
717624,367.68,652,752,0
717634,363.23,652,757,0
717644,361.06,652,752,0
717655,361.73,652,756,0
717665,363.91,652,752,0
717675,367.79,652,757,0
717685,372.01,652,753,0
717696,377.19,652,756,0
717705,381.72,652,752,0
717715,386.13,652,757,0
717725,389.35,652,753,0
717735,392.12,652,756,0
717745,393.62,652,753,0
717755,394.64,652,757,0
717765,394.32,652,753,0
717775,393.58,652,757,0
717785,391.86,652,752,0
717795,389.93,652,757,0
717805,387.25,652,753,0
717815,384.65,652,756,0
717825,381.50,652,752,0
717835,378.69,652,757,0
717845,375.61,652,753,0
717855,373.03,652,756,0
717865,370.49,652,754,0
717875,368.63,652,757,0
717885,366.86,652,753,0
717895,365.96,652,756,0
717905,365.11,652,754,0
717915,365.08,652,756,0
717925,364.88,652,753,0
717935,365.09,652,756,0
717945,365.41,652,753,0
717955,366.31,652,756,0
717965,367.55,652,753,0
717975,370.43,652,756,0
717985,375.10,652,754,0
717996,382.91,652,756,0
718006,394.04,652,754,0
718016,409.28,652,756,0
718026,429.00,652,755,0
718046,453.30,653,754,0
718049,480.94,653,758,0
718058,511.26,653,755,0
718068,542.47,653,756,0
718078,572.67,653,755,0
718088,600.28,653,756,0
718098,623.34,653,755,0
718108,640.90,653,756,0
718118,651.90,653,754,0
718128,656.26,653,756,0
718138,653.87,653,755,0
718148,645.93,653,757,0
718158,632.54,653,754,0
718168,615.41,653,756,0
718178,594.71,653,755,0
718188,572.04,653,756,0
718198,547.47,653,754,0
718209,522.60,653,757,0
718219,497.48,653,754,0
718229,473.46,653,757,0
718239,450.31,653,753,0
718249,429.47,653,757,0
718259,410.65,653,754,0
718269,394.94,653,757,0
718279,381.71,653,753,0
718289,372.07,653,757,0
718299,365.06,653,754,0
718309,361.10,653,756,0
718319,358.84,653,753,0
718329,359.15,653,756,0
718339,360.77,653,754,0
718349,364.40,653,756,0
718359,368.39,653,753,0
718369,373.38,653,757,0
718380,378.32,653,753,0
718390,384.01,653,757,0
718400,388.59,653,752,0
718410,392.87,653,757,0
718420,395.35,653,752,0
718430,397.18,653,757,0
718440,397.12,653,752,0
718450,396.23,653,757,0
718460,393.55,653,752,0
718470,390.73,653,757,0
718480,386.78,653,752,0
718490,383.12,653,757,0
718500,378.54,653,752,0
718510,374.52,653,756,0
718520,370.08,653,752,0
718530,366.45,653,757,0
718540,362.63,653,752,0
718551,359.70,653,756,0
718561,356.66,653,752,0
718571,354.96,653,756,0
718581,353.56,653,752,0
718592,353.56,653,757,0
718601,353.74,653,752,0
718611,355.10,653,757,0
718621,356.53,653,752,0
718631,359.33,653,756,0
718641,362.74,653,752,0
718651,368.26,653,757,0
718661,375.47,653,752,0
718671,386.17,653,756,0
718681,399.83,653,752,0
718691,418.31,653,757,0
718701,440.46,653,752,0
718711,466.98,653,757,0
718730,495.79,685,755,0
718733,526.24,685,758,0
718742,556.51,685,751,0
718752,585.71,685,757,0
718763,611.04,685,752,0
718772,632.16,685,757,0
718782,646.81,685,752,0
718792,655.52,685,757,0
718802,657.55,685,752,0
718812,653.57,685,757,0
718822,643.33,685,752,0
718832,628.66,685,756,0
718842,609.52,685,752,0
718852,588.06,685,757,0
718862,564.39,685,752,0
718872,540.49,685,757,0
718882,515.87,685,752,0
718892,492.46,685,757,0
718902,469.70,685,752,0
718912,449.09,685,757,0
718922,429.99,685,752,0
718932,413.66,685,757,0
718942,399.32,685,752,0
718952,388.21,685,756,0
718962,379.28,685,752,0
718972,373.45,685,757,0
718982,369.80,685,752,0
718992,368.96,685,757,0
719002,369.62,685,752,0
719012,372.26,685,757,0
719022,375.31,685,752,0
719032,379.29,685,756,0
719042,382.72,685,752,0
719052,385.84,685,757,0
719063,387.52,685,752,0
719073,388.18,685,756,0
719083,386.97,685,753,0
719093,385.05,685,757,0
719104,381.61,685,754,0
719113,377.74,685,757,0
719123,372.89,685,753,0
719133,367.86,685,757,0
719143,362.55,685,754,0
719153,357.54,685,757,0
719163,352.24,685,753,0
719173,347.49,685,757,0
719183,342.97,685,754,0
719193,339.51,685,757,0
719203,336.70,685,753,0
719213,335.16,685,757,0
719223,334.34,685,754,0
719233,334.88,685,757,0
719243,336.16,685,753,0
719253,338.77,685,757,0
719263,342.05,685,754,0
719273,346.41,685,757,0
719283,350.91,685,753,0
719293,356.21,685,757,0
719303,361.68,685,754,0
719313,368.12,685,757,0
719323,374.94,685,753,0
719333,383.01,685,756,0
719343,392.61,685,754,0
719353,404.94,685,757,0
719363,419.96,685,753,0
719373,438.74,685,757,0
719383,460.85,685,754,0
719393,486.44,685,757,0
719404,514.25,685,754,0
719423,543.23,693,753,0
719426,571.19,693,757,0
719435,597.15,693,756,0
719446,619.26,693,757,0
719455,636.11,693,756,0
719465,646.66,693,756,0
719475,650.66,693,756,0
719485,648.15,693,756,0
719495,640.05,693,756,0
719505,626.88,693,756,0
719515,609.09,693,756,0
719525,587.97,693,757,0
719535,564.54,693,756,0
719545,539.86,693,756,0
719555,514.45,693,756,0
719565,489.28,693,757,0
719575,464.81,693,756,0
719585,442.03,693,756,0
719595,421.23,693,756,0
719605,403.12,693,757,0
719616,387.53,693,755,0
719625,375.24,693,756,0
719635,365.91,693,756,0
719645,359.98,693,757,0
719655,356.77,693,755,0
719665,356.37,693,756,0
719675,357.84,693,756,0
719685,361.28,693,757,0
719695,365.78,693,755,0
719705,371.16,693,756,0
719715,376.43,693,756,0
719725,381.74,693,757,0
719735,386.19,693,755,0
719745,389.95,693,756,0
719755,392.49,693,756,0
719765,393.97,693,757,0
719775,393.85,693,755,0
719785,392.65,693,757,0
719795,390.01,693,756,0
719805,386.88,693,757,0
719815,382.85,693,755,0
719825,378.82,693,757,0
719835,374.46,693,756,0
719845,370.64,693,757,0
719855,367.06,693,755,0
719865,364.26,693,757,0
719875,361.65,693,756,0
719885,359.87,693,757,0
719895,358.11,693,755,0
719905,356.92,693,757,0
719916,355.96,693,755,0
719926,355.63,693,757,0
719936,355.31,693,754,0
719946,355.56,693,757,0
719956,355.56,693,754,0
719966,356.04,693,757,0
719976,356.45,693,754,0
719986,357.39,693,757,0
719996,358.17,693,754,0
720006,360.05,693,757,0
720016,362.65,693,754,0
720026,367.85,693,757,0
720036,375.40,693,754,0
720046,386.68,693,757,0
720056,401.35,693,754,0
720066,420.57,693,757,0
720076,443.20,693,754,0
720087,469.67,693,757,0
720097,497.54,693,753,0
720116,526.22,693,751,0
720119,552.60,693,752,0
720129,576.59,693,757,0
720139,595.48,693,752,0
720149,609.40,693,757,0
720159,616.52,693,752,0
720169,617.78,693,757,0
720179,612.53,693,752,0
720189,603.03,693,757,0
720199,588.36,693,752,0
720209,570.60,693,757,0
720219,549.76,693,752,0
720229,527.85,693,757,0
720239,504.66,693,752,0
720249,482.01,693,757,0
720259,459.63,693,752,0
720269,439.26,693,757,0
720279,420.58,693,752,0
720289,404.85,693,757,0
720300,391.22,693,752,0
720310,381.00,693,757,0
720320,373.41,693,752,0
720330,369.13,693,756,0
720340,366.56,693,752,0
720350,366.44,693,756,0
720360,367.25,693,752,0
720370,369.92,693,757,0
720380,373.16,693,753,0
720390,377.10,693,757,0
720400,380.15,693,752,0
720410,383.24,693,757,0
720420,385.01,693,753,0
720430,386.38,693,757,0
720440,385.88,693,752,0
720450,384.11,693,757,0
720460,380.69,693,753,0
720471,376.80,693,757,0
720481,371.97,693,753,0
720491,367.44,693,757,0
720501,362.59,693,754,0
720512,358.47,693,757,0
720521,354.73,693,753,0
720531,352.07,693,756,0
720541,350.03,693,754,0
720551,348.78,693,756,0
720561,347.69,693,753,0
720571,347.31,693,756,0
720581,347.17,693,754,0
720591,347.51,693,756,0
720601,347.74,693,753,0
720611,348.63,693,757,0
720621,349.86,693,754,0
720631,351.87,693,756,0
720641,353.88,693,753,0
720651,356.19,693,756,0
720661,358.49,693,754,0
720671,360.91,693,756,0
720681,363.08,693,755,0
720691,365.50,693,757,0
720701,367.75,693,754,0
720711,370.65,693,756,0
720721,374.44,693,755,0
720731,380.10,693,757,0
720741,388.04,693,754,0
720751,399.08,693,756,0
720761,413.63,693,754,0
720771,432.51,693,756,0
720781,455.24,693,754,0
720791,481.61,693,756,0
720811,510.19,694,755,0
720814,539.40,694,754,0
720823,568.00,694,756,0
720833,593.93,694,755,0
720843,615.38,694,756,0
720854,630.95,694,755,0
720863,639.84,694,756,0
720873,641.69,694,755,0
720883,636.98,694,756,0
720893,625.37,694,755,0
720903,608.55,694,756,0
720913,587.21,694,755,0
720923,563.32,694,756,0
720933,537.21,694,755,0
720943,510.45,694,756,0
720953,483.78,694,755,0
720963,458.65,694,756,0
720973,435.01,694,755,0
720983,414.01,694,756,0
720993,395.53,694,755,0
721003,380.59,694,756,0
721013,368.80,694,755,0
721024,360.80,694,757,0
721033,355.85,694,755,0
721043,354.31,694,756,0
721053,355.29,694,755,0
721063,358.71,694,757,0
721073,363.64,694,755,0
721083,369.92,694,756,0
721093,376.33,694,755,0
721103,382.83,694,756,0
721113,388.28,694,755,0
721123,392.83,694,756,0
721133,395.62,694,755,0
721143,397.06,694,756,0
721153,396.70,694,755,0
721163,395.21,694,756,0
721173,392.14,694,755,0
721183,388.20,694,756,0
721193,383.08,694,754,0
721203,377.87,694,756,0
721213,372.30,694,755,0
721223,367.15,694,756,0
721233,362.01,694,754,0
721243,357.68,694,756,0
721253,353.96,694,755,0
721263,351.57,694,756,0
721273,349.81,694,754,0
721283,349.23,694,756,0
721293,349.20,694,755,0
721303,350.43,694,756,0
721313,352.14,694,754,0
721324,354.76,694,757,0
721334,357.40,694,754,0
721344,361.01,694,756,0
721354,364.69,694,753,0
721364,369.07,694,757,0
721374,373.12,694,754,0
721384,377.63,694,756,0
721394,381.72,694,753,0
721404,386.44,694,757,0
721414,390.55,694,754,0
721424,395.31,694,757,0
721434,400.32,694,753,0
721444,407.34,694,757,0
721454,416.11,694,754,0
721464,428.38,694,757,0
721474,443.65,694,753,0
721484,463.25,694,757,0
721495,485.89,694,753,0
721505,511.72,694,757,0
721524,538.34,714,756,0
721527,564.59,714,758,0
721537,588.50,714,752,0
721547,609.31,714,756,0
721557,624.52,714,751,0
721567,634.00,714,757,0
721577,636.40,714,752,0
721587,632.85,714,757,0
721597,623.21,714,751,0
721607,608.49,714,757,0
721617,588.67,714,752,0
721627,566.01,714,757,0
721637,540.72,714,752,0
721647,514.79,714,757,0
721657,488.15,714,752,0
721667,462.91,714,757,0
721677,438.94,714,752,0
721687,417.91,714,756,0
721697,399.25,714,752,0
721708,384.43,714,757,0
721718,372.65,714,752,0
721728,364.95,714,756,0
721738,360.12,714,753,0
721748,358.76,714,756,0
721758,359.39,714,752,0
721768,362.40,714,756,0
721778,366.44,714,753,0
721788,371.71,714,757,0
721798,376.77,714,752,0
721808,382.02,714,756,0
721818,386.22,714,753,0
721828,389.92,714,756,0
721838,392.22,714,752,0
721848,393.52,714,756,0
721858,393.28,714,753,0
721868,392.34,714,757,0
721879,390.14,714,753,0
721889,387.57,714,756,0
721899,384.27,714,754,0
721909,381.06,714,756,0
721920,377.61,714,754,0
721929,374.69,714,756,0
721939,371.82,714,754,0
721949,369.65,714,756,0
721959,367.65,714,754,0
721969,366.34,714,756,0
721979,365.34,714,754,0
721989,365.15,714,756,0
721999,365.15,714,754,0
722009,365.66,714,756,0
722019,366.19,714,754,0
722029,367.16,714,756,0
722039,368.19,714,754,0
722049,369.29,714,756,0
722059,370.19,714,754,0
722069,371.16,714,756,0
722079,371.88,714,754,0
722089,372.73,714,756,0
722099,373.41,714,754,0
722109,374.40,714,756,0
722119,375.78,714,754,0
722129,378.20,714,756,0
722139,382.13,714,754,0
722149,388.56,714,756,0
722159,398.04,714,754,0
722169,411.53,714,756,0
722179,428.90,714,754,0
722189,450.40,714,756,0
722208,475.26,684,755,0
722211,502.31,684,755,0
722220,530.72,684,755,0
722230,558.70,684,756,0
722240,584.25,684,755,0
722250,605.82,684,756,0
722260,622.42,684,756,0
722270,633.05,684,756,0
722280,637.49,684,755,0
722290,634.86,684,756,0
722300,625.90,684,756,0
722310,611.32,684,756,0
722320,592.24,684,755,0
722330,569.28,684,756,0
722340,543.91,684,756,0
722350,517.41,684,756,0
722360,490.93,684,755,0
722370,465.24,684,756,0
722380,441.38,684,756,0
722391,419.92,684,755,0
722401,401.43,684,756,0
722411,385.87,684,755,0
722421,373.83,684,757,0
722432,365.22,684,754,0
722441,360.35,684,756,0
722451,358.45,684,755,0
722461,359.51,684,757,0
722471,362.49,684,754,0
722481,367.36,684,756,0
722491,372.78,684,755,0
722501,378.50,684,757,0
722511,383.41,684,754,0
722521,387.83,684,756,0
722531,390.71,684,755,0
722541,392.72,684,757,0
722551,393.15,684,754,0
722561,392.63,684,756,0
722571,390.82,684,755,0
722581,388.30,684,757,0
722591,384.48,684,754,0
722601,380.39,684,756,0
722611,375.60,684,755,0
722621,370.92,684,757,0
722631,365.93,684,754,0
722641,361.41,684,756,0
722651,357.00,684,755,0
722661,353.83,684,757,0
722671,350.92,684,754,0
722681,349.23,684,757,0
722691,348.05,684,755,0
722701,347.99,684,757,0
722711,348.17,684,754,0
722721,349.10,684,757,0
722732,349.80,684,754,0
722742,351.27,684,757,0
722752,352.35,684,753,0
722762,353.96,684,757,0
722772,355.00,684,753,0
722782,356.59,684,757,0
722792,358.00,684,753,0
722802,360.18,684,756,0
722812,362.61,684,753,0
722822,366.59,684,756,0
722832,371.64,684,753,0
722842,379.76,684,756,0
722852,390.46,684,752,0
722862,405.24,684,756,0
722872,423.47,684,753,0
722882,446.04,684,756,0
722892,471.49,684,753,0
722903,499.67,684,756,0
722922,527.93,714,756,0
722925,555.29,714,758,0
722934,579.76,714,751,0
722945,600.40,714,756,0
722955,614.94,714,751,0
722965,623.53,714,757,0
722975,624.91,714,751,0
722985,620.31,714,756,0
722995,609.67,714,751,0
723005,594.09,714,756,0
723015,574.05,714,752,0
723025,551.92,714,756,0
723035,527.90,714,752,0
723045,504.14,714,757,0
723055,480.96,714,752,0
723065,460.31,714,757,0
723075,442.05,714,752,0
723085,427.46,714,757,0
723095,415.62,714,752,0
723105,407.81,714,757,0
723116,402.98,714,753,0
723126,401.57,714,757,0
723136,402.13,714,753,0
723146,404.79,714,757,0
723156,408.45,714,754,0
723166,413.20,714,757,0
723176,417.64,714,753,0
723186,421.86,714,756,0
723196,424.73,714,754,0
723206,426.66,714,757,0
723216,426.84,714,753,0
723226,425.48,714,756,0
723236,422.16,714,754,0
723246,417.53,714,757,0
723256,411.28,714,753,0
723266,404.47,714,756,0
723276,396.87,714,754,0
723287,389.37,714,757,0
723297,381.71,714,754,0
723307,374.69,714,756,0
723317,368.18,714,755,0
723328,363.15,714,756,0
723337,359.12,714,754,0
723347,356.77,714,756,0
723357,355.90,714,754,0
723367,356.74,714,756,0
723377,358.92,714,754,0
723387,362.37,714,756,0
723397,366.37,714,754,0
723407,370.85,714,756,0
723417,375.09,714,754,0
723427,378.97,714,756,0
723437,382.19,714,755,0
723447,384.70,714,756,0
723457,386.21,714,754,0
723467,387.00,714,756,0
723477,386.92,714,755,0
723487,386.38,714,756,0
723497,385.67,714,755,0
723507,385.68,714,756,0
723517,386.89,714,755,0
723527,390.44,714,756,0
723537,397.04,714,755,0
723547,407.52,714,756,0
723557,422.15,714,755,0
723567,441.18,714,756,0
723577,463.97,714,755,0
723587,489.69,714,756,0
723597,516.78,714,755,0
723616,543.59,694,753,0
723619,568.14,694,756,0
723628,589.40,694,756,0
723638,605.99,694,756,0
723648,616.75,694,756,0
723658,621.50,694,756,0
723668,620.11,694,755,0
723678,613.05,694,756,0
723688,601.07,694,756,0
723698,584.51,694,756,0
723708,564.21,694,755,0
723718,541.86,694,756,0
723728,518.29,694,756,0
723738,494.80,694,756,0
723748,471.76,694,755,0
723758,450.49,694,756,0
723768,431.40,694,756,0
723778,415.47,694,756,0
723788,402.47,694,755,0
723799,392.90,694,757,0
723809,386.42,694,755,0
723819,383.42,694,757,0
723829,382.95,694,754,0
723840,385.37,694,757,0
723849,389.20,694,755,0
723859,394.58,694,757,0
723869,400.02,694,754,0
723879,405.67,694,757,0
723889,410.36,694,755,0
723899,414.45,694,757,0
723909,416.84,694,754,0
723919,418.30,694,757,0
723929,418.04,694,755,0
723939,416.96,694,757,0
723949,414.27,694,754,0
723959,410.93,694,757,0
723969,406.50,694,755,0
723979,401.68,694,756,0
723989,395.86,694,754,0
723999,390.07,694,757,0
724009,383.84,694,754,0
724019,378.31,694,757,0
724029,372.86,694,754,0
724039,368.49,694,757,0
724049,364.57,694,754,0
724059,362.26,694,757,0
724069,360.51,694,754,0
724079,360.06,694,756,0
724089,359.87,694,754,0
724099,360.68,694,757,0
724109,361.55,694,754,0
724119,363.18,694,756,0
724129,364.33,694,754,0
724140,365.90,694,757,0
724150,367.04,694,753,0
724160,368.75,694,756,0
724170,370.36,694,753,0
724180,373.17,694,757,0
724190,376.98,694,753,0
724200,383.50,694,756,0
724210,392.43,694,753,0
724220,405.55,694,757,0
724230,422.18,694,753,0
724240,443.47,694,756,0
724250,467.89,694,753,0
724260,495.78,694,757,0
724270,524.52,694,753,0
724280,553.63,694,756,0
724299,580.23,683,755,0
724302,603.17,683,758,0
724311,620.86,683,752,0
724321,633.16,683,756,0
724331,638.34,683,752,0
724341,637.77,683,757,0
724352,630.47,683,752,0
724361,618.41,683,756,0
724371,601.79,683,752,0
724381,581.71,683,756,0
724391,558.48,683,752,0
724401,534.29,683,756,0
724411,509.01,683,752,0
724421,484.70,683,757,0
724431,460.96,683,752,0
724441,439.89,683,756,0
724451,420.89,683,752,0
724461,405.41,683,757,0
724471,392.60,683,752,0
724481,383.68,683,756,0
724491,377.60,683,752,0
724501,375.32,683,756,0
724511,375.27,683,752,0
724521,378.53,683,756,0
724531,383.09,683,752,0
724541,389.27,683,757,0
724551,395.32,683,752,0
724561,401.57,683,756,0
724571,406.37,683,752,0
724581,410.42,683,757,0
724591,412.00,683,752,0
724601,412.47,683,757,0
724611,410.79,683,752,0
724621,408.07,683,757,0
724631,403.29,683,752,0
724641,397.97,683,757,0
724652,391.08,683,752,0
724662,384.11,683,756,0
724672,376.45,683,752,0
724682,369.54,683,757,0
724692,362.70,683,752,0
724702,357.60,683,756,0
724712,352.96,683,751,0
724722,350.36,683,756,0
724732,348.71,683,752,0
724742,348.93,683,756,0
724752,349.76,683,752,0
724762,351.98,683,756,0
724772,354.21,683,752,0
724782,357.45,683,757,0
724792,360.53,683,752,0
724802,364.23,683,757,0
724812,367.37,683,752,0
724823,370.95,683,756,0
724833,374.35,683,752,0
724843,378.83,683,756,0
724853,384.11,683,753,0
724864,391.45,683,756,0
724873,400.74,683,752,0
724883,413.68,683,756,0
724893,430.15,683,753,0
724903,451.23,683,756,0
724913,475.72,683,752,0
724923,503.75,683,757,0
724933,533.39,683,752,0
724943,564.05,683,757,0
724962,593.09,663,755,0
724965,618.78,663,757,0
724974,639.72,663,754,0
724984,655.23,663,756,0
724994,664.03,663,753,0
725004,666.59,663,756,0
725014,662.39,663,754,0
725024,652.46,663,757,0
725035,637.58,663,754,0
725044,618.25,663,756,0
725054,595.29,663,753,0
725064,570.09,663,756,0
725074,543.45,663,755,0
725084,516.70,663,756,0
725094,490.43,663,754,0
725104,465.87,663,756,0
725114,443.58,663,755,0
725124,424.55,663,756,0
725134,408.61,663,754,0
725144,396.26,663,756,0
725154,387.05,663,755,0
725164,381.25,663,756,0
725174,378.09,663,753,0
725184,377.21,663,756,0
725194,377.96,663,755,0
725204,380.11,663,756,0
725214,382.69,663,754,0
725224,385.79,663,756,0
725234,388.55,663,754,0
725244,390.96,663,756,0
725254,392.64,663,754,0
725264,393.73,663,756,0
725274,394.16,663,755,0
725284,394.07,663,756,0
725294,393.10,663,754,0
725304,391.74,663,756,0
725314,389.81,663,755,0
725324,387.76,663,756,0
725335,385.31,663,755,0
725345,382.64,663,756,0
725355,380.01,663,756,0
725365,377.61,663,756,0
725376,375.80,663,756,0
725385,374.70,663,756,0
725395,374.28,663,756,0
725405,374.41,663,756,0
725415,375.10,663,756,0
725425,376.31,663,756,0
725435,378.02,663,756,0
725445,379.51,663,756,0
725455,381.20,663,756,0
725465,382.56,663,756,0
725475,384.06,663,756,0
725485,385.11,663,756,0
725495,386.15,663,756,0
725505,387.39,663,756,0
725515,389.59,663,755,0
725525,393.05,663,756,0
725535,398.87,663,756,0
725545,407.31,663,755,0
725555,419.69,663,756,0
725565,436.02,663,756,0
725584,456.42,622,754,0
725587,479.35,622,753,0
725596,504.96,622,757,0
725606,531.50,622,755,0
725616,557.84,622,757,0
725626,581.67,622,754,0
725636,601.74,622,757,0
725646,616.39,622,754,0
725656,626.00,622,757,0
725666,628.49,622,754,0
725676,624.83,622,757,0
725686,614.55,622,755,0
725696,599.17,622,756,0
725706,578.81,622,754,0
725716,555.42,622,757,0
725726,529.54,622,755,0
725736,503.10,622,757,0
725746,476.07,622,754,0
725756,450.64,622,757,0
725766,426.92,622,755,0
725776,406.58,622,757,0
725786,389.31,622,755,0
725796,376.19,622,757,0
725806,366.79,622,755,0
725816,361.75,622,757,0
725826,359.90,622,754,0
725836,361.60,622,757,0
725847,365.32,622,754,0
725857,371.40,622,757,0
725867,377.83,622,753,0
725877,385.04,622,757,0
725888,391.71,622,753,0
725897,398.44,622,757,0
725907,403.80,622,754,0
725917,408.49,622,757,0
725927,411.04,622,753,0
725937,412.87,622,757,0
725947,412.65,622,753,0
725957,411.51,622,757,0
725967,408.32,622,753,0
725977,404.45,622,757,0
725987,398.96,622,753,0
725997,393.44,622,757,0
726007,387.14,622,753,0
726017,381.40,622,757,0
726027,375.53,622,753,0
726037,370.87,622,757,0
726047,366.50,622,753,0
726057,363.78,622,757,0
726067,361.44,622,753,0
726077,360.45,622,757,0
726087,359.55,622,753,0
726097,359.68,622,757,0
726107,359.78,622,753,0
726117,360.79,622,757,0
726127,361.41,622,753,0
726137,362.96,622,757,0
726147,364.21,622,753,0
726157,366.72,622,757,0
726167,369.72,622,753,0
726177,374.65,622,757,0
726188,381.22,622,752,0
726198,391.40,622,757,0
726208,404.74,622,752,0
726218,422.90,622,757,0
726228,444.96,622,751,0
726238,471.41,622,757,0
726248,500.35,622,752,0
726258,531.36,622,757,0
726268,561.64,622,752,0
726287,590.42,703,751,0
726290,614.29,703,753,0
726299,633.58,703,757,0
726309,646.17,703,752,0
726319,652.68,703,757,0
726329,651.92,703,752,0
726339,645.43,703,757,0
726349,632.66,703,752,0
726359,616.30,703,757,0
726369,595.34,703,752,0
726379,571.97,703,757,0
726389,546.18,703,752,0
726400,520.24,703,757,0
726409,493.98,703,752,0
726419,469.43,703,757,0
726429,446.16,703,752,0
726439,426.05,703,757,0
726449,408.59,703,752,0
726459,395.09,703,757,0
726469,384.60,703,752,0
726479,378.08,703,757,0
726489,374.37,703,752,0
726499,374.22,703,757,0
726509,375.99,703,752,0
726519,380.20,703,757,0
726529,385.02,703,752,0
726539,390.84,703,757,0
726549,396.25,703,752,0
726559,401.70,703,757,0
726569,405.73,703,752,0
726579,409.20,703,757,0
726589,410.85,703,752,0
726599,411.84,703,757,0
726609,411.16,703,752,0
726619,409.83,703,757,0
726629,407.01,703,752,0
726639,403.92,703,757,0
726649,399.87,703,753,0
726659,396.05,703,757,0
726669,391.62,703,752,0
726679,387.66,703,757,0
726689,383.35,703,752,0
726700,379.73,703,757,0
726710,376.00,703,753,0
726720,373.30,703,757,0
726730,370.81,703,753,0
726740,369.62,703,757,0
726750,369.01,703,753,0
726760,369.95,703,757,0
726770,371.85,703,754,0
726780,375.37,703,757,0
726790,379.20,703,753,0
726800,384.07,703,758,0
726810,388.76,703,754,0
726820,393.89,703,757,0
726830,398.68,703,753,0
726840,403.96,703,757,0
726850,409.84,703,754,0
726860,417.91,703,757,0
726871,428.39,703,754,0
726881,442.89,703,758,0
726891,461.26,703,755,0
726901,483.94,703,757,0
726912,509.67,703,755,0
726930,537.54,643,753,0
726933,565.11,643,756,0
726942,591.35,643,757,0
726952,614.30,643,756,0
726962,632.72,643,757,0
726972,645.32,643,756,0
726982,651.70,643,756,0
726992,651.83,643,756,0
727002,646.65,643,757,0
727012,636.09,643,756,0
727022,620.93,643,756,0
727032,602.05,643,756,0
727042,580.61,643,757,0
727052,557.67,643,756,0
727062,533.90,643,756,0
727072,510.18,643,756,0
727083,487.11,643,756,0
727092,465.48,643,756,0
727102,445.75,643,756,0
727112,428.47,643,756,0
727122,413.58,643,756,0
727132,401.67,643,756,0
727142,392.51,643,756,0
727152,386.44,643,756,0
727162,382.84,643,756,0
727172,381.73,643,756,0
727182,382.37,643,756,0
727192,384.66,643,756,0
727202,387.85,643,755,0
727212,391.58,643,756,0
727222,395.30,643,756,0
727232,398.94,643,756,0
727242,401.66,643,755,0
727252,403.69,643,756,0
727262,404.68,643,756,0
727272,404.61,643,756,0
727282,403.18,643,755,0
727292,400.68,643,757,0
727302,397.05,643,756,0
727312,393.22,643,756,0
727322,388.83,643,755,0
727332,384.51,643,757,0
727342,380.20,643,756,0
727352,376.54,643,756,0
727362,373.21,643,755,0
727372,370.62,643,757,0
727383,368.16,643,755,0
727393,366.53,643,757,0
727403,365.25,643,754,0
727413,364.71,643,757,0
727424,364.32,643,754,0
727433,364.74,643,757,0
727443,365.42,643,754,0
727453,366.71,643,757,0
727463,367.74,643,754,0
727473,369.32,643,757,0
727483,370.85,643,754,0
727493,373.21,643,757,0
727503,375.93,643,754,0
727513,380.37,643,757,0
727523,386.60,643,754,0
727533,396.36,643,757,0
727543,409.24,643,754,0
727553,426.61,643,757,0
727563,447.94,643,754,0
727573,473.93,643,757,0
727583,502.67,643,754,0
727603,533.62,672,752,0
727606,563.05,672,753,0
727615,591.32,672,757,0
727625,615.40,672,752,0
727635,634.86,672,757,0
727645,647.33,672,753,0
727655,653.36,672,757,0
727665,651.67,672,752,0
727675,644.82,672,757,0
727685,631.12,672,753,0
727695,612.78,672,757,0
727705,589.58,672,752,0
727715,563.95,672,757,0
727725,536.02,672,753,0
727735,508.11,672,757,0
727745,480.01,672,753,0
727755,453.86,672,757,0
727766,429.43,672,752,0
727775,408.52,672,757,0
727785,390.32,672,752,0
727795,376.29,672,757,0
727805,365.62,672,752,0
727815,359.35,672,757,0
727825,356.16,672,752,0
727835,356.80,672,757,0
727845,359.64,672,752,0
727855,365.36,672,757,0
727865,371.81,672,753,0
727875,379.41,672,757,0
727885,386.49,672,752,0
727895,393.41,672,757,0
727905,398.77,672,752,0
727915,403.30,672,757,0
727925,405.57,672,752,0
727936,406.90,672,757,0
727945,406.33,672,753,0
727955,405.03,672,757,0
727965,402.11,672,752,0
727975,398.77,672,757,0
727985,394.13,672,753,0
727995,389.80,672,757,0
728005,384.85,672,752,0
728015,380.57,672,757,0
728025,375.90,672,753,0
728035,372.28,672,757,0
728045,368.81,672,752,0
728055,366.85,672,757,0
728065,364.97,672,752,0
728075,364.34,672,757,0
728085,363.72,672,752,0
728095,364.15,672,757,0
728105,364.45,672,752,0
728115,365.60,672,757,0
728125,366.28,672,752,0
728135,367.65,672,757,0
728145,368.48,672,752,0
728155,370.01,672,757,0
728165,371.21,672,752,0
728175,373.54,672,757,0
728185,376.38,672,752,0
728195,381.62,672,757,0
728205,388.89,672,752,0
728215,400.03,672,757,0
728225,414.59,672,752,0
728236,434.43,672,757,0
728246,458.17,672,752,0
728256,486.32,672,757,0
728266,516.61,672,752,0
728286,548.40,683,751,0
728289,578.66,683,755,0
728298,606.62,683,757,0
728308,629.28,683,754,0
728318,646.17,683,757,0
728328,655.76,683,753,0
728338,658.53,683,756,0
728348,653.96,683,754,0
728358,643.34,683,757,0
728368,626.70,683,753,0
728378,605.74,683,756,0
728388,581.22,683,754,0
728398,554.58,683,757,0
728408,526.47,683,754,0
728418,498.38,683,756,0
728428,471.01,683,754,0
728438,445.51,683,757,0
728449,422.38,683,755,0
728459,402.47,683,756,0
728469,386.09,683,756,0
728479,373.55,683,757,0
728489,364.81,683,756,0
728499,359.94,683,756,0
728509,358.37,683,755,0
728519,359.89,683,757,0
728529,363.65,683,756,0
728539,368.94,683,756,0
728549,375.22,683,755,0
728559,381.71,683,756,0
728569,387.92,683,756,0
728579,393.48,683,756,0
728589,397.88,683,756,0
728599,400.91,683,757,0
728609,402.57,683,756,0
728620,402.57,683,756,0
728630,401.33,683,756,0
728640,398.74,683,756,0
728650,395.35,683,757,0
728660,391.00,683,755,0
728670,386.46,683,757,0
728680,381.56,683,756,0
728690,377.11,683,757,0
728700,372.58,683,755,0
728710,368.80,683,757,0
728720,365.31,683,756,0
728730,362.69,683,757,0
728740,360.25,683,755,0
728750,358.68,683,756,0
728760,357.27,683,756,0
728770,356.76,683,757,0
728780,356.62,683,755,0
728791,357.33,683,757,0
728801,358.43,683,754,0
728811,360.32,683,757,0
728821,362.11,683,753,0
728832,364.43,683,757,0
728841,366.57,683,754,0
728851,369.10,683,757,0
728861,371.69,683,754,0
728871,375.68,683,757,0
728881,380.88,683,755,0
728891,388.80,683,757,0
728901,399.10,683,754,0
728911,413.56,683,757,0
728921,431.48,683,755,0
