Time,PPG,IBI,GSR,GSR_Event
364257,445.28,724,752,0
364267,440.31,724,754,0
364277,434.26,724,752,0
364288,429.60,724,754,0
364297,425.35,724,751,0
364307,423.44,724,754,0
364317,422.54,724,751,0
364327,427.13,724,754,0
364337,434.81,724,751,0
364347,445.58,724,754,0
364357,457.41,724,751,0
364367,471.21,724,754,0
364377,485.25,724,751,0
364387,500.82,724,754,0
364406,516.26,662,754,0
364409,533.79,662,755,0
364418,551.38,662,753,0
364428,569.23,662,755,0
364438,585.02,662,753,0
364448,599.41,662,755,0
364459,610.52,662,753,0
364468,619.49,662,755,0
364478,623.54,662,753,0
364488,624.15,662,755,0
364498,620.85,662,753,0
364508,615.88,662,755,0
364518,608.33,662,753,0
364528,599.96,662,755,0
364538,589.81,662,753,0
364548,579.71,662,755,0
364558,568.66,662,753,0
364568,558.17,662,755,0
364578,546.98,662,753,0
364588,537.00,662,755,0
364598,527.01,662,753,0
364608,518.65,662,755,0
364618,510.66,662,753,0
364628,504.59,662,755,0
364638,498.88,662,753,0
364648,495.06,662,755,0
364658,491.53,662,753,0
364668,489.66,662,755,0
364678,487.74,662,753,0
364688,486.96,662,755,0
364698,485.69,662,753,0
364708,485.27,662,755,0
364718,484.07,662,753,0
364728,483.32,662,755,0
364738,481.51,662,753,0
364748,479.86,662,755,0
364759,477.11,662,753,0
364769,474.72,662,755,0
364779,471.21,662,754,0
364789,468.02,662,755,0
364800,463.98,662,754,0
364809,460.60,662,755,0
364819,456.69,662,753,0
364829,453.48,662,755,0
364839,449.65,662,754,0
364849,446.71,662,755,0
364859,443.37,662,754,0
364869,440.86,662,755,0
364879,437.86,662,754,0
364889,435.63,662,756,0
364899,432.91,662,754,0
364909,430.88,662,755,0
364919,428.43,662,754,0
364929,426.63,662,755,0
364939,424.30,662,753,0
364949,422.62,662,755,0
364959,420.38,662,754,0
364969,418.68,662,755,0
364979,416.42,662,753,0
364989,414.62,662,755,0
364999,412.38,662,754,0
365009,411.19,662,755,0
365019,410.15,662,754,0
365029,411.05,662,755,0
365039,413.48,662,754,0
365049,418.99,662,755,0
365059,426.96,662,753,0
365069,439.28,662,755,0
365079,454.62,662,754,0
365089,474.02,662,755,0
365100,495.66,662,754,0
365110,519.59,662,755,0
365120,543.88,662,754,0
365130,568.30,662,755,0
365150,590.54,743,754,0
365153,609.88,743,754,0
365162,625.73,743,755,0
365172,638.11,743,754,0
365182,646.26,743,755,0
365192,650.81,743,754,0
365202,651.43,743,755,0
365212,648.51,743,754,0
365222,642.79,743,755,0
365232,634.02,743,754,0
365242,622.70,743,755,0
365252,609.25,743,753,0
365262,593.92,743,755,0
365272,577.53,743,754,0
365282,560.65,743,755,0
365292,543.92,743,753,0
365302,527.87,743,755,0
365313,512.69,743,753,0
365323,499.46,743,755,0
365333,488.13,743,752,0
365343,479.14,743,755,0
365353,471.98,743,752,0
365363,466.84,743,755,0
365373,463.03,743,752,0
365383,460.75,743,755,0
365393,458.81,743,752,0
365403,457.67,743,755,0
365413,456.27,743,752,0
365423,455.42,743,755,0
365433,454.13,743,753,0
365443,453.07,743,755,0
365453,451.37,743,752,0
365463,449.80,743,755,0
365473,447.38,743,752,0
365484,444.99,743,755,0
365494,441.57,743,752,0
365504,438.18,743,755,0
365514,433.88,743,752,0
365524,430.02,743,755,0
365534,425.73,743,752,0
365544,422.30,743,755,0
365554,418.91,743,753,0
365564,416.88,743,755,0
365574,415.20,743,753,0
365584,414.93,743,755,0
365594,414.91,743,753,0
365604,416.09,743,755,0
365614,417.39,743,753,0
365624,419.50,743,755,0
365634,421.37,743,754,0
365644,423.83,743,755,0
365655,425.94,743,753,0
365665,428.61,743,755,0
365675,430.74,743,753,0
365685,433.31,743,755,0
365696,435.31,743,752,0
365705,437.71,743,755,0
365715,439.38,743,752,0
365725,441.58,743,755,0
365735,443.08,743,752,0
365745,445.58,743,755,0
365755,448.24,743,753,0
365765,452.97,743,755,0
365775,459.15,743,753,0
365785,468.57,743,755,0
365795,480.40,743,753,0
365805,496.05,743,755,0
365815,513.91,743,752,0
365834,534.46,685,752,0
365837,555.15,685,753,0
365846,576.71,685,755,0
365856,596.55,685,753,0
365867,614.77,685,755,0
365876,629.46,685,753,0
365886,641.19,685,755,0
365896,648.46,685,752,0
365906,652.99,685,755,0
365916,653.25,685,752,0
365926,651.12,685,755,0
365936,645.68,685,752,0
365946,638.66,685,755,0
365956,629.12,685,752,0
365966,618.89,685,755,0
365976,606.71,685,752,0
365986,594.15,685,755,0
365996,580.01,685,752,0
366006,565.90,685,755,0
366016,550.76,685,752,0
366026,536.18,685,755,0
366036,521.08,685,753,0
366046,507.34,685,755,0
366056,493.83,685,753,0
366066,482.01,685,755,0
366076,470.56,685,753,0
366086,460.96,685,755,0
366096,451.89,685,753,0
366106,444.81,685,755,0
366116,438.01,685,753,0
366126,432.61,685,755,0
366136,427.07,685,753,0
366146,422.72,685,756,0
366156,418.00,685,753,0
366167,414.36,685,755,0
366177,410.09,685,753,0
366187,406.68,685,755,0
366197,402.66,685,754,0
366208,399.68,685,755,0
366217,396.22,685,753,0
366227,393.67,685,755,0
366237,390.42,685,754,0
366247,387.85,685,755,0
366257,384.47,685,753,0
366267,381.59,685,755,0
366277,377.77,685,754,0
366287,374.49,685,755,0
366297,370.36,685,753,0
366307,366.82,685,755,0
366317,362.42,685,754,0
366327,358.69,685,755,0
366337,354.59,685,754,0
366347,351.41,685,755,0
366357,347.82,685,754,0
366367,345.34,685,755,0
366377,342.54,685,754,0
366387,341.18,685,755,0
366397,339.67,685,754,0
366407,339.42,685,755,0
366417,339.21,685,754,0
366427,340.61,685,755,0
366437,342.27,685,754,0
366447,346.13,685,755,0
366457,351.15,685,754,0
366467,359.20,685,755,0
366477,369.30,685,754,0
366487,383.22,685,755,0
366497,399.79,685,754,0
366508,420.21,685,755,0
366518,442.60,685,754,0
366528,467.41,685,755,0
366538,492.48,685,754,0
366548,517.80,685,754,0
366567,540.83,733,754,0
366570,560.94,733,756,0
366579,577.50,733,755,0
366589,590.59,733,754,0
366599,598.99,733,755,0
366609,603.58,733,755,0
366619,603.49,733,755,0
366629,600.00,733,754,0
366639,593.40,733,754,0
366649,583.72,733,755,0
366659,570.86,733,755,0
366669,556.03,733,754,0
366679,538.92,733,754,0
366689,520.99,733,755,0
366699,502.22,733,755,0
366709,483.77,733,754,0
366720,465.58,733,755,0
366729,448.99,733,755,0
366739,433.74,733,755,0
366749,420.79,733,754,0
366759,409.84,733,755,0
366769,401.44,733,755,0
366779,394.88,733,755,0
366789,390.59,733,754,0
366799,387.67,733,755,0
366809,386.61,733,755,0
366819,386.39,733,754,0
366829,387.17,733,754,0
366839,388.02,733,755,0
366849,389.51,733,755,0
366859,390.64,733,754,0
366869,391.91,733,755,0
366879,392.36,733,755,0
366889,392.60,733,754,0
366899,391.90,733,755,0
366909,390.86,733,755,0
366919,388.72,733,755,0
366929,385.93,733,754,0
366939,382.14,733,755,0
366949,377.94,733,755,0
366959,372.90,733,755,0
366969,367.70,733,754,0
366979,361.92,733,755,0
366989,356.37,733,755,0
366999,350.60,733,755,0
367009,345.24,733,755,0
367020,339.94,733,755,0
367030,335.24,733,754,0
367040,330.80,733,755,0
367050,327.04,733,754,0
367060,323.47,733,755,0
367070,321.02,733,754,0
367080,319.13,733,755,0
367090,318.15,733,754,0
367100,317.93,733,755,0
367110,318.72,733,754,0
367120,320.09,733,755,0
367130,322.21,733,754,0
367140,324.80,733,755,0
367150,327.99,733,755,0
367160,331.38,733,755,0
367170,334.87,733,754,0
367180,338.12,733,755,0
367191,341.30,733,754,0
367201,344.47,733,755,0
367211,347.28,733,753,0
367221,350.33,733,755,0
367232,353.83,733,753,0
367241,358.51,733,756,0
367251,364.96,733,754,0
367261,373.97,733,755,0
367271,385.76,733,753,0
367281,400.83,733,755,0
367291,418.93,733,754,0
367301,440.16,733,755,0
367311,463.47,733,754,0
367330,488.06,763,753,0
367333,511.96,763,754,0
367342,535.24,763,755,0
367352,556.38,763,753,0
367362,574.65,763,755,0
367372,588.94,763,753,0
367382,599.33,763,755,0
367392,605.23,763,753,0
367403,607.95,763,755,0
367412,606.25,763,753,0
367422,601.42,763,755,0
367432,593.15,763,753,0
367442,582.73,763,755,0
367452,570.00,763,753,0
367462,556.16,763,755,0
367472,540.77,763,753,0
367482,525.15,763,755,0
367492,508.99,763,753,0
367502,493.52,763,755,0
367512,478.24,763,753,0
367522,464.24,763,755,0
367532,451.22,763,754,0
367542,440.31,763,755,0
367552,430.79,763,754,0
367562,423.65,763,755,0
367572,418.10,763,754,0
367582,414.94,763,755,0
367592,413.20,763,754,0
367602,413.44,763,755,0
367612,414.38,763,754,0
367622,416.49,763,755,0
367632,418.49,763,754,0
367642,420.83,763,755,0
367652,422.34,763,754,0
367662,423.65,763,755,0
367672,423.54,763,753,0
367682,422.69,763,755,0
367692,420.34,763,753,0
367703,417.45,763,755,0
367713,413.29,763,753,0
367723,409.09,763,755,0
367733,403.96,763,754,0
367744,399.30,763,755,0
367753,394.50,763,753,0
367763,390.58,763,755,0
367773,386.37,763,753,0
367783,383.09,763,755,0
367793,379.29,763,753,0
367803,376.33,763,755,0
367813,372.93,763,753,0
367823,370.51,763,755,0
367833,367.91,763,753,0
367843,366.40,763,755,0
367853,364.78,763,753,0
367863,364.37,763,755,0
367873,363.83,763,753,0
367883,364.27,763,755,0
367893,364.06,763,753,0
367903,364.47,763,755,0
367913,364.41,763,753,0
367923,365.23,763,755,0
367933,366.02,763,754,0
367943,368.54,763,755,0
367953,372.19,763,754,0
367963,378.91,763,755,0
367973,388.02,763,754,0
367983,401.39,763,755,0
367993,418.03,763,753,0
368003,439.06,763,755,0
368013,462.79,763,753,0
368023,489.68,763,755,0
368033,517.20,763,753,0
368044,545.26,763,755,0
368063,571.19,733,754,0
368066,594.75,733,755,0
368075,614.11,733,753,0
368086,629.76,733,755,0
368095,639.91,733,753,0
368105,646.15,733,755,0
368115,647.26,733,753,0
368125,644.91,733,755,0
368135,638.68,733,753,0
368145,630.08,733,755,0
368155,618.27,733,753,0
368165,605.29,733,755,0
368175,590.20,733,753,0
368185,574.88,733,755,0
368195,558.29,733,753,0
368205,542.13,733,755,0
368215,525.46,733,753,0
368225,509.94,733,755,0
368235,494.31,733,754,0
368245,480.25,733,755,0
368256,466.59,733,754,0
368265,455.01,733,755,0
368275,443.99,733,754,0
368285,435.04,733,755,0
368295,426.58,733,754,0
368305,420.19,733,755,0
368315,414.31,733,754,0
368325,410.49,733,755,0
368335,407.17,733,754,0
368345,405.70,733,755,0
368355,404.25,733,753,0
368365,404.39,733,755,0
368375,404.53,733,753,0
368385,405.83,733,755,0
368395,406.65,733,753,0
368405,408.26,733,755,0
368415,408.99,733,754,0
368425,410.28,733,755,0
368435,410.50,733,753,0
368445,410.86,733,755,0
368455,409.92,733,754,0
368465,409.04,733,755,0
368475,406.67,733,753,0
368485,404.46,733,755,0
368495,401.06,733,753,0
368505,397.87,733,755,0
368515,393.75,733,753,0
368525,390.10,733,755,0
368535,385.40,733,753,0
368545,381.21,733,755,0
368556,376.00,733,754,0
368566,371.07,733,755,0
368576,365.22,733,754,0
368586,359.58,733,755,0
368596,353.02,733,755,0
368606,346.89,733,755,0
368616,339.94,733,754,0
368626,333.87,733,755,0
368636,327.91,733,755,0
368646,323.78,733,755,0
368656,320.93,733,754,0
368666,321.38,733,755,0
368676,324.95,733,755,0
368686,333.58,733,755,0
368696,346.52,733,754,0
368706,365.22,733,755,0
368716,388.56,733,755,0
368727,417.06,733,755,0
368737,448.41,733,755,0
368747,482.15,733,755,0
368757,515.57,733,755,0
368777,548.06,713,754,0
368780,576.37,713,756,0
368789,600.52,713,754,0
368799,618.88,713,755,0
368809,631.26,713,753,0
368819,637.18,713,755,0
368829,637.51,713,754,0
368839,632.26,713,755,0
368849,622.92,713,753,0
368859,609.49,713,755,0
368869,592.76,713,754,0
368879,573.93,713,755,0
368889,553.38,713,753,0
368899,532.05,713,755,0
368909,510.65,713,754,0
368919,490.01,713,755,0
368929,470.25,713,753,0
368940,452.26,713,755,0
368950,435.94,713,753,0
368960,422.20,713,755,0
368970,410.53,713,753,0
368980,401.45,713,755,0
368990,394.42,713,753,0
369000,389.84,713,755,0
369010,386.80,713,753,0
369020,385.70,713,755,0
369030,385.53,713,753,0
369040,386.66,713,755,0
369050,387.79,713,753,0
369060,389.31,713,755,0
369070,390.37,713,753,0
369080,391.59,713,755,0
369090,391.76,713,753,0
369100,391.66,713,755,0
369111,390.35,713,753,0
369121,388.91,713,755,0
369131,386.50,713,752,0
369141,383.99,713,755,0
369152,380.35,713,753,0
369161,377.07,713,755,0
369171,373.02,713,752,0
369181,369.46,713,755,0
369191,365.25,713,752,0
369201,361.87,713,755,0
369211,358.18,713,753,0
369221,355.51,713,755,0
369231,352.66,713,753,0
369241,350.88,713,755,0
369251,348.98,713,753,0
369261,348.13,713,755,0
369271,346.94,713,753,0
369281,346.70,713,755,0
369291,346.23,713,754,0
369301,346.59,713,755,0
369311,346.80,713,754,0
369321,348.45,713,755,0
369331,350.80,713,754,0
369341,355.74,713,755,0
369351,362.85,713,754,0
369361,374.17,713,755,0
369371,389.24,713,754,0
369381,409.57,713,755,0
369391,434.00,713,754,0
369401,463.19,713,755,0
369411,494.93,713,754,0
369430,528.89,654,753,0
369433,561.88,654,756,0
369442,594.23,654,755,0
369452,622.88,654,754,0
369462,647.26,654,755,0
369472,665.27,654,754,0
369482,677.61,654,755,0
369492,682.92,654,754,0
369502,683.03,654,755,0
369512,676.25,654,755,0
369522,664.94,654,755,0
369532,648.68,654,754,0
369542,629.83,654,755,0
369552,607.81,654,754,0
369562,584.90,654,755,0
369572,560.20,654,754,0
369582,536.18,654,755,0
369592,511.78,654,754,0
369602,489.26,654,755,0
369612,467.33,654,754,0
369623,447.99,654,755,0
369633,429.86,654,755,0
369643,414.99,654,755,0
369653,401.54,654,754,0
369664,391.39,654,755,0
369673,382.66,654,754,0
369683,377.02,654,755,0
369693,372.43,654,754,0
369703,370.54,654,755,0
369713,369.18,654,754,0
369723,369.85,654,755,0
369733,370.28,654,754,0
369743,372.08,654,755,0
369753,373.09,654,754,0
369763,374.86,654,755,0
369773,375.16,654,754,0
369783,375.84,654,755,0
369793,374.95,654,754,0
369803,374.49,654,755,0
369813,372.50,654,754,0
369823,370.98,654,755,0
369833,368.11,654,755,0
369843,366.11,654,755,0
369853,362.95,654,754,0
369863,360.69,654,755,0
369873,357.36,654,754,0
369883,355.02,654,755,0
369893,351.76,654,754,0
369903,349.69,654,755,0
369913,346.82,654,754,0
369923,345.12,654,755,0
369933,342.73,654,754,0
369943,341.74,654,755,0
369953,340.02,654,754,0
369964,339.71,654,755,0
369974,338.68,654,755,0
369984,338.99,654,755,0
369994,338.91,654,754,0
370004,340.78,654,755,0
370014,342.90,654,755,0
370024,348.33,654,755,0
370034,355.69,654,754,0
370044,368.00,654,755,0
370054,383.73,654,754,0
370064,405.45,654,755,0
370074,431.12,654,754,0
370094,462.20,663,754,0
370097,495.52,663,756,0
370106,531.58,663,755,0
370116,566.46,663,755,0
370126,600.18,663,755,0
370136,629.06,663,755,0
370146,653.34,663,755,0
370156,670.42,663,755,0
370166,681.31,663,755,0
370177,684.35,663,755,0
370187,681.41,663,754,0
370197,671.99,663,755,0
370207,658.06,663,754,0
370217,639.49,663,755,0
370227,618.38,663,754,0
370237,594.61,663,755,0
370247,570.00,663,754,0
370257,544.59,663,755,0
370267,519.77,663,754,0
370277,495.37,663,755,0
370287,472.58,663,754,0
370297,451.19,663,755,0
370307,432.36,663,754,0
370317,415.58,663,755,0
370327,401.65,663,754,0
370337,390.10,663,755,0
370348,381.46,663,754,0
370358,375.10,663,755,0
370368,371.17,663,754,0
370378,369.15,663,755,0
370388,368.93,663,754,0
370398,369.85,663,755,0
370408,371.70,663,754,0
370418,374.02,663,755,0
370428,376.58,663,754,0
370438,378.98,663,755,0
370448,380.74,663,754,0
370458,382.06,663,755,0
370468,382.43,663,754,0
370478,382.17,663,755,0
370488,381.01,663,754,0
370498,379.08,663,755,0
370508,376.27,663,754,0
370519,372.93,663,755,0
370529,368.71,663,754,0
370539,364.60,663,755,0
370549,360.00,663,754,0
370560,355.89,663,755,0
370569,351.85,663,754,0
370579,348.29,663,755,0
370589,344.78,663,754,0
370599,342.19,663,755,0
370609,339.69,663,754,0
370619,338.15,663,755,0
370629,336.52,663,754,0
370639,335.64,663,755,0
370649,335.06,663,754,0
370659,335.68,663,755,0
370669,336.85,663,754,0
370679,340.07,663,755,0
370689,345.10,663,754,0
370699,353.69,663,755,0
370709,365.82,663,753,0
370719,383.32,663,755,0
370729,405.47,663,755,0
370739,433.06,663,755,0
370758,464.67,665,753,0
370761,500.12,665,754,0
370770,536.82,665,754,0
370780,573.47,665,755,0
370790,607.40,665,754,0
370800,637.88,665,755,0
370810,662.30,665,755,0
370820,680.64,665,755,0
370830,691.46,665,754,0
370840,695.70,665,755,0
370850,692.92,665,753,0
370860,684.58,665,755,0
370870,670.39,665,753,0
370880,652.96,665,755,0
370890,631.16,665,754,0
370900,606.94,665,755,0
370910,580.47,665,754,0
370920,554.06,665,755,0
370930,526.96,665,752,0
370940,501.51,665,755,0
370950,476.72,665,752,0
370960,454.86,665,755,0
370970,435.14,665,752,0
370980,418.86,665,755,0
370990,404.76,665,752,0
371000,394.20,665,755,0
371010,385.66,665,752,0
371020,380.27,665,755,0
371031,376.59,665,753,0
371041,375.60,665,755,0
371051,375.55,665,752,0
371061,377.14,665,755,0
371072,378.68,665,753,0
371081,381.22,665,755,0
371091,382.96,665,752,0
371101,384.98,665,755,0
371111,385.72,665,753,0
371121,386.40,665,755,0
371131,385.51,665,752,0
371141,384.50,665,755,0
371151,381.82,665,753,0
371161,379.09,665,755,0
371171,374.95,665,752,0
371181,371.06,665,755,0
371191,366.07,665,753,0
371201,361.89,665,755,0
371211,357.13,665,753,0
371221,353.45,665,755,0
371231,349.33,665,753,0
371241,346.40,665,755,0
371251,343.19,665,753,0
371261,341.25,665,755,0
371271,339.03,665,753,0
371281,337.99,665,755,0
371291,336.67,665,752,0
371301,336.68,665,755,0
371311,336.73,665,753,0
371321,338.74,665,755,0
371331,341.73,665,753,0
371341,348.11,665,755,0
371351,357.34,665,753,0
371361,371.89,665,755,0
371372,391.13,665,753,0
371382,416.93,665,755,0
371392,447.59,665,754,0
371411,483.93,653,752,0
371415,522.61,653,755,0
371423,561.94,653,755,0
371433,598.90,653,754,0
371443,632.53,653,755,0
371453,660.74,653,755,0
371463,683.66,653,755,0
371473,700.39,653,755,0
371483,712.19,653,755,0
371493,718.35,653,754,0
371503,719.66,653,755,0
371513,715.39,653,755,0
371523,706.01,653,755,0
371533,690.84,653,754,0
371543,670.53,653,755,0
371553,644.57,653,754,0
371563,615.86,653,754,0
371573,584.57,653,754,0
371584,553.11,653,755,0
371593,521.58,653,754,0
371603,492.13,653,755,0
371613,464.32,653,755,0
371623,439.97,653,755,0
371633,418.38,653,754,0
371643,400.82,653,755,0
371653,386.52,653,755,0
371663,376.29,653,755,0
371673,368.83,653,754,0
371683,364.94,653,755,0
371693,363.29,653,755,0
371703,364.27,653,755,0
371713,366.33,653,754,0
371723,369.92,653,755,0
371733,373.54,653,754,0
371743,377.75,653,755,0
371753,380.74,653,755,0
371763,383.48,653,755,0
371773,384.88,653,755,0
371783,385.81,653,755,0
371793,385.18,653,755,0
371803,384.19,653,755,0
371813,381.86,653,755,0
371823,379.72,653,755,0
371833,376.71,653,755,0
371843,374.01,653,755,0
371853,370.80,653,754,0
371863,368.41,653,754,0
371873,365.50,653,755,0
371884,363.38,653,754,0
371894,361.00,653,755,0
371904,359.28,653,755,0
371914,357.27,653,755,0
371924,355.90,653,754,0
371934,353.92,653,755,0
371944,352.79,653,755,0
371954,351.52,653,755,0
371964,351.02,653,754,0
371974,350.67,653,755,0
371984,351.59,653,754,0
371994,353.55,653,755,0
372004,358.02,653,754,0
372014,364.95,653,755,0
372024,376.02,653,754,0
372034,391.79,653,755,0
372044,413.41,653,754,0
372055,440.80,653,755,0
372074,473.82,663,755,0
372077,510.86,663,755,0
372086,549.56,663,753,0
372097,587.23,663,755,0
372107,622.09,663,753,0
372117,652.41,663,755,0
372127,677.14,663,753,0
372137,695.87,663,755,0
372147,708.98,663,753,0
372157,717.52,663,755,0
372167,720.83,663,752,0
372177,719.21,663,755,0
372187,712.12,663,752,0
372197,699.74,663,755,0
372207,681.35,663,752,0
372217,657.59,663,755,0
372227,628.82,663,752,0
372237,597.81,663,755,0
372247,565.04,663,753,0
372257,532.71,663,755,0
372268,501.00,663,752,0
372278,472.24,663,755,0
372288,445.90,663,754,0
372298,423.60,663,755,0
372308,404.31,663,754,0
372318,389.43,663,755,0
372328,377.69,663,754,0
372338,370.02,663,755,0
372348,364.70,663,754,0
372358,362.61,663,755,0
372368,362.08,663,754,0
372378,363.81,663,755,0
372388,365.88,663,754,0
372398,368.88,663,755,0
372408,371.18,663,754,0
372418,373.66,663,755,0
372428,374.79,663,754,0
372439,375.62,663,755,0
372449,375.09,663,752,0
372459,374.42,663,755,0
372469,372.32,663,752,0
372480,370.17,663,755,0
372489,366.69,663,753,0
372499,363.57,663,755,0
372509,359.46,663,753,0
372519,355.59,663,755,0
372529,350.83,663,753,0
372539,346.76,663,755,0
372549,342.16,663,753,0
372559,338.51,663,755,0
372569,334.46,663,753,0
372579,331.28,663,755,0
372589,327.72,663,752,0
372599,325.06,663,755,0
372609,321.87,663,754,0
372619,319.73,663,755,0
372629,317.28,663,753,0
372639,315.78,663,755,0
372649,314.00,663,753,0
372659,313.66,663,755,0
372669,313.38,663,753,0
372679,314.89,663,755,0
372689,317.07,663,754,0
372699,322.02,663,755,0
372709,328.96,663,753,0
372719,340.20,663,755,0
372729,354.97,663,753,0
372739,375.29,663,755,0
372749,400.02,663,753,0
372759,430.18,663,755,0
372769,463.60,663,754,0
372780,500.45,663,755,0
372799,537.90,725,754,0
372802,574.62,725,755,0
372811,608.42,725,754,0
372822,638.55,725,755,0
372831,662.51,725,754,0
372841,680.36,725,755,0
372851,690.71,725,754,0
372861,694.22,725,755,0
372871,691.07,725,754,0
372881,682.01,725,755,0
372891,667.22,725,754,0
372901,648.47,725,755,0
372911,625.91,725,754,0
372921,601.12,725,755,0
372931,574.26,725,754,0
372941,546.80,725,755,0
372951,518.66,725,754,0
372961,491.29,725,755,0
372971,464.59,725,754,0
372981,439.81,725,755,0
372992,416.81,725,754,0
373001,396.72,725,755,0
373011,378.98,725,754,0
373021,364.54,725,755,0
373031,352.89,725,754,0
373041,344.70,725,755,0
373051,339.09,725,754,0
373061,336.40,725,755,0
373071,335.51,725,754,0
373081,336.69,725,755,0
373091,338.67,725,754,0
373101,341.64,725,755,0
373111,344.53,725,754,0
373121,347.76,725,755,0
373131,350.02,725,754,0
373141,352.15,725,755,0
373151,353.31,725,754,0
373161,354.12,725,755,0
373171,353.74,725,754,0
373181,353.05,725,754,0
373191,351.23,725,754,0
373201,349.28,725,755,0
373211,346.41,725,754,0
373221,343.50,725,755,0
373231,339.75,725,755,0
373241,336.35,725,755,0
373251,332.82,725,754,0
373261,330.04,725,755,0
373271,327.12,725,754,0
373281,325.11,725,755,0
373292,323.15,725,755,0
373302,322.46,725,755,0
373312,321.85,725,755,0
373322,321.98,725,754,0
373332,322.07,725,755,0
373342,323.25,725,754,0
373352,324.12,725,755,0
373362,325.63,725,754,0
373372,326.81,725,755,0
373382,328.58,725,754,0
373392,330.08,725,755,0
373402,332.20,725,754,0
373412,334.80,725,755,0
373422,339.23,725,754,0
373432,345.80,725,755,0
373442,355.80,725,754,0
373452,369.53,725,755,0
373463,388.49,725,754,0
373473,412.81,725,755,0
373483,442.53,725,754,0
373502,477.17,703,753,0
373506,515.00,703,754,0
373515,553.66,703,755,0
373525,591.05,703,754,0
373535,625.10,703,755,0
373545,654.52,703,754,0
373555,678.58,703,755,0
373565,696.62,703,754,0
373575,708.77,703,755,0
373585,714.80,703,753,0
373595,715.63,703,755,0
373605,710.81,703,753,0
373615,700.75,703,755,0
373625,684.71,703,753,0
373635,663.33,703,755,0
373645,637.04,703,753,0
373655,607.89,703,755,0
373665,576.08,703,753,0
373676,543.83,703,755,0
373686,511.39,703,753,0
373696,481.10,703,755,0
373706,452.74,703,753,0
373716,428.01,703,755,0
373726,406.58,703,753,0
373736,389.60,703,755,0
373746,375.97,703,753,0
373756,366.76,703,755,0
373766,360.32,703,753,0
373776,357.39,703,755,0
373786,356.03,703,753,0
373796,357.09,703,755,0
373806,358.82,703,753,0
373816,362.09,703,755,0
373826,364.89,703,753,0
373836,368.27,703,755,0
373847,370.29,703,754,0
373857,372.34,703,755,0
373867,372.58,703,754,0
373877,372.45,703,755,0
373888,370.26,703,754,0
373897,367.78,703,755,0
373907,363.95,703,753,0
373917,360.45,703,755,0
373927,356.03,703,752,0
373937,352.25,703,755,0
373947,347.97,703,753,0
373957,344.68,703,755,0
373967,341.18,703,753,0
373977,338.64,703,755,0
373987,336.00,703,753,0
373997,334.59,703,755,0
374007,333.30,703,753,0
374017,333.38,703,755,0
374027,333.57,703,754,0
374037,334.98,703,755,0
374047,336.10,703,754,0
374057,338.34,703,755,0
374067,340.13,703,754,0
374077,342.62,703,755,0
374087,344.32,703,754,0
374097,346.79,703,755,0
374107,348.83,703,753,0
374117,352.05,703,755,0
374127,355.55,703,753,0
374137,361.38,703,755,0
374147,369.11,703,753,0
374157,380.91,703,755,0
374167,396.41,703,753,0
374177,417.50,703,755,0
374188,443.19,703,753,0
374198,474.12,703,755,0
374217,508.20,715,754,0
374220,544.65,715,755,0
374230,580.59,715,754,0
374239,614.57,715,755,0
374249,644.35,715,754,0
374259,669.71,715,755,0
374269,688.57,715,754,0
374279,701.34,715,755,0
374289,707.02,715,754,0
374299,706.72,715,755,0
374309,700.37,715,754,0
374319,688.86,715,755,0
374329,671.76,715,754,0
374339,650.57,715,755,0
374349,625.29,715,754,0
374359,597.99,715,755,0
374369,568.76,715,754,0
374379,539.26,715,755,0
374389,509.40,715,754,0
374400,480.78,715,755,0
374409,453.59,715,754,0
374419,429.20,715,755,0
374429,406.98,715,755,0
374439,388.26,715,755,0
374449,372.41,715,754,0
374459,360.67,715,755,0
374469,351.98,715,754,0
374479,346.98,715,755,0
374489,344.15,715,754,0
374499,344.58,715,755,0
374509,346.55,715,754,0
374519,350.71,715,754,0
374529,354.87,715,754,0
374539,359.97,715,755,0
374549,364.18,715,755,0
374559,368.45,715,754,0
374569,371.10,715,755,0
374579,373.13,715,755,0
374589,373.13,715,755,0
374599,372.58,715,755,0
374609,370.22,715,755,0
374619,367.54,715,754,0
374629,363.39,715,755,0
374639,359.25,715,755,0
374649,354.11,715,755,0
374659,349.54,715,755,0
374669,344.58,715,754,0
374679,340.55,715,755,0
374689,336.23,715,755,0
374700,333.24,715,754,0
374710,330.51,715,755,0
374720,329.16,715,754,0
374730,328.17,715,755,0
374740,328.16,715,754,0
374750,327.94,715,755,0
374760,328.86,715,754,0
374770,329.63,715,755,0
374780,331.03,715,754,0
374790,332.22,715,755,0
374800,333.91,715,754,0
374810,335.31,715,755,0
374820,337.14,715,754,0
374830,338.30,715,755,0
374840,339.71,715,754,0
374850,340.31,715,755,0
374860,341.03,715,754,0
374871,341.45,715,755,0
374881,342.94,715,754,0
374891,345.58,715,755,0
374901,350.89,715,753,0
374912,359.41,715,755,0
374921,372.74,715,754,0
374931,391.51,715,755,0
374941,416.60,715,753,0
374951,447.79,715,755,0
374970,484.50,753,754,0
374973,523.99,753,756,0
374982,563.64,753,754,0
374992,601.42,753,755,0
375002,635.32,753,753,0
375012,663.90,753,755,0
375022,686.17,753,752,0
375032,702.23,753,755,0
375042,713.48,753,753,0
375052,721.13,753,755,0
375062,724.35,753,752,0
375072,722.92,753,755,0
375083,715.96,753,752,0
375092,703.88,753,755,0
375102,686.18,753,752,0
375112,663.11,753,755,0
375122,634.53,753,752,0
375132,603.17,753,755,0
375142,569.86,753,752,0
375152,536.82,753,755,0
375162,504.13,753,752,0
375172,473.58,753,755,0
375182,445.38,753,752,0
375192,421.09,753,755,0
375202,400.11,753,752,0
375212,383.49,753,755,0
375222,370.49,753,752,0
375232,361.85,753,755,0
375242,356.24,753,752,0
375252,354.03,753,755,0
375262,353.72,753,752,0
375272,355.52,753,755,0
375282,358.02,753,752,0
375292,361.53,753,755,0
375302,364.58,753,752,0
375312,367.67,753,755,0
375322,369.52,753,752,0
375332,370.91,753,755,0
375342,370.76,753,754,0
375352,369.72,753,755,0
375362,367.15,753,754,0
375372,364.02,753,755,0
375383,359.68,753,753,0
375393,355.24,753,755,0
375403,350.15,753,752,0
375413,345.48,753,755,0
375424,340.71,753,752,0
375433,336.68,753,755,0
375443,332.58,753,752,0
375453,329.53,753,755,0
375463,326.24,753,754,0
375473,323.77,753,755,0
375483,321.35,753,754,0
375493,320.05,753,755,0
375503,318.75,753,754,0
375513,318.52,753,755,0
375523,318.24,753,754,0
375533,319.11,753,755,0
375543,319.89,753,754,0
375553,321.38,753,755,0
375563,322.55,753,754,0
375573,324.32,753,755,0
375583,325.68,753,754,0
375593,327.49,753,755,0
375603,328.84,753,754,0
375613,330.52,753,755,0
375623,331.61,753,754,0
375633,332.97,753,755,0
375643,333.75,753,754,0
375653,334.81,753,755,0
375663,335.30,753,754,0
375673,336.49,753,755,0
375683,337.59,753,754,0
375693,339.98,753,755,0
375703,343.37,753,751,0
375713,349.60,753,755,0
375724,358.68,753,751,0
375734,372.49,753,755,0
375744,390.86,753,752,0
375763,415.50,793,751,0
375767,445.61,793,754,0
375775,481.55,793,755,0
375785,520.30,793,753,0
375795,559.73,793,755,0
375805,597.27,793,753,0
375815,631.47,793,755,0
375825,660.52,793,752,0
375835,683.85,793,755,0
375845,700.65,793,753,0
375855,712.37,793,755,0
375865,718.56,793,752,0
375875,719.59,793,755,0
375885,714.70,793,753,0
375895,704.59,793,755,0
375905,688.60,793,752,0
375915,667.16,793,755,0
375925,639.90,793,753,0
375936,609.71,793,755,0
375945,577.27,793,753,0
375955,545.13,793,755,0
375965,513.21,793,753,0
375975,483.66,793,755,0
375985,456.50,793,753,0
375995,433.51,793,755,0
376005,414.07,793,753,0
376015,399.44,793,755,0
376025,388.76,793,752,0
376035,382.92,793,754,0
376045,380.80,793,753,0
376055,382.87,793,755,0
376065,387.58,793,752,0
376075,395.25,793,755,0
376085,403.88,793,753,0
376095,413.73,793,754,0
376105,422.98,793,753,0
376115,431.77,793,755,0
376125,438.57,793,753,0
376135,444.10,793,755,0
376145,447.03,793,753,0
376155,448.43,793,755,0
376165,447.19,793,753,0
376175,444.47,793,755,0
376185,439.70,793,753,0
376195,434.05,793,755,0
376205,426.62,793,753,0
376215,418.68,793,754,0
376225,409.73,793,753,0
376236,401.11,793,754,0
376246,392.38,793,754,0
376256,384.51,793,754,0
376266,377.07,793,754,0
376276,371.05,793,754,0
376286,365.89,793,754,0
376296,362.32,793,755,0
376306,359.53,793,754,0
376316,358.08,793,754,0
376326,357.20,793,754,0
376336,357.44,793,755,0
376346,357.99,793,754,0
376356,359.28,793,755,0
376366,360.44,793,754,0
376376,361.98,793,755,0
376386,363.23,793,754,0
376396,364.70,793,754,0
376407,365.56,793,754,0
376417,366.42,793,754,0
376427,366.94,793,754,0
376437,367.77,793,754,0
376448,368.87,793,755,0
376457,371.22,793,754,0
376467,375.27,793,754,0
376477,382.35,793,754,0
376487,393.13,793,755,0
376497,408.52,793,754,0
376507,428.85,793,754,0
376517,454.61,793,754,0
376527,484.98,793,755,0
376537,519.06,793,755,0
376547,554.70,793,755,0
376566,589.72,803,754,0
376569,622.25,803,756,0
376578,651.10,803,754,0
376588,675.03,803,755,0
376598,692.85,803,754,0
376608,703.69,803,755,0
376619,707.77,803,753,0
376628,705.78,803,755,0
376638,698.09,803,754,0
376648,684.95,803,755,0
376658,666.45,803,753,0
376668,643.99,803,755,0
376678,618.53,803,753,0
376688,591.20,803,755,0
376698,562.90,803,753,0
376708,534.94,803,755,0
376718,508.00,803,754,0
376728,482.93,803,754,0
376738,459.98,803,753,0
376748,439.93,803,755,0
376758,423.06,803,753,0
376768,409.50,803,754,0
376778,398.94,803,753,0
376788,391.54,803,755,0
376798,387.14,803,754,0
376808,385.55,803,754,0
376818,386.29,803,753,0
376828,389.03,803,755,0
376838,393.26,803,754,0
376848,398.46,803,755,0
376858,403.76,803,754,0
376868,408.80,803,755,0
376878,412.93,803,754,0
376888,415.78,803,754,0
376898,416.79,803,753,0
376908,416.13,803,755,0
376919,413.43,803,753,0
376929,409.27,803,755,0
376939,403.41,803,753,0
376949,396.68,803,755,0
376960,388.98,803,752,0
376969,381.23,803,755,0
376979,373.10,803,753,0
376989,365.53,803,755,0
376999,358.04,803,752,0
377009,351.56,803,755,0
377019,345.60,803,753,0
377029,340.92,803,755,0
377039,336.75,803,752,0
377049,333.65,803,754,0
377059,331.10,803,753,0
377069,329.87,803,755,0
377079,328.88,803,752,0
377089,328.57,803,754,0
377099,328.40,803,753,0
377109,329.10,803,755,0
377119,329.62,803,752,0
377129,330.47,803,754,0
377139,330.67,803,753,0
377149,331.07,803,755,0
377159,330.96,803,753,0
377169,330.97,803,755,0
377179,330.25,803,753,0
377189,329.75,803,755,0
377199,328.80,803,753,0
377209,328.00,803,755,0
377219,326.76,803,753,0
377229,325.89,803,755,0
377239,324.98,803,752,0
377249,325.41,803,755,0
377260,327.30,803,752,0
377270,332.31,803,755,0
377280,340.75,803,752,0
377290,354.37,803,754,0
377300,372.98,803,752,0
377310,397.38,803,755,0
377320,426.28,803,751,0
377330,459.75,803,755,0
377350,495.44,783,754,0
377353,532.25,783,756,0
377362,567.83,783,751,0
377372,600.67,783,755,0
377382,628.15,783,752,0
377392,649.92,783,755,0
377402,663.96,783,751,0
377412,670.79,783,755,0
377422,669.65,783,752,0
377432,661.61,783,755,0
377442,646.99,783,751,0
377452,627.70,783,754,0
377462,603.84,783,752,0
377473,577.61,783,755,0
377483,549.36,783,752,0
377493,521.05,783,754,0
377503,492.32,783,753,0
377513,464.92,783,755,0
377523,438.98,783,753,0
377533,415.75,783,754,0
377543,394.91,783,753,0
377553,377.58,783,754,0
377563,363.35,783,752,0
377573,353.17,783,754,0
377583,346.31,783,753,0
377593,343.09,783,755,0
377603,342.50,783,752,0
377613,344.67,783,755,0
377623,348.15,783,753,0
377633,352.99,783,755,0
377644,358.01,783,753,0
377654,363.11,783,754,0
377664,367.23,783,754,0
377674,370.72,783,754,0
377684,372.77,783,754,0
377694,373.87,783,754,0
377704,373.35,783,754,0
377714,371.62,783,754,0
377724,368.43,783,754,0
377734,364.66,783,755,0
377744,360.05,783,754,0
377754,355.15,783,755,0
377764,349.96,783,754,0
377774,345.09,783,754,0
377784,340.56,783,754,0
377794,336.75,783,755,0
377804,333.40,783,754,0
377815,330.88,783,754,0
377825,329.16,783,755,0
377835,328.21,783,754,0
377845,328.02,783,755,0
377856,328.53,783,754,0
377865,329.78,783,755,0
377875,331.65,783,754,0
377885,333.90,783,755,0
377895,336.33,783,754,0
377905,338.84,783,754,0
377915,341.29,783,754,0
377925,343.69,783,755,0
377935,345.75,783,754,0
377945,347.46,783,754,0
377955,348.82,783,754,0
377965,349.90,783,755,0
377975,350.66,783,754,0
377985,351.06,783,754,0
377995,351.26,783,754,0
378005,351.52,783,755,0
378015,352.05,783,754,0
378025,353.49,783,755,0
378035,356.43,783,754,0
378045,361.96,783,755,0
378055,371.06,783,754,0
378065,384.58,783,755,0
378075,403.01,783,754,0
378085,426.71,783,755,0
378104,455.29,755,754,0
378107,487.69,755,755,0
378116,522.80,755,754,0
378126,558.73,755,755,0
378136,593.35,755,753,0
378146,624.75,755,755,0
378156,651.14,755,754,0
378166,671.07,755,755,0
378176,683.78,755,753,0
378186,688.77,755,755,0
378196,685.97,755,753,0
378206,676.51,755,755,0
378216,660.93,755,753,0
378226,640.46,755,755,0
378236,615.98,755,753,0
378246,589.42,755,755,0
378256,561.35,755,753,0
378266,533.26,755,755,0
378276,505.24,755,753,0
378286,478.77,755,755,0
378296,453.98,755,753,0
378306,431.91,755,755,0
378316,412.35,755,753,0
378327,396.01,755,755,0
378337,382.67,755,752,0
378347,372.92,755,755,0
378357,366.04,755,752,0
378368,362.47,755,755,0
378377,361.34,755,752,0
378387,362.66,755,755,0
378397,365.37,755,752,0
378407,369.46,755,755,0
378417,373.91,755,752,0
378427,378.74,755,755,0
378437,382.72,755,752,0
378447,386.27,755,755,0
378457,388.38,755,752,0
378467,389.76,755,755,0
378477,389.58,755,752,0
378487,388.46,755,755,0
378497,385.92,755,752,0
378507,382.90,755,755,0
378517,378.86,755,752,0
378527,374.70,755,755,0
378537,369.69,755,752,0
378547,364.90,755,755,0
378557,359.61,755,752,0
378567,354.63,755,755,0
378577,349.43,755,752,0
378587,344.93,755,755,0
378597,340.41,755,752,0
378607,336.90,755,755,0
378617,333.63,755,752,0
378627,331.60,755,755,0
378637,329.96,755,752,0
378647,329.54,755,755,0
378657,329.34,755,752,0
378668,330.31,755,755,0
378678,331.20,755,752,0
378688,332.86,755,755,0
378698,334.18,755,751,0
378708,336.14,755,755,0
378718,337.56,755,752,0
378728,339.32,755,755,0
378738,340.47,755,751,0
378748,342.13,755,755,0
378758,343.46,755,752,0
378768,345.85,755,755,0
378778,348.94,755,751,0
378788,354.49,755,755,0
378798,362.35,755,752,0
378808,374.33,755,755,0
378818,390.39,755,751,0
378828,412.09,755,755,0
378839,438.42,755,751,0
378849,469.75,755,755,0
378859,504.03,755,751,0
378878,540.57,774,750,0
378882,576.15,774,753,0
378891,609.87,774,755,0
378901,638.93,774,753,0
378911,662.52,774,755,0
378921,678.65,774,754,0
378931,687.58,774,755,0
378941,688.31,774,753,0
378951,682.64,774,755,0
378961,670.11,774,753,0
378971,652.59,774,754,0
378981,630.17,774,752,0
378991,604.70,774,754,0
379001,576.76,774,753,0
379011,548.42,774,755,0
379021,519.79,774,753,0
379031,492.34,774,755,0
379041,465.88,774,753,0
379052,442.09,774,755,0
379062,420.89,774,754,0
379072,403.18,774,754,0
379082,388.43,774,754,0
379092,377.07,774,754,0
379102,368.65,774,753,0
379112,363.65,774,754,0
379122,361.32,774,754,0
379132,361.52,774,754,0
379142,363.34,774,754,0
379152,366.75,774,755,0
379162,370.94,774,754,0
379172,375.76,774,755,0
379182,380.24,774,754,0
379192,384.41,774,755,0
379202,387.33,774,754,0
379212,389.42,774,754,0
379223,390.06,774,754,0
379233,389.62,774,754,0
379243,387.76,774,754,0
379253,384.96,774,754,0
379264,380.90,774,754,0
379273,376.56,774,754,0
379283,371.46,774,754,0
379293,366.18,774,754,0
379303,360.68,774,755,0
379313,355.68,774,754,0
379323,350.80,774,754,0
379333,346.58,774,754,0
379343,342.80,774,755,0
379353,339.91,774,754,0
379363,337.45,774,754,0
379373,335.69,774,754,0
379383,334.32,774,755,0
379393,333.71,774,754,0
379403,333.50,774,754,0
379413,333.95,774,754,0
379423,334.65,774,755,0
379433,335.78,774,754,0
379443,337.01,774,754,0
379453,338.42,774,754,0
379463,339.75,774,755,0
379473,341.20,774,754,0
379483,342.34,774,754,0
379493,343.26,774,754,0
379503,344.21,774,755,0
379513,345.52,774,753,0
379523,347.38,774,754,0
379533,350.35,774,754,0
379543,355.09,774,755,0
379553,362.56,774,753,0
379564,374.09,774,754,0
379574,390.35,774,753,0
379584,412.15,774,755,0
379594,439.36,774,753,0
379604,471.99,774,755,0
379623,508.55,745,754,0
379626,546.83,745,755,0
379635,584.17,745,752,0
379645,618.79,745,755,0
379655,648.98,745,752,0
379665,674.06,745,755,0
379675,693.24,745,752,0
379685,706.11,745,755,0
379695,712.76,745,752,0
379705,713.78,745,755,0
379715,709.09,745,752,0
379725,698.99,745,755,0
379735,683.44,745,752,0
379745,662.65,745,755,0
379755,637.30,745,752,0
379765,609.14,745,755,0
379776,578.80,745,752,0
379785,548.39,745,755,0
379795,518.14,745,752,0
379805,489.34,745,755,0
379815,462.24,745,752,0
379825,438.38,745,755,0
379835,417.44,745,752,0
379845,400.42,745,755,0
379855,386.45,745,752,0
379865,376.42,745,755,0
379875,369.48,745,752,0
379885,366.12,745,755,0
379895,365.06,745,752,0
379905,366.45,745,755,0
379915,369.36,745,752,0
379925,373.71,745,755,0
379935,378.17,745,752,0
379945,382.96,745,755,0
379955,387.00,745,752,0
379965,390.64,745,755,0
379975,392.94,745,752,0
379985,394.37,745,755,0
379995,394.22,745,752,0
380005,393.34,745,755,0
380015,391.09,745,752,0
380025,388.37,745,755,0
380035,384.66,745,752,0
380045,380.82,745,755,0
380055,376.24,745,752,0
380065,371.84,745,755,0
380076,367.09,745,752,0
380086,362.86,745,755,0
380096,358.49,745,752,0
380106,354.91,745,755,0
380116,351.68,745,751,0
380126,349.42,745,755,0
380136,347.49,745,751,0
380146,346.66,745,755,0
380156,346.08,745,751,0
380166,346.57,745,755,0
380176,347.08,745,751,0
380186,348.26,745,755,0
380196,349.17,745,751,0
380206,350.57,745,755,0
380216,351.43,745,751,0
380226,352.72,745,755,0
380236,353.53,745,752,0
380247,355.13,745,755,0
380257,356.98,745,752,0
380267,360.80,745,755,0
380277,366.43,745,752,0
380288,375.73,745,755,0
380297,388.20,745,752,0
380307,405.88,745,755,0
380317,428.24,745,752,0
380327,456.11,745,755,0
380337,487.54,745,751,0
380347,522.13,745,755,0
380366,557.36,743,754,0
380369,591.88,743,756,0
380378,623.25,743,752,0
380388,650.30,743,755,0
380398,670.70,743,752,0
380408,684.46,743,755,0
380418,690.54,743,752,0
380428,689.69,743,755,0
380438,682.11,743,752,0
380448,668.71,743,755,0
380459,649.47,743,752,0
380468,626.65,743,754,0
380478,600.40,743,752,0
380488,572.55,743,754,0
380498,543.24,743,752,0
380508,514.50,743,755,0
380518,486.06,743,752,0
380528,459.69,743,755,0
380538,434.88,743,752,0
380548,413.27,743,755,0
380558,394.33,743,752,0
380568,379.28,743,755,0
380578,367.28,743,752,0
380588,359.18,743,755,0
380598,353.90,743,752,0
380608,351.91,743,754,0
380618,352.03,743,752,0
380628,354.42,743,755,0
380638,357.72,743,752,0
380648,362.22,743,755,0
380658,366.57,743,753,0
380668,371.33,743,755,0
380678,375.17,743,752,0
380688,378.63,743,754,0
380698,380.76,743,753,0
380708,382.24,743,755,0
380718,382.21,743,752,0
380728,381.68,743,755,0
380738,379.89,743,753,0
380748,377.95,743,755,0
380759,375.18,743,753,0
380769,372.43,743,755,0
380779,369.26,743,753,0
380789,366.35,743,755,0
380800,363.12,743,754,0
380809,360.17,743,754,0
380819,357.07,743,754,0
380829,354.44,743,755,0
380839,351.73,743,754,0
380849,349.46,743,754,0
380859,347.09,743,754,0
380869,345.22,743,755,0
380879,343.44,743,754,0
380889,342.07,743,754,0
380899,340.55,743,754,0
380909,339.40,743,755,0
380919,338.16,743,754,0
380929,337.43,743,754,0
380939,336.61,743,753,0
380949,336.13,743,755,0
380959,335.53,743,754,0
380969,335.29,743,754,0
380979,335.07,743,754,0
380989,335.31,743,755,0
380999,335.94,743,754,0
381009,337.76,743,754,0
381019,341.05,743,754,0
381029,346.95,743,755,0
381039,356.09,743,754,0
381049,369.69,743,754,0
381059,388.00,743,754,0
381069,412.00,743,755,0
381079,441.14,743,754,0
381089,475.09,743,754,0
381109,512.00,743,753,0
381112,549.89,743,754,0
381121,586.56,743,755,0
381131,620.55,743,753,0
381142,649.92,743,755,0
381151,673.47,743,754,0
381161,689.79,743,755,0
381171,698.59,743,753,0
381181,700.21,743,755,0
381191,695.09,743,753,0
381201,683.71,743,755,0
381211,666.35,743,753,0
381221,644.05,743,755,0
381231,618.10,743,754,0
381241,589.79,743,755,0
381251,560.11,743,754,0
381261,529.99,743,755,0
381271,500.42,743,754,0
381281,472.22,743,755,0
381291,446.14,743,754,0
381301,422.74,743,755,0
381312,402.38,743,753,0
381321,385.55,743,755,0
381331,372.48,743,754,0
381341,363.00,743,755,0
381351,357.04,743,753,0
381361,354.11,743,755,0
381371,353.87,743,753,0
381381,355.83,743,755,0
381391,359.14,743,753,0
381401,363.21,743,755,0
381411,367.61,743,754,0
381421,371.88,743,754,0
381431,375.47,743,753,0
381441,378.12,743,755,0
381451,379.58,743,753,0
381461,380.09,743,754,0
381471,379.25,743,752,0
381481,377.33,743,755,0
381491,374.36,743,753,0
381501,370.87,743,755,0
381511,366.79,743,753,0
381521,362.53,743,755,0
381531,358.21,743,753,0
381541,354.29,743,754,0
381551,350.43,743,753,0
381561,347.00,743,755,0
381571,343.92,743,753,0
381581,341.41,743,755,0
381591,339.06,743,752,0
381601,336.99,743,755,0
381612,335.06,743,752,0
381622,333.89,743,754,0
381632,332.98,743,752,0
381642,332.77,743,755,0
381652,332.62,743,752,0
381662,333.21,743,755,0
381672,334.05,743,752,0
381682,335.58,743,755,0
381692,337.03,743,752,0
381702,338.91,743,755,0
381712,340.35,743,752,0
381722,342.09,743,755,0
381732,343.39,743,752,0
381742,344.77,743,755,0
381752,345.74,743,752,0
381762,347.10,743,755,0
381772,348.83,743,752,0
381783,352.22,743,755,0
381793,357.69,743,752,0
381803,366.91,743,755,0
381813,380.26,743,752,0
381824,399.13,743,755,0
381833,423.09,743,752,0
381843,452.51,743,755,0
381862,485.91,753,754,0
381865,522.41,753,755,0
381874,559.44,753,752,0
381884,595.14,753,755,0
381894,627.03,753,752,0
381904,654.23,753,755,0
381914,674.56,753,752,0
381924,687.94,753,755,0
381934,693.18,753,752,0
381944,691.20,753,755,0
381954,682.27,753,752,0
381964,667.70,753,755,0
381974,647.69,753,752,0
381984,624.04,753,755,0
381995,597.16,753,752,0
382004,569.17,753,755,0
382014,540.15,753,752,0
382024,511.73,753,755,0
382034,483.91,753,752,0
382044,458.18,753,755,0
382054,434.21,753,752,0
382064,413.41,753,755,0
382074,394.94,753,752,0
382084,380.00,753,755,0
382094,367.87,753,752,0
382104,359.38,753,755,0
382114,353.44,753,752,0
382124,350.82,753,755,0
382134,350.10,753,752,0
382144,351.92,753,755,0
382154,354.81,753,752,0
382164,359.11,753,755,0
382174,363.32,753,752,0
382184,368.02,753,755,0
382194,371.83,753,752,0
382204,375.35,753,755,0
382214,377.52,753,752,0
382224,379.16,753,755,0
382234,379.41,753,752,0
382244,379.25,753,755,0
382254,377.76,753,752,0
382264,376.03,753,755,0
382274,373.15,753,752,0
382284,370.32,753,755,0
382295,366.58,753,752,0
382305,363.11,753,755,0
382315,358.96,753,752,0
382325,355.24,753,755,0
382336,351.18,753,753,0
382345,347.96,753,755,0
382355,344.50,753,753,0
382365,341.95,753,755,0
382375,339.26,753,753,0
382385,337.51,753,755,0
382395,335.73,753,752,0
382405,334.78,753,754,0
382415,333.78,753,753,0
382425,333.54,753,755,0
382435,333.21,753,752,0
382445,333.66,753,754,0
382455,334.06,753,753,0
382465,335.20,753,755,0
382475,336.13,753,752,0
382485,337.67,753,754,0
382495,338.97,753,753,0
382505,340.74,753,755,0
382515,341.97,753,752,0
382525,343.48,753,754,0
382535,344.45,753,753,0
382545,345.86,753,755,0
382555,346.89,753,752,0
382565,348.85,753,754,0
382575,351.59,753,753,0
382585,356.94,753,754,0
382595,364.89,753,752,0
382605,377.14,753,754,0
382615,393.98,753,753,0
382625,416.87,753,755,0
382636,444.98,753,753,0
382655,478.24,793,752,0
382658,514.60,793,754,0
382667,552.43,793,754,0
382678,589.16,793,755,0
382687,623.01,793,754,0
382697,652.24,793,754,0
382707,676.38,793,754,0
382717,694.22,793,755,0
382727,705.56,793,755,0
382737,710.36,793,754,0
382747,709.27,793,754,0
382757,702.33,793,755,0
382767,690.02,793,754,0
382777,672.05,793,754,0
382787,649.41,793,754,0
382797,622.97,793,755,0
382807,594.44,793,754,0
382817,564.56,793,754,0
382827,534.57,793,754,0
382837,505.00,793,755,0
382848,477.05,793,754,0
382857,451.37,793,754,0
382867,428.67,793,754,0
382877,409.01,793,755,0
382887,392.81,793,754,0
382897,380.18,793,755,0
382907,371.04,793,754,0
382917,365.16,793,755,0
382927,362.28,793,754,0
382937,361.85,793,754,0
382947,363.35,793,754,0
382957,366.12,793,755,0
382967,369.73,793,754,0
382977,373.62,793,754,0
382987,377.55,793,754,0
382997,380.94,793,754,0
383007,383.45,793,754,0
383017,384.98,793,755,0
383027,385.59,793,754,0
383037,385.15,793,755,0
383047,383.78,793,754,0
383057,381.45,793,755,0
383067,378.44,793,754,0
383077,374.97,793,755,0
383087,371.03,793,754,0
383097,366.69,793,755,0
383107,362.20,793,754,0
383117,357.64,793,755,0
383127,353.33,793,754,0
383137,349.21,793,755,0
383148,345.50,793,753,0
383158,342.31,793,755,0
383168,339.82,793,753,0
383178,337.99,793,755,0
383188,336.79,793,753,0
383198,336.12,793,755,0
383208,335.87,793,753,0
383218,336.08,793,755,0
383228,336.49,793,753,0
383238,337.11,793,755,0
383248,337.72,793,753,0
383258,338.58,793,755,0
383268,339.17,793,753,0
383278,339.94,793,755,0
383288,340.47,793,753,0
383298,341.06,793,755,0
383308,341.43,793,753,0
383319,341.81,793,755,0
383329,341.70,793,753,0
383339,341.75,793,755,0
383349,341.52,793,753,0
383360,341.84,793,755,0
383369,342.70,793,752,0
383379,345.23,793,755,0
383389,349.88,793,752,0
383399,358.23,793,755,0
383409,370.46,793,752,0
383419,387.98,793,755,0
383429,410.83,793,752,0
383439,439.55,793,755,0
383458,472.90,803,754,0
383461,509.83,803,756,0
383470,547.85,803,752,0
383480,585.14,803,755,0
383490,619.43,803,753,0
383500,649.38,803,754,0
383510,673.91,803,752,0
383520,693.01,803,755,0
383531,706.08,803,752,0
383540,713.55,803,755,0
383550,715.23,803,752,0
383560,711.69,803,755,0
383570,702.31,803,752,0
383580,687.78,803,754,0
383590,667.53,803,752,0
383600,642.90,803,755,0
383610,614.26,803,752,0
383620,583.97,803,754,0
383630,552.39,803,752,0
383640,521.63,803,755,0
383650,491.61,803,751,0
383660,464.21,803,754,0
383670,439.38,803,752,0
383680,418.61,803,755,0
383690,401.15,803,751,0
383700,388.04,803,755,0
383710,378.13,803,751,0
383720,372.13,803,755,0
383730,368.92,803,751,0
383740,368.86,803,754,0
383750,370.32,803,751,0
383760,373.73,803,755,0
383770,377.59,803,751,0
383780,382.30,803,754,0
383790,386.36,803,751,0
383800,389.98,803,755,0
383810,391.92,803,751,0
383820,392.84,803,754,0
383831,391.65,803,751,0
383841,389.31,803,755,0
383851,385.32,803,751,0
383861,380.64,803,754,0
383872,374.75,803,751,0
383881,368.82,803,755,0
383891,362.40,803,751,0
383901,356.75,803,754,0
383911,351.17,803,751,0
383921,346.62,803,755,0
383931,342.23,803,751,0
383941,339.03,803,755,0
383951,336.20,803,751,0
383961,334.64,803,754,0
383971,333.29,803,751,0
383981,332.95,803,754,0
383991,332.62,803,751,0
384001,333.29,803,755,0
384011,333.85,803,751,0
384021,335.09,803,754,0
384031,336.05,803,751,0
384041,337.49,803,754,0
384051,338.54,803,751,0
384061,340.01,803,754,0
384071,340.91,803,751,0
384081,342.18,803,755,0
384091,342.94,803,751,0
384101,343.94,803,755,0
384111,344.17,803,751,0
384121,344.46,803,755,0
384131,343.98,803,751,0
384141,343.77,803,755,0
384151,342.94,803,751,0
384161,342.44,803,755,0
384172,341.54,803,752,0
384182,341.46,803,755,0
384192,341.75,803,752,0
384202,343.88,803,755,0
384212,347.78,803,752,0
384222,355.04,803,755,0
384232,365.83,803,752,0
384242,381.78,803,755,0
384262,403.02,803,753,0
384265,430.40,803,754,0
384274,463.24,803,754,0
384284,500.75,803,754,0
384294,539.87,803,754,0
384304,578.52,803,754,0
384314,614.45,803,754,0
384324,646.24,803,755,0
384334,672.57,803,754,0
384344,692.76,803,754,0
384354,706.46,803,754,0
384364,714.16,803,754,0
384374,715.96,803,754,0
384385,711.90,803,754,0
384395,702.24,803,755,0
384405,686.87,803,754,0
384415,666.00,803,755,0
384425,640.15,803,753,0
384435,611.14,803,755,0
384445,580.50,803,754,0
384455,549.58,803,755,0
384465,519.15,803,753,0
384475,490.39,803,754,0
384485,463.74,803,754,0
384495,440.12,803,755,0
384505,419.68,803,753,0
384515,402.76,803,754,0
384525,389.42,803,754,0
384535,379.87,803,755,0
384545,373.61,803,753,0
384556,370.68,803,755,0
384566,370.22,803,753,0
384576,371.87,803,755,0
384586,374.69,803,752,0
384596,378.56,803,755,0
384606,382.50,803,753,0
384616,386.60,803,755,0
384626,389.85,803,752,0
384636,392.55,803,755,0
384646,394.06,803,753,0
384656,394.94,803,755,0
384666,394.27,803,752,0
384676,392.60,803,755,0
384686,389.55,803,753,0
384696,385.96,803,755,0
384706,381.30,803,752,0
384716,376.49,803,754,0
384727,371.29,803,752,0
384737,366.66,803,755,0
384747,362.18,803,752,0
384757,358.39,803,755,0
384768,354.80,803,751,0
384777,352.21,803,755,0
384787,349.87,803,752,0
384797,348.28,803,754,0
384807,346.61,803,752,0
384817,345.66,803,755,0
384827,344.60,803,752,0
384837,344.25,803,754,0
384847,343.83,803,752,0
384857,344.10,803,755,0
384867,344.20,803,752,0
384877,344.99,803,754,0
384887,345.47,803,752,0
384897,346.48,803,755,0
384907,347.15,803,753,0
384917,348.01,803,754,0
384927,348.31,803,752,0
384937,348.90,803,755,0
384947,349.14,803,752,0
384957,350.17,803,754,0
384967,351.83,803,752,0
384977,355.61,803,755,0
384987,361.69,803,752,0
384997,371.64,803,754,0
385007,385.59,803,752,0
385017,405.13,803,755,0
385027,429.56,803,752,0
385037,459.48,803,755,0
385056,493.19,795,754,0
385059,529.91,795,755,0
385068,566.79,795,751,0
385078,602.17,795,755,0
385088,633.79,795,752,0
385098,661.20,795,755,0
385108,682.39,795,751,0
385118,697.32,795,755,0
385128,704.89,795,751,0
385138,706.08,795,755,0
385148,700.92,795,751,0
385158,690.31,795,755,0
385168,674.10,795,751,0
385178,653.54,795,755,0
385188,628.91,795,751,0
385198,602.28,795,755,0
385208,574.04,795,751,0
385218,545.96,795,755,0
385228,517.90,795,751,0
385239,491.53,795,755,0
385249,466.81,795,751,0
385259,445.10,795,755,0
385269,425.83,795,752,0
385280,410.15,795,755,0
385289,397.25,795,751,0
385299,388.13,795,755,0
385309,381.53,795,752,0
385319,378.16,795,755,0
385329,376.57,795,751,0
385339,377.21,795,755,0
385349,378.78,795,751,0
385359,381.63,795,755,0
385369,384.36,795,751,0
385379,387.42,795,755,0
385389,389.52,795,751,0
385399,391.29,795,755,0
385409,391.59,795,751,0
385419,391.24,795,755,0
385429,389.54,795,752,0
385439,387.19,795,755,0
385449,383.62,795,752,0
385459,379.79,795,755,0
385469,375.01,795,752,0
385479,370.55,795,755,0
385489,365.50,795,752,0
385499,360.98,795,755,0
385509,356.31,795,751,0
385519,352.41,795,755,0
385529,348.51,795,752,0
385539,345.62,795,755,0
385549,342.82,795,751,0
385559,340.94,795,755,0
385569,339.12,795,752,0
385580,338.22,795,755,0
385590,337.47,795,752,0
385600,337.54,795,754,0
385610,337.77,795,753,0
385620,338.74,795,755,0
385630,340.06,795,752,0
385640,341.97,795,755,0
385650,343.78,795,753,0
385660,345.99,795,755,0
385670,347.92,795,752,0
385680,350.00,795,755,0
385690,351.46,795,753,0
385700,352.61,795,754,0
385710,353.20,795,752,0
385720,353.91,795,754,0
385730,354.28,795,752,0
385740,355.31,795,755,0
385751,357.15,795,753,0
385761,361.34,795,754,0
385771,368.27,795,753,0
385781,379.33,795,754,0
385792,395.00,795,754,0
385801,416.43,795,754,0
385811,443.26,795,754,0
385830,475.50,774,753,0
385833,511.52,774,756,0
385842,549.21,774,754,0
385852,586.00,774,754,0
385862,620.12,774,754,0
385872,649.99,774,755,0
385882,674.85,774,754,0
385892,693.97,774,754,0
385902,707.69,774,754,0
385912,716.23,774,755,0
385922,719.89,774,754,0
385932,718.42,774,754,0
385942,711.78,774,754,0
385952,699.89,774,755,0
385963,682.69,774,753,0
385972,660.33,774,754,0
385982,634.17,774,754,0
385992,605.32,774,755,0
386002,575.22,774,754,0
386012,544.94,774,754,0
386022,515.35,774,754,0
386032,487.56,774,755,0
386042,461.93,774,754,0
386052,439.02,774,754,0
386062,419.35,774,754,0
386072,403.30,774,755,0
386082,390.87,774,754,0
386092,382.34,774,754,0
386102,377.05,774,754,0
386112,374.81,774,755,0
386122,374.95,774,754,0
386132,377.11,774,754,0
386142,380.42,774,754,0
386152,384.41,774,755,0
386162,388.23,774,754,0
386172,391.67,774,755,0
386182,394.51,774,754,0
386192,396.46,774,755,0
386202,397.09,774,754,0
386212,396.47,774,754,0
386222,394.61,774,754,0
386232,391.77,774,755,0
386242,387.98,774,754,0
386252,383.57,774,755,0
386263,378.52,774,753,0
386273,373.52,774,755,0
386283,368.39,774,753,0
386293,363.65,774,755,0
386304,359.04,774,752,0
386313,355.17,774,755,0
386323,351.52,774,753,0
386333,348.83,774,755,0
386343,346.36,774,752,0
386353,344.79,774,755,0
386363,343.48,774,753,0
386373,342.95,774,755,0
386383,342.50,774,752,0
386393,342.78,774,755,0
386403,343.06,774,753,0
386413,343.94,774,755,0
386423,344.69,774,753,0
386433,345.89,774,755,0
386443,346.91,774,753,0
386453,348.27,774,755,0
386463,349.22,774,752,0
386473,350.39,774,755,0
386483,351.09,774,753,0
386493,351.92,774,755,0
386503,352.03,774,753,0
386513,352.24,774,755,0
386523,351.86,774,753,0
386533,351.56,774,755,0
386543,350.75,774,752,0
386553,350.40,774,755,0
386563,350.36,774,753,0
386573,351.97,774,755,0
386583,355.36,774,752,0
386593,362.20,774,755,0
386604,372.90,774,752,0
386614,389.04,774,755,0
386624,410.50,774,752,0
386643,437.95,813,750,0
386647,470.02,813,751,0
386655,506.36,813,755,0
386665,544.22,813,751,0
386675,581.57,813,755,0
386685,616.03,813,751,0
386695,646.49,813,755,0
386705,671.59,813,751,0
386715,690.95,813,755,0
386725,702.67,813,751,0
386735,707.91,813,755,0
386745,706.65,813,751,0
386755,699.77,813,755,0
386765,686.98,813,751,0
386775,669.07,813,755,0
386785,646.25,813,750,0
386795,620.55,813,755,0
386805,591.97,813,751,0
386816,562.62,813,755,0
386825,532.65,813,751,0
386835,503.87,813,755,0
386845,476.18,813,751,0
386855,451.14,813,755,0
386865,428.64,813,751,0
386875,409.89,813,755,0
386885,394.20,813,751,0
386895,382.52,813,755,0
386905,373.79,813,751,0
386915,368.67,813,755,0
386925,365.94,813,751,0
386935,365.92,813,755,0
386945,367.18,813,751,0
386955,370.13,813,755,0
386965,373.18,813,751,0
386975,376.85,813,755,0
386985,379.77,813,750,0
386995,382.49,813,755,0
387005,383.93,813,751,0
387015,384.81,813,755,0
387025,384.18,813,751,0
387035,382.97,813,755,0
387045,380.36,813,751,0
387055,377.43,813,755,0
387065,373.40,813,751,0
387075,369.42,813,755,0
387085,364.67,813,751,0
387095,360.14,813,755,0
387105,355.00,813,751,0
387116,350.50,813,755,0
387126,345.68,813,751,0
387136,341.83,813,755,0
387146,337.98,813,751,0
387156,335.33,813,755,0
387166,332.96,813,751,0
387176,331.99,813,755,0
387186,331.26,813,751,0
387196,331.74,813,755,0
387206,332.25,813,751,0
387216,333.72,813,755,0
387226,335.09,813,751,0
387236,337.20,813,755,0
387246,339.11,813,751,0
387256,341.65,813,755,0
387266,343.90,813,752,0
387276,346.71,813,755,0
387287,349.03,813,752,0
387297,351.63,813,755,0
387307,353.72,813,752,0
387317,355.86,813,755,0
387328,357.36,813,753,0
387337,358.84,813,755,0
387347,359.57,813,752,0
387357,360.56,813,755,0
387367,361.50,813,753,0
387377,363.67,813,755,0
387387,367.15,813,752,0
387397,373.54,813,755,0
387407,383.32,813,753,0
387417,398.01,813,755,0
387427,417.72,813,752,0
387446,443.26,803,752,0
387449,473.74,803,755,0
387458,509.00,803,755,0
387468,546.03,803,753,0
387478,582.75,803,755,0
387488,616.98,803,754,0
387499,647.46,803,755,0
387508,672.82,803,753,0
387518,692.80,803,755,0
387528,705.89,803,754,0
387538,712.57,803,755,0
387548,713.34,803,753,0
387558,708.52,803,755,0
387568,697.95,803,754,0
387578,681.85,803,754,0
387588,660.30,803,753,0
387598,634.79,803,755,0
387608,606.36,803,754,0
387618,576.33,803,754,0
387628,545.72,803,753,0
387638,515.89,803,754,0
387648,487.59,803,754,0
387658,461.66,803,754,0
387668,438.45,803,754,0
387678,418.77,803,754,0
387688,402.68,803,754,0
387698,390.31,803,754,0
387708,381.43,803,754,0
387718,375.90,803,754,0
387728,373.23,803,754,0
387738,373.08,803,754,0
387748,374.72,803,754,0
387758,377.72,803,754,0
387768,381.19,803,754,0
387778,384.95,803,754,0
387788,388.31,803,754,0
387799,391.09,803,754,0
387809,392.73,803,755,0
387819,393.37,803,754,0
387829,392.87,803,755,0
387840,391.45,803,754,0
387849,388.96,803,754,0
387859,385.76,803,754,0
387869,381.93,803,755,0
387879,377.62,803,753,0
387889,373.06,803,754,0
387899,368.29,803,754,0
387909,363.66,803,755,0
387919,359.13,803,753,0
387929,354.89,803,755,0
387939,351.02,803,754,0
387949,347.97,803,755,0
387959,345.45,803,753,0
387969,343.82,803,754,0
387979,342.93,803,754,0
387989,342.91,803,755,0
387999,343.54,803,753,0
388009,344.83,803,755,0
388019,346.51,803,754,0
388029,348.63,803,755,0
388039,350.67,803,753,0
388049,352.70,803,755,0
388059,354.46,803,754,0
388069,355.86,803,755,0
388079,356.63,803,753,0
388089,356.96,803,755,0
388099,356.67,803,754,0
388109,356.21,803,755,0
388119,355.46,803,753,0
388129,355.02,803,755,0
388140,355.06,803,753,0
388150,356.67,803,755,0
388160,360.41,803,752,0
388170,368.00,803,755,0
388180,379.87,803,752,0
388190,397.27,803,755,0
388200,420.42,803,752,0
388210,449.91,803,755,0
388230,484.52,783,754,0
388233,522.68,783,755,0
388242,561.13,783,751,0
388252,598.08,783,755,0
388262,631.44,783,751,0
388272,660.07,783,755,0
388282,682.85,783,751,0
388292,699.82,783,755,0
388302,710.20,783,751,0
388312,715.07,783,755,0
388322,714.06,783,751,0
388332,707.74,783,755,0
388342,695.78,783,751,0
388353,678.74,783,754,0
388363,656.24,783,751,0
388373,630.24,783,755,0
388383,601.07,783,751,0
388393,570.87,783,754,0
388403,540.05,783,751,0
388413,510.30,783,755,0
388423,481.41,783,751,0
388433,455.23,783,754,0
388443,431.29,783,751,0
388453,411.06,783,755,0
388463,393.86,783,751,0
388473,380.66,783,754,0
388483,370.56,783,751,0
388493,364.48,783,755,0
388503,360.95,783,751,0
388513,360.71,783,754,0
388524,362.04,783,751,0
388534,365.33,783,755,0
388544,368.96,783,752,0
388554,373.26,783,754,0
388564,376.86,783,752,0
388574,380.25,783,755,0
388584,382.23,783,751,0
388594,383.66,783,754,0
388604,383.68,783,752,0
388614,383.09,783,755,0
388624,381.18,783,751,0
388634,378.81,783,754,0
388644,375.39,783,752,0
388654,371.98,783,755,0
388664,367.70,783,752,0
388674,363.59,783,754,0
388684,359.04,783,752,0
388695,355.04,783,755,0
388705,350.87,783,752,0
388715,347.53,783,754,0
388725,344.28,783,753,0
388736,342.05,783,754,0
388745,339.90,783,752,0
388755,338.73,783,754,0
388765,337.87,783,753,0
388775,338.08,783,755,0
388785,338.44,783,752,0
388795,339.55,783,754,0
388805,340.84,783,753,0
388815,342.95,783,755,0
388825,345.11,783,752,0
388835,347.65,783,755,0
388845,349.85,783,753,0
388855,352.38,783,755,0
388865,354.54,783,752,0
388875,356.86,783,754,0
388885,358.66,783,753,0
388895,360.35,783,754,0
388905,361.44,783,753,0
388915,362.43,783,754,0
388925,362.68,783,753,0
388935,362.82,783,754,0
388945,362.40,783,753,0
388955,362.37,783,754,0
388965,362.64,783,753,0
388975,364.42,783,754,0
388985,368.28,783,753,0
388995,375.53,783,754,0
389005,386.77,783,753,0
389015,403.47,783,754,0
389035,425.87,805,753,0
389038,454.15,805,754,0
389047,487.92,805,755,0
389057,525.02,805,754,0
389067,562.85,805,755,0
389078,599.41,805,753,0
389087,632.55,805,755,0
389097,660.92,805,753,0
389107,683.88,805,755,0
389117,700.63,805,753,0
389127,711.71,805,755,0
389137,717.11,805,753,0
389147,717.12,805,755,0
389157,711.64,805,753,0
389167,700.78,805,754,0
389177,684.39,805,753,0
389187,662.50,805,754,0
389197,635.82,805,753,0
389207,606.35,805,755,0
389217,574.96,805,753,0
389227,543.08,805,755,0
389237,511.47,805,753,0
389248,481.42,805,754,0
389257,453.61,805,753,0
389267,429.04,805,755,0
389277,407.64,805,753,0
389287,390.22,805,754,0
389297,376.57,805,753,0
389307,366.93,805,755,0
389317,360.69,805,753,0
389327,357.74,805,754,0
389337,357.26,805,754,0
389347,359.03,805,755,0
389357,361.98,805,753,0
389367,365.80,805,754,0
389377,369.89,805,753,0
389387,373.95,805,755,0
389397,377.22,805,753,0
389407,379.77,805,754,0
389417,381.08,805,752,0
389427,381.57,805,755,0
389437,380.76,805,753,0
389447,378.90,805,754,0
389457,375.85,805,752,0
389467,372.33,805,755,0
389477,368.12,805,753,0
389487,363.76,805,754,0
389497,358.77,805,752,0
389507,354.00,805,755,0
389517,349.24,805,753,0
389527,344.97,805,755,0
389537,340.78,805,753,0
389548,337.24,805,755,0
389558,334.09,805,752,0
389568,331.96,805,754,0
389578,330.39,805,752,0
389588,329.84,805,755,0
389598,329.85,805,752,0
389608,330.84,805,754,0
389618,332.13,805,752,0
389628,334.15,805,755,0
389638,336.25,805,752,0
389648,338.87,805,754,0
389658,341.10,805,752,0
389668,343.55,805,755,0
389678,345.49,805,752,0
389688,347.53,805,754,0
389698,349.00,805,752,0
389708,350.54,805,755,0
389719,351.28,805,752,0
389729,352.18,805,755,0
389739,352.30,805,751,0
389749,352.55,805,755,0
389760,352.13,805,751,0
389769,351.92,805,755,0
389779,351.21,805,751,0
389789,351.24,805,755,0
389799,351.38,805,751,0
389809,353.15,805,755,0
389819,356.45,805,751,0
389829,363.26,805,754,0
389839,373.81,805,751,0
389849,390.11,805,754,0
389868,412.10,834,754,0
389871,440.92,834,755,0
389880,475.57,834,751,0
389890,514.31,834,755,0
389900,553.86,834,751,0
389910,592.35,834,755,0
389920,627.21,834,751,0
389931,657.32,834,755,0
389940,681.22,834,751,0
389950,698.73,834,755,0
389960,710.94,834,752,0
389970,718.93,834,755,0
389980,722.08,834,752,0
389990,720.64,834,754,0
390000,713.89,834,751,0
390010,702.10,834,755,0
390020,684.80,834,751,0
390030,662.40,834,754,0
390040,635.07,834,751,0
390050,605.26,834,755,0
390060,573.68,834,751,0
390070,542.49,834,754,0
390080,511.79,834,751,0
390090,483.39,834,755,0
390100,457.22,834,751,0
390110,435.00,834,754,0
390120,416.05,834,751,0
390130,401.47,834,755,0
390140,390.10,834,751,0
390150,382.95,834,754,0
390160,378.60,834,751,0
390170,377.39,834,755,0
390180,377.70,834,751,0
390190,379.98,834,754,0
390200,382.55,834,751,0
390210,385.90,834,754,0
390220,388.55,834,751,0
390231,391.00,834,754,0
390241,392.33,834,751,0
390251,393.21,834,754,0
390261,392.72,834,752,0
390272,391.60,834,754,0
390281,389.15,834,751,0
390291,386.36,834,755,0
390301,382.61,834,752,0
390311,378.83,834,754,0
390321,374.42,834,751,0
390331,370.35,834,754,0
390341,366.00,834,752,0
390351,362.32,834,754,0
390361,358.58,834,751,0
390371,355.66,834,754,0
390381,352.68,834,751,0
390391,350.50,834,754,0
390401,348.42,834,751,0
390411,347.35,834,754,0
390421,346.43,834,752,0
390431,346.26,834,754,0
390441,346.18,834,752,0
390451,346.94,834,754,0
390461,347.52,834,751,0
390471,348.56,834,754,0
390481,349.21,834,752,0
390491,350.05,834,754,0
390501,350.29,834,752,0
390511,350.59,834,754,0
390521,350.37,834,752,0
390531,350.52,834,754,0
390541,350.32,834,752,0
390551,350.48,834,754,0
390561,350.34,834,752,0
390572,350.75,834,754,0
390582,351.00,834,753,0
390592,351.81,834,754,0
390602,352.73,834,753,0
390612,354.56,834,754,0
390622,357.18,834,753,0
390632,362.14,834,754,0
390642,369.77,834,753,0
390652,381.54,834,754,0
390662,397.53,834,753,0
390672,418.97,834,754,0
390691,445.94,823,753,0
390694,478.19,823,754,0
390703,514.39,823,754,0
390713,552.03,823,754,0
390723,588.62,823,754,0
390733,622.72,823,754,0
390743,652.55,823,754,0
390753,677.03,823,754,0
390763,695.87,823,754,0
390773,708.43,823,754,0
390784,715.07,823,754,0
390793,716.42,823,754,0
390803,712.22,823,754,0
390813,702.68,823,754,0
390823,687.74,823,754,0
390833,667.67,823,754,0
390843,643.09,823,754,0
390853,615.25,823,754,0
390863,585.21,823,754,0
390873,554.55,823,754,0
390883,524.09,823,754,0
390893,494.75,823,754,0
390903,467.18,823,754,0
390913,442.14,823,754,0
390923,420.45,823,754,0
390933,402.40,823,754,0
390943,388.14,823,754,0
390953,377.56,823,754,0
390963,370.53,823,754,0
390973,366.73,823,754,0
390983,365.78,823,754,0
390993,367.05,823,754,0
391003,369.73,823,753,0
391013,373.28,823,754,0
391023,377.27,823,754,0
391033,381.18,823,754,0
391043,384.51,823,753,0
391053,387.06,823,754,0
391063,388.58,823,754,0
391073,388.96,823,753,0
391084,388.33,823,754,0
391094,386.48,823,753,0
391104,383.80,823,754,0
391114,380.26,823,753,0
391124,376.20,823,754,0
391134,371.60,823,753,0
391144,367.05,823,754,0
391154,362.32,823,753,0
391164,358.11,823,754,0
391174,354.05,823,753,0
391184,350.60,823,754,0
391194,347.68,823,753,0
391204,345.68,823,754,0
391214,344.14,823,753,0
391224,343.37,823,754,0
391234,342.88,823,753,0
391244,343.00,823,754,0
391255,343.30,823,752,0
391265,343.94,823,755,0
391275,344.39,823,752,0
391285,345.00,823,754,0
391296,345.21,823,752,0
391305,345.58,823,755,0
391315,345.49,823,752,0
391325,345.60,823,754,0
391335,345.16,823,751,0
391345,344.90,823,754,0
391355,344.07,823,752,0
391365,343.54,823,754,0
391375,342.39,823,751,0
391385,341.63,823,754,0
391395,340.41,823,752,0
391405,339.52,823,754,0
391415,338.33,823,751,0
391425,337.89,823,754,0
391435,337.88,823,752,0
391445,339.63,823,754,0
391455,343.08,823,751,0
391465,350.00,823,754,0
391475,360.63,823,751,0
391485,376.51,823,754,0
391495,397.66,823,751,0
391515,424.98,823,750,0
391518,457.25,823,751,0
391527,494.42,823,754,0
391537,533.38,823,751,0
391547,572.14,823,755,0
391557,608.27,823,751,0
391567,640.50,823,754,0
391577,667.27,823,750,0
391587,688.53,823,755,0
391597,701.87,823,750,0
391607,708.34,823,755,0
391617,707.85,823,750,0
391627,701.21,823,755,0
391638,688.03,823,750,0
391647,669.17,823,754,0
391657,644.22,823,751,0
391667,615.61,823,754,0
391677,584.01,823,750,0
391687,551.78,823,754,0
391697,519.23,823,751,0
391707,488.48,823,755,0
391717,459.40,823,751,0
391727,433.78,823,755,0
391737,411.31,823,751,0
391747,393.13,823,755,0
391757,378.43,823,751,0
391767,368.10,823,755,0
391777,360.91,823,751,0
391787,357.43,823,755,0
391797,356.27,823,750,0
391808,357.90,823,754,0
391817,360.68,823,751,0
391827,365.06,823,755,0
391837,369.46,823,751,0
391847,374.38,823,754,0
391857,378.33,823,751,0
391867,381.92,823,754,0
391877,384.00,823,751,0
391887,385.33,823,754,0
391897,384.89,823,751,0
391907,383.64,823,754,0
391917,380.74,823,751,0
391927,377.35,823,754,0
391937,372.83,823,750,0
391947,368.38,823,754,0
391957,363.30,823,751,0
391967,358.75,823,754,0
391977,353.98,823,751,0
391987,350.17,823,755,0
391997,346.52,823,751,0
392007,344.01,823,754,0
392017,341.61,823,751,0
392027,340.40,823,754,0
392037,339.33,823,751,0
392047,339.36,823,754,0
392057,339.43,823,751,0
392067,340.33,823,755,0
392077,341.17,823,751,0
392087,342.75,823,754,0
392097,344.02,823,751,0
392108,345.73,823,754,0
392118,347.10,823,751,0
392128,348.78,823,754,0
392138,350.00,823,752,0
392148,351.46,823,754,0
392158,352.39,823,751,0
392168,353.56,823,754,0
392178,354.12,823,752,0
392188,354.73,823,754,0
392198,354.68,823,752,0
392208,354.91,823,754,0
392218,354.72,823,751,0
392228,355.32,823,754,0
392238,356.51,823,751,0
392248,360.04,823,754,0
392258,366.16,823,751,0
392268,376.82,823,755,0
392279,392.26,823,752,0
392289,414.04,823,754,0
392308,441.63,794,753,0
392311,475.08,794,753,0
392321,512.47,794,754,0
392331,551.42,794,754,0
392341,589.13,794,754,0
392351,623.94,794,754,0
392361,653.96,794,755,0
392371,678.44,794,754,0
392381,696.91,794,754,0
392391,709.19,794,754,0
392401,715.74,794,755,0
392411,716.63,794,754,0
392421,711.85,794,754,0
392431,701.18,794,754,0
392441,684.67,794,754,0
392451,662.44,794,754,0
392461,635.18,794,754,0
392471,604.44,794,754,0
392481,571.87,794,754,0
392492,538.65,794,753,0
392502,506.31,794,754,0
392512,475.62,794,753,0
392522,447.70,794,755,0
392532,423.15,794,752,0
392542,402.45,794,754,0
392552,385.56,794,753,0
392562,372.96,794,754,0
392572,364.19,794,752,0
392582,359.37,794,754,0
392592,357.50,794,753,0
392602,358.42,794,754,0
392612,361.13,794,752,0
392622,365.46,794,754,0
392632,370.21,794,753,0
392642,375.25,794,754,0
392652,379.59,794,752,0
392663,383.27,794,754,0
392673,385.42,794,752,0
392683,386.71,794,754,0
392693,386.24,794,751,0
392704,384.71,794,754,0
392713,381.54,794,751,0
392723,377.73,794,754,0
392733,372.97,794,751,0
392743,368.39,794,754,0
392753,363.39,794,752,0
392763,358.90,794,754,0
392773,354.39,794,751,0
392783,350.76,794,754,0
392793,347.23,794,752,0
392803,344.55,794,754,0
392813,341.85,794,751,0
392823,339.97,794,754,0
392833,338.35,794,752,0
392843,337.73,794,754,0
392853,337.21,794,751,0
392863,337.71,794,754,0
392873,338.27,794,751,0
392883,339.69,794,754,0
392893,340.98,794,751,0
392903,342.83,794,754,0
392913,344.21,794,751,0
392923,346.07,794,754,0
392933,347.21,794,751,0
392943,348.56,794,754,0
392953,349.38,794,751,0
392963,350.68,794,755,0
392973,352.06,794,751,0
392983,355.09,794,754,0
392993,359.82,794,751,0
393004,368.23,794,754,0
393014,380.55,794,751,0
393024,398.51,794,755,0
393034,422.06,794,751,0
393044,451.95,794,755,0
393054,486.60,794,751,0
393073,524.65,765,749,0
393076,563.02,765,752,0
393085,599.96,765,755,0
393095,633.19,765,751,0
393105,661.63,765,755,0
393115,684.07,765,751,0
393125,700.85,765,754,0
393135,712.55,765,751,0
393145,719.76,765,755,0
393155,721.80,765,750,0
393165,718.95,765,754,0
393175,710.56,765,750,0
393185,696.94,765,755,0
393195,677.50,765,750,0
393205,652.66,765,754,0
393216,623.15,765,751,0
393225,591.61,765,754,0
393235,558.55,765,751,0
393245,525.94,765,754,0
393255,493.99,765,751,0
393265,464.51,765,754,0
393275,437.48,765,750,0
393285,414.41,765,754,0
393295,394.62,765,751,0
393305,379.05,765,754,0
393315,366.90,765,750,0
393325,358.96,765,755,0
393335,354.04,765,751,0
393345,352.49,765,754,0
393355,352.86,765,750,0
393365,355.30,765,754,0
393375,358.51,765,751,0
393385,362.73,765,754,0
393395,366.41,765,750,0
393405,369.93,765,755,0
393415,372.26,765,751,0
393425,373.90,765,754,0
393435,374.02,765,750,0
393445,373.28,765,754,0
393455,371.05,765,751,0
393465,368.34,765,754,0
393475,364.59,765,750,0
393485,360.82,765,754,0
393495,356.37,765,751,0
393505,352.15,765,754,0
393516,347.56,765,751,0
393526,343.62,765,754,0
393536,339.66,765,752,0
393546,336.55,765,754,0
393556,333.60,765,752,0
393566,331.75,765,754,0
393576,330.28,765,752,0
393586,329.90,765,754,0
393596,329.71,765,752,0
393606,330.48,765,754,0
393616,331.41,765,752,0
393626,332.87,765,754,0
393636,334.28,765,752,0
393646,336.21,765,754,0
393656,338.03,765,752,0
393666,340.21,765,754,0
393676,342.08,765,752,0
393687,343.94,765,754,0
393697,345.50,765,753,0
393707,346.94,765,754,0
393717,348.03,765,753,0
393728,349.09,765,754,0
393737,350.13,765,753,0
393747,351.85,765,754,0
393757,354.64,765,754,0
393767,359.55,765,754,0
393777,367.18,765,753,0
393787,378.79,765,754,0
393797,395.35,765,754,0
393807,417.87,765,754,0
393817,446.11,765,753,0
393836,480.02,763,752,0
393839,517.56,763,755,0
393848,556.30,763,754,0
393858,593.80,763,754,0
393868,628.10,763,754,0
393878,657.47,763,754,0
393888,681.29,763,754,0
393899,698.90,763,754,0
393908,711.23,763,754,0
393918,719.86,763,755,0
393928,724.79,763,754,0
393938,725.50,763,755,0
393948,721.53,763,754,0
393958,712.33,763,754,0
393968,697.49,763,754,0
393978,676.86,763,754,0
393988,650.58,763,754,0
393998,619.94,763,754,0
394008,586.44,763,754,0
394018,551.51,763,754,0
394028,516.77,763,754,0
394038,483.58,763,754,0
394048,452.81,763,754,0
394058,425.35,763,754,0
394068,401.67,763,753,0
394078,382.40,763,754,0
394088,367.54,763,754,0
394098,357.09,763,755,0
394108,350.46,763,753,0
394118,347.58,763,754,0
394128,347.58,763,754,0
394138,349.89,763,754,0
394148,353.57,763,753,0
394158,358.20,763,754,0
394168,362.94,763,754,0
394178,367.50,763,754,0
394188,371.21,763,753,0
394199,373.93,763,754,0
394209,375.32,763,753,0
394219,375.65,763,754,0
394229,374.60,763,752,0
394240,372.45,763,754,0
394249,369.31,763,753,0
394259,365.66,763,754,0
394269,361.31,763,752,0
394279,357.01,763,754,0
394289,352.47,763,753,0
394299,348.26,763,755,0
394309,344.06,763,752,0
394319,340.49,763,755,0
394329,337.08,763,753,0
394339,334.62,763,754,0
394349,332.42,763,752,0
394359,331.18,763,755,0
394369,330.40,763,752,0
394379,330.62,763,755,0
394389,331.08,763,752,0
394399,332.25,763,754,0
394409,333.38,763,751,0
394419,335.11,763,755,0
394429,336.66,763,752,0
394439,338.65,763,754,0
394449,340.34,763,751,0
394459,342.34,763,755,0
394469,343.95,763,752,0
394479,345.77,763,754,0
394489,346.95,763,751,0
394499,348.21,763,755,0
394509,348.79,763,752,0
394519,349.45,763,754,0
394529,349.40,763,751,0
394540,349.50,763,754,0
394550,348.92,763,751,0
394560,348.64,763,754,0
394570,347.98,763,751,0
394580,348.33,763,755,0
394590,349.34,763,751,0
394600,352.71,763,754,0
394610,358.67,763,751,0
394620,369.27,763,754,0
394630,384.66,763,751,0
394649,406.49,813,750,0
394652,433.99,813,750,0
394661,468.23,813,755,0
394671,506.56,813,751,0
394681,546.47,813,754,0
394691,585.07,813,750,0
394701,620.88,813,755,0
394711,651.90,813,751,0
394721,677.47,813,754,0
394731,696.15,813,750,0
394741,709.22,813,755,0
394752,717.42,813,750,0
394761,721.37,813,755,0
394771,720.06,813,750,0
394781,713.65,813,755,0
394791,701.20,813,751,0
394801,683.27,813,754,0
394811,659.23,813,750,0
394821,630.62,813,755,0
394831,597.95,813,750,0
394841,563.89,813,754,0
394851,529.00,813,751,0
394861,495.74,813,754,0
394871,464.10,813,751,0
394881,435.92,813,754,0
394891,411.08,813,750,0
394901,390.96,813,755,0
394911,374.77,813,751,0
394921,363.35,813,754,0
394931,355.28,813,751,0
394941,351.21,813,755,0
394951,349.77,813,751,0
394961,351.08,813,754,0
394971,353.46,813,750,0
394981,357.35,813,755,0
394991,361.23,813,751,0
395001,365.70,813,755,0
395011,369.14,813,751,0
395021,371.97,813,755,0
395031,373.01,813,750,0
395041,373.00,813,754,0
395052,371.07,813,751,0
395062,368.18,813,755,0
395072,363.58,813,751,0
395082,358.57,813,754,0
395092,352.70,813,751,0
395102,347.00,813,754,0
395112,341.00,813,751,0
395122,335.64,813,754,0
395132,330.39,813,751,0
395142,326.29,813,754,0
395152,322.47,813,751,0
395162,319.97,813,754,0
395172,318.10,813,752,0
395182,317.72,813,754,0
395192,317.76,813,751,0
395202,318.99,813,754,0
395212,320.45,813,751,0
395223,322.93,813,755,0
395233,325.35,813,752,0
395243,328.55,813,754,0
395253,331.43,813,752,0
395264,334.77,813,754,0
395273,337.58,813,752,0
395283,340.79,813,754,0
395293,343.64,813,752,0
395303,346.66,813,755,0
395313,349.12,813,752,0
395323,351.70,813,754,0
395333,353.89,813,752,0
395343,356.24,813,754,0
395353,357.84,813,752,0
395363,359.30,813,754,0
395373,360.07,813,752,0
395383,360.73,813,754,0
395393,360.56,813,752,0
395403,360.22,813,754,0
395413,359.42,813,752,0
395423,359.21,813,754,0
395433,359.40,813,753,0
395443,361.25,813,754,0
395453,365.04,813,752,0
395463,372.52,813,754,0
395473,384.28,813,753,0
395483,401.55,813,754,0
395502,424.32,853,753,0
395505,453.06,853,755,0
395514,487.33,853,754,0
395524,525.03,853,754,0
395534,563.29,853,753,0
395544,599.93,853,754,0
395554,633.13,853,754,0
395564,661.67,853,754,0
395574,684.57,853,753,0
395584,701.11,853,754,0
395594,712.27,853,754,0
395604,718.19,853,754,0
395614,718.82,853,753,0
395624,714.03,853,754,0
395634,703.39,853,754,0
395644,686.77,853,754,0
395654,664.17,853,753,0
395664,636.09,853,754,0
395674,604.31,853,754,0
395684,570.53,853,754,0
395694,536.08,853,753,0
395704,502.46,853,754,0
395714,470.82,853,754,0
395724,442.12,853,754,0
395735,417.10,853,754,0
395745,395.94,853,754,0
395755,378.94,853,754,0
395765,365.93,853,753,0
395776,357.12,853,754,0
395785,352.12,853,754,0
395795,350.71,853,755,0
395805,352.08,853,753,0
395815,355.83,853,754,0
395825,360.94,853,754,0
395835,366.96,853,755,0
395845,373.01,853,753,0
395855,378.67,853,754,0
395865,383.22,853,754,0
395875,386.58,853,754,0
395885,388.34,853,753,0
395895,388.67,853,754,0
395905,387.52,853,754,0
395915,385.09,853,755,0
395925,381.34,853,753,0
395935,376.69,853,754,0
395945,371.13,853,753,0
395955,365.43,853,755,0
395965,359.52,853,753,0
395975,353.88,853,754,0
395985,348.30,853,753,0
395995,343.45,853,755,0
396005,339.03,853,753,0
396015,335.46,853,754,0
396025,332.28,853,753,0
396035,329.93,853,755,0
396045,328.19,853,753,0
396055,327.36,853,754,0
396065,326.95,853,753,0
396076,327.27,853,755,0
396086,327.92,853,752,0
396096,329.10,853,754,0
396106,330.18,853,752,0
396116,331.46,853,755,0
396126,332.69,853,752,0
396136,334.20,853,754,0
396146,335.34,853,752,0
396156,336.78,853,755,0
396166,337.92,853,752,0
396176,339.44,853,754,0
396186,340.47,853,752,0
396196,341.57,853,755,0
396206,342.04,853,752,0
396216,342.63,853,755,0
396226,342.65,853,752,0
396236,342.84,853,755,0
396247,342.55,853,752,0
396257,342.64,853,754,0
396267,342.45,853,751,0
396277,343.09,853,755,0
396288,344.35,853,751,0
396297,347.46,853,754,0
396307,352.68,853,751,0
396317,361.77,853,755,0
396327,375.04,853,751,0
396346,393.84,844,750,0
396349,418.06,844,750,0
396358,448.73,844,755,0
396368,484.30,844,751,0
396378,523.08,844,755,0
396388,561.93,844,751,0
396398,599.11,844,755,0
396408,632.63,844,751,0
396418,661.46,844,755,0
396428,684.03,844,751,0
396438,700.69,844,754,0
396448,711.07,844,751,0
396459,715.89,844,755,0
396468,714.77,844,751,0
396478,708.07,844,754,0
396488,695.15,844,750,0
396498,676.46,844,754,0
396508,651.81,844,751,0
396518,622.98,844,754,0
396528,590.84,844,751,0
396538,557.63,844,754,0
396548,524.01,844,751,0
396558,492.17,844,754,0
396568,462.25,844,751,0
396578,435.73,844,754,0
396588,412.45,844,751,0
396598,393.55,844,754,0
396608,378.34,844,751,0
396618,367.65,844,754,0
396628,360.13,844,750,0
396638,356.36,844,754,0
396648,355.10,844,751,0
396658,356.74,844,754,0
396668,359.65,844,751,0
396678,364.17,844,754,0
396688,368.57,844,751,0
396698,373.46,844,754,0
396708,377.39,844,751,0
396718,380.70,844,754,0
396728,382.21,844,751,0
396738,382.83,844,754,0
396748,381.55,844,751,0
396759,379.46,844,754,0
396769,375.85,844,751,0
396779,371.87,844,754,0
396789,367.02,844,751,0
396800,362.34,844,754,0
396809,357.23,844,751,0
396819,352.87,844,754,0
396829,348.45,844,751,0
396839,344.97,844,754,0
396849,341.60,844,751,0
396859,339.36,844,754,0
396869,337.41,844,751,0
396879,336.39,844,754,0
396889,335.28,844,751,0
396899,335.16,844,754,0
396909,335.11,844,751,0
396919,335.89,844,754,0
396929,336.48,844,751,0
396939,337.88,844,754,0
396949,339.37,844,751,0
396959,341.75,844,754,0
396969,343.97,844,752,0
396979,346.68,844,754,0
396989,349.04,844,751,0
396999,351.77,844,754,0
397009,353.90,844,752,0
397019,356.16,844,754,0
397029,357.57,844,751,0
397039,358.98,844,754,0
397049,359.63,844,752,0
397059,360.38,844,754,0
397069,360.40,844,751,0
397079,360.41,844,754,0
397089,359.90,844,752,0
397100,360.40,844,754,0
397110,361.74,844,752,0
397120,365.46,844,754,0
397130,371.96,844,753,0
397140,383.08,844,754,0
397150,399.25,844,752,0
397169,421.89,823,751,0
397172,450.25,823,755,0
397181,484.85,823,754,0
397191,522.74,823,753,0
397201,561.43,823,754,0
397211,598.50,823,754,0
397221,632.38,823,754,0
397231,661.24,823,753,0
397241,684.48,823,754,0
397251,701.05,823,754,0
397261,712.65,823,754,0
397271,719.53,823,753,0
397281,721.60,823,754,0
397291,718.20,823,754,0
397301,709.10,823,754,0
397312,693.90,823,754,0
397321,672.84,823,754,0
397331,645.80,823,754,0
397341,614.32,823,754,0
397351,579.81,823,754,0
397361,544.51,823,754,0
397371,509.77,823,754,0
397381,477.10,823,754,0
397391,447.37,823,754,0
397401,421.59,823,754,0
397411,400.32,823,754,0
397421,383.94,823,754,0
397431,372.17,823,754,0
397441,364.79,823,754,0
397451,361.30,823,753,0
397461,361.08,823,754,0
397471,363.37,823,754,0
397481,367.46,823,754,0
397491,372.51,823,753,0
397501,377.97,823,754,0
397511,383.29,823,754,0
397521,388.00,823,754,0
397531,391.65,823,753,0
397541,394.02,823,754,0
397551,395.05,823,754,0
397561,394.60,823,754,0
397571,392.79,823,754,0
397581,389.86,823,754,0
397591,386.00,823,754,0
397601,381.41,823,754,0
397612,376.45,823,754,0
397622,371.21,823,753,0
397632,366.26,823,754,0
397642,361.38,823,753,0
397652,356.85,823,754,0
397662,352.61,823,753,0
397672,349.09,823,754,0
397682,346.06,823,753,0
397692,343.77,823,754,0
397702,342.08,823,753,0
397712,341.29,823,754,0
397722,341.03,823,753,0
397732,341.58,823,754,0
397742,342.56,823,753,0
397752,344.24,823,754,0
397762,346.01,823,753,0
397772,348.02,823,754,0
397783,349.77,823,753,0
397793,351.68,823,755,0
397803,353.11,823,752,0
397813,354.36,823,754,0
397824,354.81,823,752,0
397833,355.38,823,755,0
397843,355.44,823,752,0
397853,355.65,823,754,0
397863,355.20,823,752,0
397873,355.10,823,755,0
397883,354.68,823,752,0
397893,354.99,823,754,0
397903,355.59,823,752,0
397913,357.82,823,754,0
397923,361.94,823,752,0
397933,369.80,823,754,0
397943,381.69,823,751,0
397953,399.27,823,754,0
397963,422.72,823,752,0
397982,452.72,813,750,0
397985,487.73,813,751,0
397995,526.04,813,755,0
398004,564.64,813,751,0
398014,601.61,813,755,0
398024,634.85,813,751,0
398034,663.14,813,755,0
398044,685.21,813,751,0
398054,701.48,813,754,0
398064,712.82,813,751,0
398074,720.80,813,755,0
398084,724.63,813,751,0
398094,724.01,813,754,0
398104,717.92,813,751,0
398114,706.38,813,754,0
398124,688.91,813,751,0
398134,665.71,813,754,0
398144,636.39,813,751,0
398154,603.53,813,755,0
398164,568.23,813,751,0
398174,532.98,813,754,0
398184,498.31,813,751,0
398194,466.12,813,754,0
398204,436.77,813,751,0
398214,411.94,813,754,0
398224,391.09,813,751,0
398234,375.29,813,754,0
398244,363.54,813,751,0
398254,356.61,813,754,0
398264,353.08,813,751,0
398274,353.36,813,754,0
398284,355.74,813,750,0
398295,360.44,813,754,0
398305,365.71,813,750,0
398315,371.80,813,754,0
398325,377.22,813,750,0
398336,382.34,813,754,0
398345,385.88,813,750,0
398355,388.49,813,754,0
398365,389.28,813,750,0
398375,389.11,813,754,0
398385,387.28,813,750,0
398395,384.75,813,754,0
398405,380.97,813,750,0
398415,376.91,813,754,0
398425,371.96,813,750,0
398435,367.17,813,755,0
398445,361.94,813,750,0
398455,357.33,813,754,0
398465,352.64,813,750,0
398475,348.85,813,754,0
398485,345.12,813,750,0
398495,342.56,813,754,0
398505,340.20,813,750,0
398515,339.07,813,755,0
398525,338.24,813,750,0
398535,338.47,813,754,0
398545,338.84,813,750,0
398555,340.13,813,755,0
398565,341.33,813,750,0
398575,343.33,813,754,0
398585,345.16,813,750,0
398595,347.43,813,754,0
398605,349.23,813,750,0
398615,351.47,813,754,0
398625,353.30,813,750,0
398636,355.44,813,754,0
398646,356.85,813,751,0
398656,358.27,813,754,0
398666,359.00,813,751,0
398676,359.99,813,754,0
398686,360.29,813,751,0
398696,361.19,813,754,0
398706,362.42,813,751,0
398716,365.85,813,754,0
398726,371.47,813,751,0
398736,381.18,813,754,0
398746,395.40,813,751,0
398756,415.85,813,754,0
398766,441.91,813,751,0
398785,474.12,803,750,0
398788,510.43,803,755,0
398797,548.74,803,754,0
398807,586.23,803,752,0
398817,621.14,803,754,0
398827,651.39,803,752,0
398837,676.48,803,754,0
398848,695.40,803,753,0
398857,708.74,803,754,0
398867,717.13,803,752,0
398877,720.56,803,754,0
398887,718.47,803,753,0
398897,710.96,803,754,0
398907,697.38,803,752,0
398917,677.77,803,754,0
398927,651.91,803,753,0
398937,621.51,803,754,0
398947,587.88,803,752,0
398957,553.12,803,754,0
398967,518.24,803,753,0
398977,485.30,803,754,0
398987,454.95,803,752,0
398997,428.44,803,754,0
399007,405.68,803,753,0
399017,387.43,803,754,0
399027,373.54,803,752,0
399037,364.12,803,754,0
399047,358.34,803,753,0
399057,356.27,803,754,0
399067,356.96,803,752,0
399077,360.01,803,754,0
399087,364.34,803,753,0
399097,369.59,803,754,0
399107,374.77,803,752,0
399117,379.86,803,754,0
399127,383.88,803,753,0
399137,386.92,803,754,0
399148,388.44,803,753,0
399158,388.70,803,754,0
399168,387.59,803,754,0
399178,385.48,803,754,0
399188,382.17,803,754,0
399198,378.22,803,754,0
399208,373.69,803,754,0
399218,368.94,803,754,0
399228,364.25,803,754,0
399238,359.72,803,754,0
399248,355.56,803,754,0
399258,351.79,803,754,0
399268,348.55,803,754,0
399278,345.94,803,754,0
399288,343.99,803,754,0
399298,342.49,803,754,0
399308,341.49,803,754,0
399319,340.83,803,754,0
399329,340.75,803,754,0
399339,341.08,803,753,0
399349,341.79,803,754,0
399360,342.79,803,753,0
399369,344.48,803,754,0
399379,346.57,803,753,0
399389,349.01,803,754,0
399399,351.28,803,753,0
399409,353.42,803,754,0
399419,355.35,803,753,0
399429,357.39,803,754,0
399439,359.07,803,753,0
399449,361.19,803,754,0
399459,364.18,803,753,0
399469,369.31,803,754,0
399479,377.32,803,752,0
399489,389.39,803,754,0
399499,406.42,803,753,0
399509,429.56,803,754,0
399519,458.37,803,753,0
399529,492.71,803,755,0
399548,530.04,763,754,0
399551,567.96,763,756,0
399560,604.23,763,751,0
399570,637.03,763,755,0
399580,664.71,763,752,0
399590,686.74,763,754,0
399600,702.55,763,751,0
399610,712.88,763,754,0
399620,717.80,763,752,0
399630,717.48,763,754,0
399640,711.20,763,751,0
399650,699.27,763,754,0
399660,681.36,763,752,0
399670,657.81,763,754,0
399680,628.98,763,751,0
399690,597.14,763,755,0
399700,563.07,763,751,0
399710,529.24,763,754,0
399720,496.04,763,751,0
399730,465.04,763,754,0
399740,436.49,763,751,0
399750,412.00,763,754,0
399760,391.13,763,752,0
399770,374.93,763,754,0
399780,362.52,763,751,0
399790,354.61,763,754,0
399800,350.31,763,751,0
399810,349.83,763,755,0
399820,351.77,763,751,0
399831,356.12,763,754,0
399841,361.44,763,751,0
399851,367.74,763,755,0
399861,373.52,763,751,0
399872,378.98,763,754,0
399881,382.97,763,751,0
399891,386.06,763,754,0
399901,387.20,763,751,0
399911,387.27,763,754,0
399921,385.47,763,751,0
399931,382.93,763,754,0
399941,378.97,763,751,0
399951,374.73,763,754,0
399961,369.54,763,751,0
399971,364.58,763,755,0
399981,359.22,763,751,0
399991,354.57,763,754,0
400001,349.94,763,751,0
400011,346.32,763,755,0
400021,342.88,763,751,0
400031,340.60,763,754,0
400041,338.71,763,750,0
400051,337.98,763,755,0
400061,337.43,763,751,0
400071,337.90,763,754,0
400081,338.36,763,750,0
400091,339.75,763,755,0
400101,340.98,763,751,0
400111,342.96,763,754,0
400121,344.60,763,750,0
400131,346.86,763,755,0
400141,348.75,763,751,0
400151,351.05,763,754,0
400161,352.71,763,750,0
400172,354.55,763,755,0
400182,355.63,763,750,0
400192,356.85,763,754,0
400202,357.37,763,750,0
400212,357.94,763,755,0
400222,357.96,763,750,0
400232,358.44,763,754,0
400242,359.13,763,750,0
400252,361.44,763,754,0
400262,365.47,763,750,0
400272,373.17,763,754,0
400282,384.95,763,750,0
400292,402.88,763,755,0
400302,426.57,763,750,0
400321,457.17,773,749,0
400324,493.03,773,753,0
400333,531.94,773,755,0
400343,570.83,773,751,0
400353,607.91,773,754,0
400363,640.68,773,751,0
400373,668.46,773,754,0
400384,689.71,773,752,0
400393,704.80,773,754,0
400403,715.36,773,751,0
400413,722.75,773,755,0
400423,727.41,773,752,0
400433,728.74,773,754,0
400443,725.39,773,751,0
400453,716.92,773,754,0
400463,702.46,773,752,0
400473,682.22,773,754,0
400483,655.71,773,751,0
400493,624.08,773,754,0
400503,588.62,773,752,0
400513,552.17,773,754,0
400523,515.74,773,751,0
400533,481.53,773,754,0
400543,449.83,773,752,0
400553,422.41,773,754,0
400563,399.06,773,751,0
400573,380.87,773,754,0
400583,367.07,773,752,0
400593,358.17,773,754,0
400603,352.98,773,751,0
400613,351.61,773,754,0
400623,352.76,773,752,0
400633,356.30,773,754,0
400643,360.88,773,751,0
400653,366.32,773,754,0
400663,371.45,773,752,0
400673,376.37,773,754,0
400684,380.20,773,752,0
400694,383.10,773,754,0
400704,384.44,773,752,0
400714,384.44,773,754,0
400724,382.85,773,753,0
400734,380.37,773,754,0
400744,376.78,773,753,0
400754,372.82,773,754,0
400764,368.33,773,753,0
400774,363.86,773,754,0
400784,359.45,773,752,0
400794,355.58,773,754,0
400804,352.02,773,753,0
400814,349.27,773,754,0
400824,346.88,773,753,0
400834,345.16,773,754,0
400844,344.00,773,753,0
400855,343.48,773,754,0
400865,343.42,773,754,0
400875,343.85,773,754,0
400885,344.50,773,754,0
400896,345.42,773,754,0
400905,346.62,773,754,0
400915,347.98,773,754,0
400925,349.36,773,754,0
400935,350.54,773,753,0
400945,351.57,773,754,0
400955,352.47,773,754,0
400965,353.40,773,754,0
400975,354.14,773,753,0
400985,354.70,773,754,0
400995,355.35,773,754,0
401005,356.06,773,754,0
401015,356.72,773,754,0
401025,357.28,773,754,0
401035,357.67,773,754,0
401045,358.15,773,754,0
401055,358.92,773,754,0
401065,360.44,773,754,0
401075,363.40,773,754,0
401085,368.85,773,754,0
401095,377.89,773,754,0
401105,391.85,773,754,0
401115,411.36,773,754,0
401134,437.13,813,753,0
401137,468.72,813,752,0
401146,505.28,813,755,0
401156,543.81,813,753,0
401166,581.92,813,754,0
401176,617.35,813,753,0
401186,648.57,813,755,0
401196,674.29,813,754,0
401206,694.00,813,754,0
401216,707.80,813,753,0
401226,717.46,813,755,0
401236,724.22,813,753,0
401246,727.50,813,754,0
401256,726.23,813,753,0
401266,719.95,813,755,0
401276,707.79,813,752,0
401286,689.81,813,754,0
401296,665.48,813,753,0
401306,635.21,813,755,0
401316,600.48,813,752,0
401326,563.90,813,754,0
401336,526.60,813,753,0
401346,490.72,813,754,0
401356,457.08,813,753,0
401367,427.48,813,754,0
401377,402.05,813,752,0
401387,381.89,813,754,0
401397,366.33,813,752,0
401408,356.03,813,754,0
401417,350.02,813,752,0
401427,348.17,813,754,0
401437,349.06,813,751,0
401447,352.60,813,754,0
401457,357.31,813,752,0
401467,363.13,813,754,0
401477,368.62,813,751,0
401487,373.88,813,754,0
401497,377.90,813,752,0
401507,381.06,813,754,0
401517,382.33,813,751,0
401527,382.44,813,754,0
401537,380.85,813,752,0
401547,378.58,813,754,0
401557,375.19,813,751,0
401567,371.62,813,754,0
401577,367.45,813,751,0
401587,363.71,813,754,0
401597,359.77,813,751,0
401607,356.45,813,754,0
401617,352.93,813,751,0
401627,349.91,813,754,0
401637,346.85,813,751,0
401647,344.62,813,754,0
401657,342.59,813,751,0
401667,341.52,813,754,0
401677,340.85,813,751,0
401687,341.28,813,754,0
401697,342.01,813,751,0
401708,343.59,813,754,0
401718,345.04,813,751,0
401728,347.22,813,754,0
401738,349.17,813,750,0
401748,351.39,813,754,0
401758,353.07,813,751,0
401768,355.11,813,754,0
401778,356.45,813,750,0
401788,358.03,813,754,0
401798,358.62,813,751,0
401808,359.16,813,754,0
401818,358.68,813,750,0
401828,358.35,813,754,0
401838,357.35,813,751,0
401848,356.60,813,754,0
401858,355.35,813,750,0
401868,354.73,813,754,0
401879,353.91,813,750,0
401889,353.89,813,754,0
401899,353.84,813,750,0
401909,354.96,813,754,0
401920,357.16,813,751,0
401929,361.82,813,754,0
401939,369.16,813,750,0
401949,381.11,813,754,0
401969,398.09,834,753,0
401972,421.98,834,755,0
401981,452.33,834,752,0
401991,488.62,834,754,0
402001,527.65,834,752,0
402011,567.27,834,754,0
402021,604.90,834,752,0
402031,638.96,834,754,0
402041,667.26,834,752,0
402051,689.04,834,754,0
402061,704.33,834,752,0
402071,715.03,834,754,0
402081,722.13,834,752,0
402092,725.22,834,754,0
402102,723.44,834,753,0
402112,716.41,834,754,0
402122,703.43,834,753,0
402132,684.40,834,754,0
402142,659.21,834,753,0
402152,628.67,834,754,0
402162,594.44,834,753,0
402172,558.65,834,754,0
402182,522.71,834,753,0
402192,488.47,834,754,0
402202,456.92,834,753,0
402212,429.08,834,754,0
402222,405.32,834,753,0
402232,386.24,834,754,0
402242,371.81,834,753,0
402252,362.01,834,754,0
402263,356.35,834,754,0
402273,354.32,834,754,0
402283,355.34,834,754,0
402293,358.66,834,754,0
402304,363.52,834,754,0
402313,369.19,834,754,0
402323,374.88,834,754,0
402333,379.97,834,754,0
402343,384.14,834,754,0
402353,387.18,834,754,0
402363,388.93,834,754,0
402373,389.25,834,754,0
402383,388.23,834,754,0
402393,386.19,834,754,0
402403,383.30,834,754,0
402413,379.66,834,754,0
402423,375.52,834,754,0
402433,371.03,834,754,0
402443,366.57,834,754,0
402453,362.15,834,754,0
402463,358.04,834,754,0
402473,354.21,834,753,0
402483,351.15,834,754,0
402493,348.57,834,754,0
402503,346.77,834,754,0
402513,345.47,834,753,0
402523,344.90,834,754,0
402533,344.84,834,754,0
402543,345.49,834,754,0
402553,346.46,834,753,0
402563,347.82,834,754,0
402573,349.46,834,754,0
402583,351.42,834,754,0
402593,353.44,834,753,0
402604,355.62,834,755,0
402614,357.62,834,753,0
402624,359.75,834,754,0
402634,361.50,834,752,0
402644,363.15,834,755,0
402654,364.30,834,753,0
402664,365.28,834,754,0
402674,365.58,834,752,0
402684,365.79,834,755,0
402694,365.38,834,753,0
402704,365.27,834,754,0
402714,365.19,834,752,0
402724,366.20,834,754,0
402734,368.63,834,753,0
402744,373.97,834,754,0
402754,382.81,834,752,0
402764,396.84,834,754,0
402775,416.34,834,752,0
402794,442.21,826,750,0
402797,473.60,826,751,0
402806,509.81,826,755,0
402817,547.79,826,751,0
402827,585.36,826,754,0
402837,620.14,826,750,0
402847,650.74,826,755,0
402857,675.76,826,750,0
402867,695.03,826,754,0
402877,707.15,826,750,0
402887,712.89,826,754,0
402897,712.11,826,750,0
402907,705.52,826,754,0
402917,692.46,826,750,0
402927,673.51,826,754,0
402937,648.29,826,750,0
402947,618.89,826,754,0
402957,586.13,826,750,0
402967,552.37,826,754,0
402977,517.71,826,750,0
402988,484.41,826,754,0
402998,452.62,826,750,0
403008,424.32,826,754,0
403018,399.41,826,751,0
403028,379.49,826,754,0
403038,363.65,826,750,0
403048,353.00,826,754,0
403058,346.70,826,751,0
403068,345.12,826,754,0
403078,346.58,826,750,0
403088,351.04,826,754,0
403098,356.73,826,751,0
403108,363.97,826,754,0
403118,370.92,826,750,0
403128,377.76,826,754,0
403138,383.14,826,751,0
403148,387.47,826,754,0
403159,389.73,826,751,0
403169,390.50,826,754,0
403179,389.23,826,752,0
403189,386.85,826,754,0
403200,382.74,826,752,0
403209,377.93,826,754,0
403219,372.17,826,752,0
403229,366.54,826,754,0
403239,360.60,826,752,0
403249,355.10,826,754,0
403259,349.67,826,752,0
403269,345.14,826,754,0
403279,340.86,826,752,0
403289,337.64,826,754,0
403299,334.79,826,752,0
403309,333.14,826,754,0
403319,332.07,826,752,0
403329,332.31,826,754,0
403339,333.29,826,752,0
403349,335.60,826,754,0
403359,338.51,826,752,0
403369,342.47,826,754,0
403379,346.70,826,752,0
403389,351.55,826,754,0
403399,356.14,826,752,0
403409,360.73,826,754,0
403419,364.54,826,752,0
403429,367.80,826,754,0
403439,369.79,826,752,0
403449,371.01,826,754,0
403459,370.79,826,752,0
403469,369.91,826,754,0
403479,367.80,826,752,0
403489,365.16,826,754,0
403500,361.64,826,753,0
403510,358.23,826,754,0
403520,354.78,826,753,0
403530,352.40,826,754,0
403540,351.38,826,754,0
403550,353.07,826,754,0
403560,358.36,826,753,0
403570,368.92,826,754,0
403580,385.75,826,754,0
403590,409.91,826,754,0
403609,441.44,815,753,0
403612,479.19,815,753,0
403621,520.06,815,755,0
403631,561.40,815,754,0
403641,600.75,815,754,0
403651,635.93,815,754,0
403661,665.26,815,754,0
403671,687.64,815,754,0
403681,703.35,815,754,0
403691,714.34,815,754,0
403701,722.04,815,754,0
403712,727.43,815,753,0
403721,731.20,815,754,0
403731,733.84,815,754,0
403741,733.59,815,755,0
403751,728.74,815,753,0
403761,718.49,815,754,0
403771,702.01,815,753,0
403781,679.08,815,754,0
403791,649.53,815,753,0
403801,613.93,815,754,0
403811,574.95,815,753,0
403821,535.28,815,755,0
403831,496.75,815,753,0
403841,461.17,815,754,0
403851,429.70,815,754,0
403861,403.39,815,754,0
403871,382.58,815,753,0
403881,367.49,815,754,0
403891,357.78,815,754,0
403901,352.96,815,754,0
403911,352.33,815,753,0
403921,355.23,815,754,0
403931,360.78,815,754,0
403941,367.87,815,754,0
403951,375.41,815,753,0
403961,382.74,815,754,0
403971,388.99,815,754,0
403981,393.79,815,754,0
403991,396.68,815,753,0
404001,397.55,815,754,0
404012,396.23,815,753,0
404022,393.16,815,754,0
404032,388.18,815,752,0
404042,382.09,815,754,0
404052,374.82,815,752,0
404062,367.20,815,754,0
404072,359.43,815,752,0
404082,352.31,815,754,0
404092,345.70,815,752,0
404102,340.44,815,754,0
404112,336.23,815,752,0
404122,333.68,815,754,0
404132,332.02,815,752,0
404142,331.58,815,754,0
404152,331.84,815,753,0
404162,333.17,815,754,0
404172,334.83,815,752,0
404183,337.20,815,754,0
404193,339.58,815,752,0
404203,342.58,815,754,0
404213,345.36,815,751,0
404224,348.47,815,754,0
404233,351.03,815,752,0
404243,353.72,815,754,0
404253,355.60,815,751,0
404263,357.39,815,754,0
404273,358.26,815,752,0
404283,358.87,815,754,0
404293,358.35,815,752,0
404303,357.52,815,754,0
404313,355.69,815,752,0
404323,353.73,815,754,0
404333,351.02,815,751,0
404343,348.36,815,754,0
404353,345.51,815,752,0
404363,343.56,815,754,0
404373,342.40,815,751,0
404383,343.70,815,754,0
404393,347.86,815,751,0
404403,356.69,815,754,0
404413,370.62,815,751,0
404423,391.44,815,754,0
404443,418.91,833,753,0
404446,453.86,833,755,0
404455,493.46,833,751,0
404465,535.07,833,754,0
404475,575.76,833,751,0
404485,613.80,833,754,0
404495,646.82,833,751,0
404505,673.92,833,754,0
404515,693.74,833,751,0
404525,707.62,833,754,0
404535,717.33,833,751,0
404545,723.70,833,754,0
404555,725.46,833,751,0
404566,722.20,833,754,0
404575,713.05,833,751,0
404585,697.87,833,754,0
404595,676.01,833,751,0
404605,647.76,833,754,0
404615,613.76,833,751,0
404625,576.89,833,754,0
404635,538.35,833,751,0
404645,500.57,833,754,0
404655,464.32,833,751,0
404665,431.74,833,754,0
404675,403.10,833,751,0
404685,379.71,833,754,0
404695,361.03,833,751,0
404705,348.03,833,754,0
404715,339.62,833,751,0
404725,336.22,833,754,0
404736,336.24,833,751,0
404745,339.64,833,754,0
404755,344.55,833,751,0
404765,350.90,833,754,0
404775,357.01,833,751,0
404785,363.05,833,754,0
404795,367.75,833,751,0
404805,371.55,833,754,0
404815,373.66,833,751,0
404825,374.79,833,754,0
404835,374.30,833,751,0
404845,372.92,833,754,0
404855,370.03,833,751,0
404865,366.72,833,754,0
404875,362.56,833,751,0
404885,358.49,833,754,0
404895,353.89,833,751,0
404905,349.85,833,754,0
404915,345.82,833,751,0
404925,342.62,833,754,0
404935,339.35,833,750,0
404945,336.93,833,754,0
404955,334.55,833,750,0
404965,333.19,833,754,0
404975,332.06,833,751,0
404985,331.96,833,754,0
404995,332.23,833,750,0
405005,333.83,833,754,0
405015,335.51,833,751,0
405025,338.14,833,754,0
405036,340.67,833,751,0
405046,343.68,833,754,0
405056,346.22,833,752,0
405066,349.11,833,754,0
405076,351.44,833,752,0
405086,354.13,833,754,0
405096,356.06,833,752,0
405106,358.15,833,754,0
405116,359.56,833,752,0
405126,361.36,833,754,0
405136,362.37,833,752,0
405146,363.20,833,754,0
405156,363.44,833,752,0
405166,364.12,833,754,0
405176,364.81,833,752,0
405186,366.93,833,754,0
405196,370.38,833,752,0
405207,377.16,833,754,0
405217,387.57,833,752,0
405227,403.17,833,754,0
405246,424.21,804,753,0
405250,451.44,804,754,0
405259,484.53,804,754,0
405269,521.48,804,753,0
405279,559.31,804,755,0
405289,596.24,804,753,0
405299,629.99,804,754,0
405309,659.26,804,754,0
405319,682.88,804,754,0
405329,700.02,804,753,0
405339,712.01,804,754,0
405349,719.08,804,753,0
405359,720.81,804,754,0
405369,716.63,804,753,0
405379,706.58,804,754,0
405389,690.38,804,753,0
405399,667.72,804,754,0
405409,638.75,804,753,0
405420,605.31,804,754,0
405430,569.30,804,753,0
405440,532.91,804,754,0
405450,497.07,804,752,0
405460,463.49,804,754,0
405470,433.43,804,753,0
405480,407.80,804,754,0
405490,386.60,804,752,0
405500,370.52,804,754,0
405510,359.18,804,753,0
405520,352.65,804,754,0
405530,349.89,804,752,0
405540,350.73,804,754,0
405550,353.90,804,753,0
405560,359.24,804,754,0
405570,365.39,804,752,0
405580,372.00,804,754,0
405591,377.96,804,752,0
405601,383.45,804,754,0
405611,387.22,804,751,0
405621,389.85,804,754,0
405632,390.50,804,751,0
405641,389.92,804,754,0
405651,387.46,804,752,0
405661,384.19,804,754,0
405671,379.59,804,751,0
405681,374.74,804,754,0
405691,369.21,804,752,0
405701,364.04,804,754,0
405711,358.59,804,751,0
405721,353.91,804,754,0
405731,349.31,804,752,0
405741,345.70,804,754,0
405751,342.32,804,751,0
405761,340.04,804,754,0
405771,338.06,804,752,0
405781,337.22,804,754,0
405791,336.56,804,751,0
405801,336.82,804,754,0
405811,337.04,804,752,0
405821,338.10,804,754,0
405831,339.06,804,751,0
405841,340.63,804,754,0
405851,341.81,804,752,0
405861,343.45,804,754,0
405871,344.69,804,751,0
405881,346.24,804,754,0
405891,347.24,804,752,0
405901,348.37,804,754,0
405911,348.81,804,751,0
405921,349.51,804,754,0
405932,349.62,804,751,0
405942,350.20,804,754,0
405952,351.17,804,751,0
405962,354.38,804,754,0
405972,360.13,804,751,0
405982,370.34,804,754,0
405992,385.28,804,751,0
406002,406.92,804,754,0
406012,434.85,804,751,0
406022,469.31,804,754,0
406041,507.74,795,753,0
406044,547.72,795,754,0
406053,586.46,795,751,0
406063,622.28,795,754,0
406073,653.10,795,751,0
406083,678.18,795,754,0
406093,696.77,795,751,0
406103,709.78,795,754,0
406113,718.38,795,751,0
406123,722.55,795,754,0
406133,721.27,795,751,0
406144,714.50,795,754,0
406153,701.67,795,751,0
406163,682.95,795,754,0
406173,657.85,795,751,0
406183,627.47,795,754,0
406193,593.04,795,751,0
406203,557.07,795,754,0
406213,520.11,795,751,0
406223,484.29,795,754,0
406233,450.13,795,751,0
406243,419.58,795,754,0
406253,392.58,795,751,0
406263,370.46,795,754,0
406273,352.62,795,751,0
406283,340.22,795,754,0
406293,332.05,795,751,0
406303,328.40,795,754,0
406313,328.11,795,751,0
406323,330.95,795,754,0
406333,335.33,795,751,0
406343,341.58,795,754,0
406353,348.05,795,751,0
406363,355.06,795,754,0
406373,361.30,795,751,0
406383,366.78,795,754,0
406393,370.66,795,751,0
406403,373.51,795,754,0
406413,374.51,795,751,0
406423,374.53,795,754,0
406433,372.70,795,751,0
406444,370.13,795,754,0
406454,366.28,795,751,0
406464,362.21,795,754,0
406474,357.47,795,752,0
406484,352.96,795,754,0
406494,348.09,795,751,0
406504,343.95,795,754,0
406514,339.89,795,752,0
406524,336.80,795,754,0
406534,334.07,795,751,0
406544,332.29,795,754,0
406554,330.96,795,752,0
406564,330.63,795,754,0
406574,330.61,795,751,0
406584,331.59,795,754,0
406594,332.78,795,752,0
406604,334.73,795,754,0
406615,336.53,795,752,0
406625,338.60,795,754,0
406635,340.43,795,753,0
406645,342.36,795,754,0
406656,343.75,795,753,0
406665,345.11,795,754,0
406675,345.68,795,753,0
406685,346.37,795,754,0
406695,346.61,795,753,0
406705,346.90,795,754,0
406715,346.84,795,753,0
406725,346.72,795,754,0
406735,346.33,795,753,0
406745,346.40,795,754,0
406755,346.75,795,753,0
406765,348.37,795,754,0
406775,351.82,795,753,0
406785,358.30,795,754,0
406795,368.75,795,753,0
406805,384.68,795,753,0
406815,406.55,795,753,0
406835,435.06,793,752,0
406838,469.50,793,754,0
406847,508.00,793,752,0
406857,547.86,793,753,0
406867,586.73,793,752,0
406877,622.25,793,753,0
406887,652.99,793,751,0
406897,677.59,793,752,0
406907,693.27,793,750,0
406917,699.53,793,750,0
406927,695.86,793,748,0
406937,682.57,793,750,0
406947,662.90,793,750,0
406957,641.89,793,754,0
406967,621.48,793,752,0
406977,610.11,793,762,0
406987,607.25,793,754,0
406998,613.82,793,766,0
407007,629.64,793,765,0
407017,651.39,793,762,0
407027,672.83,793,758,0
407037,685.14,793,763,0
407047,690.67,793,763,0
407057,690.47,793,764,0
407067,684.16,793,763,0
407077,670.44,793,764,0
407087,649.44,793,762,0
407097,618.49,793,757,0
407107,577.16,793,754,0
407117,524.40,793,758,0
407127,463.38,793,756,0
407137,394.74,793,755,0
407147,324.53,793,755,0
407157,259.87,793,758,0
407168,208.99,793,757,0
407177,182.47,793,760,0
407187,173.93,793,759,0
407197,182.13,793,761,0
407207,206.31,793,759,0
407217,242.82,793,761,0
407227,283.37,793,759,0
407237,323.12,793,760,0
407247,358.87,793,757,0
407257,386.81,793,766,0
407267,417.81,793,767,0
407277,452.41,793,769,0
407287,487.04,793,767,0
407297,521.06,793,769,0
407307,552.71,793,767,0
407317,580.01,793,769,0
407327,604.09,793,767,0
407337,611.74,793,768,0
407347,603.55,793,767,0
407357,583.24,793,768,0
407367,553.12,793,766,0
407377,516.70,793,768,0
407387,476.46,793,765,0
407397,435.65,793,768,0
407407,396.20,793,765,0
407417,360.18,793,767,0
407427,327.56,793,764,0
407437,299.88,793,766,0
407447,276.56,793,764,0
407457,258.65,793,766,0
407468,243.28,793,760,0
407478,229.78,793,763,0
407488,218.23,793,760,0
407498,209.89,793,763,0
407508,203.67,793,759,0
407518,200.51,793,762,0
407528,198.56,793,760,0
407538,202.29,793,763,0
407548,211.42,793,759,0
407558,222.43,793,761,0
407568,233.32,793,758,0
407578,244.79,793,761,0
407588,256.08,793,758,0
407598,271.27,793,763,0
407608,288.63,793,760,0
407618,310.00,793,763,0
407628,337.77,793,760,0
407639,373.75,793,763,0
407649,416.86,793,760,0
407659,465.97,793,763,0
407669,515.48,793,759,0
407680,562.86,793,763,0
407689,605.63,793,760,0
407699,642.82,793,763,0
407709,672.66,793,760,0
407719,695.13,793,763,0
407729,710.86,793,760,0
407739,721.96,793,764,0
407749,729.73,793,760,0
407759,735.25,793,764,0
407778,739.12,944,763,0
407781,740.76,944,764,0
407790,738.94,944,760,0
407800,732.49,944,764,0
407810,719.96,944,760,0
407820,701.33,944,764,0
407830,675.51,944,760,0
407840,643.39,944,764,0
407851,605.86,944,760,0
407860,565.74,944,764,0
407870,524.55,944,760,0
407880,485.38,944,764,0
407890,448.67,944,760,0
407900,417.05,944,764,0
407910,389.99,944,760,0
407920,369.08,944,764,0
407930,353.11,944,760,0
407940,343.18,944,764,0
407950,337.47,944,760,0
407960,336.47,944,764,0
407970,338.13,944,760,0
407980,342.81,944,764,0
407990,348.26,944,760,0
408000,354.74,944,764,0
408010,360.18,944,760,0
408020,365.27,944,764,0
408030,368.57,944,760,0
408040,371.23,944,764,0
408050,371.85,944,760,0
408060,371.89,944,764,0
408070,370.47,944,760,0
408080,368.87,944,764,0
408090,365.95,944,760,0
408100,363.31,944,764,0
408110,359.53,944,760,0
408120,356.24,944,765,0
408130,352.48,944,760,0
408140,349.51,944,764,0
408151,346.27,944,761,0
408161,344.13,944,765,0
408171,341.99,944,761,0
408181,341.31,944,764,0
408192,340.92,944,762,0
408201,341.67,944,765,0
408211,342.33,944,761,0
408221,343.77,944,764,0
408231,344.87,944,762,0
408241,346.37,944,764,0
408251,347.16,944,761,0
408261,348.14,944,764,0
408271,348.35,944,762,0
408281,348.93,944,764,0
408291,349.04,944,761,0
408301,349.71,944,764,0
408311,349.88,944,762,0
408321,350.52,944,764,0
408331,350.58,944,761,0
408341,351.09,944,764,0
408351,351.23,944,762,0
408361,352.36,944,764,0
408371,354.23,944,761,0
408381,358.70,944,764,0
408391,365.99,944,761,0
408401,378.12,944,764,0
408411,395.27,944,761,0
408421,419.40,944,764,0
408440,449.50,662,763,0
408443,485.86,662,765,0
408452,525.42,662,762,0
408462,565.79,662,764,0
408472,604.30,662,763,0
408482,639.39,662,764,0
408492,668.80,662,762,0
408502,692.43,662,764,0
408512,709.40,662,763,0
408522,721.28,662,764,0
408532,727.58,662,763,0
408542,728.57,662,764,0
408552,723.47,662,763,0
408562,712.31,662,764,0
408572,694.60,662,763,0
408582,670.85,662,764,0
408592,640.81,662,763,0
408602,607.10,662,764,0
408612,571.02,662,763,0
408622,535.19,662,764,0
408632,500.33,662,763,0
408642,468.22,662,764,0
408652,438.97,662,763,0
408663,413.73,662,764,0
408673,392.73,662,764,0
408683,376.40,662,764,0
408693,364.02,662,764,0
408704,355.87,662,764,0
408713,351.28,662,763,0
408723,349.95,662,764,0
408733,351.17,662,764,0
408743,354.20,662,763,0
408753,357.87,662,763,0
408763,362.02,662,763,0
408773,365.92,662,764,0
408783,369.46,662,764,0
408793,372.58,662,763,0
408803,375.19,662,764,0
408813,377.10,662,764,0
408823,378.36,662,764,0
408833,378.47,662,763,0
408843,377.77,662,764,0
408853,376.04,662,764,0
408863,373.33,662,764,0
408873,369.89,662,764,0
408883,365.85,662,764,0
408893,361.44,662,764,0
408903,357.23,662,764,0
408913,353.48,662,764,0
408923,350.33,662,764,0
408933,347.66,662,764,0
408943,345.49,662,764,0
408953,343.89,662,764,0
408963,343.06,662,764,0
408973,342.70,662,764,0
408983,342.49,662,764,0
408993,342.43,662,764,0
409004,342.56,662,764,0
409014,342.69,662,765,0
409024,342.61,662,763,0
409034,342.56,662,765,0
409044,342.30,662,763,0
409054,342.60,662,765,0
409064,342.98,662,763,0
409074,343.54,662,765,0
409084,343.64,662,763,0
409094,344.04,662,765,0
409104,344.16,662,763,0
409114,344.71,662,765,0
409124,344.76,662,763,0
409134,345.17,662,765,0
409144,346.02,662,763,0
409154,348.54,662,765,0
409164,352.84,662,763,0
409175,360.34,662,765,0
409185,371.38,662,762,0
409195,387.90,662,765,0
409205,410.26,662,762,0
409216,439.62,662,765,0
409234,475.14,794,764,0
409237,514.78,794,766,0
409246,555.56,794,761,0
409256,595.46,794,765,0
409266,631.88,794,762,0
409276,663.37,794,765,0
409286,688.25,794,762,0
409296,706.52,794,765,0
409306,719.30,794,762,0
409316,728.30,794,765,0
409326,734.59,794,762,0
409336,738.62,794,765,0
409346,738.65,794,762,0
409356,734.34,794,765,0
409366,724.17,794,761,0
409376,708.04,794,765,0
409387,684.93,794,761,0
409396,655.59,794,765,0
409406,620.27,794,761,0
409416,582.26,794,764,0
409426,542.33,794,761,0
409436,503.79,794,765,0
409446,467.25,794,762,0
409456,435.08,794,765,0
409466,406.90,794,762,0
409476,384.38,794,765,0
409486,366.48,794,762,0
409496,354.34,794,765,0
409506,346.09,794,762,0
409516,342.38,794,765,0
409526,341.49,794,762,0
409536,343.79,794,765,0
409546,347.07,794,762,0
409556,351.89,794,765,0
409566,356.38,794,762,0
409576,361.37,794,765,0
409586,365.16,794,762,0
409596,368.62,794,765,0
409606,370.49,794,762,0
409616,371.93,794,765,0
409626,371.69,794,762,0
409636,371.14,794,765,0
409646,369.13,794,762,0
409656,367.08,794,765,0
409666,363.97,794,762,0
409676,361.28,794,765,0
409687,357.85,794,762,0
409697,355.24,794,765,0
409707,352.08,794,762,0
409717,349.91,794,765,0
409728,347.41,794,762,0
409737,346.09,794,765,0
409747,344.39,794,762,0
409757,343.84,794,765,0
409767,342.91,794,762,0
409777,343.15,794,765,0
409787,342.98,794,762,0
409797,343.88,794,765,0
409807,344.52,794,762,0
409817,346.16,794,765,0
409827,347.31,794,762,0
409837,349.41,794,766,0
409847,350.87,794,762,0
409857,352.97,794,766,0
409867,354.13,794,762,0
409877,355.42,794,766,0
409887,355.60,794,762,0
409897,356.02,794,765,0
409907,355.28,794,762,0
409917,355.03,794,766,0
409927,354.16,794,762,0
409937,354.37,794,765,0
409947,354.86,794,762,0
409957,358.03,794,766,0
409967,363.72,794,762,0
409977,374.48,794,766,0
409987,389.89,794,762,0
409997,412.38,794,766,0
410016,441.28,782,763,0
410019,474.88,782,764,0
410028,510.66,782,760,0
410038,548.43,782,764,0
410048,585.16,782,760,0
410058,619.70,782,763,0
410068,649.27,782,761,0
410078,673.11,782,764,0
410088,691.55,782,760,0
410098,704.67,782,763,0
410108,710.25,782,760,0
410118,709.62,782,764,0
410128,702.32,782,760,0
410138,689.28,782,763,0
410148,670.17,782,760,0
410158,647.02,782,764,0
410168,619.58,782,760,0
410178,590.74,782,763,0
410188,559.96,782,760,0
410199,529.16,782,764,0
410209,497.22,782,760,0
410219,466.17,782,763,0
410229,435.69,782,761,0
410240,408.18,782,763,0
410249,383.10,782,761,0
410259,362.67,782,763,0
410269,346.18,782,760,0
410279,335.16,782,763,0
410289,328.21,782,760,0
410299,325.88,782,762,0
410309,326.34,782,760,0
410319,329.80,782,762,0
410329,334.06,782,760,0
410339,339.44,782,762,0
410349,344.49,782,760,0
410359,349.92,782,762,0
410369,354.18,782,760,0
410379,357.82,782,762,0
410389,359.16,782,759,0
410399,358.60,782,761,0
410409,353.40,782,758,0
410419,343.81,782,759,0
410429,332.00,782,758,0
410439,320.60,782,760,0
410449,309.23,782,759,0
410459,299.35,782,760,0
410469,291.10,782,758,0
410479,287.86,782,761,0
410489,290.60,782,760,0
410499,296.59,782,760,0
410509,303.19,782,759,0
410519,311.57,782,761,0
410529,321.17,782,760,0
410540,331.83,782,761,0
410550,341.83,782,760,0
410560,351.01,782,761,0
410570,358.81,782,761,0
410580,365.76,782,761,0
410590,370.68,782,760,0
410600,374.16,782,762,0
410610,375.95,782,761,0
410620,376.83,782,761,0
410630,376.11,782,761,0
410640,374.62,782,761,0
410650,372.55,782,761,0
410660,370.41,782,761,0
410670,368.36,782,761,0
410680,365.47,782,762,0
410690,361.64,782,761,0
410700,357.46,782,761,0
410711,353.34,782,761,0
410721,349.64,782,761,0
410731,346.66,782,762,0
410741,344.58,782,761,0
410752,346.80,782,762,0
410761,353.89,782,762,0
410771,365.20,782,762,0
410781,381.04,782,760,0
410791,402.24,782,761,0
410801,429.17,782,761,0
410811,461.77,782,762,0
410821,498.14,782,760,0
410831,535.77,782,761,0
410841,573.77,782,761,0
410860,610.18,844,759,0
410863,643.17,844,759,0
410872,671.32,844,761,0
410882,693.55,844,760,0
410892,709.29,844,761,0
410902,720.26,844,759,0
410912,726.01,844,761,0
410923,726.05,844,759,0
410932,720.38,844,761,0
410942,708.44,844,759,0
410952,690.05,844,760,0
410962,664.83,844,758,0
410972,633.85,844,761,0
410982,599.01,844,759,0
410992,562.92,844,761,0
411002,526.35,844,758,0
411012,491.66,844,761,0
411022,459.79,844,759,0
411032,432.51,844,761,0
411042,409.26,844,758,0
411052,390.92,844,761,0
411062,376.72,844,759,0
411072,367.16,844,760,0
411082,360.85,844,758,0
411092,358.33,844,761,0
411102,358.19,844,759,0
411112,360.62,844,761,0
411122,364.07,844,758,0
411132,368.72,844,761,0
411142,373.35,844,759,0
411152,378.13,844,761,0
411162,381.56,844,758,0
411172,384.35,844,761,0
411182,385.57,844,759,0
411192,386.34,844,761,0
411202,386.16,844,759,0
411212,385.85,844,761,0
411223,384.78,844,759,0
411233,385.19,844,763,0
411243,386.38,844,760,0
411253,388.75,844,763,0
411264,390.71,844,760,0
411273,392.60,844,763,0
411283,393.36,844,760,0
411293,393.77,844,763,0
411303,391.31,844,759,0
411313,386.76,844,763,0
411323,379.67,844,759,0
411333,372.19,844,763,0
411343,363.39,844,759,0
411353,354.36,844,762,0
411363,344.82,844,759,0
411373,336.65,844,762,0
411383,329.08,844,759,0
411393,323.40,844,762,0
411403,318.35,844,759,0
411413,315.20,844,762,0
411423,313.21,844,758,0
411433,313.32,844,761,0
411443,314.17,844,758,0
411453,316.47,844,762,0
411463,319.03,844,758,0
411473,322.62,844,761,0
411483,326.08,844,758,0
411493,330.73,844,761,0
411503,335.01,844,758,0
411513,339.89,844,760,0
411523,345.58,844,761,0
411533,362.51,844,767,0
411543,390.21,844,764,0
411553,427.13,844,767,0
411564,469.61,844,764,0
411574,516.40,844,767,0
411584,565.44,844,764,0
411594,615.10,844,768,0
411614,654.67,753,767,0
411617,683.74,753,769,0
411626,704.09,753,765,0
411636,718.42,753,768,0
411646,728.45,753,765,0
411656,735.56,753,768,0
411666,740.53,753,765,0
411676,744.10,753,768,0
411686,746.60,753,764,0
411696,748.35,753,768,0
411706,749.53,753,765,0
411716,747.96,753,767,0
411726,740.68,753,765,0
411736,726.12,753,767,0
411746,703.11,753,764,0
411756,672.39,753,767,0
411766,634.09,753,765,0
411777,589.41,753,767,0
411787,541.46,753,765,0
411797,494.39,753,767,0
411807,450.26,753,765,0
411817,411.91,753,767,0
411827,379.79,753,765,0
411837,355.38,753,767,0
411847,338.17,753,766,0
411857,327.83,753,767,0
411867,323.47,753,765,0
411877,325.34,753,767,0
411887,331.03,753,766,0
411897,339.67,753,768,0
411907,349.24,753,765,0
411917,359.11,753,767,0
411927,368.85,753,766,0
411937,378.07,753,768,0
411948,385.16,753,767,0
411958,390.56,753,768,0
411968,393.30,753,767,0
411978,393.64,753,767,0
411988,390.88,753,767,0
411998,385.47,753,767,0
412008,378.00,753,767,0
412018,369.64,753,767,0
412028,361.09,753,767,0
412038,353.74,753,768,0
412048,347.69,753,767,0
412058,343.67,753,768,0
412068,341.24,753,767,0
412078,340.18,753,768,0
412088,340.13,753,767,0
412098,340.90,753,768,0
412108,341.62,753,767,0
412119,342.29,753,767,0
412129,343.10,753,768,0
412139,344.06,753,768,0
412149,345.03,753,768,0
412160,346.09,753,767,0
412169,347.31,753,768,0
412179,348.50,753,767,0
412189,349.81,753,768,0
412199,350.64,753,766,0
412209,350.79,753,767,0
412219,350.21,753,767,0
412229,349.59,753,768,0
412239,348.38,753,766,0
412249,347.20,753,767,0
412259,345.68,753,767,0
412269,344.88,753,768,0
412279,344.74,753,766,0
412289,346.36,753,767,0
412299,349.60,753,767,0
412309,355.89,753,768,0
412319,365.61,753,766,0
412329,380.51,753,767,0
412339,400.76,753,766,0
412349,427.66,753,767,0
412368,460.25,755,766,0
412371,498.19,755,768,0
412380,538.29,755,765,0
412390,578.44,755,767,0
412400,616.15,755,765,0
412410,649.84,755,767,0
412420,677.87,755,766,0
412430,699.81,755,768,0
412440,715.30,755,766,0
412450,726.22,755,768,0
412460,733.91,755,766,0
412470,739.38,755,768,0
412480,741.88,755,767,0
412490,740.67,755,769,0
412500,733.91,755,766,0
412510,721.38,755,769,0
412520,701.98,755,767,0
412530,675.72,755,769,0
412540,642.33,755,766,0
412550,604.30,755,769,0
412560,563.03,755,767,0
412570,521.83,755,769,0
412580,481.68,755,766,0
412590,445.44,755,769,0
412600,413.80,755,767,0
412610,388.41,755,769,0
412620,368.74,755,767,0
412631,355.62,755,769,0
412641,347.80,755,767,0
412651,345.33,755,769,0
412661,346.05,755,766,0
412672,349.98,755,769,0
412681,355.17,755,767,0
412691,361.50,755,769,0
412701,367.22,755,766,0
412711,372.90,755,769,0
412721,377.09,755,767,0
412731,380.79,755,769,0
412741,382.48,755,766,0
412751,383.11,755,769,0
412761,381.58,755,767,0
412771,378.96,755,769,0
412781,374.26,755,766,0
412791,369.12,755,769,0
412801,362.83,755,767,0
412811,356.88,755,769,0
412821,350.53,755,766,0
412831,345.19,755,769,0
412841,340.54,755,766,0
412851,337.68,755,769,0
412861,335.08,755,766,0
412871,333.77,755,769,0
412881,332.81,755,766,0
412891,333.08,755,769,0
412901,333.19,755,766,0
412911,333.90,755,770,0
412921,334.10,755,766,0
412931,335.31,755,770,0
412941,336.03,755,766,0
412951,337.14,755,770,0
412961,337.70,755,766,0
412972,339.12,755,769,0
412982,340.02,755,766,0
412992,341.65,755,770,0
413002,342.65,755,766,0
413012,344.30,755,769,0
413022,345.41,755,766,0
413032,346.92,755,770,0
413042,347.41,755,766,0
413052,348.23,755,769,0
413062,348.29,755,766,0
413072,349.10,755,770,0
413082,349.80,755,766,0
413092,352.52,755,769,0
413102,356.86,755,766,0
413112,365.35,755,769,0
413122,377.84,755,766,0
413132,396.92,755,769,0
413143,421.97,755,766,0
413162,454.47,794,764,0
413165,492.30,794,769,0
413174,533.48,794,769,0
413185,574.56,794,766,0
413195,613.95,794,769,0
413205,648.72,794,767,0
413215,678.04,794,768,0
413225,700.40,794,767,0
413235,716.22,794,768,0
413245,724.94,794,766,0
413255,726.59,794,767,0
413265,719.34,794,762,0
413275,699.48,794,763,0
413285,666.94,794,760,0
413295,631.38,794,767,0
413305,593.73,794,766,0
413315,556.78,794,767,0
413325,521.96,794,766,0
413335,491.37,794,766,0
413345,467.60,794,765,0
413356,452.68,794,767,0
413366,438.08,794,767,0
413376,424.21,794,767,0
413386,410.56,794,767,0
413396,397.49,794,767,0
413406,386.12,794,766,0
413416,378.75,794,767,0
413426,373.81,794,766,0
413436,374.25,794,769,0
413446,375.59,794,766,0
413456,377.64,794,767,0
413466,381.48,794,767,0
413476,386.09,794,767,0
413486,390.61,794,767,0
413496,395.14,794,767,0
413506,395.31,794,767,0
413516,394.79,794,767,0
413527,393.87,794,767,0
413537,390.99,794,767,0
413547,386.92,794,767,0
413557,382.06,794,767,0
413568,376.77,794,768,0
413577,371.78,794,768,0
413587,366.92,794,768,0
413597,362.01,794,767,0
413607,357.51,794,768,0
413617,353.11,794,767,0
413627,349.18,794,768,0
413637,345.23,794,767,0
413647,342.37,794,768,0
413657,340.50,794,768,0
413667,340.05,794,768,0
413677,340.42,794,768,0
413687,341.84,794,769,0
413697,343.64,794,768,0
413707,346.19,794,768,0
413717,348.19,794,768,0
413727,349.85,794,769,0
413737,350.84,794,767,0
413747,351.79,794,769,0
413757,352.58,794,768,0
413767,353.82,794,769,0
413777,355.03,794,768,0
413787,356.52,794,769,0
413797,357.87,794,768,0
413807,359.36,794,769,0
413817,360.37,794,768,0
413827,361.29,794,769,0
413837,361.71,794,768,0
413847,362.23,794,769,0
413857,362.76,794,768,0
413868,364.98,794,769,0
413878,369.18,794,768,0
413888,377.36,794,769,0
413898,389.98,794,767,0
413908,408.93,794,769,0
413918,434.23,794,768,0
413937,466.65,775,767,0
413940,504.13,775,767,0
413949,544.29,775,769,0
413959,584.10,775,767,0
413969,621.83,775,770,0
413979,654.97,775,767,0
413989,682.75,775,769,0
413999,703.87,775,767,0
414009,718.78,775,769,0
414019,729.17,775,766,0
414029,735.64,775,769,0
414039,736.99,775,767,0
414049,732.96,775,769,0
414059,722.30,775,766,0
414069,705.24,775,769,0
414080,680.78,775,766,0
414089,649.95,775,769,0
414099,613.28,775,766,0
414109,574.07,775,769,0
414119,533.29,775,766,0
414129,494.25,775,769,0
414139,457.44,775,766,0
414149,425.30,775,769,0
414159,397.09,775,766,0
414169,374.61,775,769,0
414179,356.94,775,766,0
414189,345.34,775,769,0
414199,338.17,775,766,0
414209,335.85,775,769,0
414219,336.66,775,766,0
414229,341.18,775,768,0
414239,347.25,775,766,0
414249,355.28,775,768,0
414259,363.34,775,766,0
414269,371.72,775,769,0
414279,378.66,775,766,0
414289,384.89,775,769,0
414299,388.87,775,766,0
414309,391.69,775,769,0
414319,391.70,775,766,0
414329,389.99,775,768,0
414339,386.01,775,767,0
414349,381.29,775,769,0
414359,375.16,775,766,0
414369,368.90,775,768,0
414380,361.64,775,766,0
414390,355.19,775,768,0
414400,348.79,775,766,0
414410,343.84,775,768,0
414420,339.43,775,766,0
414430,336.86,775,769,0
414440,335.02,775,766,0
414450,335.27,775,768,0
414460,336.00,775,766,0
