Time,PPG,IBI,GSR,GSR_Event
1109615,570.00,783,751,0
1109625,595.46,783,756,0
1109635,613.23,783,751,0
1109645,624.31,783,756,0
1109655,629.83,783,751,0
1109665,628.64,783,756,0
1109676,619.45,783,751,0
1109686,604.74,783,757,0
1109696,590.72,783,751,0
1109706,577.17,783,756,0
1109716,562.55,783,751,0
1109726,548.59,783,757,0
1109736,533.45,783,751,0
1109746,518.62,783,757,0
1109756,502.53,783,751,0
1109766,486.34,783,757,0
1109776,469.01,783,752,0
1109786,452.25,783,757,0
1109796,434.73,783,752,0
1109806,418.70,783,757,0
1109816,403.15,783,752,0
1109826,390.12,783,757,0
1109836,378.55,783,751,0
1109847,370.42,783,757,0
1109857,364.33,783,752,0
1109867,361.62,783,757,0
1109877,360.62,783,752,0
1109888,362.28,783,757,0
1109897,364.68,783,752,0
1109907,368.89,783,757,0
1109917,372.65,783,751,0
1109927,377.08,783,757,0
1109937,380.19,783,752,0
1109947,383.17,783,756,0
1109957,384.58,783,752,0
1109967,385.69,783,756,0
1109977,384.93,783,752,0
1109987,384.09,783,757,0
1109997,381.92,783,751,0
1110007,380.10,783,757,0
1110017,377.33,783,752,0
1110027,375.34,783,757,0
1110037,372.67,783,751,0
1110047,371.18,783,757,0
1110057,369.20,783,752,0
1110067,368.15,783,757,0
1110077,366.65,783,751,0
1110087,366.41,783,757,0
1110097,365.43,783,752,0
1110107,365.60,783,757,0
1110117,365.21,783,751,0
1110127,365.87,783,757,0
1110137,366.04,783,752,0
1110147,367.27,783,757,0
1110157,367.83,783,751,0
1110167,369.51,783,757,0
1110177,370.56,783,752,0
1110188,372.36,783,757,0
1110198,373.41,783,752,0
1110208,375.00,783,757,0
1110218,375.56,783,752,0
1110228,376.42,783,756,0
1110238,376.17,783,752,0
1110248,376.29,783,757,0
1110258,375.56,783,753,0
1110268,375.30,783,756,0
1110278,374.27,783,752,0
1110288,373.89,783,757,0
1110298,372.89,783,753,0
1110308,372.75,783,756,0
1110318,372.06,783,752,0
1110328,372.43,783,757,0
1110338,372.81,783,752,0
1110348,375.31,783,757,0
1110359,379.29,783,752,0
1110369,386.92,783,756,0
1110388,397.91,804,756,0
1110391,416.75,804,755,0
1110401,443.10,804,755,0
1110411,477.05,804,756,0
1110421,514.92,804,756,0
1110431,554.93,804,755,0
1110441,594.42,804,756,0
1110451,632.05,804,756,0
1110461,663.50,804,756,0
1110471,687.65,804,755,0
1110481,704.60,804,756,0
1110491,715.77,804,756,0
1110501,721.41,804,756,0
1110511,721.33,804,755,0
1110521,715.62,804,757,0
1110531,704.29,804,756,0
1110541,687.45,804,757,0
1110551,664.90,804,756,0
1110561,637.50,804,757,0
1110572,606.58,804,755,0
1110582,574.22,804,758,0
1110592,541.02,804,755,0
1110602,508.45,804,758,0
1110612,476.77,804,755,0
1110622,447.57,804,758,0
1110632,420.95,804,755,0
1110642,398.13,804,758,0
1110652,378.54,804,755,0
1110662,363.47,804,758,0
1110672,352.23,804,756,0
1110682,345.52,804,758,0
1110692,342.19,804,755,0
1110702,342.52,804,758,0
1110712,345.28,804,756,0
1110722,350.59,804,758,0
1110732,356.63,804,755,0
1110743,363.56,804,758,0
1110753,369.82,804,754,0
1110763,375.96,804,758,0
1110773,380.56,804,754,0
1110784,384.33,804,759,0
1110793,386.16,804,754,0
1110803,387.23,804,758,0
1110813,386.43,804,754,0
1110823,385.27,804,758,0
1110833,382.58,804,754,0
1110843,380.18,804,758,0
1110853,376.87,804,754,0
1110863,374.21,804,758,0
1110873,371.10,804,755,0
1110883,368.84,804,758,0
1110893,366.49,804,755,0
1110903,365.19,804,759,0
1110913,363.59,804,755,0
1110923,363.15,804,759,0
1110933,362.46,804,754,0
1110943,362.97,804,759,0
1110953,363.19,804,754,0
1110963,364.21,804,758,0
1110973,364.74,804,754,0
1110983,366.06,804,759,0
1110993,366.64,804,754,0
1111003,367.91,804,758,0
1111013,368.41,804,754,0
1111023,369.70,804,759,0
1111033,370.30,804,754,0
1111043,371.71,804,759,0
1111053,372.48,804,754,0
1111063,373.88,804,758,0
1111073,374.30,804,754,0
1111084,375.07,804,759,0
1111094,374.83,804,754,0
1111104,374.97,804,758,0
1111114,374.16,804,754,0
1111124,373.77,804,758,0
1111134,372.68,804,754,0
1111144,372.65,804,759,0
1111154,372.37,804,753,0
1111164,373.72,804,758,0
1111174,375.94,804,754,0
1111184,381.15,804,758,0
1111194,388.73,804,753,0
1111204,401.15,804,759,0
1111223,417.48,835,758,0
1111226,439.66,835,758,0
1111235,466.51,835,753,0
1111245,498.71,835,759,0
1111255,533.34,835,752,0
1111265,569.45,835,759,0
1111275,603.90,835,752,0
1111285,635.90,835,758,0
1111296,662.68,835,752,0
1111305,683.73,835,759,0
1111315,696.50,835,752,0
1111325,702.18,835,758,0
1111335,700.19,835,752,0
1111345,692.12,835,758,0
1111355,677.69,835,752,0
1111365,658.62,835,758,0
1111375,634.52,835,752,0
1111385,608.01,835,758,0
1111395,578.99,835,753,0
1111405,549.89,835,758,0
1111415,519.88,835,753,0
1111425,491.25,835,759,0
1111435,463.23,835,753,0
1111445,438.22,835,758,0
1111455,415.31,835,753,0
1111465,396.27,835,758,0
1111475,379.99,835,753,0
1111485,368.34,835,758,0
1111495,359.92,835,753,0
1111505,356.09,835,758,0
1111515,354.86,835,753,0
1111525,357.26,835,758,0
1111535,361.17,835,753,0
1111545,367.25,835,758,0
1111555,373.43,835,753,0
1111565,380.33,835,758,0
1111575,386.06,835,753,0
1111585,391.40,835,758,0
1111596,394.66,835,753,0
1111606,397.12,835,758,0
1111616,397.56,835,754,0
1111626,397.30,835,758,0
1111636,395.20,835,754,0
1111646,392.91,835,758,0
1111656,389.38,835,754,0
1111666,386.18,835,758,0
1111676,382.27,835,754,0
1111686,379.15,835,758,0
1111696,375.59,835,754,0
1111706,373.05,835,758,0
1111716,370.47,835,754,0
1111726,369.21,835,758,0
1111736,368.03,835,754,0
1111746,367.94,835,759,0
1111756,367.70,835,754,0
1111767,368.43,835,758,0
1111777,368.99,835,755,0
1111787,370.02,835,758,0
1111797,370.57,835,755,0
1111808,371.56,835,758,0
1111817,372.08,835,755,0
1111827,373.04,835,758,0
1111837,373.54,835,755,0
1111847,374.32,835,758,0
1111857,374.78,835,755,0
1111867,375.58,835,758,0
1111877,375.87,835,755,0
1111887,376.34,835,758,0
1111897,376.02,835,755,0
1111907,375.89,835,758,0
1111917,375.02,835,755,0
1111927,374.20,835,758,0
1111937,372.68,835,755,0
1111947,371.45,835,758,0
1111957,369.99,835,755,0
1111967,369.22,835,758,0
1111977,368.94,835,756,0
1111987,370.54,835,758,0
1111997,374.07,835,755,0
1112007,381.25,835,758,0
1112017,392.32,835,755,0
1112036,408.68,813,753,0
1112039,430.29,813,757,0
1112048,457.59,813,757,0
1112058,489.60,813,756,0
1112068,525.25,813,757,0
1112078,561.94,813,755,0
1112088,597.70,813,757,0
1112098,630.45,813,756,0
1112108,659.11,813,757,0
1112118,681.15,813,755,0
1112128,695.68,813,756,0
1112138,702.29,813,756,0
1112148,701.47,813,756,0
1112158,694.17,813,755,0
1112168,680.92,813,757,0
1112178,662.17,813,756,0
1112188,639.36,813,756,0
1112198,613.67,813,756,0
1112208,586.17,813,757,0
1112218,557.83,813,756,0
1112228,529.21,813,756,0
1112238,501.12,813,756,0
1112248,474.08,813,757,0
1112258,448.73,813,757,0
1112268,425.54,813,756,0
1112279,404.98,813,757,0
1112289,387.20,813,756,0
1112299,372.74,813,758,0
1112309,361.42,813,755,0
1112320,353.49,813,758,0
1112329,348.72,813,756,0
1112339,346.87,813,757,0
1112349,347.43,813,755,0
1112359,350.30,813,758,0
1112369,354.62,813,756,0
1112379,360.22,813,758,0
1112389,365.94,813,755,0
1112399,371.83,813,758,0
1112409,376.98,813,756,0
1112419,381.44,813,757,0
1112429,384.44,813,755,0
1112439,386.28,813,758,0
1112449,386.45,813,756,0
1112459,385.80,813,758,0
1112469,383.93,813,756,0
1112479,381.60,813,758,0
1112489,378.25,813,755,0
1112499,374.79,813,757,0
1112509,370.95,813,756,0
1112519,367.54,813,758,0
1112529,364.08,813,755,0
1112539,361.27,813,758,0
1112549,358.57,813,756,0
1112559,356.94,813,758,0
1112569,355.67,813,755,0
1112579,355.22,813,758,0
1112589,354.94,813,756,0
1112599,355.34,813,758,0
1112609,355.54,813,755,0
1112620,356.23,813,758,0
1112630,356.46,813,755,0
1112640,357.18,813,758,0
1112650,357.30,813,755,0
1112660,357.81,813,759,0
1112670,357.82,813,755,0
1112680,358.35,813,759,0
1112690,358.41,813,755,0
1112700,359.06,813,758,0
1112710,359.17,813,755,0
1112720,359.81,813,759,0
1112730,359.61,813,754,0
1112740,359.64,813,759,0
1112750,358.98,813,755,0
1112760,358.81,813,759,0
1112770,358.10,813,755,0
1112780,357.90,813,759,0
1112791,357.28,813,754,0
1112801,357.50,813,759,0
1112811,357.48,813,754,0
1112821,358.53,813,759,0
1112832,359.66,813,753,0
1112841,362.63,813,759,0
1112851,366.90,813,754,0
1112861,374.73,813,759,0
1112871,385.53,813,753,0
1112890,401.40,854,752,0
1112893,421.21,854,754,0
1112902,447.20,854,759,0
1112912,477.01,854,752,0
1112922,510.65,854,759,0
1112932,544.78,854,752,0
1112942,579.18,854,758,0
1112952,610.32,854,752,0
1112962,638.08,854,759,0
1112972,658.72,854,752,0
1112982,672.99,854,758,0
1112992,679.21,854,752,0
1113003,679.02,854,759,0
1113012,671.64,854,753,0
1113022,659.36,854,759,0
1113032,641.51,854,753,0
1113042,620.61,854,759,0
1113052,596.43,854,753,0
1113062,571.40,854,759,0
1113072,544.75,854,753,0
1113082,518.43,854,759,0
1113092,491.73,854,754,0
1113102,466.82,854,758,0
1113112,442.58,854,753,0
1113122,420.93,854,759,0
1113132,400.72,854,754,0
1113142,384.01,854,759,0
1113152,369.65,854,753,0
1113162,359.17,854,759,0
1113172,351.10,854,754,0
1113182,346.91,854,758,0
1113192,344.75,854,753,0
1113202,345.73,854,758,0
1113212,347.91,854,753,0
1113222,352.09,854,759,0
1113232,356.31,854,753,0
1113242,361.62,854,758,0
1113252,366.02,854,753,0
1113262,370.60,854,759,0
1113272,373.59,854,753,0
1113282,376.33,854,758,0
1113292,377.30,854,753,0
1113303,378.07,854,759,0
1113313,376.98,854,754,0
1113323,375.83,854,758,0
1113333,373.31,854,754,0
1113344,371.20,854,758,0
1113353,368.14,854,754,0
1113363,365.66,854,758,0
1113373,362.46,854,754,0
1113383,360.26,854,759,0
1113393,357.66,854,754,0
1113403,355.96,854,758,0
1113413,353.91,854,754,0
1113423,352.83,854,758,0
1113433,351.42,854,754,0
1113443,351.08,854,758,0
1113453,350.28,854,754,0
1113463,350.37,854,758,0
1113473,350.09,854,754,0
1113483,350.58,854,758,0
1113493,350.53,854,754,0
1113503,351.32,854,758,0
1113513,351.39,854,754,0
1113523,352.26,854,758,0
1113533,352.52,854,754,0
1113543,353.52,854,759,0
1113553,353.92,854,754,0
1113563,355.15,854,758,0
1113573,355.66,854,754,0
1113583,356.79,854,758,0
1113593,357.20,854,754,0
1113603,358.08,854,758,0
1113613,358.01,854,754,0
1113623,358.35,854,758,0
1113633,357.65,854,754,0
1113644,357.24,854,758,0
1113654,356.10,854,755,0
1113664,355.42,854,758,0
1113674,354.40,854,755,0
1113684,354.36,854,758,0
1113694,354.25,854,755,0
1113704,355.55,854,758,0
1113714,357.61,854,755,0
1113724,362.01,854,758,0
1113734,368.18,854,754,0
1113753,377.81,863,753,0
1113756,390.64,863,757,0
1113765,408.58,863,757,0
1113775,430.69,863,755,0
1113785,457.61,863,758,0
1113795,487.64,863,755,0
1113805,520.32,863,757,0
1113815,552.92,863,755,0
1113825,584.49,863,757,0
1113835,612.29,863,755,0
1113845,635.51,863,757,0
1113856,652.42,863,756,0
1113865,662.96,863,757,0
1113875,666.53,863,755,0
1113885,664.06,863,757,0
1113895,655.68,863,756,0
1113905,642.66,863,757,0
1113915,625.45,863,755,0
1113925,605.56,863,757,0
1113935,583.28,863,756,0
1113945,560.18,863,758,0
1113955,536.38,863,756,0
1113965,512.87,863,757,0
1113975,489.59,863,756,0
1113985,467.73,863,758,0
1113995,447.15,863,756,0
1114005,428.72,863,757,0
1114015,412.18,863,756,0
1114025,398.37,863,757,0
1114035,387.11,863,756,0
1114045,378.94,863,757,0
1114055,373.38,863,756,0
1114065,370.53,863,757,0
1114075,369.85,863,756,0
1114085,371.27,863,757,0
1114095,373.80,863,756,0
1114105,377.16,863,757,0
1114115,380.50,863,756,0
1114125,383.99,863,757,0
1114135,387.04,863,756,0
1114145,389.51,863,757,0
1114156,390.99,863,757,0
1114166,391.63,863,757,0
1114176,391.44,863,757,0
1114186,390.62,863,756,0
1114196,388.89,863,758,0
1114206,386.61,863,757,0
1114216,383.86,863,757,0
1114226,380.73,863,756,0
1114236,377.81,863,758,0
1114246,374.91,863,757,0
1114256,372.37,863,757,0
1114266,369.90,863,756,0
1114276,367.83,863,758,0
1114286,366.04,863,757,0
1114296,364.74,863,757,0
1114306,363.49,863,756,0
1114316,362.79,863,758,0
1114327,362.12,863,756,0
1114337,361.91,863,758,0
1114347,361.47,863,755,0
1114357,361.41,863,758,0
1114368,361.12,863,755,0
1114377,361.21,863,758,0
1114387,360.98,863,756,0
1114397,361.07,863,759,0
1114407,360.71,863,755,0
1114417,360.71,863,758,0
1114427,360.20,863,755,0
1114437,360.01,863,758,0
1114447,359.15,863,755,0
1114457,358.59,863,758,0
1114467,357.64,863,756,0
1114477,357.36,863,759,0
1114487,356.65,863,755,0
1114497,356.33,863,758,0
1114507,355.67,863,756,0
1114517,355.64,863,758,0
1114527,354.98,863,755,0
1114537,354.51,863,758,0
1114547,353.20,863,756,0
1114557,352.28,863,759,0
1114567,350.91,863,755,0
1114577,350.13,863,758,0
1114587,349.27,863,756,0
1114597,349.83,863,758,0
1114607,351.47,863,755,0
1114617,355.79,863,758,0
1114627,362.36,863,755,0
1114637,372.67,863,758,0
1114656,386.05,903,757,0
1114659,404.12,903,760,0
1114668,426.07,903,754,0
1114678,451.94,903,759,0
1114688,479.43,903,754,0
1114698,508.74,903,759,0
1114708,537.15,903,753,0
1114718,564.36,903,759,0
1114728,587.31,903,753,0
1114738,605.95,903,758,0
1114748,618.52,903,753,0
1114758,626.38,903,759,0
1114768,627.94,903,754,0
1114778,625.08,903,759,0
1114788,617.00,903,754,0
1114798,605.90,903,758,0
1114808,591.02,903,754,0
1114818,574.34,903,759,0
1114828,555.04,903,754,0
1114839,535.18,903,759,0
1114849,513.96,903,753,0
1114859,493.40,903,759,0
1114869,472.49,903,753,0
1114880,453.15,903,759,0
1114889,434.63,903,753,0
1114899,418.76,903,759,0
1114909,404.26,903,753,0
1114919,392.91,903,759,0
1114929,383.29,903,753,0
1114939,377.08,903,759,0
1114949,372.34,903,753,0
1114959,370.27,903,759,0
1114969,369.03,903,753,0
1114979,369.92,903,759,0
1114989,371.02,903,753,0
1114999,373.67,903,759,0
1115009,375.74,903,753,0
1115019,378.60,903,759,0
1115029,380.48,903,753,0
1115039,382.61,903,759,0
1115049,383.24,903,753,0
1115059,383.81,903,759,0
1115069,382.71,903,753,0
1115079,381.55,903,759,0
1115089,379.03,903,753,0
1115099,376.75,903,759,0
1115109,373.40,903,753,0
1115119,370.75,903,759,0
1115129,367.44,903,753,0
1115139,365.25,903,759,0
1115149,362.86,903,749,0
1115159,361.75,903,759,0
1115169,360.45,903,750,0
1115180,360.40,903,759,0
1115190,359.98,903,749,0
1115200,360.46,903,759,0
1115210,360.32,903,750,0
1115220,360.78,903,759,0
1115230,360.46,903,749,0
1115240,360.67,903,759,0
1115250,360.21,903,750,0
1115260,360.27,903,759,0
1115270,359.76,903,749,0
1115280,359.79,903,759,0
1115290,359.17,903,750,0
1115300,359.08,903,759,0
1115310,358.37,903,749,0
1115320,358.26,903,759,0
1115330,357.62,903,750,0
1115340,357.56,903,759,0
1115351,356.92,903,750,0
1115361,356.82,903,759,0
1115371,356.32,903,751,0
1115381,356.35,903,758,0
1115392,355.77,903,752,0
1115401,355.71,903,759,0
1115411,355.11,903,752,0
1115421,354.91,903,758,0
1115431,354.21,903,752,0
1115441,353.76,903,759,0
1115451,352.89,903,752,0
1115461,352.32,903,758,0
1115471,351.54,903,751,0
1115481,351.55,903,759,0
1115491,351.98,903,751,0
1115501,353.92,903,759,0
1115511,357.46,903,751,0
1115521,363.53,903,759,0
1115540,372.25,884,757,0
1115543,384.30,884,760,0
1115553,400.41,884,755,0
1115564,420.22,884,757,0
1115574,443.25,884,757,0
1115584,468.20,884,756,0
1115594,494.37,884,758,0
1115604,520.06,884,755,0
1115614,544.38,884,756,0
1115624,564.76,884,755,0
1115634,581.33,884,758,0
1115644,592.59,884,755,0
1115654,599.44,884,757,0
1115664,601.02,884,756,0
1115674,598.79,884,757,0
1115684,592.17,884,755,0
1115694,582.82,884,757,0
1115704,570.36,884,756,0
1115714,556.36,884,758,0
1115724,540.27,884,755,0
1115735,523.86,884,758,0
1115745,506.42,884,753,0
1115755,489.71,884,759,0
1115765,472.78,884,752,0
1115776,457.29,884,759,0
1115785,442.46,884,754,0
1115795,429.94,884,759,0
1115805,418.30,884,753,0
1115815,409.25,884,759,0
1115825,401.25,884,754,0
1115835,395.90,884,759,0
1115845,391.35,884,752,0
1115855,389.06,884,759,0
1115865,387.07,884,754,0
1115875,386.96,884,759,0
1115885,386.76,884,752,0
1115895,388.03,884,759,0
1115905,388.92,884,754,0
1115915,390.83,884,759,0
1115925,391.87,884,752,0
1115935,393.49,884,759,0
1115945,393.65,884,752,0
1115955,394.14,884,759,0
1115965,393.02,884,752,0
1115975,392.03,884,759,0
1115985,389.62,884,751,0
1115995,387.59,884,759,0
1116005,384.37,884,752,0
1116015,381.86,884,759,0
1116025,378.13,884,752,0
1116035,375.26,884,759,0
1116045,371.80,884,752,0
1116055,369.54,884,759,0
1116065,366.64,884,752,0
1116076,365.03,884,759,0
1116086,362.97,884,751,0
1116096,362.46,884,759,0
1116106,361.51,884,750,0
1116116,361.66,884,759,0
1116126,361.07,884,751,0
1116136,361.52,884,759,0
1116146,361.15,884,751,0
1116156,361.75,884,759,0
1116166,361.52,884,751,0
1116176,362.18,884,759,0
1116186,361.91,884,751,0
1116196,362.45,884,759,0
1116206,362.27,884,751,0
1116216,363.05,884,759,0
1116226,362.86,884,751,0
1116236,363.38,884,759,0
1116247,362.88,884,750,0
1116257,363.21,884,759,0
1116267,362.68,884,750,0
1116277,362.77,884,759,0
1116288,361.81,884,751,0
1116297,361.74,884,759,0
1116307,360.79,884,751,0
1116317,360.64,884,759,0
1116327,359.50,884,750,0
1116337,359.18,884,759,0
1116347,358.10,884,750,0
1116357,358.03,884,759,0
1116367,357.68,884,750,0
1116377,358.97,884,759,0
1116387,360.91,884,750,0
1116397,365.52,884,759,0
1116407,372.01,884,750,0
1116426,382.29,886,748,0
1116429,395.15,886,751,0
1116439,412.42,886,759,0
1116449,432.56,886,750,0
1116460,455.88,886,759,0
1116470,480.39,886,751,0
1116480,505.56,886,758,0
1116490,529.30,886,752,0
1116500,551.24,886,759,0
1116510,568.91,886,751,0
1116520,582.31,886,758,0
1116530,590.66,886,751,0
1116540,594.28,886,759,0
1116550,593.21,886,751,0
1116560,588.35,886,758,0
1116570,579.97,886,752,0
1116580,569.05,886,759,0
1116590,555.84,886,751,0
1116600,541.23,886,759,0
1116610,525.60,886,752,0
1116620,509.74,886,758,0
1116631,493.66,886,753,0
1116641,478.03,886,758,0
1116651,463.19,886,754,0
1116661,449.55,886,758,0
1116672,437.43,886,755,0
1116681,427.10,886,758,0
1116691,418.50,886,754,0
1116701,411.75,886,759,0
1116711,406.94,886,755,0
1116721,403.74,886,758,0
1116731,402.02,886,754,0
1116741,401.16,886,758,0
1116751,401.20,886,755,0
1116761,401.74,886,758,0
1116771,402.76,886,754,0
1116781,403.69,886,758,0
1116791,404.72,886,755,0
1116801,405.32,886,758,0
1116811,405.57,886,754,0
1116821,405.10,886,758,0
1116831,404.17,886,755,0
1116841,402.36,886,758,0
1116851,400.15,886,754,0
1116861,397.36,886,759,0
1116871,394.73,886,755,0
1116881,391.89,886,758,0
1116891,389.35,886,754,0
1116901,386.76,886,759,0
1116911,384.69,886,755,0
1116921,382.60,886,758,0
1116931,380.92,886,754,0
1116941,379.27,886,759,0
1116951,378.29,886,755,0
1116961,377.26,886,758,0
1116972,376.80,886,757,0
1116982,376.00,886,757,0
1116992,375.74,886,758,0
1117002,375.09,886,756,0
1117012,374.94,886,758,0
1117022,374.44,886,757,0
1117032,374.52,886,758,0
1117042,374.19,886,756,0
1117052,374.78,886,758,0
1117062,375.15,886,757,0
1117072,376.30,886,758,0
1117082,376.94,886,756,0
1117092,378.11,886,758,0
1117102,378.68,886,757,0
1117112,379.59,886,758,0
1117122,379.46,886,756,0
1117132,379.62,886,759,0
1117143,378.70,886,755,0
1117153,378.19,886,759,0
1117163,376.59,886,753,0
1117173,375.47,886,759,0
1117184,373.53,886,752,0
1117193,372.64,886,759,0
1117203,371.42,886,753,0
1117213,371.94,886,759,0
1117223,372.69,886,752,0
1117233,376.08,886,759,0
1117243,380.81,886,753,0
1117253,389.27,886,759,0
1117263,399.82,886,752,0
1117282,414.27,856,752,0
1117285,430.78,856,751,0
1117294,451.59,856,759,0
1117304,473.57,856,750,0
1117314,497.40,856,759,0
1117324,519.99,856,751,0
1117334,542.02,856,759,0
1117344,560.53,856,750,0
1117355,576.40,856,759,0
1117364,586.57,856,751,0
1117374,593.04,856,759,0
1117384,594.01,856,750,0
1117394,591.65,856,759,0
1117404,584.86,856,751,0
1117414,576.11,856,759,0
1117424,563.95,856,750,0
1117434,550.89,856,759,0
1117444,535.67,856,751,0
1117454,521.03,856,759,0
1117464,505.55,856,750,0
1117474,491.28,856,759,0
1117484,476.93,856,751,0
1117494,464.78,856,759,0
1117504,453.19,856,750,0
1117514,444.13,856,759,0
1117524,435.52,856,750,0
1117534,429.41,856,759,0
1117544,424.06,856,750,0
1117554,421.34,856,759,0
1117564,419.39,856,750,0
1117574,419.70,856,759,0
1117584,420.22,856,750,0
1117594,422.56,856,759,0
1117604,424.32,856,750,0
1117614,427.01,856,759,0
1117624,427.91,856,750,0
1117634,428.83,856,759,0
1117644,427.98,856,750,0
1117655,427.26,856,759,0
1117665,424.70,856,749,0
1117675,422.39,856,759,0
1117685,418.54,856,750,0
1117696,415.55,856,759,0
1117705,411.74,856,750,0
1117715,408.78,856,759,0
1117725,405.03,856,750,0
1117735,402.36,856,759,0
1117745,399.17,856,749,0
1117755,396.89,856,759,0
1117765,394.14,856,750,0
1117775,392.34,856,759,0
1117785,390.14,856,750,0
1117795,388.94,856,759,0
1117805,387.24,856,750,0
1117815,386.66,856,759,0
1117825,385.82,856,750,0
1117835,386.13,856,759,0
1117845,385.92,856,750,0
1117855,386.59,856,759,0
1117865,386.71,856,750,0
1117875,387.74,856,759,0
1117885,387.90,856,750,0
1117895,388.70,856,759,0
1117905,388.49,856,750,0
1117915,388.90,856,759,0
1117925,388.33,856,750,0
1117935,388.19,856,759,0
1117945,387.15,856,750,0
1117955,386.72,856,759,0
1117965,385.64,856,750,0
1117975,385.58,856,759,0
1117985,385.28,856,750,0
1117996,386.61,856,759,0
1118006,388.83,856,750,0
1118016,393.85,856,759,0
1118026,400.97,856,750,0
1118036,411.99,856,759,0
1118046,425.79,856,750,0
1118056,443.98,856,759,0
1118075,464.95,793,757,0
1118078,488.62,793,759,0
1118087,513.85,793,751,0
1118097,540.04,793,759,0
1118107,564.67,793,751,0
1118117,587.57,793,759,0
1118127,606.43,793,750,0
1118137,621.47,793,759,0
1118147,631.96,793,751,0
1118157,637.41,793,759,0
1118167,637.85,793,751,0
1118177,634.34,793,759,0
1118187,626.52,793,751,0
1118197,615.74,793,759,0
1118208,602.14,793,752,0
1118217,586.89,793,759,0
1118227,569.99,793,751,0
1118237,552.42,793,759,0
1118247,534.34,793,752,0
1118257,516.92,793,759,0
1118267,500.06,793,752,0
1118277,484.57,793,759,0
1118287,470.26,793,752,0
1118297,458.14,793,759,0
1118307,447.77,793,752,0
1118317,439.69,793,759,0
1118327,433.53,793,752,0
1118337,429.68,793,759,0
1118347,427.29,793,752,0
1118357,426.48,793,759,0
1118367,426.46,793,753,0
1118377,427.35,793,759,0
1118387,428.45,793,752,0
1118397,429.77,793,759,0
1118407,430.48,793,753,0
1118417,430.77,793,759,0
1118427,430.06,793,752,0
1118437,428.67,793,759,0
1118447,426.37,793,753,0
1118457,423.52,793,759,0
1118467,419.76,793,752,0
1118477,415.93,793,759,0
1118487,411.80,793,753,0
1118497,407.96,793,759,0
1118508,404.16,793,754,0
1118518,400.68,793,759,0
1118528,397.35,793,754,0
1118538,394.37,793,759,0
1118548,391.73,793,755,0
1118558,389.58,793,759,0
1118568,387.78,793,755,0
1118578,386.30,793,758,0
1118588,385.36,793,755,0
1118598,384.82,793,759,0
1118608,384.87,793,755,0
1118618,385.00,793,759,0
1118628,385.51,793,755,0
1118638,386.09,793,758,0
1118648,386.79,793,755,0
1118658,387.28,793,759,0
1118668,387.84,793,755,0
1118679,387.97,793,758,0
1118689,388.07,793,757,0
1118699,387.53,793,757,0
1118709,387.07,793,758,0
1118720,386.19,793,756,0
1118729,385.58,793,757,0
1118739,384.80,793,757,0
1118749,384.99,793,758,0
1118759,385.68,793,756,0
1118769,388.05,793,757,0
1118779,391.76,793,757,0
1118789,398.60,793,758,0
1118799,407.89,793,755,0
1118809,420.91,793,756,0
1118819,436.88,793,757,0
1118829,456.59,793,758,0
1118849,478.48,773,756,0
1118852,502.64,773,760,0
1118861,527.09,773,751,0
1118871,551.66,773,759,0
1118881,573.41,773,750,0
1118892,592.48,773,759,0
1118902,606.53,773,750,0
1118912,616.52,773,759,0
1118922,620.74,773,749,0
1118932,620.39,773,759,0
1118942,614.57,773,750,0
1118952,605.96,773,759,0
1118962,593.16,773,749,0
1118972,578.84,773,759,0
1118982,561.83,773,751,0
1118992,544.65,773,759,0
1119002,525.94,773,750,0
1119012,507.75,773,759,0
1119022,488.75,773,751,0
1119032,471.38,773,759,0
1119042,454.17,773,750,0
1119052,439.16,773,759,0
1119063,425.01,773,750,0
1119073,413.69,773,759,0
1119083,403.89,773,750,0
1119093,397.19,773,759,0
1119104,391.91,773,750,0
1119113,389.45,773,759,0
1119123,388.20,773,750,0
1119133,389.21,773,759,0
1119143,390.65,773,750,0
1119153,393.50,773,759,0
1119163,395.75,773,750,0
1119173,398.48,773,759,0
1119183,400.09,773,750,0
1119193,401.61,773,759,0
1119203,401.43,773,750,0
1119213,400.91,773,759,0
1119223,398.80,773,750,0
1119233,396.67,773,759,0
1119243,393.21,773,750,0
1119253,389.93,773,759,0
1119263,385.75,773,750,0
1119273,382.27,773,759,0
1119283,378.29,773,750,0
1119293,375.29,773,759,0
1119303,372.07,773,750,0
1119313,370.04,773,759,0
1119323,367.88,773,750,0
1119333,366.85,773,759,0
1119343,365.48,773,750,0
1119353,365.12,773,759,0
1119363,364.27,773,750,0
1119373,364.40,773,759,0
1119383,364.11,773,750,0
1119393,364.51,773,759,0
1119404,364.18,773,750,0
1119414,364.56,773,759,0
1119424,364.26,773,751,0
1119434,364.57,773,759,0
1119444,364.14,773,751,0
1119454,364.18,773,759,0
1119464,363.57,773,751,0
1119474,363.49,773,759,0
1119484,362.95,773,751,0
1119494,362.88,773,759,0
1119504,362.45,773,751,0
1119514,362.61,773,759,0
1119524,362.69,773,751,0
1119534,364.02,773,759,0
1119544,365.94,773,751,0
1119554,370.03,773,759,0
1119564,376.24,773,751,0
1119575,385.89,773,759,0
1119585,398.57,773,752,0
1119595,415.16,773,759,0
1119605,434.65,773,752,0
1119625,457.38,776,751,0
1119628,481.48,776,758,0
1119637,506.32,776,758,0
1119647,530.36,776,756,0
1119657,552.11,776,757,0
1119667,570.67,776,755,0
1119677,585.30,776,758,0
1119687,595.41,776,756,0
1119697,600.77,776,757,0
1119707,601.66,776,754,0
1119717,598.07,776,758,0
1119727,591.37,776,756,0
1119737,581.14,776,757,0
1119747,568.54,776,755,0
1119757,553.77,776,758,0
1119767,538.11,776,756,0
1119777,521.19,776,758,0
1119788,504.16,776,758,0
1119798,486.80,776,756,0
1119808,470.57,776,759,0
1119818,454.97,776,755,0
1119828,441.27,776,759,0
1119838,428.72,776,756,0
1119848,418.69,776,759,0
1119858,410.04,776,755,0
1119868,404.11,776,759,0
1119878,399.62,776,756,0
1119888,397.68,776,759,0
1119898,396.49,776,755,0
1119908,397.20,776,759,0
1119918,398.13,776,756,0
1119928,400.27,776,758,0
1119938,401.86,776,754,0
1119948,403.96,776,759,0
1119959,404.87,776,753,0
1119969,406.11,776,759,0
1119979,405.86,776,752,0
1119989,405.69,776,759,0
1120000,404.20,776,752,0
1120009,402.98,776,759,0
1120019,400.54,776,752,0
1120029,398.67,776,759,0
1120039,395.64,776,751,0
1120049,393.39,776,759,0
1120059,390.23,776,752,0
1120069,388.10,776,759,0
1120079,385.20,776,751,0
1120089,383.47,776,759,0
1120099,381.23,776,752,0
1120109,380.35,776,759,0
1120119,379.04,776,751,0
1120129,379.16,776,759,0
1120139,378.68,776,752,0
1120149,379.42,776,759,0
1120159,379.42,776,752,0
1120169,380.32,776,759,0
1120179,380.44,776,752,0
1120189,381.47,776,759,0
1120199,381.54,776,751,0
1120209,382.41,776,759,0
1120219,382.37,776,751,0
1120229,383.25,776,759,0
1120239,383.21,776,752,0
1120249,384.01,776,759,0
1120259,383.58,776,752,0
1120269,383.88,776,759,0
1120279,383.14,776,751,0
1120289,383.06,776,759,0
1120300,381.67,776,750,0
1120310,381.04,776,759,0
1120320,379.48,776,750,0
1120330,379.34,776,759,0
1120340,379.11,776,750,0
1120350,381.13,776,759,0
1120360,384.26,776,750,0
1120370,390.87,776,759,0
1120380,399.78,776,750,0
1120390,413.22,776,759,0
1120409,429.74,785,758,0
1120412,450.43,785,759,0
1120421,473.66,785,749,0
1120431,499.90,785,759,0
1120441,526.68,785,750,0
1120451,554.20,785,759,0
1120461,579.64,785,749,0
1120471,602.93,785,759,0
1120481,621.73,785,749,0
1120491,636.38,785,759,0
1120501,645.39,785,749,0
1120512,650.12,785,759,0
1120521,649.40,785,749,0
1120531,645.08,785,759,0
1120541,636.31,785,749,0
1120551,625.46,785,759,0
1120561,611.52,785,750,0
1120571,596.37,785,759,0
1120581,579.03,785,750,0
1120591,561.32,785,759,0
1120601,542.37,785,750,0
1120611,524.21,785,759,0
1120621,505.81,785,750,0
1120631,488.89,785,759,0
1120641,472.60,785,750,0
1120651,458.92,785,759,0
1120661,446.77,785,750,0
1120671,437.45,785,759,0
1120681,429.73,785,750,0
1120691,424.67,785,759,0
1120701,420.91,785,750,0
1120711,419.57,785,760,0
1120721,418.67,785,750,0
1120731,419.20,785,759,0
1120741,419.44,785,750,0
1120751,420.33,785,760,0
1120761,420.58,785,750,0
1120771,421.22,785,759,0
1120781,420.77,785,750,0
1120791,420.41,785,759,0
1120801,418.87,785,750,0
1120812,417.45,785,759,0
1120822,415.09,785,751,0
1120832,412.79,785,759,0
1120842,409.68,785,752,0
1120852,406.78,785,759,0
1120862,403.37,785,751,0
1120872,400.48,785,760,0
1120882,397.25,785,751,0
1120892,394.47,785,759,0
1120902,391.55,785,751,0
1120912,389.20,785,759,0
1120922,386.74,785,751,0
1120932,384.97,785,759,0
1120942,383.14,785,751,0
1120952,382.15,785,759,0
1120962,381.21,785,752,0
1120972,380.97,785,759,0
1120983,380.72,785,752,0
1120993,381.15,785,759,0
1121003,381.32,785,753,0
1121013,381.87,785,759,0
1121024,382.04,785,753,0
1121033,382.50,785,759,0
1121043,382.65,785,753,0
1121053,382.88,785,759,0
1121063,382.62,785,753,0
1121073,382.26,785,759,0
1121083,381.58,785,753,0
1121093,380.85,785,759,0
1121103,380.04,785,754,0
1121113,379.38,785,759,0
1121123,378.63,785,753,0
1121133,378.27,785,759,0
1121143,378.10,785,754,0
1121153,378.20,785,759,0
1121163,378.31,785,753,0
1121173,378.47,785,759,0
1121183,378.46,785,754,0
1121193,378.49,785,759,0
1121203,378.26,785,753,0
1121213,378.22,785,759,0
1121223,378.46,785,754,0
1121233,379.26,785,758,0
1121243,380.90,785,753,0
1121253,384.19,785,759,0
1121263,389.83,785,754,0
1121283,398.37,873,752,0
1121286,410.47,873,759,0
1121295,426.74,873,756,0
1121305,447.26,873,758,0
1121315,470.88,873,755,0
1121325,497.23,873,757,0
1121335,524.46,873,756,0
1121345,552.01,873,758,0
1121355,577.25,873,755,0
1121366,599.37,873,759,0
1121375,616.66,873,756,0
1121385,629.66,873,758,0
1121395,636.96,873,755,0
1121405,639.72,873,759,0
1121415,637.32,873,756,0
1121425,631.74,873,758,0
1121435,622.26,873,755,0
1121445,610.82,873,759,0
1121455,597.03,873,756,0
1121465,582.41,873,758,0
1121475,566.34,873,755,0
1121485,550.21,873,759,0
1121495,533.31,873,757,0
1121505,517.06,873,758,0
1121515,500.50,873,756,0
1121525,485.18,873,759,0
1121536,470.08,873,754,0
1121545,456.98,873,758,0
1121555,444.78,873,756,0
1121565,434.73,873,759,0
1121575,425.68,873,754,0
1121585,419.05,873,758,0
1121595,413.38,873,756,0
1121605,409.96,873,759,0
1121615,406.97,873,754,0
1121625,405.57,873,759,0
1121635,404.24,873,756,0
1121645,404.08,873,759,0
1121655,403.29,873,754,0
1121665,403.03,873,759,0
1121675,401.78,873,756,0
1121685,400.94,873,759,0
1121695,398.99,873,754,0
1121705,397.28,873,759,0
1121715,394.49,873,756,0
1121725,392.29,873,759,0
1121735,389.16,873,754,0
1121745,386.75,873,759,0
1121755,383.70,873,756,0
1121765,381.43,873,759,0
1121775,378.60,873,754,0
1121785,376.66,873,759,0
1121795,374.24,873,756,0
1121805,372.84,873,759,0
1121815,370.96,873,755,0
1121825,369.94,873,759,0
1121836,368.37,873,753,0
1121846,367.58,873,760,0
1121856,366.12,873,752,0
1121866,365.31,873,759,0
1121876,363.72,873,751,0
1121886,362.95,873,759,0
1121896,361.29,873,752,0
1121906,360.60,873,759,0
1121916,359.26,873,751,0
1121926,358.97,873,759,0
1121936,358.08,873,752,0
1121946,358.31,873,759,0
1121956,357.75,873,752,0
1121966,358.38,873,759,0
1121976,358.09,873,752,0
1121986,358.71,873,759,0
1121996,358.45,873,752,0
1122007,359.17,873,759,0
1122017,358.95,873,751,0
1122027,359.69,873,759,0
1122037,359.49,873,750,0
1122048,360.20,873,760,0
1122057,360.05,873,751,0
1122067,360.59,873,759,0
1122077,360.12,873,750,0
1122087,360.30,873,759,0
1122097,359.56,873,751,0
1122107,359.65,873,759,0
1122117,358.90,873,750,0
1122127,359.27,873,759,0
1122137,359.36,873,751,0
1122147,361.40,873,759,0
1122157,364.23,873,750,0
1122167,370.08,873,759,0
1122177,377.73,873,751,0
1122187,389.59,873,759,0
1122206,404.33,924,758,0
1122209,423.52,924,759,0
1122219,445.48,924,750,0
1122228,471.05,924,759,0
1122238,497.35,924,749,0
1122248,524.84,924,759,0
1122258,550.26,924,749,0
1122268,573.80,924,759,0
1122278,593.02,924,749,0
1122288,608.01,924,759,0
1122298,617.05,924,750,0
1122308,621.84,924,759,0
1122318,621.24,924,749,0
1122328,617.40,924,759,0
1122338,609.39,924,749,0
1122348,599.20,924,759,0
1122358,586.07,924,750,0
1122368,571.86,924,759,0
1122378,555.45,924,750,0
1122388,538.64,924,759,0
1122398,520.45,924,750,0
1122408,502.70,924,759,0
1122418,484.32,924,750,0
1122428,467.12,924,759,0
1122438,450.07,924,750,0
1122448,435.14,924,759,0
1122458,421.42,924,750,0
1122468,410.37,924,759,0
1122478,400.83,924,750,0
1122488,394.24,924,759,0
1122498,389.28,924,750,0
1122508,387.27,924,759,0
1122519,386.42,924,750,0
1122529,387.28,924,759,0
1122539,388.48,924,751,0
1122549,390.65,924,759,0
1122560,392.51,924,751,0
1122569,394.84,924,759,0
1122579,396.13,924,751,0
1122589,397.47,924,759,0
1122599,397.80,924,751,0
1122609,398.07,924,759,0
1122619,397.15,924,751,0
1122629,396.03,924,759,0
1122639,393.80,924,752,0
1122649,391.63,924,759,0
1122659,388.61,924,751,0
1122669,385.68,924,759,0
1122679,382.09,924,752,0
1122689,379.02,924,759,0
1122699,375.54,924,751,0
1122709,372.68,924,759,0
1122719,369.56,924,752,0
1122729,367.25,924,759,0
1122739,365.08,924,751,0
1122749,363.81,924,759,0
1122759,362.67,924,752,0
1122769,362.38,924,759,0
1122779,362.10,924,751,0
1122789,362.67,924,759,0
1122799,363.02,924,752,0
1122809,363.87,924,759,0
1122819,364.30,924,751,0
1122829,365.15,924,759,0
1122839,365.62,924,752,0
1122849,366.38,924,759,0
1122860,366.61,924,752,0
1122870,366.94,924,759,0
1122880,366.83,924,753,0
1122890,366.79,924,759,0
1122900,366.34,924,754,0
1122910,365.98,924,759,0
1122920,365.26,924,753,0
1122930,364.71,924,759,0
1122940,364.03,924,754,0
1122950,363.42,924,759,0
1122960,362.82,924,753,0
1122970,362.36,924,759,0
1122980,362.00,924,754,0
1122990,362.25,924,759,0
1123000,362.86,924,753,0
1123010,364.45,924,759,0
1123020,367.31,924,754,0
1123031,372.15,924,759,0
1123041,379.39,924,755,0
1123051,389.56,924,758,0
1123070,402.98,864,757,0
1123074,419.53,864,753,0
1123083,440.33,864,759,0
1123093,463.37,864,753,0
1123103,488.33,864,759,0
1123113,513.17,864,752,0
1123123,537.47,864,759,0
1123133,558.93,864,753,0
1123143,577.89,864,759,0
1123153,591.04,864,752,0
1123163,600.28,864,759,0
1123173,604.06,864,753,0
1123183,604.17,864,759,0
1123193,599.27,864,752,0
1123203,591.69,864,759,0
1123213,580.21,864,753,0
1123223,567.29,864,759,0
1123233,551.52,864,752,0
1123244,535.33,864,759,0
1123254,517.49,864,751,0
1123264,500.50,864,759,0
1123274,482.91,864,751,0
1123284,467.08,864,759,0
1123294,451.63,864,752,0
1123304,439.10,864,759,0
1123314,427.58,864,751,0
1123324,419.35,864,759,0
1123334,412.43,864,752,0
1123344,408.70,864,759,0
1123354,406.01,864,751,0
1123364,405.92,864,759,0
1123374,406.11,864,752,0
1123384,408.14,864,759,0
1123394,409.64,864,751,0
1123404,412.02,864,759,0
1123415,413.26,864,750,0
1123425,414.85,864,759,0
1123435,414.90,864,750,0
1123445,414.93,864,759,0
1123456,413.23,864,750,0
1123465,411.66,864,759,0
1123475,408.68,864,750,0
1123485,406.12,864,759,0
1123495,402.40,864,750,0
1123505,399.36,864,759,0
1123515,395.48,864,750,0
1123525,392.72,864,759,0
1123535,389.55,864,750,0
1123545,387.67,864,759,0
1123555,385.37,864,750,0
1123565,384.36,864,759,0
1123575,383.27,864,750,0
1123585,383.74,864,759,0
1123595,383.86,864,750,0
1123605,385.10,864,759,0
1123615,385.63,864,750,0
1123625,386.86,864,759,0
1123635,387.28,864,750,0
1123645,388.44,864,759,0
1123655,388.74,864,750,0
1123665,389.67,864,759,0
1123675,389.69,864,750,0
1123685,390.59,864,759,0
1123695,390.76,864,750,0
1123705,391.65,864,759,0
1123715,391.49,864,750,0
1123725,392.03,864,759,0
1123735,391.77,864,750,0
1123745,392.18,864,759,0
1123756,391.65,864,750,0
1123766,391.84,864,759,0
1123776,391.46,864,750,0
1123786,391.97,864,759,0
1123796,392.28,864,751,0
1123806,394.12,864,759,0
1123816,396.66,864,750,0
1123826,401.77,864,759,0
1123836,408.91,864,750,0
1123846,419.78,864,759,0
1123865,433.69,795,758,0
1123868,451.23,795,760,0
1123877,472.07,795,751,0
1123887,496.14,795,759,0
1123897,521.25,795,750,0
1123907,547.06,795,759,0
1123917,571.09,795,751,0
1123927,592.83,795,759,0
1123937,610.50,795,750,0
1123947,623.29,795,759,0
1123957,630.19,795,751,0
1123968,631.98,795,759,0
1123977,628.25,795,750,0
1123987,620.51,795,759,0
1123997,608.53,795,751,0
1124007,594.05,795,759,0
1124017,576.89,795,751,0
1124027,558.71,795,759,0
1124037,539.64,795,751,0
1124047,520.81,795,759,0
1124057,501.96,795,751,0
1124067,484.53,795,759,0
1124077,468.09,795,751,0
1124087,453.58,795,759,0
1124097,440.55,795,751,0
1124107,429.88,795,759,0
1124117,421.00,795,751,0
1124127,414.57,795,759,0
1124137,409.82,795,752,0
1124147,407.30,795,759,0
1124157,406.10,795,751,0
1124167,406.54,795,759,0
1124177,407.49,795,752,0
1124187,409.40,795,759,0
1124197,411.08,795,751,0
1124207,412.77,795,759,0
1124217,413.61,795,752,0
1124227,414.11,795,759,0
1124237,413.65,795,751,0
1124247,412.90,795,759,0
1124257,411.34,795,752,0
1124268,409.57,795,759,0
1124278,407.26,795,753,0
1124288,404.78,795,759,0
1124298,402.10,795,754,0
1124308,399.46,795,759,0
1124318,396.66,795,753,0
1124328,394.02,795,759,0
1124338,391.53,795,754,0
1124348,389.31,795,759,0
1124358,387.42,795,753,0
1124368,386.01,795,759,0
1124378,385.11,795,754,0
1124388,384.65,795,759,0
1124398,384.54,795,753,0
1124408,384.85,795,759,0
1124418,385.49,795,754,0
1124428,386.33,795,759,0
1124439,387.39,795,755,0
1124449,388.60,795,759,0
1124459,390.22,795,757,0
1124469,391.74,795,757,0
1124480,393.53,795,758,0
1124489,395.13,795,759,0
1124499,396.85,795,756,0
1124509,398.09,795,757,0
1124519,399.52,795,758,0
1124529,400.27,795,759,0
1124539,401.21,795,756,0
1124549,401.45,795,757,0
1124559,401.87,795,758,0
1124569,401.91,795,759,0
1124579,402.19,795,757,0
1124589,401.84,795,757,0
1124599,401.84,795,758,0
1124609,401.68,795,759,0
1124619,402.33,795,757,0
1124629,403.43,795,757,0
1124639,406.39,795,758,0
1124649,410.94,795,756,0
1124659,418.55,795,757,0
1124678,429.14,813,756,0
1124681,444.10,813,760,0
1124690,463.14,813,753,0
1124700,486.75,813,759,0
1124710,512.93,813,754,0
1124720,542.05,813,759,0
1124730,571.39,813,752,0
1124740,600.55,813,759,0
1124750,626.44,813,754,0
1124760,648.64,813,759,0
1124770,664.86,813,752,0
1124780,676.26,813,759,0
1124790,681.02,813,754,0
1124800,681.02,813,759,0
1124810,675.05,813,752,0
1124820,665.52,813,760,0
1124830,651.70,813,754,0
1124840,635.84,813,759,0
1124850,616.82,813,752,0
1124860,596.82,813,759,0
1124870,574.93,813,754,0
1124880,553.52,813,759,0
1124890,531.34,813,753,0
1124900,510.54,813,759,0
1124910,490.10,813,755,0
1124920,472.20,813,759,0
1124930,455.73,813,753,0
1124940,442.78,813,759,0
1124951,431.57,813,752,0
1124961,424.07,813,759,0
1124971,418.22,813,751,0
1124981,415.76,813,759,0
1124992,414.41,813,751,0
1125001,415.49,813,759,0
1125011,416.63,813,751,0
1125021,419.18,813,759,0
1125031,420.76,813,751,0
1125041,422.97,813,759,0
1125051,423.45,813,751,0
1125061,424.09,813,759,0
1125071,422.82,813,751,0
1125081,421.46,813,759,0
1125091,418.24,813,751,0
1125101,415.34,813,760,0
1125111,410.99,813,751,0
1125121,407.35,813,759,0
1125131,402.62,813,751,0
1125141,399.00,813,759,0
1125151,394.67,813,751,0
1125161,391.81,813,759,0
1125171,388.53,813,751,0
1125181,386.78,813,759,0
1125191,384.75,813,751,0
1125201,384.22,813,759,0
1125211,383.21,813,751,0
1125221,383.62,813,759,0
1125231,383.35,813,751,0
1125241,384.06,813,759,0
1125251,383.87,813,751,0
1125261,384.64,813,759,0
1125271,384.45,813,751,0
1125281,385.13,813,759,0
1125292,384.79,813,750,0
1125302,385.28,813,759,0
1125312,384.90,813,750,0
1125322,385.36,813,759,0
1125332,384.78,813,750,0
1125342,385.10,813,760,0
1125352,384.30,813,750,0
1125362,384.34,813,759,0
1125372,383.42,813,750,0
1125382,383.34,813,759,0
1125392,382.47,813,750,0
1125402,382.37,813,759,0
1125412,381.40,813,749,0
1125422,381.58,813,759,0
1125432,380.94,813,750,0
1125442,381.21,813,759,0
1125452,380.72,813,750,0
1125463,380.85,813,760,0
1125473,380.34,813,750,0
1125483,380.58,813,759,0
1125493,380.15,813,750,0
1125504,380.79,813,759,0
1125513,381.50,813,750,0
1125523,384.30,813,759,0
1125533,388.54,813,750,0
1125553,396.35,874,749,0
1125556,407.69,874,754,0
1125565,424.41,874,759,0
1125575,446.06,874,752,0
1125585,473.08,874,759,0
1125595,503.87,874,751,0
1125605,538.33,874,759,0
1125615,573.50,874,751,0
1125625,607.68,874,759,0
1125635,638.59,874,751,0
1125645,665.33,874,759,0
1125655,686.96,874,751,0
1125665,702.91,874,759,0
1125676,712.24,874,752,0
1125686,715.72,874,759,0
1125696,713.75,874,753,0
1125706,706.80,874,759,0
1125716,695.37,874,754,0
1125726,680.09,874,759,0
1125736,661.68,874,754,0
1125746,640.90,874,759,0
1125756,618.56,874,755,0
1125766,595.51,874,759,0
1125776,572.30,874,754,0
1125786,549.11,874,759,0
1125796,526.40,874,755,0
1125806,504.73,874,759,0
1125816,484.84,874,754,0
1125826,466.80,874,759,0
1125836,451.05,874,756,0
1125847,437.40,874,758,0
1125857,426.61,874,757,0
1125867,417.98,874,757,0
1125877,411.99,874,759,0
1125888,407.62,874,756,0
1125897,405.29,874,757,0
1125907,404.09,874,757,0
1125917,404.36,874,759,0
1125927,404.68,874,756,0
1125937,405.72,874,757,0
1125947,406.15,874,757,0
1125957,406.79,874,759,0
1125967,406.25,874,756,0
1125977,405.49,874,757,0
1125987,403.63,874,757,0
1125997,401.81,874,759,0
1126007,398.83,874,756,0
1126017,395.88,874,758,0
1126027,392.36,874,757,0
1126037,389.55,874,759,0
1126047,386.09,874,756,0
1126057,383.40,874,759,0
1126067,380.32,874,757,0
1126077,378.30,874,759,0
1126087,376.11,874,756,0
1126097,374.79,874,759,0
1126107,373.35,874,757,0
1126117,373.12,874,759,0
1126127,372.65,874,756,0
1126137,373.23,874,759,0
1126147,373.72,874,757,0
1126157,375.09,874,759,0
1126167,375.83,874,756,0
1126177,377.17,874,759,0
1126188,377.68,874,755,0
1126198,378.72,874,760,0
1126208,378.67,874,753,0
1126218,378.90,874,760,0
1126228,378.03,874,752,0
1126238,377.76,874,759,0
1126248,376.21,874,753,0
1126258,375.24,874,759,0
1126268,373.16,874,752,0
1126278,372.08,874,759,0
1126288,370.34,874,753,0
1126298,369.85,874,759,0
1126308,368.95,874,751,0
1126318,369.74,874,760,0
1126328,370.12,874,753,0
1126338,371.80,874,759,0
1126348,372.54,874,751,0
1126359,374.01,874,759,0
1126369,374.39,874,751,0
1126379,375.35,874,759,0
1126389,375.07,874,750,0
1126400,375.61,874,759,0
1126409,375.60,874,751,0
1126419,377.47,874,759,0
1126429,380.12,874,750,0
1126439,386.21,874,760,0
1126449,394.76,874,751,0
1126468,408.55,916,749,0
1126471,426.34,916,751,0
1126480,450.37,916,760,0
1126490,478.37,916,750,0
1126500,511.09,916,760,0
1126510,545.09,916,749,0
1126520,580.12,916,760,0
1126530,612.61,916,750,0
1126540,642.60,916,760,0
1126550,666.29,916,749,0
1126560,684.42,916,760,0
1126571,694.62,916,749,0
1126580,698.76,916,759,0
1126590,695.75,916,749,0
1126600,687.51,916,760,0
1126610,673.47,916,749,0
1126620,656.44,916,759,0
1126630,635.65,916,750,0
1126640,613.86,916,759,0
1126650,590.07,916,750,0
1126660,566.82,916,759,0
1126670,542.88,916,750,0
1126680,520.20,916,760,0
1126690,497.42,916,750,0
1126700,476.55,916,759,0
1126710,456.12,916,750,0
1126720,438.17,916,760,0
1126730,421.19,916,750,0
1126740,407.29,916,759,0
1126750,394.90,916,750,0
1126760,385.89,916,759,0
1126770,378.72,916,750,0
1126780,374.78,916,759,0
1126790,372.06,916,750,0
1126800,371.87,916,760,0
1126810,372.38,916,750,0
1126820,374.67,916,759,0
1126830,376.69,916,750,0
1126840,379.61,916,760,0
1126850,381.66,916,750,0
1126860,384.08,916,759,0
1126871,385.12,916,750,0
1126881,386.03,916,760,0
1126891,385.42,916,751,0
1126901,384.69,916,759,0
1126912,382.56,916,751,0
1126921,380.59,916,760,0
1126931,377.67,916,751,0
1126941,375.33,916,759,0
1126951,372.31,916,751,0
1126961,369.86,916,759,0
1126971,366.82,916,751,0
1126981,364.56,916,759,0
1126991,362.03,916,751,0
1127001,360.44,916,760,0
1127011,358.76,916,751,0
1127021,358.06,916,759,0
1127031,357.36,916,751,0
1127041,357.72,916,760,0
1127051,357.89,916,751,0
1127061,358.91,916,759,0
1127071,359.58,916,751,0
1127081,360.61,916,760,0
1127091,361.20,916,751,0
1127101,362.47,916,760,0
1127111,363.27,916,751,0
1127121,364.47,916,760,0
1127131,364.93,916,751,0
1127141,365.60,916,759,0
1127151,365.59,916,751,0
1127161,365.80,916,760,0
1127171,365.04,916,751,0
1127181,364.52,916,759,0
1127191,363.59,916,751,0
1127201,363.33,916,759,0
1127212,362.93,916,752,0
1127222,363.25,916,759,0
1127232,363.35,916,753,0
1127242,363.93,916,760,0
1127252,364.38,916,754,0
1127262,365.04,916,759,0
1127272,365.15,916,752,0
1127282,365.32,916,760,0
1127292,365.14,916,754,0
1127302,365.23,916,759,0
1127312,365.20,916,753,0
1127322,365.57,916,759,0
1127332,366.56,916,754,0
1127342,369.13,916,759,0
1127352,373.55,916,752,0
1127362,380.93,916,759,0
1127382,391.88,913,758,0
1127385,407.21,913,756,0
1127394,427.85,913,756,0
1127404,453.27,913,757,0
1127414,482.76,913,758,0
1127425,514.72,913,756,0
1127435,547.80,913,758,0
1127445,579.49,913,754,0
1127455,608.57,913,760,0
1127465,631.63,913,753,0
1127475,648.58,913,758,0
1127485,657.84,913,754,0
1127495,660.41,913,759,0
1127505,655.40,913,753,0
1127515,645.00,913,759,0
1127525,628.97,913,754,0
1127535,609.99,913,760,0
1127545,587.37,913,753,0
1127555,564.07,913,759,0
1127565,539.54,913,755,0
1127575,516.15,913,760,0
1127585,492.83,913,754,0
1127596,471.75,913,760,0
1127606,451.51,913,752,0
1127616,434.64,913,760,0
1127626,419.11,913,752,0
1127636,406.99,913,760,0
1127646,396.49,913,752,0
1127656,389.62,913,760,0
1127666,384.25,913,752,0
1127676,382.42,913,760,0
1127686,381.69,913,752,0
1127696,383.58,913,760,0
1127706,385.77,913,752,0
1127716,389.44,913,759,0
1127726,392.22,913,752,0
1127736,395.71,913,760,0
1127746,397.55,913,751,0
1127756,399.62,913,760,0
1127767,399.77,913,751,0
1127777,399.89,913,760,0
1127787,398.33,913,751,0
1127797,396.86,913,759,0
1127808,393.90,913,750,0
1127817,391.53,913,760,0
1127827,387.73,913,751,0
1127837,384.85,913,760,0
1127847,380.91,913,750,0
1127857,377.98,913,759,0
1127867,374.56,913,751,0
1127877,372.51,913,760,0
1127887,369.91,913,750,0
1127897,368.78,913,760,0
1127907,366.96,913,751,0
1127917,366.33,913,760,0
1127927,365.20,913,750,0
1127937,365.31,913,760,0
1127947,364.75,913,751,0
1127957,365.25,913,759,0
1127967,364.96,913,750,0
1127977,365.74,913,760,0
1127987,366.12,913,751,0
1127997,367.54,913,759,0
1128007,368.07,913,750,0
1128017,369.42,913,760,0
1128027,369.81,913,751,0
1128037,371.15,913,760,0
1128047,371.79,913,750,0
1128057,373.22,913,760,0
1128067,373.71,913,751,0
1128077,375.00,913,760,0
1128087,375.30,913,750,0
1128097,376.28,913,760,0
1128108,376.11,913,750,0
1128118,376.21,913,759,0
1128128,375.29,913,750,0
1128138,375.37,913,760,0
1128148,375.35,913,751,0
1128158,377.13,913,759,0
1128168,380.05,913,750,0
1128178,386.50,913,760,0
1128188,396.12,913,750,0
1128207,410.57,826,749,0
1128210,428.87,826,752,0
1128219,452.48,826,760,0
1128229,479.59,826,751,0
1128239,510.06,826,760,0
1128249,540.94,826,750,0
1128259,571.64,826,760,0
1128269,599.22,826,751,0
1128279,623.07,826,760,0
1128289,640.28,826,750,0
1128299,651.25,826,760,0
1128309,654.69,826,751,0
1128320,651.95,826,759,0
1128329,642.54,826,750,0
1128339,628.45,826,760,0
1128349,609.59,826,751,0
1128359,588.07,826,759,0
1128369,564.13,826,751,0
1128379,539.84,826,760,0
1128389,515.03,826,751,0
1128399,491.23,826,759,0
1128409,468.28,826,751,0
1128419,447.71,826,759,0
1128429,429.07,826,751,0
1128439,413.40,826,759,0
1128449,400.17,826,751,0
1128459,390.65,826,759,0
1128469,384.07,826,752,0
1128479,381.00,826,759,0
1128489,380.32,826,752,0
1128499,382.49,826,759,0
1128509,386.07,826,751,0
1128519,391.19,826,759,0
1128529,396.15,826,752,0
1128539,401.33,826,759,0
1128549,405.56,826,752,0
1128559,409.08,826,759,0
1128569,411.07,826,752,0
1128579,412.12,826,759,0
1128589,411.53,826,751,0
1128599,410.08,826,759,0
1128609,407.10,826,752,0
1128620,403.56,826,759,0
1128630,399.10,826,753,0
1128640,394.44,826,759,0
1128650,389.64,826,754,0
1128660,385.33,826,759,0
1128670,381.38,826,753,0
1128680,378.35,826,759,0
1128690,375.67,826,754,0
1128700,373.76,826,759,0
1128710,372.33,826,753,0
1128720,371.59,826,759,0
1128730,371.33,826,754,0
1128740,371.53,826,759,0
1128750,372.06,826,753,0
1128760,373.02,826,759,0
1128770,374.39,826,754,0
1128780,376.03,826,759,0
1128791,377.73,826,755,0
1128801,379.23,826,759,0
1128811,380.62,826,756,0
1128821,381.67,826,758,0
1128832,382.67,826,758,0
1128841,383.16,826,759,0
1128851,383.62,826,756,0
1128861,383.48,826,758,0
1128871,383.55,826,758,0
1128881,383.30,826,759,0
1128891,383.12,826,756,0
1128901,382.44,826,758,0
1128911,381.97,826,758,0
1128921,381.16,826,759,0
1128931,380.90,826,756,0
1128941,380.89,826,758,0
1128951,382.34,826,758,0
1128961,385.45,826,759,0
1128971,391.70,826,756,0
1128981,401.26,826,758,0
1128991,415.75,826,758,0
1129011,434.90,803,757,0
1129014,459.40,803,761,0
1129023,487.82,803,752,0
1129033,519.89,803,760,0
1129043,552.58,803,751,0
1129053,585.32,803,760,0
1129063,614.28,803,752,0
1129073,639.18,803,760,0
1129083,656.96,803,751,0
1129093,668.50,803,760,0
1129103,671.95,803,752,0
1129113,669.52,803,760,0
1129123,659.85,803,751,0
1129133,646.18,803,760,0
1129143,627.53,803,752,0
1129153,607.05,803,760,0
1129163,583.47,803,751,0
1129174,559.63,803,760,0
1129183,534.71,803,752,0
1129193,511.35,803,760,0
1129203,488.19,803,752,0
1129213,467.65,803,759,0
1129223,448.30,803,753,0
1129233,432.61,803,760,0
1129243,418.93,803,752,0
1129253,409.00,803,760,0
1129263,400.95,803,753,0
1129273,396.55,803,760,0
1129283,393.56,803,752,0
1129293,393.65,803,760,0
1129303,394.27,803,753,0
1129313,396.84,803,760,0
1129323,399.08,803,752,0
1129333,402.48,803,760,0
1129344,404.74,803,751,0
1129353,407.47,803,760,0
1129363,408.36,803,752,0
1129373,409.32,803,760,0
1129383,408.45,803,751,0
1129393,407.63,803,760,0
1129403,404.96,803,752,0
1129413,402.48,803,760,0
1129423,398.52,803,751,0
1129433,395.28,803,760,0
1129443,390.83,803,752,0
1129453,387.36,803,760,0
1129463,382.97,803,752,0
1129473,380.02,803,760,0
1129483,376.63,803,752,0
1129493,374.85,803,760,0
1129503,372.58,803,751,0
1129513,371.89,803,760,0
1129523,370.77,803,752,0
1129533,371.14,803,760,0
1129543,370.88,803,751,0
1129553,371.82,803,759,0
1129563,372.00,803,752,0
1129573,373.46,803,760,0
1129583,374.18,803,751,0
1129593,375.84,803,759,0
1129603,376.62,803,752,0
1129613,378.36,803,760,0
1129623,379.07,803,751,0
1129633,380.63,803,759,0
1129644,380.96,803,751,0
1129654,382.00,803,760,0
1129664,381.78,803,750,0
1129674,382.23,803,759,0
1129684,381.61,803,750,0
1129694,381.81,803,760,0
1129704,380.97,803,751,0
1129714,381.06,803,759,0
1129724,380.27,803,750,0
1129734,380.88,803,760,0
1129744,381.43,803,750,0
1129754,384.00,803,759,0
1129764,387.81,803,750,0
1129774,395.28,803,760,0
1129784,405.70,803,750,0
1129794,421.73,803,759,0
1129814,442.04,803,758,0
1129817,467.79,803,760,0
1129826,497.55,803,750,0
1129836,531.07,803,759,0
1129846,565.46,803,750,0
1129857,599.61,803,760,0
1129867,630.46,803,751,0
1129877,657.15,803,759,0
1129887,677.63,803,751,0
1129897,691.07,803,759,0
1129907,696.75,803,751,0
1129917,695.67,803,759,0
1129927,688.01,803,751,0
1129937,674.98,803,759,0
1129947,657.33,803,751,0
1129957,636.74,803,759,0
1129967,613.72,803,752,0
1129977,589.63,803,759,0
1129987,564.89,803,751,0
1129997,540.66,803,759,0
1130007,516.94,803,752,0
1130017,494.58,803,759,0
1130028,473.28,803,753,0
1130038,453.95,803,759,0
1130048,436.52,803,754,0
1130058,421.37,803,759,0
1130068,408.49,803,755,0
1130078,398.23,803,759,0
1130088,390.49,803,755,0
1130098,385.37,803,759,0
1130108,382.73,803,755,0
1130118,382.08,803,759,0
1130128,382.96,803,755,0
1130138,384.81,803,759,0
1130148,387.48,803,755,0
1130158,390.12,803,759,0
1130168,392.49,803,754,0
1130178,393.97,803,759,0
1130188,394.71,803,755,0
1130199,394.41,803,758,0
1130209,393.39,803,757,0
1130219,391.17,803,758,0
1130229,388.55,803,758,0
1130240,385.08,803,756,0
1130249,381.59,803,757,0
1130259,377.73,803,758,0
1130269,374.38,803,759,0
1130279,370.84,803,756,0
1130289,368.06,803,757,0
1130299,365.38,803,758,0
1130309,363.94,803,759,0
1130319,362.63,803,756,0
1130329,362.18,803,757,0
1130339,361.66,803,758,0
1130349,362.10,803,758,0
1130359,362.24,803,756,0
1130369,362.98,803,757,0
1130379,363.37,803,758,0
1130389,364.51,803,758,0
1130399,365.13,803,756,0
1130409,366.33,803,759,0
1130419,367.17,803,758,0
1130429,368.58,803,758,0
1130439,369.43,803,756,0
1130449,370.68,803,759,0
1130459,371.29,803,757,0
1130469,372.57,803,758,0
1130479,373.21,803,756,0
1130489,374.18,803,759,0
1130499,374.64,803,758,0
1130509,375.56,803,758,0
1130519,375.65,803,756,0
1130529,376.14,803,759,0
1130540,375.54,803,755,0
1130550,375.34,803,760,0
1130560,374.04,803,753,0
1130570,373.42,803,760,0
1130580,372.10,803,752,0
1130590,372.24,803,759,0
1130600,372.51,803,753,0
1130610,375.74,803,760,0
1130620,381.01,803,752,0
1130630,390.90,803,760,0
1130649,404.39,836,758,0
1130652,423.69,836,760,0
1130661,447.44,836,751,0
1130671,477.09,836,760,0
1130681,509.42,836,751,0
1130691,544.74,836,760,0
1130701,579.32,836,750,0
1130711,612.65,836,760,0
1130721,641.38,836,751,0
1130731,665.05,836,759,0
1130741,680.72,836,750,0
1130752,689.81,836,760,0
1130761,690.59,836,751,0
1130771,685.62,836,759,0
1130781,673.77,836,750,0
1130791,657.98,836,760,0
1130801,637.72,836,751,0
1130811,616.03,836,759,0
1130821,591.85,836,751,0
1130831,567.85,836,760,0
1130841,542.70,836,751,0
1130851,518.92,836,759,0
1130861,494.86,836,751,0
1130871,472.66,836,759,0
1130881,450.69,836,751,0
1130891,431.37,836,759,0
1130901,413.04,836,751,0
1130911,397.86,836,760,0
1130921,384.36,836,751,0
1130931,374.48,836,759,0
1130941,366.45,836,751,0
1130951,362.29,836,760,0
1130961,359.76,836,751,0
1130971,360.43,836,760,0
1130981,361.93,836,751,0
1130991,365.59,836,760,0
1131001,369.14,836,750,0
1131011,373.90,836,759,0
1131021,377.40,836,751,0
1131031,381.27,836,760,0
1131041,383.33,836,750,0
1131052,385.42,836,759,0
1131062,385.59,836,750,0
1131072,385.76,836,760,0
1131082,384.24,836,750,0
1131092,382.84,836,760,0
1131102,380.02,836,750,0
1131112,377.66,836,760,0
1131122,374.29,836,750,0
1131132,371.63,836,759,0
1131142,368.18,836,750,0
1131152,365.86,836,760,0
1131162,363.16,836,750,0
1131172,361.61,836,760,0
1131182,359.76,836,750,0
1131192,359.14,836,760,0
1131202,358.24,836,750,0
1131212,358.60,836,760,0
1131223,358.50,836,750,0
1131233,359.38,836,759,0
1131243,359.74,836,751,0
1131253,360.93,836,759,0
1131264,361.55,836,751,0
1131273,363.06,836,760,0
1131283,363.98,836,751,0
1131293,365.62,836,759,0
1131303,366.67,836,751,0
1131313,368.32,836,760,0
1131323,369.25,836,751,0
1131333,370.46,836,760,0
1131343,370.79,836,751,0
1131353,371.37,836,760,0
1131363,370.92,836,751,0
1131373,370.56,836,760,0
1131383,369.32,836,751,0
1131393,368.28,836,760,0
1131403,366.44,836,751,0
1131413,364.98,836,759,0
1131423,362.88,836,751,0
1131433,361.38,836,759,0
1131443,359.59,836,751,0
1131453,358.94,836,759,0
1131463,358.66,836,751,0
1131473,360.30,836,759,0
1131483,363.21,836,750,0
1131493,369.15,836,759,0
1131503,378.06,836,750,0
1131513,391.59,836,759,0
1131532,409.02,883,758,0
1131535,431.22,883,760,0
1131544,457.68,883,751,0
1131554,488.03,883,759,0
1131564,519.82,883,751,0
1131574,552.02,883,759,0
1131584,582.10,883,751,0
1131594,608.94,883,759,0
1131604,630.69,883,752,0
1131614,646.00,883,759,0
1131624,653.97,883,751,0
1131634,655.48,883,759,0
1131644,650.23,883,752,0
1131654,639.75,883,759,0
1131664,624.40,883,751,0
1131674,605.76,883,759,0
1131684,584.41,883,752,0
1131694,562.08,883,759,0
1131704,538.96,883,751,0
1131714,516.26,883,759,0
1131724,493.81,883,753,0
1131735,472.48,883,759,0
1131745,452.28,883,754,0
1131755,433.85,883,759,0
1131765,417.23,883,755,0
1131776,402.76,883,759,0
1131785,390.62,883,754,0
1131795,380.92,883,759,0
1131805,373.87,883,755,0
1131815,369.20,883,759,0
1131825,366.91,883,754,0
1131835,366.51,883,759,0
1131845,367.77,883,755,0
1131855,370.07,883,759,0
1131865,373.13,883,754,0
1131875,376.39,883,759,0
1131885,379.70,883,755,0
1131895,382.36,883,759,0
1131905,384.31,883,754,0
1131915,385.46,883,759,0
1131925,385.88,883,755,0
1131935,385.32,883,759,0
1131945,384.02,883,756,0
1131955,381.91,883,759,0
1131965,379.45,883,755,0
1131975,376.45,883,759,0
1131985,373.44,883,756,0
1131995,370.27,883,759,0
1132005,367.40,883,755,0
1132015,364.49,883,759,0
1132025,362.12,883,756,0
1132035,360.03,883,759,0
1132045,358.60,883,755,0
1132055,357.31,883,759,0
1132065,356.62,883,756,0
1132076,356.13,883,758,0
1132086,356.39,883,758,0
1132096,356.57,883,757,0
1132106,357.39,883,759,0
1132116,358.09,883,756,0
1132126,359.30,883,758,0
1132136,360.24,883,757,0
1132146,361.80,883,759,0
1132156,362.89,883,756,0
1132166,364.55,883,758,0
1132176,365.50,883,757,0
1132186,366.98,883,759,0
1132196,367.63,883,756,0
1132206,368.72,883,758,0
1132216,368.98,883,757,0
1132226,369.71,883,759,0
1132236,369.59,883,756,0
1132247,369.97,883,760,0
1132257,369.38,883,754,0
1132267,369.61,883,760,0
1132277,368.78,883,753,0
1132288,368.59,883,760,0
1132297,367.51,883,754,0
1132307,367.23,883,760,0
1132317,366.13,883,753,0
1132327,365.88,883,760,0
1132337,364.76,883,754,0
1132347,364.87,883,760,0
1132357,364.61,883,752,0
1132367,366.31,883,760,0
1132377,368.75,883,754,0
1132387,374.57,883,760,0
1132397,382.63,883,752,0
1132407,395.47,883,759,0
1132426,411.70,894,758,0
1132429,433.05,894,760,0
1132438,458.06,894,751,0
1132448,486.89,894,759,0
1132459,516.19,894,750,0
1132468,546.43,894,760,0
1132478,573.82,894,750,0
1132488,598.64,894,760,0
1132498,617.57,894,750,0
1132508,630.85,894,760,0
1132518,636.68,894,750,0
1132528,636.99,894,760,0
1132538,630.22,894,750,0
1132548,619.14,894,759,0
1132558,602.64,894,750,0
1132568,583.76,894,759,0
1132578,561.55,894,750,0
1132588,539.18,894,759,0
1132598,515.47,894,750,0
1132608,493.00,894,759,0
1132618,470.24,894,750,0
1132628,449.73,894,759,0
1132638,430.22,894,751,0
1132648,413.91,894,760,0
1132658,399.11,894,751,0
1132668,388.02,894,760,0
1132678,378.84,894,751,0
1132688,373.75,894,760,0
1132698,370.61,894,751,0
1132708,370.85,894,759,0
1132718,372.01,894,751,0
1132728,375.35,894,760,0
1132738,378.59,894,751,0
1132748,383.17,894,759,0
1132759,386.46,894,750,0
1132769,390.01,894,760,0
1132779,391.76,894,750,0
1132789,393.29,894,759,0
1132800,392.99,894,750,0
1132809,392.52,894,760,0
1132819,390.35,894,750,0
1132829,388.36,894,760,0
1132839,384.99,894,750,0
1132849,382.08,894,760,0
1132859,378.20,894,750,0
1132869,375.18,894,760,0
1132879,371.57,894,750,0
1132889,369.00,894,760,0
1132899,366.04,894,750,0
1132909,364.40,894,759,0
1132919,362.52,894,750,0
1132929,362.02,894,760,0
1132939,361.12,894,750,0
1132949,361.34,894,759,0
1132959,361.11,894,750,0
1132969,361.89,894,760,0
1132979,362.14,894,750,0
1132989,363.25,894,760,0
1132999,363.86,894,750,0
1133009,365.23,894,760,0
1133019,365.98,894,750,0
1133029,367.36,894,760,0
1133039,367.85,894,750,0
1133049,368.71,894,760,0
1133059,368.54,894,750,0
1133069,368.85,894,760,0
1133079,368.34,894,750,0
1133089,368.32,894,760,0
1133100,367.50,894,751,0
1133110,367.26,894,759,0
1133120,366.45,894,751,0
1133130,366.23,894,759,0
1133140,365.31,894,752,0
1133150,365.13,894,760,0
1133160,364.36,894,751,0
1133170,364.38,894,760,0
1133180,364.82,894,752,0
1133190,367.06,894,760,0
1133200,370.86,894,751,0
1133210,377.71,894,760,0
1133220,387.31,894,751,0
1133239,401.28,813,749,0
1133242,419.11,813,753,0
1133251,441.40,813,760,0
1133261,466.83,813,752,0
1133271,494.86,813,759,0
1133281,523.45,813,751,0
1133291,551.77,813,760,0
1133301,577.47,813,752,0
1133312,599.61,813,759,0
1133321,616.10,813,751,0
1133331,626.83,813,760,0
1133341,630.99,813,752,0
1133351,629.15,813,759,0
1133361,621.22,813,751,0
1133371,608.55,813,759,0
1133381,591.50,813,752,0
1133391,571.47,813,759,0
1133401,549.30,813,752,0
1133411,526.41,813,759,0
1133421,503.36,813,753,0
1133431,481.01,813,759,0
1133441,459.58,813,752,0
1133451,440.20,813,759,0
1133461,422.96,813,753,0
1133471,408.23,813,759,0
1133481,395.99,813,754,0
1133491,386.61,813,759,0
1133501,379.87,813,753,0
1133511,376.05,813,759,0
1133521,374.45,813,754,0
1133531,375.17,813,759,0
1133541,377.39,813,753,0
1133551,380.92,813,759,0
1133561,384.97,813,754,0
1133571,389.35,813,759,0
1133581,393.15,813,753,0
1133591,396.23,813,759,0
1133601,398.18,813,754,0
1133612,398.94,813,759,0
1133622,398.40,813,755,0
1133632,396.56,813,759,0
1133642,394.00,813,756,0
1133652,390.65,813,758,0
1133662,387.03,813,755,0
1133672,383.16,813,759,0
1133682,379.69,813,756,0
1133692,376.22,813,758,0
1133702,373.46,813,755,0
1133712,370.79,813,759,0
1133722,368.84,813,756,0
1133732,366.96,813,758,0
1133742,365.56,813,755,0
1133752,364.28,813,759,0
1133762,363.72,813,756,0
1133772,363.16,813,758,0
1133783,363.07,813,758,0
1133793,362.79,813,757,0
1133803,363.37,813,759,0
1133813,363.86,813,755,0
1133824,364.97,813,760,0
1133833,365.88,813,757,0
1133843,367.50,813,759,0
1133853,368.72,813,755,0
1133863,370.73,813,760,0
1133873,371.97,813,757,0
1133883,373.78,813,759,0
1133893,374.53,813,755,0
1133903,375.66,813,760,0
1133913,375.76,813,757,0
1133923,376.26,813,759,0
1133933,375.80,813,756,0
1133943,375.82,813,760,0
1133953,375.10,813,757,0
1133963,375.28,813,759,0
1133973,375.03,813,756,0
1133983,376.13,813,760,0
1133993,377.81,813,754,0
1134003,382.07,813,759,0
1134013,388.26,813,755,0
1134023,398.51,813,760,0
1134043,412.03,803,759,0
1134046,430.83,803,760,0
1134055,453.51,803,751,0
1134065,480.66,803,760,0
1134075,509.43,803,750,0
1134085,539.82,803,760,0
1134095,568.24,803,750,0
1134105,594.66,803,760,0
1134115,615.46,803,750,0
1134125,631.18,803,760,0
1134135,639.35,803,750,0
1134145,641.82,803,760,0
1134155,636.99,803,750,0
1134166,627.48,803,760,0
1134175,612.42,803,751,0
1134185,594.72,803,760,0
1134195,573.38,803,750,0
1134205,551.58,803,759,0
1134215,528.43,803,751,0
1134225,506.57,803,760,0
1134235,484.72,803,751,0
1134245,465.00,803,760,0
1134255,446.14,803,751,0
1134265,430.24,803,760,0
1134275,415.68,803,751,0
1134285,404.38,803,759,0
1134295,394.62,803,751,0
1134305,388.31,803,760,0
1134315,383.46,803,751,0
1134325,381.78,803,760,0
1134336,381.16,803,750,0
1134345,383.04,803,760,0
1134355,385.04,803,751,0
1134365,388.63,803,760,0
1134375,391.48,803,750,0
1134385,395.24,803,760,0
1134395,397.52,803,751,0
1134405,399.94,803,759,0
1134415,400.56,803,750,0
1134425,401.16,803,760,0
1134435,399.96,803,751,0
1134445,398.73,803,759,0
1134455,395.72,803,750,0
1134465,393.15,803,760,0
1134475,389.38,803,751,0
1134485,386.43,803,760,0
1134495,382.70,803,750,0
1134505,380.05,803,760,0
1134515,376.82,803,751,0
1134525,374.99,803,760,0
1134535,372.76,803,750,0
1134545,372.02,803,760,0
1134555,370.81,803,751,0
1134565,370.87,803,760,0
1134575,370.35,803,750,0
1134585,371.10,803,759,0
1134595,371.33,803,751,0
1134605,372.69,803,760,0
1134615,373.42,803,751,0
1134625,375.01,803,759,0
1134636,375.82,803,750,0
1134646,377.50,803,760,0
1134656,378.38,803,750,0
1134666,379.68,803,759,0
1134676,380.12,803,751,0
1134686,381.16,803,760,0
1134696,381.32,803,750,0
1134706,382.08,803,759,0
1134716,382.10,803,751,0
1134726,382.84,803,760,0
1134736,382.89,803,750,0
1134746,383.39,803,759,0
1134756,383.02,803,751,0
1134766,383.31,803,760,0
1134776,382.79,803,751,0
1134786,382.72,803,759,0
1134796,382.12,803,751,0
1134807,382.77,803,760,0
1134817,383.91,803,751,0
1134827,387.19,803,759,0
1134837,392.32,803,752,0
1134848,401.48,803,760,0
1134866,414.41,824,758,0
1134869,432.24,824,761,0
1134878,455.06,824,752,0
1134888,482.68,824,760,0
1134898,513.42,824,751,0
1134908,546.34,824,759,0
1134918,578.85,824,752,0
1134928,609.54,824,760,0
1134938,636.16,824,751,0
1134948,656.90,824,760,0
1134958,670.56,824,752,0
1134968,677.29,824,760,0
1134978,676.82,824,751,0
1134988,670.10,824,759,0
1134998,657.64,824,752,0
1135008,640.91,824,759,0
1135019,620.58,824,753,0
1135028,598.42,824,759,0
1135038,574.85,824,753,0
1135048,551.15,824,759,0
1135058,527.66,824,754,0
1135068,505.31,824,759,0
1135078,484.09,824,753,0
1135088,464.56,824,760,0
1135098,446.74,824,754,0
1135108,431.17,824,759,0
1135118,417.71,824,753,0
1135128,406.69,824,759,0
1135138,398.00,824,754,0
1135148,391.91,824,759,0
1135158,388.04,824,753,0
1135168,386.36,824,759,0
1135178,386.38,824,754,0
1135188,387.85,824,759,0
1135198,390.17,824,753,0
1135208,393.16,824,759,0
1135218,396.20,824,754,0
1135228,399.22,824,759,0
1135238,401.56,824,753,0
1135248,403.19,824,759,0
1135258,403.90,824,754,0
1135268,403.63,824,759,0
1135278,402.29,824,753,0
1135288,400.10,824,759,0
1135298,397.03,824,754,0
1135308,393.42,824,759,0
1135319,389.65,824,755,0
1135329,385.77,824,759,0
1135339,382.28,824,756,0
1135349,378.98,824,759,0
1135360,376.29,824,758,0
1135369,374.19,824,759,0
1135379,372.80,824,756,0
1135389,371.58,824,759,0
1135399,371.06,824,758,0
1135409,370.66,824,759,0
1135419,370.85,824,756,0
1135429,370.93,824,758,0
1135439,371.43,824,758,0
1135449,371.81,824,759,0
1135459,372.60,824,756,0
1135469,372.85,824,759,0
1135479,373.41,824,758,0
1135489,373.63,824,759,0
1135499,374.13,824,756,0
1135509,374.13,824,758,0
1135519,374.31,824,758,0
1135529,374.04,824,757,0
1135539,374.37,824,756,0
1135549,374.30,824,758,0
1135559,374.60,824,758,0
1135569,374.46,824,757,0
1135579,374.79,824,756,0
1135589,374.81,824,758,0
1135599,375.21,824,758,0
1135609,374.93,824,757,0
1135619,374.91,824,756,0
1135629,374.42,824,758,0
1135639,374.30,824,758,0
1135649,373.61,824,757,0
1135660,373.55,824,759,0
1135670,373.26,824,756,0
1135680,374.47,824,760,0
1135690,376.47,824,754,0
1135700,381.34,824,760,0
1135719,388.57,853,758,0
1135722,400.36,853,761,0
1135731,416.53,853,752,0
1135741,438.79,853,760,0
1135751,464.87,853,752,0
1135761,495.81,853,760,0
1135771,528.31,853,751,0
1135781,562.63,853,760,0
1135791,594.88,853,752,0
1135801,624.23,853,760,0
1135811,647.48,853,751,0
1135821,665.63,853,760,0
1135831,676.07,853,752,0
1135841,680.42,853,760,0
1135851,677.17,853,751,0
1135861,669.32,853,760,0
1135872,655.76,853,751,0
1135881,639.68,853,760,0
1135891,620.32,853,751,0
1135901,600.68,853,760,0
1135911,579.78,853,751,0
1135921,560.00,853,760,0
1135931,539.64,853,752,0
1135941,521.24,853,760,0
1135951,502.78,853,751,0
1135961,486.35,853,760,0
1135971,469.78,853,752,0
1135981,455.36,853,760,0
1135991,441.33,853,751,0
1136001,429.96,853,760,0
1136011,419.13,853,752,0
1136021,410.90,853,760,0
1136031,403.52,853,751,0
1136041,398.99,853,759,0
1136051,395.27,853,752,0
1136061,393.99,853,760,0
1136071,392.79,853,751,0
1136081,393.54,853,760,0
1136091,394.06,853,752,0
1136101,395.63,853,760,0
1136111,396.00,853,751,0
1136121,396.81,853,760,0
1136131,396.18,853,752,0
1136141,396.04,853,760,0
1136151,394.36,853,751,0
1136161,393.09,853,760,0
1136172,390.45,853,751,0
1136182,388.60,853,760,0
1136192,385.59,853,751,0
1136202,383.31,853,760,0
1136212,380.05,853,750,0
1136222,377.85,853,760,0
1136232,374.94,853,751,0
1136242,373.24,853,760,0
1136252,371.20,853,751,0
1136262,370.71,853,760,0
1136272,370.11,853,751,0
1136282,370.89,853,760,0
1136292,371.44,853,750,0
1136302,373.28,853,760,0
1136312,374.61,853,751,0
1136322,376.74,853,760,0
1136332,377.93,853,750,0
1136343,379.71,853,760,0
1136353,380.44,853,750,0
1136363,381.51,853,760,0
1136373,381.36,853,751,0
1136384,381.51,853,760,0
1136393,380.54,853,751,0
1136403,380.08,853,760,0
1136413,378.73,853,750,0
1136423,378.08,853,760,0
1136433,376.77,853,750,0
1136443,376.15,853,760,0
1136453,374.95,853,750,0
1136463,374.45,853,760,0
1136473,373.37,853,750,0
1136483,372.92,853,760,0
1136493,371.87,853,750,0
1136503,371.35,853,760,0
1136513,370.35,853,751,0
1136523,370.16,853,760,0
1136533,369.68,853,750,0
1136543,370.51,853,760,0
1136553,371.98,853,751,0
1136563,375.76,853,760,0
1136573,381.57,853,750,0
1136583,391.43,853,760,0
1136593,404.76,853,751,0
1136612,423.09,893,749,0
1136615,444.83,893,753,0
1136624,471.11,893,760,0
1136634,499.49,893,751,0
1136644,529.34,893,760,0
1136654,557.74,893,751,0
1136664,583.75,893,760,0
1136674,604.87,893,751,0
1136684,621.15,893,760,0
1136694,630.10,893,751,0
1136704,632.73,893,760,0
1136714,628.70,893,751,0
1136724,619.36,893,759,0
1136734,605.28,893,751,0
1136744,588.27,893,760,0
1136754,568.52,893,752,0
1136764,548.00,893,759,0
1136774,526.87,893,751,0
1136784,506.47,893,760,0
1136794,486.70,893,752,0
1136804,468.36,893,759,0
1136814,450.90,893,752,0
1136824,435.33,893,760,0
1136834,420.96,893,752,0
1136844,408.46,893,759,0
1136855,397.39,893,753,0
1136865,388.44,893,759,0
1136875,381.11,893,754,0
1136885,375.81,893,759,0
1136896,372.22,893,755,0
1136905,370.74,893,759,0
1136915,370.73,893,754,0
1136925,372.18,893,759,0
1136935,374.74,893,755,0
1136945,378.21,893,760,0
1136955,382.22,893,754,0
1136965,386.18,893,759,0
1136975,389.77,893,755,0
1136985,392.80,893,760,0
1136995,394.83,893,754,0
1137005,395.65,893,759,0
1137015,395.41,893,755,0
1137025,394.22,893,760,0
1137035,392.18,893,754,0
1137045,389.17,893,759,0
1137055,385.52,893,755,0
1137065,381.72,893,759,0
1137075,378.03,893,754,0
1137085,374.47,893,759,0
1137095,371.33,893,755,0
1137105,368.44,893,759,0
1137115,366.42,893,754,0
1137125,365.05,893,759,0
1137135,364.31,893,755,0
1137145,363.79,893,759,0
1137155,363.68,893,754,0
1137165,363.65,893,759,0
1137175,363.97,893,755,0
1137185,364.15,893,759,0
1137196,364.62,893,756,0
1137206,364.82,893,759,0
1137216,365.34,893,758,0
1137226,365.54,893,757,0
1137236,365.89,893,759,0
1137246,365.80,893,759,0
1137256,365.73,893,758,0
1137266,365.08,893,757,0
1137276,364.80,893,759,0
1137286,363.96,893,758,0
1137296,363.50,893,758,0
1137306,362.41,893,758,0
1137316,361.90,893,759,0
1137326,360.90,893,758,0
1137336,360.20,893,758,0
1137346,358.86,893,757,0
1137356,358.21,893,759,0
1137367,357.08,893,756,0
1137377,357.01,893,760,0
1137387,356.45,893,755,0
1137397,357.17,893,760,0
1137408,357.85,893,753,0
1137417,360.21,893,760,0
1137427,363.23,893,754,0
1137437,369.03,893,760,0
1137447,376.52,893,752,0
1137466,388.11,854,753,0
1137469,402.61,854,751,0
1137478,423.00,854,760,0
1137488,446.48,854,751,0
1137498,473.81,854,760,0
1137508,502.07,854,751,0
1137518,531.49,854,760,0
1137528,558.51,854,751,0
1137538,583.22,854,760,0
1137548,601.49,854,751,0
1137558,614.76,854,760,0
1137568,620.62,854,751,0
1137579,620.90,854,760,0
1137588,614.29,854,751,0
1137598,603.53,854,760,0
1137608,587.43,854,751,0
1137618,569.04,854,760,0
1137628,547.77,854,752,0
1137638,526.67,854,760,0
1137648,504.53,854,752,0
1137658,483.80,854,760,0
1137668,463.11,854,752,0
1137678,445.04,854,760,0
1137688,427.84,854,752,0
1137698,413.53,854,760,0
1137708,400.30,854,752,0
1137718,390.35,854,760,0
1137728,381.76,854,752,0
1137738,376.48,854,760,0
1137748,372.48,854,751,0
1137758,371.43,854,760,0
1137768,370.92,854,752,0
1137778,372.61,854,760,0
1137788,374.14,854,751,0
1137798,377.27,854,760,0
1137808,379.63,854,752,0
1137818,382.74,854,760,0
1137828,384.41,854,751,0
1137838,386.56,854,760,0
1137848,386.99,854,752,0
1137858,387.55,854,760,0
1137868,386.14,854,751,0
1137879,384.73,854,760,0
1137889,381.72,854,751,0
1137899,379.15,854,760,0
1137909,375.33,854,750,0
1137920,372.28,854,760,0
1137929,368.55,854,751,0
1137939,365.99,854,760,0
1137949,362.99,854,750,0
1137959,361.11,854,760,0
1137969,358.89,854,751,0
1137979,358.07,854,760,0
1137989,356.97,854,750,0
1137999,357.15,854,760,0
1138009,356.94,854,751,0
1138019,357.81,854,760,0
1138029,358.21,854,751,0
1138039,359.56,854,760,0
1138049,360.08,854,751,0
1138059,361.38,854,760,0
1138069,361.65,854,750,0
1138079,362.49,854,760,0
1138089,362.47,854,751,0
1138099,363.14,854,760,0
1138109,363.01,854,751,0
1138119,363.52,854,760,0
1138129,363.24,854,751,0
1138139,363.68,854,760,0
1138149,363.22,854,751,0
1138159,363.28,854,760,0
1138169,362.43,854,751,0
1138179,362.21,854,760,0
1138189,361.38,854,751,0
1138199,361.44,854,760,0
1138209,361.30,854,751,0
1138220,363.14,854,760,0
1138230,366.19,854,751,0
1138240,372.39,854,760,0
1138250,381.06,854,751,0
1138260,394.03,854,760,0
1138279,410.17,813,759,0
1138282,430.52,813,759,0
1138291,453.77,813,752,0
1138301,479.55,813,760,0
1138311,505.53,813,751,0
1138321,531.04,813,760,0
1138331,553.66,813,751,0
1138341,572.87,813,760,0
1138351,586.88,813,751,0
1138361,595.28,813,760,0
1138371,597.34,813,752,0
1138381,594.02,813,759,0
1138391,585.23,813,751,0
1138401,572.26,813,759,0
1138411,555.47,813,752,0
1138421,536.43,813,759,0
1138432,515.60,813,753,0
1138441,494.46,813,759,0
1138451,473.02,813,752,0
1138461,452.57,813,759,0
1138471,433.24,813,753,0
1138481,416.29,813,759,0
1138491,401.54,813,752,0
1138501,389.72,813,759,0
1138511,380.59,813,753,0
1138521,374.89,813,759,0
1138531,371.75,813,752,0
1138541,371.40,813,760,0
1138551,372.78,813,753,0
1138561,375.97,813,759,0
1138571,380.14,813,752,0
1138581,385.07,813,760,0
1138591,389.80,813,753,0
1138601,394.23,813,759,0
1138611,397.76,813,752,0
1138621,400.66,813,760,0
1138631,402.39,813,753,0
1138641,403.13,813,759,0
1138651,402.49,813,752,0
1138661,401.19,813,760,0
1138671,399.16,813,753,0
1138681,396.80,813,759,0
1138691,393.77,813,752,0
1138701,390.63,813,760,0
1138711,387.14,813,753,0
1138721,383.80,813,759,0
1138732,380.56,813,754,0
1138742,377.69,813,759,0
1138752,375.25,813,755,0
1138762,373.29,813,759,0
1138772,371.96,813,756,0
1138782,371.24,813,760,0
1138792,371.21,813,755,0
1138802,371.45,813,759,0
1138812,372.34,813,756,0
1138822,373.40,813,760,0
1138832,374.82,813,755,0
1138842,376.16,813,759,0
1138852,377.61,813,756,0
1138862,378.93,813,759,0
1138872,380.19,813,755,0
1138882,380.91,813,759,0
1138892,381.49,813,756,0
1138903,381.64,813,759,0
1138913,381.75,813,758,0
1138923,381.44,813,757,0
1138933,381.27,813,759,0
1138944,380.71,813,757,0
1138953,380.67,813,758,0
1138963,380.86,813,758,0
1138973,382.66,813,759,0
1138983,385.63,813,757,0
1138993,391.36,813,758,0
1139003,399.48,813,757,0
1139013,411.93,813,759,0
1139023,427.77,813,756,0
1139033,447.81,813,758,0
1139052,470.37,773,757,0
1139055,495.41,773,760,0
1139064,520.75,773,752,0
1139074,546.15,773,759,0
1139084,568.52,773,754,0
1139094,587.91,773,760,0
1139104,601.78,773,752,0
1139115,611.02,773,760,0
1139124,614.44,773,754,0
1139134,613.28,773,760,0
1139144,606.34,773,752,0
1139154,596.12,773,760,0
1139164,581.77,773,754,0
1139174,565.94,773,760,0
1139184,547.44,773,753,0
1139194,528.71,773,760,0
1139204,508.91,773,754,0
1139214,490.42,773,760,0
1139224,471.74,773,753,0
1139234,455.27,773,760,0
1139244,439.64,773,755,0
1139254,426.84,773,760,0
1139264,415.19,773,753,0
1139274,406.56,773,760,0
1139284,399.37,773,752,0
1139294,395.61,773,760,0
1139304,393.11,773,753,0
1139314,393.38,773,760,0
1139324,394.38,773,752,0
1139334,397.57,773,760,0
1139344,400.65,773,753,0
1139354,404.66,773,760,0
1139364,407.20,773,752,0
1139374,410.01,773,760,0
1139384,411.08,773,753,0
1139394,412.13,773,760,0
1139404,411.23,773,752,0
1139415,410.35,773,760,0
1139425,407.80,773,752,0
1139435,405.63,773,760,0
1139445,401.97,773,751,0
1139456,398.94,773,760,0
1139465,394.76,773,752,0
1139475,391.66,773,760,0
1139485,387.60,773,751,0
1139495,384.94,773,760,0
1139505,381.74,773,752,0
1139515,379.98,773,760,0
1139525,377.75,773,751,0
1139535,376.97,773,759,0
1139545,375.69,773,752,0
1139555,375.87,773,760,0
1139565,375.44,773,751,0
1139575,376.25,773,760,0
1139585,376.43,773,752,0
1139595,377.85,773,760,0
1139605,378.32,773,751,0
1139615,379.60,773,759,0
1139625,379.89,773,751,0
1139635,381.04,773,760,0
1139645,381.20,773,751,0
1139655,382.12,773,760,0
1139665,381.83,773,751,0
1139675,382.39,773,760,0
1139685,382.10,773,751,0
1139695,382.59,773,760,0
1139705,382.11,773,751,0
1139715,382.76,773,760,0
1139725,383.13,773,751,0
1139735,385.62,773,759,0
1139745,389.16,773,751,0
1139756,396.02,773,760,0
1139766,405.35,773,750,0
1139776,419.35,773,759,0
1139786,436.64,773,750,0
1139806,458.61,753,749,0
1139809,483.11,753,753,0
1139818,510.72,753,759,0
1139828,538.40,753,751,0
1139838,565.75,753,760,0
1139848,590.21,753,751,0
1139858,611.24,753,759,0
1139868,626.55,753,751,0
1139878,636.41,753,759,0
1139888,639.85,753,750,0
1139898,638.31,753,759,0
1139908,631.61,753,751,0
1139918,620.97,753,759,0
1139928,606.71,753,751,0
1139938,590.60,753,759,0
1139948,572.68,753,751,0
1139958,554.13,753,759,0
1139969,534.93,753,752,0
1139979,516.27,753,759,0
1139989,498.14,753,753,0
1139999,481.30,753,759,0
1140009,465.78,753,754,0
1140019,452.26,753,759,0
1140029,440.31,753,753,0
1140039,430.45,753,759,0
1140049,422.43,753,754,0
1140059,416.43,753,759,0
1140069,412.27,753,754,0
1140079,409.75,753,759,0
1140089,408.84,753,754,0
1140099,409.19,753,759,0
1140109,410.37,753,753,0
1140119,412.06,753,759,0
1140129,414.01,753,754,0
1140140,415.90,753,759,0
1140150,417.51,753,755,0
1140160,418.13,753,759,0
1140170,418.22,753,756,0
1140180,417.34,753,758,0
1140190,415.99,753,756,0
1140200,413.68,753,759,0
1140210,410.78,753,757,0
1140220,406.94,753,758,0
1140230,403.19,753,756,0
1140240,399.15,753,759,0
1140250,395.67,753,757,0
1140260,392.04,753,758,0
1140270,389.20,753,756,0
1140280,386.74,753,759,0
1140290,385.45,753,757,0
1140300,384.33,753,758,0
1140311,384.14,753,759,0
1140321,383.97,753,757,0
1140331,384.75,753,759,0
1140341,385.21,753,756,0
1140352,386.56,753,760,0
1140361,387.51,753,757,0
1140371,389.16,753,759,0
1140381,389.75,753,755,0
1140391,390.68,753,760,0
1140401,390.61,753,757,0
1140411,391.02,753,759,0
1140421,390.29,753,755,0
1140431,389.77,753,760,0
1140441,388.21,753,757,0
1140451,387.38,753,759,0
1140461,385.81,753,755,0
1140471,384.97,753,760,0
1140481,383.60,753,757,0
1140491,383.17,753,759,0
1140501,382.22,753,755,0
1140511,382.24,753,760,0
1140521,381.52,753,754,0
1140531,381.49,753,759,0
1140541,380.57,753,755,0
1140551,380.32,753,760,0
1140561,379.32,753,753,0
1140571,379.78,753,759,0
1140581,380.40,753,755,0
1140591,383.54,753,760,0
1140601,388.31,753,753,0
1140611,397.04,753,759,0
1140621,408.77,753,755,0
1140640,425.60,835,752,0
1140643,445.69,835,752,0
1140652,471.03,835,760,0
1140662,498.36,835,751,0
1140672,528.17,835,760,0
1140682,557.17,835,751,0
1140692,585.28,835,760,0
1140702,609.15,835,751,0
1140712,629.34,835,760,0
1140722,642.56,835,751,0
1140732,651.05,835,760,0
1140742,652.96,835,751,0
1140752,650.58,835,760,0
1140762,642.60,835,751,0
1140772,632.09,835,760,0
1140782,618.01,835,752,0
1140792,602.96,835,760,0
1140802,585.62,835,752,0
1140812,568.46,835,760,0
1140823,549.94,835,751,0
1140833,532.56,835,760,0
1140843,514.39,835,751,0
1140853,497.43,835,760,0
1140864,480.20,835,751,0
1140873,464.88,835,760,0
1140883,449.83,835,751,0
1140893,437.24,835,760,0
1140903,425.47,835,751,0
1140913,416.28,835,760,0
1140923,408.23,835,751,0
1140933,403.02,835,760,0
1140943,398.85,835,751,0
1140953,397.14,835,760,0
1140963,395.81,835,751,0
1140973,396.30,835,760,0
1140983,396.72,835,751,0
1140993,398.39,835,760,0
1141003,399.22,835,751,0
1141013,400.52,835,760,0
1141023,400.58,835,751,0
1141033,401.01,835,760,0
1141043,399.93,835,751,0
1141053,398.92,835,760,0
1141063,396.55,835,751,0
1141073,394.50,835,760,0
1141083,391.48,835,751,0
1141093,389.19,835,760,0
1141103,386.13,835,751,0
1141113,383.99,835,760,0
1141123,381.47,835,751,0
1141133,380.00,835,760,0
1141143,377.98,835,751,0
1141153,376.87,835,760,0
1141164,375.24,835,751,0
1141174,374.74,835,760,0
1141184,373.88,835,751,0
1141194,373.91,835,760,0
1141204,373.42,835,751,0
1141214,373.77,835,760,0
1141224,373.58,835,751,0
1141234,374.14,835,760,0
1141244,373.88,835,751,0
1141254,374.30,835,760,0
1141264,374.13,835,751,0
1141274,374.43,835,760,0
1141284,374.26,835,751,0
1141294,374.65,835,760,0
1141304,374.29,835,751,0
1141314,374.37,835,759,0
1141324,373.75,835,751,0
1141335,373.44,835,760,0
1141345,372.66,835,752,0
1141355,372.34,835,759,0
1141365,371.63,835,752,0
1141376,371.49,835,759,0
1141385,371.00,835,752,0
1141395,370.96,835,759,0
1141405,370.71,835,752,0
1141415,371.10,835,760,0
1141425,371.58,835,752,0
1141435,373.38,835,760,0
1141445,376.39,835,752,0
1141455,381.98,835,760,0
1141465,389.78,835,752,0
1141484,401.03,844,750,0
1141487,415.90,844,756,0
1141496,434.96,844,759,0
1141506,456.95,844,752,0
1141516,481.70,844,760,0
1141526,507.59,844,752,0
1141536,533.81,844,760,0
1141547,558.55,844,754,0
1141556,580.37,844,760,0
1141566,597.62,844,752,0
1141576,609.99,844,760,0
1141586,616.98,844,754,0
1141596,618.74,844,760,0
1141606,615.56,844,752,0
1141616,608.02,844,760,0
1141626,596.79,844,754,0
1141636,583.09,844,760,0
1141646,567.21,844,752,0
1141656,550.00,844,759,0
1141666,532.09,844,754,0
1141676,514.15,844,759,0
1141686,496.53,844,753,0
1141696,479.61,844,759,0
1141706,463.62,844,754,0
1141716,449.03,844,759,0
1141726,435.91,844,753,0
1141736,424.32,844,760,0
1141746,414.45,844,755,0
1141756,406.43,844,759,0
1141766,400.30,844,754,0
1141776,395.97,844,760,0
1141786,393.45,844,755,0
1141796,392.33,844,759,0
1141806,392.49,844,754,0
1141816,393.54,844,760,0
1141826,395.18,844,755,0
1141836,396.93,844,759,0
1141847,398.45,844,755,0
1141857,399.13,844,759,0
1141867,399.26,844,756,0
1141877,398.50,844,758,0
1141888,397.28,844,758,0
1141897,395.35,844,759,0
1141907,393.19,844,757,0
1141917,390.43,844,759,0
1141927,387.99,844,758,0
1141937,385.33,844,759,0
1141947,383.01,844,757,0
1141957,380.18,844,759,0
1141967,377.55,844,758,0
1141977,374.60,844,759,0
1141987,372.41,844,757,0
1141997,370.18,844,758,0
1142007,368.80,844,758,0
1142017,367.49,844,759,0
1142027,367.13,844,757,0
1142037,367.00,844,759,0
1142047,367.82,844,758,0
1142057,368.43,844,757,0
1142067,369.63,844,757,0
1142077,370.43,844,758,0
1142087,371.54,844,758,0
1142097,372.06,844,757,0
1142107,372.86,844,757,0
1142117,372.99,844,758,0
1142127,373.42,844,758,0
1142137,373.12,844,757,0
1142147,373.09,844,757,0
1142157,372.59,844,758,0
1142167,372.54,844,759,0
1142177,371.78,844,757,0
1142188,371.59,844,759,0
1142198,370.73,844,756,0
1142208,370.64,844,760,0
1142218,369.80,844,754,0
1142228,369.73,844,760,0
1142238,369.00,844,756,0
1142248,369.00,844,760,0
1142258,368.14,844,754,0
1142268,368.14,844,760,0
1142278,367.63,844,756,0
1142288,368.64,844,760,0
1142298,369.78,844,754,0
1142308,373.31,844,760,0
1142318,378.36,844,756,0
1142328,387.04,844,760,0
1142347,398.17,863,759,0
1142350,413.46,863,761,0
1142359,431.80,863,752,0
1142369,454.19,863,760,0
1142379,478.04,863,751,0
1142389,503.96,863,760,0
1142400,528.83,863,751,0
1142409,553.05,863,760,0
1142419,573.52,863,751,0
1142429,590.42,863,760,0
1142439,601.31,863,751,0
1142449,607.90,863,760,0
1142459,608.10,863,751,0
1142469,604.30,863,760,0
1142479,595.17,863,751,0
1142489,583.63,863,760,0
1142499,568.19,863,751,0
1142509,551.67,863,760,0
1142519,533.08,863,752,0
1142529,515.19,863,760,0
1142539,496.62,863,751,0
1142549,479.72,863,760,0
1142559,462.96,863,752,0
1142569,448.83,863,760,0
1142579,435.64,863,752,0
1142589,425.16,863,760,0
1142599,415.47,863,752,0
1142609,408.60,863,760,0
1142619,402.59,863,752,0
1142629,399.11,863,760,0
1142639,396.29,863,752,0
1142649,395.78,863,760,0
1142659,395.42,863,752,0
1142669,396.83,863,760,0
1142679,397.78,863,752,0
1142689,399.82,863,760,0
1142700,400.86,863,751,0
1142710,402.36,863,760,0
1142720,402.38,863,751,0
1142730,402.61,863,760,0
1142740,401.44,863,750,0
1142750,400.45,863,760,0
1142760,398.00,863,751,0
1142770,395.86,863,760,0
1142780,392.56,863,750,0
1142790,389.90,863,760,0
1142800,386.42,863,751,0
1142810,383.76,863,760,0
1142820,380.62,863,750,0
1142830,378.81,863,760,0
1142840,376.64,863,751,0
1142850,375.76,863,760,0
1142860,374.50,863,750,0
1142871,374.44,863,760,0
1142881,373.96,863,751,0
1142891,374.49,863,760,0
1142901,374.43,863,751,0
1142912,375.37,863,760,0
1142921,375.73,863,751,0
1142931,376.88,863,760,0
1142941,377.48,863,751,0
1142951,378.70,863,760,0
1142961,379.31,863,751,0
1142971,380.59,863,760,0
1142981,381.35,863,751,0
1142991,382.62,863,760,0
1143001,383.29,863,751,0
1143011,384.45,863,760,0
1143021,384.83,863,751,0
1143031,385.44,863,760,0
1143041,385.01,863,751,0
1143051,384.75,863,760,0
1143061,383.62,863,751,0
1143071,382.84,863,760,0
1143081,381.30,863,752,0
1143091,380.57,863,760,0
1143101,380.01,863,751,0
1143111,381.16,863,760,0
1143121,383.34,863,752,0
1143131,388.30,863,760,0
1143141,395.49,863,751,0
1143151,406.53,863,760,0
1143171,420.77,823,758,0
1143174,438.93,823,760,0
1143183,460.42,823,753,0
1143193,484.85,823,760,0
1143203,510.44,823,753,0
1143213,536.41,823,760,0
1143223,560.67,823,752,0
1143233,582.28,823,760,0
1143243,599.73,823,753,0
1143254,611.77,823,759,0
1143263,618.05,823,752,0
1143273,618.85,823,760,0
1143283,614.35,823,753,0
1143293,605.25,823,759,0
1143303,592.36,823,752,0
1143313,576.48,823,760,0
1143323,558.46,823,754,0
1143333,539.42,823,759,0
1143343,519.84,823,753,0
1143353,500.56,823,760,0
1143363,482.09,823,754,0
1143373,464.84,823,759,0
1143383,449.33,823,753,0
1143393,435.94,823,759,0
1143403,424.73,823,754,0
1143413,415.73,823,759,0
1143424,409.04,823,755,0
1143433,404.65,823,759,0
1143443,402.49,823,754,0
1143453,402.26,823,759,0
1143463,403.81,823,755,0
1143473,406.52,823,759,0
1143483,410.14,823,754,0
1143493,413.82,823,759,0
1143503,417.39,823,755,0
1143513,420.27,823,759,0
1143523,422.21,823,754,0
1143533,422.92,823,759,0
1143543,422.56,823,755,0
1143553,421.23,823,759,0
1143563,419.32,823,754,0
1143573,416.74,823,759,0
1143583,413.86,823,755,0
1143593,410.60,823,759,0
1143603,407.38,823,754,0
1143613,404.05,823,760,0
1143623,400.95,823,755,0
1143633,397.71,823,759,0
1143643,394.84,823,754,0
1143653,392.23,823,760,0
1143663,390.27,823,755,0
1143673,388.56,823,759,0
1143683,387.32,823,754,0
1143693,386.37,823,759,0
1143703,386.13,823,755,0
1143713,386.05,823,759,0
1143724,386.42,823,756,0
1143734,386.85,823,759,0
1143744,387.75,823,757,0
1143754,388.64,823,758,0
1143764,389.95,823,759,0
1143774,391.04,823,759,0
1143784,392.35,823,757,0
1143794,392.98,823,758,0
1143804,393.80,823,759,0
1143814,393.94,823,759,0
1143824,394.18,823,757,0
1143834,393.39,823,758,0
1143844,392.80,823,759,0
1143854,391.62,823,759,0
1143864,390.88,823,757,0
1143874,389.76,823,758,0
1143884,389.62,823,759,0
1143895,389.95,823,757,0
1143905,392.75,823,759,0
1143915,397.24,823,755,0
1143925,405.52,823,760,0
1143936,417.07,823,753,0
1143945,433.38,823,759,0
1143964,453.28,794,758,0
1143967,477.41,794,760,0
1143976,503.64,794,751,0
1143986,532.42,794,760,0
1143996,560.24,794,752,0
1144006,587.17,794,760,0
1144016,609.92,794,751,0
1144026,628.84,794,760,0
1144036,641.57,794,751,0
1144046,648.77,794,760,0
1144056,648.58,794,751,0
1144066,643.65,794,760,0
1144076,632.79,794,752,0
1144086,618.84,794,760,0
1144096,600.58,794,752,0
1144107,581.04,794,760,0
1144116,559.51,794,752,0
1144126,538.83,794,760,0
1144136,517.54,794,752,0
1144146,497.96,794,760,0
1144156,478.73,794,753,0
1144166,462.44,794,760,0
1144176,447.44,794,752,0
1144186,435.78,794,760,0
1144196,425.64,794,753,0
1144206,418.89,794,760,0
1144216,413.74,794,752,0
1144226,411.80,794,760,0
1144236,410.92,794,753,0
1144246,412.53,794,760,0
1144256,414.17,794,752,0
1144266,417.25,794,760,0
1144276,419.40,794,751,0
1144286,422.24,794,760,0
1144296,423.54,794,752,0
1144306,424.92,794,760,0
1144316,424.43,794,751,0
1144326,424.17,794,760,0
1144336,422.11,794,752,0
1144346,420.23,794,760,0
1144356,416.78,794,751,0
1144366,413.80,794,760,0
1144376,409.57,794,752,0
1144386,406.10,794,760,0
1144396,401.70,794,751,0
1144407,398.40,794,760,0
1144417,394.64,794,751,0
1144427,392.18,794,760,0
1144437,389.34,794,751,0
1144448,387.74,794,760,0
1144457,385.84,794,751,0
1144467,385.42,794,760,0
1144477,384.65,794,751,0
1144487,385.14,794,760,0
1144497,385.06,794,751,0
1144507,386.07,794,760,0
1144517,386.56,794,751,0
1144527,387.98,794,760,0
1144537,388.50,794,751,0
1144547,389.85,794,760,0
1144557,390.32,794,751,0
1144567,391.55,794,760,0
1144577,391.86,794,751,0
1144587,392.97,794,760,0
1144597,393.20,794,751,0
1144607,393.95,794,760,0
1144617,393.79,794,751,0
1144627,394.11,794,760,0
1144637,393.48,794,751,0
1144647,393.34,794,760,0
1144657,392.25,794,751,0
1144667,392.00,794,760,0
1144677,391.32,794,751,0
1144687,392.12,794,760,0
1144697,393.80,794,751,0
1144707,398.53,794,760,0
1144717,405.66,794,751,0
1144727,417.50,794,760,0
1144737,433.25,794,751,0
1144757,454.73,793,749,0
1144760,480.31,793,754,0
1144769,510.39,793,760,0
1144779,542.29,793,751,0
1144790,575.42,793,760,0
1144799,606.41,793,751,0
1144809,634.36,793,760,0
1144819,656.53,793,751,0
1144829,672.57,793,760,0
1144839,681.02,793,751,0
1144849,682.73,793,760,0
1144859,677.28,793,752,0
1144869,666.44,793,760,0
1144879,650.49,793,751,0
1144889,631.27,793,760,0
1144899,609.16,793,752,0
1144909,585.84,793,760,0
1144919,561.80,793,751,0
1144929,538.55,793,760,0
1144939,515.80,793,752,0
1144949,494.69,793,760,0
1144960,475.02,793,753,0
1144969,457.92,793,760,0
1144979,442.81,793,752,0
1144989,430.35,793,760,0
1144999,419.96,793,753,0
1145009,412.39,793,760,0
1145019,406.96,793,752,0
1145029,404.01,793,760,0
1145039,402.64,793,753,0
1145049,403.22,793,760,0
1145059,404.61,793,752,0
1145069,407.08,793,760,0
1145079,409.72,793,753,0
1145089,412.59,793,760,0
1145099,414.77,793,752,0
1145109,416.51,793,760,0
1145119,417.00,793,753,0
1145129,416.70,793,760,0
1145139,415.16,793,752,0
1145149,413.10,793,760,0
1145159,409.98,793,753,0
1145169,406.69,793,760,0
1145179,402.75,793,752,0
1145189,399.01,793,760,0
1145199,395.28,793,753,0
1145209,392.02,793,760,0
1145219,388.72,793,752,0
1145229,386.19,793,760,0
1145239,383.82,793,753,0
1145249,382.16,793,760,0
1145260,380.78,793,753,0
1145270,379.86,793,760,0
1145280,379.22,793,754,0
1145290,378.90,793,759,0
1145300,378.76,793,755,0
1145310,378.87,793,760,0
1145320,379.17,793,754,0
1145330,379.59,793,759,0
1145340,380.31,793,755,0
1145350,381.08,793,759,0
1145360,382.04,793,754,0
1145370,383.10,793,759,0
1145380,384.48,793,755,0
1145390,386.01,793,760,0
1145400,387.64,793,755,0
1145410,388.77,793,759,0
1145420,389.78,793,755,0
1145431,390.36,793,759,0
1145441,390.60,793,756,0
1145451,389.86,793,759,0
1145461,388.79,793,757,0
1145472,386.97,793,758,0
1145481,385.43,793,756,0
1145491,383.63,793,759,0
1145501,382.63,793,757,0
1145511,381.88,793,758,0
1145521,382.90,793,756,0
1145531,385.25,793,759,0
1145541,390.53,793,757,0
1145551,398.51,793,758,0
1145561,410.83,793,756,0
1145580,427.25,823,755,0
1145583,449.12,823,760,0
1145592,475.27,823,755,0
1145602,505.75,823,759,0
1145612,538.31,823,756,0
1145622,572.16,823,759,0
1145632,604.08,823,754,0
1145643,633.11,823,760,0
1145652,656.48,823,756,0
1145662,673.95,823,759,0
1145672,683.69,823,755,0
1145682,686.83,823,760,0
1145692,682.59,823,756,0
1145702,673.16,823,759,0
1145712,657.85,823,755,0
1145722,639.34,823,760,0
1145732,617.42,823,756,0
1145742,594.50,823,759,0
1145752,570.01,823,755,0
1145762,546.22,823,760,0
1145772,522.32,823,756,0
1145782,500.46,823,759,0
1145792,479.28,823,755,0
1145802,460.64,823,760,0
1145812,443.35,823,754,0
1145822,429.23,823,760,0
1145832,416.69,823,756,0
1145842,407.35,823,760,0
1145852,399.62,823,753,0
1145862,395.02,823,759,0
1145872,391.67,823,756,0
1145882,391.04,823,760,0
1145892,390.99,823,754,0
1145902,392.83,823,760,0
1145912,394.47,823,755,0
1145922,397.16,823,760,0
1145932,398.95,823,754,0
1145943,401.45,823,760,0
1145953,402.52,823,753,0
1145963,403.90,823,760,0
1145973,403.46,823,752,0
1145984,403.24,823,760,0
1145993,401.37,823,753,0
1146003,399.71,823,760,0
1146013,396.33,823,752,0
1146023,393.40,823,760,0
1146033,389.34,823,753,0
1146043,386.19,823,760,0
1146053,382.24,823,752,0
1146063,379.46,823,760,0
1146073,376.11,823,753,0
1146083,374.23,823,760,0
1146093,371.85,823,752,0
1146103,370.74,823,760,0
1146113,369.15,823,752,0
1146123,369.06,823,760,0
1146133,368.44,823,752,0
1146143,369.12,823,760,0
1146153,369.00,823,752,0
1146163,370.03,823,760,0
1146173,370.23,823,752,0
1146183,371.45,823,760,0
1146193,371.57,823,752,0
1146203,372.77,823,760,0
1146213,372.97,823,752,0
1146223,374.22,823,760,0
1146233,374.58,823,752,0
1146243,375.87,823,760,0
1146253,376.12,823,752,0
1146263,377.11,823,760,0
1146273,376.86,823,751,0
1146284,377.51,823,760,0
1146294,377.05,823,751,0
1146304,377.29,823,760,0
1146314,376.39,823,751,0
1146324,376.32,823,760,0
1146334,375.45,823,751,0
1146344,375.79,823,760,0
1146354,375.55,823,751,0
1146364,377.14,823,760,0
1146374,379.41,823,751,0
1146384,385.12,823,760,0
1146394,393.18,823,750,0
1146414,406.16,833,749,0
1146417,422.87,833,753,0
1146426,445.32,833,760,0
1146436,471.37,833,751,0
1146446,501.17,833,760,0
1146456,531.55,833,751,0
1146466,562.41,833,760,0
1146476,590.27,833,750,0
1146486,614.49,833,760,0
1146497,632.13,833,751,0
1146507,643.28,833,760,0
1146517,647.01,833,751,0
1146527,644.39,833,760,0
1146537,635.06,833,753,0
1146547,620.86,833,760,0
1146557,602.17,833,752,0
1146567,580.91,833,760,0
1146577,557.92,833,753,0
1146587,534.67,833,760,0
1146597,511.50,833,752,0
1146607,489.45,833,760,0
1146617,468.53,833,754,0
1146627,449.60,833,760,0
1146637,432.36,833,753,0
1146647,417.21,833,760,0
1146657,403.86,833,754,0
1146668,392.93,833,760,0
1146678,384.25,833,754,0
1146688,377.92,833,760,0
1146698,373.66,833,756,0
1146708,371.49,833,759,0
1146718,371.13,833,754,0
1146728,372.42,833,760,0
1146738,374.78,833,756,0
1146748,377.67,833,759,0
1146758,380.77,833,754,0
1146768,383.58,833,760,0
1146778,385.85,833,756,0
1146788,387.01,833,759,0
1146798,387.35,833,754,0
1146808,386.64,833,760,0
1146818,385.38,833,756,0
1146828,383.29,833,759,0
1146839,380.98,833,756,0
1146849,378.24,833,759,0
1146859,375.85,833,758,0
1146869,372.90,833,758,0
1146880,370.23,833,759,0
1146889,367.29,833,759,0
1146899,364.89,833,758,0
1146909,362.48,833,758,0
1146919,361.01,833,759,0
1146929,359.55,833,759,0
1146939,359.21,833,758,0
1146949,358.98,833,758,0
1146959,359.71,833,759,0
1146969,360.53,833,759,0
1146979,362.08,833,758,0
1146989,363.22,833,758,0
1146999,364.99,833,759,0
1147009,366.28,833,759,0
1147019,367.95,833,758,0
1147029,368.91,833,758,0
1147039,370.14,833,759,0
1147049,370.44,833,757,0
1147059,371.16,833,758,0
1147069,371.12,833,758,0
1147079,371.38,833,759,0
1147089,370.79,833,757,0
1147099,370.47,833,757,0
1147109,369.26,833,758,0
1147119,368.62,833,759,0
1147129,367.45,833,757,0
1147139,366.84,833,758,0
1147149,365.95,833,758,0
1147159,366.01,833,759,0
1147169,365.79,833,757,0
1147180,366.62,833,760,0
1147190,366.99,833,756,0
1147200,368.15,833,760,0
1147210,368.84,833,754,0
1147220,370.81,833,760,0
1147230,373.01,833,755,0
1147240,377.64,833,760,0
1147250,383.83,833,754,0
1147260,394.21,833,760,0
1147270,407.60,833,755,0
1147289,426.19,876,753,0
1147292,447.52,876,752,0
1147301,473.51,876,760,0
1147311,500.91,876,752,0
1147321,530.00,876,760,0
1147331,556.91,876,751,0
1147341,581.88,876,760,0
1147351,601.37,876,752,0
1147361,616.39,876,760,0
1147371,623.52,876,751,0
1147381,624.78,876,760,0
1147392,618.54,876,751,0
1147401,607.75,876,760,0
1147411,591.33,876,751,0
1147421,572.24,876,760,0
1147431,549.97,876,751,0
1147441,527.65,876,760,0
1147451,504.10,876,751,0
1147461,481.87,876,760,0
1147471,459.62,876,752,0
1147481,440.02,876,760,0
1147491,421.59,876,751,0
1147501,406.50,876,760,0
1147511,392.98,876,752,0
1147521,383.38,876,760,0
1147531,376.07,876,752,0
1147541,372.66,876,760,0
1147551,370.92,876,752,0
1147561,372.36,876,760,0
1147571,374.44,876,752,0
1147581,378.72,876,760,0
1147591,382.62,876,752,0
1147601,387.40,876,760,0
1147611,390.97,876,752,0
1147621,394.75,876,760,0
1147631,396.62,876,752,0
1147641,398.37,876,760,0
1147651,397.96,876,752,0
1147661,397.45,876,760,0
1147671,395.09,876,752,0
1147681,392.79,876,760,0
1147692,388.70,876,751,0
1147702,385.10,876,760,0
1147712,380.31,876,751,0
1147722,376.53,876,760,0
1147732,372.17,876,750,0
1147742,369.12,876,760,0
1147752,365.70,876,751,0
1147762,363.90,876,760,0
1147772,362.00,876,751,0
1147782,361.66,876,760,0
1147792,360.99,876,751,0
1147802,361.42,876,760,0
1147812,361.47,876,751,0
1147822,362.57,876,760,0
1147832,363.04,876,751,0
1147842,364.44,876,760,0
1147852,365.34,876,751,0
1147863,367.21,876,760,0
1147873,368.52,876,751,0
1147883,370.55,876,760,0
1147893,371.84,876,751,0
1147904,373.77,876,760,0
1147913,374.83,876,751,0
1147923,376.25,876,760,0
1147933,376.65,876,751,0
1147943,377.35,876,760,0
1147953,377.16,876,751,0
1147963,377.37,876,760,0
1147973,376.70,876,751,0
1147983,376.23,876,760,0
1147993,375.09,876,751,0
1148003,374.64,876,760,0
1148013,374.10,876,751,0
1148023,374.89,876,760,0
1148033,376.68,876,751,0
1148043,381.45,876,760,0
1148053,388.94,876,751,0
1148063,400.74,876,760,0
1148083,416.34,793,759,0
1148086,436.38,793,761,0
1148095,460.61,793,753,0
1148105,488.32,793,760,0
1148115,517.58,793,754,0
1148125,547.02,793,760,0
1148135,574.36,793,752,0
1148145,598.34,793,760,0
1148155,617.26,793,753,0
1148165,629.87,793,760,0
1148175,635.65,793,752,0
1148185,634.90,793,760,0
1148195,628.12,793,754,0
1148205,616.21,793,760,0
1148215,599.90,793,753,0
1148225,580.43,793,760,0
1148235,558.79,793,754,0
1148246,536.01,793,760,0
1148255,512.82,793,753,0
1148265,490.16,793,760,0
1148275,468.47,793,754,0
1148285,448.49,793,760,0
1148295,430.81,793,753,0
1148305,415.61,793,760,0
1148315,403.26,793,755,0
1148325,393.75,793,760,0
1148335,387.18,793,753,0
1148345,383.49,793,760,0
1148355,382.35,793,754,0
1148365,383.36,793,760,0
1148375,385.95,793,753,0
1148385,389.78,793,760,0
1148395,394.35,793,754,0
1148405,399.00,793,760,0
1148416,403.41,793,755,0
1148425,407.36,793,760,0
1148435,410.42,793,754,0
1148445,412.27,793,760,0
1148455,412.79,793,755,0
1148465,412.12,793,760,0
1148475,410.50,793,754,0
1148485,407.82,793,760,0
1148495,404.28,793,755,0
1148505,400.04,793,759,0
1148515,395.87,793,754,0
1148525,391.75,793,760,0
1148535,387.88,793,755,0
1148545,384.27,793,759,0
1148555,381.24,793,754,0
1148565,378.89,793,760,0
1148575,377.38,793,755,0
1148585,376.32,793,759,0
1148595,375.88,793,754,0
1148605,375.88,793,759,0
1148615,376.43,793,755,0
1148625,377.16,793,759,0
1148635,378.22,793,755,0
1148645,379.36,793,760,0
1148655,380.79,793,755,0
1148665,382.05,793,759,0
1148675,383.37,793,755,0
1148685,384.50,793,760,0
1148695,385.72,793,755,0
1148705,386.49,793,759,0
1148716,387.20,793,756,0
1148726,387.44,793,759,0
1148736,387.78,793,757,0
1148746,387.55,793,758,0
1148756,387.30,793,759,0
1148766,386.69,793,759,0
1148776,386.06,793,757,0
1148786,384.93,793,758,0
1148796,384.35,793,759,0
1148806,384.03,793,759,0
1148816,385.43,793,757,0
1148826,388.48,793,757,0
1148836,395.06,793,759,0
1148846,405.33,793,759,0
1148856,420.66,793,756,0
1148875,440.30,793,756,0
1148878,465.16,793,760,0
1148887,493.82,793,756,0
1148897,525.68,793,759,0
1148907,557.32,793,754,0
1148917,588.29,793,760,0
1148928,615.38,793,753,0
1148937,638.53,793,759,0
1148947,654.87,793,754,0
1148957,664.55,793,760,0
1148967,666.23,793,753,0
1148977,662.13,793,759,0
1148987,651.55,793,755,0
1148997,637.16,793,760,0
1149007,617.82,793,753,0
1149017,596.71,793,759,0
1149027,573.27,793,755,0
1149037,550.26,793,760,0
1149047,526.65,793,754,0
1149057,504.47,793,759,0
1149067,482.64,793,756,0
1149077,463.34,793,760,0
1149087,444.98,793,754,0
1149097,429.86,793,760,0
1149107,416.53,793,756,0
1149117,406.94,793,760,0
1149127,399.37,793,754,0
1149137,395.45,793,760,0
1149147,393.43,793,756,0
1149157,394.37,793,760,0
1149167,396.02,793,754,0
1149177,399.61,793,760,0
1149187,402.94,793,756,0
1149197,407.20,793,760,0
1149207,410.18,793,754,0
1149217,413.30,793,760,0
1149228,414.92,793,753,0
1149238,416.62,793,760,0
1149248,416.30,793,752,0
1149258,415.53,793,760,0
1149268,412.88,793,752,0
1149278,410.52,793,761,0
1149288,406.72,793,752,0
1149298,403.59,793,760,0
1149308,399.26,793,752,0
1149318,395.96,793,760,0
1149328,392.08,793,752,0
1149338,389.44,793,760,0
1149348,386.05,793,752,0
1149358,383.89,793,760,0
1149368,381.18,793,752,0
1149378,380.06,793,760,0
1149388,378.54,793,751,0
1149399,378.55,793,760,0
1149409,378.00,793,751,0
1149419,378.90,793,760,0
1149429,379.57,793,751,0
1149440,381.37,793,760,0
1149449,382.59,793,751,0
1149459,384.77,793,760,0
1149469,386.17,793,751,0
1149479,388.52,793,760,0
1149489,389.90,793,751,0
1149499,391.78,793,760,0
1149509,392.36,793,751,0
1149519,393.15,793,760,0
1149529,392.63,793,751,0
1149539,392.66,793,760,0
1149549,391.65,793,751,0
1149559,391.24,793,760,0
1149569,389.88,793,751,0
1149579,389.57,793,760,0
1149589,388.72,793,751,0
1149599,389.23,793,760,0
1149609,389.50,793,751,0
1149619,391.80,793,760,0
1149629,395.16,793,751,0
1149639,402.05,793,759,0
1149649,411.85,793,751,0
1149659,426.90,793,760,0
1149678,446.17,803,759,0
1149681,470.98,803,761,0
1149690,499.78,803,750,0
1149700,532.51,803,760,0
1149710,565.95,803,750,0
1149720,599.31,803,760,0
1149730,629.43,803,750,0
1149740,655.79,803,760,0
1149750,675.57,803,750,0
1149760,688.64,803,760,0
1149770,693.68,803,750,0
1149780,692.44,803,760,0
1149790,684.47,803,750,0
1149800,671.64,803,760,0
1149810,653.49,803,750,0
1149820,632.73,803,760,0
1149830,609.11,803,750,0
1149840,585.08,803,760,0
1149850,560.03,803,750,0
1149860,535.76,803,760,0
1149870,511.70,803,750,0
1149880,489.72,803,760,0
1149890,469.02,803,751,0
1149900,451.31,803,760,0
1149911,435.45,803,751,0
1149921,422.71,803,760,0
1149931,412.30,803,752,0
1149941,405.10,803,760,0
1149952,399.92,803,752,0
1149961,397.63,803,760,0
1149971,396.46,803,751,0
1149981,397.43,803,760,0
1149991,399.06,803,752,0
1150001,401.74,803,760,0
1150011,404.31,803,751,0
1150021,407.26,803,760,0
1150031,409.28,803,752,0
1150041,411.30,803,760,0
1150051,411.94,803,751,0
1150061,412.08,803,760,0
1150071,410.90,803,752,0
1150081,409.26,803,760,0
1150091,406.57,803,751,0
1150101,403.74,803,760,0
1150111,400.26,803,752,0
1150121,397.01,803,760,0
1150131,393.36,803,751,0
1150141,390.34,803,760,0
1150151,387.24,803,752,0
1150161,385.07,803,760,0
1150171,383.16,803,751,0
1150181,382.13,803,760,0
1150191,381.32,803,752,0
1150201,381.31,803,760,0
1150211,381.17,803,751,0
1150221,381.76,803,760,0
1150231,382.31,803,752,0
1150241,383.33,803,760,0
1150252,384.22,803,752,0
1150262,385.57,803,760,0
1150272,386.90,803,753,0
1150282,388.73,803,760,0
1150292,390.52,803,754,0
1150302,392.29,803,760,0
1150312,393.62,803,753,0
1150322,394.55,803,760,0
1150332,395.03,803,754,0
1150342,395.19,803,760,0
1150352,394.96,803,753,0
1150362,394.42,803,760,0
1150372,393.26,803,754,0
1150382,392.03,803,760,0
1150392,390.69,803,753,0
1150402,389.20,803,760,0
1150412,387.72,803,754,0
1150423,386.56,803,760,0
1150433,385.92,803,755,0
1150443,386.37,803,759,0
1150453,388.28,803,756,0
1150464,392.22,803,759,0
1150473,399.23,803,755,0
1150483,410.26,803,759,0
1150502,426.12,824,758,0
1150505,446.44,824,753,0
1150514,472.20,824,757,0
1150524,501.97,824,757,0
1150534,535.32,824,758,0
1150544,569.68,824,756,0
1150554,603.21,824,757,0
1150564,633.01,824,757,0
1150574,658.47,824,758,0
1150584,676.54,824,756,0
1150594,687.86,824,757,0
1150604,691.08,824,757,0
1150614,687.63,824,758,0
1150624,677.24,824,756,0
1150635,662.17,824,759,0
1150644,642.53,824,757,0
1150654,620.77,824,758,0
1150664,596.58,824,756,0
1150674,572.32,824,760,0
1150684,547.71,824,757,0
1150694,524.44,824,759,0
1150704,501.64,824,757,0
1150714,481.00,824,760,0
1150724,461.72,824,758,0
1150734,445.13,824,759,0
1150744,429.88,824,757,0
1150754,417.36,824,760,0
1150764,406.62,824,758,0
1150774,398.89,824,759,0
1150784,392.80,824,757,0
1150794,389.60,824,760,0
1150804,387.62,824,755,0
1150814,388.08,824,759,0
1150824,389.13,824,757,0
1150834,391.74,824,760,0
1150844,394.22,824,755,0
1150854,397.41,824,759,0
1150864,399.43,824,757,0
1150874,401.66,824,759,0
1150884,402.36,824,755,0
1150894,402.90,824,759,0
1150904,401.94,824,757,0
1150914,401.10,824,760,0
1150924,398.97,824,755,0
1150935,397.18,824,760,0
1150945,394.17,824,754,0
1150955,391.85,824,760,0
1150965,388.68,824,753,0
1150976,386.33,824,760,0
1150985,383.15,824,754,0
1150995,381.13,824,760,0
1151005,378.43,824,753,0
1151015,377.15,824,760,0
1151025,375.26,824,754,0
1151035,374.67,824,760,0
1151045,373.48,824,753,0
1151055,373.55,824,760,0
1151065,372.83,824,754,0
1151075,373.35,824,760,0
1151085,373.03,824,753,0
1151095,373.79,824,760,0
1151105,373.81,824,754,0
1151115,374.85,824,760,0
1151125,374.94,824,753,0
1151135,375.99,824,760,0
1151145,376.03,824,752,0
1151155,377.01,824,760,0
1151165,377.01,824,753,0
1151175,377.86,824,760,0
1151185,377.52,824,752,0
1151195,378.09,824,760,0
1151205,377.59,824,753,0
1151215,378.01,824,760,0
1151225,377.24,824,752,0
1151235,377.25,824,760,0
1151245,376.15,824,753,0
1151255,376.02,824,760,0
1151265,374.90,824,752,0
1151276,374.84,824,760,0
1151286,374.12,824,752,0
1151296,375.20,824,760,0
1151306,376.81,824,751,0
1151316,381.45,824,760,0
1151326,388.09,824,751,0
1151336,399.38,824,760,0
1151355,414.22,853,759,0
1151358,434.43,853,760,0
1151367,458.77,853,750,0
1151377,487.90,853,760,0
1151387,518.78,853,750,0
1151397,551.38,853,760,0
1151407,581.91,853,750,0
1151417,609.88,853,760,0
1151427,632.24,853,749,0
1151437,648.63,853,760,0
1151447,657.05,853,750,0
1151457,659.01,853,760,0
1151467,653.26,853,749,0
1151477,642.43,853,760,0
1151488,626.01,853,750,0
1151497,607.02,853,760,0
1151507,584.95,853,750,0
1151517,562.33,853,760,0
1151527,538.62,853,751,0
1151537,516.10,853,760,0
1151547,493.57,853,750,0
1151557,473.00,853,760,0
1151567,453.12,853,751,0
1151577,435.89,853,760,0
1151587,419.81,853,751,0
1151597,406.71,853,760,0
1151607,395.31,853,751,0
1151617,387.33,853,760,0
1151627,381.32,853,750,0
1151637,378.65,853,760,0
1151647,377.38,853,751,0
1151657,378.86,853,760,0
1151667,380.78,853,750,0
1151677,384.32,853,760,0
1151687,387.57,853,751,0
1151697,391.73,853,760,0
1151707,394.64,853,750,0
1151717,397.70,853,760,0
1151727,399.42,853,751,0
1151737,400.92,853,760,0
1151747,400.65,853,750,0
1151757,400.07,853,760,0
1151767,397.65,853,751,0
1151777,395.14,853,760,0
1151788,391.41,853,751,0
1151798,387.99,853,760,0
1151808,384.09,853,752,0
1151818,381.11,853,760,0
1151828,377.95,853,752,0
1151838,376.12,853,760,0
1151848,374.33,853,751,0
1151858,373.63,853,760,0
1151868,372.67,853,752,0
1151878,372.64,853,760,0
1151888,372.36,853,751,0
1151898,372.81,853,760,0
1151908,373.00,853,752,0
1151918,373.81,853,760,0
1151928,374.21,853,751,0
1151938,375.13,853,760,0
1151948,375.69,853,752,0
1151959,376.77,853,760,0
1151969,377.48,853,753,0
1151979,378.32,853,760,0
1151989,378.78,853,753,0
1152000,379.45,853,760,0
1152009,379.74,853,753,0
1152019,380.21,853,760,0
1152029,380.19,853,753,0
1152039,380.04,853,760,0
1152049,379.43,853,752,0
1152059,378.70,853,760,0
1152069,377.59,853,753,0
1152079,376.51,853,760,0
1152089,374.95,853,752,0
1152099,373.63,853,760,0
1152109,372.33,853,753,0
1152119,371.59,853,760,0
1152129,371.20,853,752,0
1152139,372.17,853,760,0
1152149,374.65,853,753,0
1152159,379.77,853,760,0
1152169,387.89,853,753,0
1152188,400.18,833,751,0
1152191,416.97,833,756,0
1152200,438.79,833,760,0
1152210,464.78,833,755,0
1152220,493.95,833,760,0
1152230,524.82,833,754,0
1152240,555.65,833,760,0
1152250,584.47,833,755,0
1152260,609.31,833,760,0
1152270,628.42,833,753,0
1152280,640.81,833,759,0
1152290,646.14,833,755,0
1152300,644.47,833,760,0
1152310,636.23,833,754,0
1152320,622.10,833,759,0
1152330,603.34,833,755,0
1152340,581.17,833,759,0
1152350,557.12,833,754,0
1152360,532.18,833,759,0
1152370,507.36,833,755,0
1152380,483.38,833,759,0
1152390,461.02,833,754,0
1152400,440.57,833,759,0
1152410,422.79,833,756,0
1152420,407.21,833,759,0
1152430,394.50,833,755,0
1152440,384.45,833,759,0
1152450,377.20,833,755,0
1152460,372.38,833,759,0
1152471,370.21,833,756,0
1152481,370.02,833,759,0
1152491,372.11,833,758,0
1152501,375.17,833,757,0
1152512,379.49,833,759,0
1152521,384.10,833,758,0
1152531,389.17,833,758,0
1152541,393.53,833,757,0
1152551,397.44,833,759,0
1152561,399.88,833,758,0
1152571,401.76,833,759,0
1152581,401.88,833,757,0
1152591,401.48,833,759,0
1152601,399.62,833,759,0
1152611,397.51,833,759,0
1152621,394.14,833,757,0
1152631,390.97,833,760,0
1152641,387.17,833,759,0
1152651,383.86,833,759,0
1152661,380.04,833,758,0
1152671,376.99,833,759,0
1152681,373.69,833,756,0
1152691,371.60,833,759,0
1152701,369.36,833,758,0
1152711,368.22,833,759,0
1152721,367.04,833,757,0
1152731,366.90,833,759,0
1152741,366.80,833,758,0
1152751,367.72,833,759,0
1152761,368.27,833,757,0
1152771,369.52,833,759,0
1152781,370.14,833,758,0
1152791,371.34,833,759,0
1152801,371.71,833,757,0
1152812,372.44,833,760,0
1152822,372.35,833,755,0
1152832,372.89,833,760,0
1152842,372.54,833,753,0
1152852,372.89,833,760,0
1152862,372.45,833,755,0
1152872,372.83,833,760,0
1152882,372.41,833,753,0
1152892,372.80,833,760,0
1152902,372.30,833,755,0
1152912,372.86,833,760,0
1152922,372.73,833,753,0
1152932,374.05,833,760,0
1152942,375.54,833,755,0
1152952,379.36,833,760,0
1152962,384.48,833,753,0
1152972,393.34,833,760,0
1152983,404.89,833,752,0
1152993,421.51,833,760,0
1153012,441.41,824,759,0
1153015,465.50,824,761,0
1153025,491.97,824,750,0
1153035,520.82,824,760,0
1153045,548.60,824,750,0
1153055,574.95,824,760,0
1153065,596.44,824,750,0
1153075,613.36,824,760,0
1153085,623.41,824,750,0
1153095,626.93,824,760,0
1153105,622.71,824,750,0
1153115,613.24,824,760,0
1153125,597.82,824,750,0
1153135,578.98,824,760,0
1153145,556.57,824,750,0
1153155,533.51,824,760,0
1153165,509.36,824,751,0
1153175,486.49,824,761,0
1153185,463.89,824,751,0
1153196,443.87,824,760,0
1153206,425.43,824,751,0
1153216,410.09,824,760,0
1153226,396.65,824,752,0
1153236,386.68,824,760,0
1153246,378.85,824,751,0
1153256,374.48,824,760,0
1153266,372.11,824,752,0
1153276,372.63,824,760,0
1153286,374.54,824,751,0
1153296,378.41,824,760,0
1153306,382.61,824,751,0
1153316,387.70,824,760,0
1153326,391.99,824,751,0
1153336,396.19,824,760,0
1153346,399.01,824,752,0
1153356,401.28,824,760,0
1153367,401.92,824,752,0
1153377,401.77,824,761,0
1153387,400.17,824,752,0
1153397,398.28,824,760,0
1153408,395.54,824,753,0
1153417,392.98,824,760,0
1153427,389.81,824,753,0
1153437,387.13,824,760,0
1153447,384.30,824,753,0
1153457,382.11,824,760,0
1153467,379.76,824,753,0
1153477,377.86,824,760,0
1153487,375.98,824,753,0
1153497,374.70,824,760,0
1153507,373.33,824,753,0
1153517,372.55,824,760,0
1153527,371.83,824,753,0
1153537,371.83,824,760,0
1153547,371.93,824,752,0
1153557,372.55,824,760,0
1153567,373.28,824,753,0
1153577,374.53,824,760,0
1153587,375.53,824,753,0
1153597,376.87,824,760,0
1153607,377.98,824,753,0
1153617,379.14,824,760,0
1153627,379.79,824,753,0
1153637,380.32,824,760,0
1153647,380.48,824,753,0
1153657,380.89,824,759,0
1153667,380.75,824,752,0
1153677,380.70,824,760,0
1153687,380.75,824,753,0
1153697,381.51,824,759,0
1153708,383.16,824,754,0
1153718,386.45,824,760,0
1153728,392.23,824,755,0
1153738,401.33,824,759,0
1153748,414.56,824,756,0
1153758,432.01,824,760,0
1153777,453.65,765,758,0
1153780,478.27,765,756,0
1153789,506.13,765,758,0
1153799,534.76,765,759,0
1153809,563.29,765,756,0
1153819,588.62,765,757,0
1153829,609.86,765,758,0
1153839,625.29,765,759,0
1153849,634.93,765,756,0
1153859,636.75,765,758,0
1153869,632.11,765,758,0
1153879,621.06,765,759,0
1153889,605.44,765,756,0
1153899,585.38,765,757,0
1153909,563.15,765,759,0
1153920,539.11,765,757,0
1153929,515.46,765,757,0
1153939,492.18,765,758,0
1153949,470.44,765,759,0
1153959,450.17,765,757,0
1153969,432.93,765,757,0
1153979,417.78,765,759,0
1153989,406.02,765,759,0
1153999,396.41,765,757,0
1154009,390.03,765,757,0
1154019,385.69,765,758,0
1154029,384.24,765,759,0
1154039,384.38,765,757,0
1154049,386.63,765,757,0
1154059,389.78,765,759,0
1154069,394.22,765,759,0
1154079,398.40,765,757,0
1154089,403.03,765,760,0
1154099,406.75,765,759,0
1154109,410.17,765,759,0
1154119,412.00,765,757,0
1154129,413.16,765,760,0
1154139,412.68,765,759,0
1154149,411.62,765,759,0
1154159,408.95,765,757,0
1154169,406.09,765,760,0
1154179,402.12,765,759,0
1154189,398.40,765,759,0
1154199,393.91,765,758,0
1154209,390.12,765,760,0
1154220,386.01,765,756,0
1154230,382.92,765,761,0
1154240,379.56,765,755,0
1154250,377.38,765,760,0
1154260,375.12,765,753,0
1154270,374.19,765,760,0
1154280,373.02,765,755,0
1154290,373.14,765,760,0
1154300,372.88,765,754,0
1154310,373.90,765,760,0
1154320,374.36,765,755,0
1154330,375.80,765,760,0
1154340,376.37,765,753,0
1154350,377.85,765,760,0
1154360,378.49,765,755,0
1154370,380.10,765,760,0
1154380,380.63,765,753,0
1154391,382.03,765,761,0
1154401,382.36,765,753,0
1154411,383.58,765,760,0
1154421,383.79,765,752,0
1154432,385.14,765,761,0
1154441,386.17,765,753,0
1154451,389.29,765,760,0
1154461,393.32,765,752,0
1154471,401.28,765,760,0
1154481,411.91,765,752,0
1154491,427.88,765,760,0
1154501,447.16,765,752,0
1154511,471.41,765,760,0
1154530,497.90,753,760,0
1154533,526.65,753,762,0
1154542,554.78,753,750,0
1154552,581.93,753,760,0
1154562,604.50,753,751,0
1154572,623.16,753,761,0
1154582,634.81,753,751,0
1154592,640.83,753,760,0
1154603,639.85,753,750,0
1154612,633.38,753,760,0
1154622,620.67,753,751,0
1154632,604.40,753,760,0
1154642,583.71,753,751,0
1154652,561.94,753,760,0
1154662,538.17,753,751,0
1154672,515.10,753,760,0
1154682,491.59,753,751,0
1154692,470.33,753,760,0
1154702,449.91,753,751,0
1154712,432.41,753,760,0
1154722,416.22,753,751,0
1154732,403.47,753,760,0
1154742,392.65,753,751,0
1154752,385.52,753,760,0
1154762,380.26,753,751,0
1154772,378.47,753,760,0
1154782,378.28,753,751,0
1154792,381.03,753,760,0
1154802,384.41,753,751,0
1154812,389.60,753,760,0
1154822,394.35,753,751,0
1154832,399.94,753,760,0
1154842,404.16,753,751,0
1154852,408.27,753,760,0
1154862,410.20,753,751,0
1154872,411.77,753,760,0
1154882,411.20,753,751,0
1154892,410.32,753,760,0
1154903,407.48,753,751,0
1154913,404.47,753,760,0
1154923,400.00,753,751,0
1154933,395.88,753,760,0
1154944,390.86,753,751,0
1154953,386.70,753,760,0
1154963,382.21,753,751,0
1154973,378.97,753,760,0
1154983,375.90,753,751,0
1154993,374.34,753,760,0
1155003,372.91,753,751,0
1155013,372.81,753,760,0
1155023,372.61,753,751,0
1155033,373.54,753,760,0
1155043,373.89,753,751,0
1155053,374.95,753,760,0
1155063,375.35,753,751,0
1155073,376.45,753,760,0
1155083,376.96,753,751,0
1155093,378.13,753,760,0
1155103,378.60,753,751,0
1155113,379.75,753,760,0
1155123,380.21,753,751,0
1155133,381.35,753,760,0
1155143,381.89,753,751,0
1155153,382.65,753,760,0
1155163,382.45,753,751,0
1155173,382.53,753,760,0
1155183,381.86,753,751,0
1155193,381.73,753,760,0
1155203,380.95,753,751,0
1155213,380.88,753,760,0
1155223,380.45,753,751,0
1155233,380.95,753,760,0
1155244,381.53,753,752,0
1155254,383.68,753,760,0
1155264,386.91,753,752,0
1155274,392.98,753,760,0
1155284,401.77,753,753,0
1155294,415.30,753,760,0
1155313,433.21,783,759,0
1155316,456.46,783,759,0
1155325,484.35,783,754,0
1155335,516.35,783,760,0
1155345,550.27,783,752,0
1155355,584.65,783,760,0
1155365,616.85,783,753,0
1155375,645.48,783,761,0
1155385,668.18,783,752,0
1155395,683.68,783,760,0
1155405,691.45,783,753,0
1155415,691.91,783,760,0
1155425,685.21,783,752,0
1155435,672.51,783,760,0
1155445,654.48,783,753,0
1155456,633.04,783,760,0
1155465,609.41,783,753,0
1155475,584.95,783,760,0
1155485,560.19,783,753,0
1155495,536.05,783,760,0
1155505,512.98,783,753,0
1155515,491.60,783,760,0
1155525,471.92,783,754,0
1155535,454.07,783,760,0
1155545,437.94,783,753,0
1155555,423.98,783,760,0
1155565,412.25,783,754,0
1155575,402.96,783,760,0
1155585,395.94,783,753,0
1155595,391.50,783,760,0
1155605,389.21,783,754,0
1155615,388.85,783,760,0
1155625,390.01,783,755,0
1155635,392.36,783,760,0
1155645,395.21,783,754,0
1155655,398.58,783,760,0
1155665,401.66,783,755,0
1155675,404.46,783,760,0
1155685,406.64,783,754,0
1155695,408.12,783,760,0
1155705,408.68,783,755,0
1155715,408.61,783,760,0
1155725,407.57,783,754,0
1155735,405.77,783,760,0
1155745,403.27,783,755,0
1155756,400.19,783,760,0
1155766,396.49,783,755,0
1155776,392.31,783,760,0
1155786,388.19,783,757,0
1155796,384.02,783,759,0
1155806,380.33,783,756,0
1155816,376.97,783,760,0
1155826,374.58,783,757,0
1155836,372.69,783,759,0
1155846,371.88,783,756,0
1155856,371.49,783,760,0
1155866,371.90,783,757,0
1155876,372.27,783,759,0
1155886,373.13,783,756,0
1155896,373.74,783,760,0
1155906,374.63,783,757,0
1155916,375.08,783,759,0
1155927,375.66,783,759,0
1155937,375.85,783,758,0
1155947,376.58,783,760,0
1155957,376.83,783,756,0
1155968,377.48,783,760,0
1155977,377.81,783,758,0
1155987,378.81,783,760,0
1155997,379.25,783,757,0
1156007,380.25,783,760,0
1156017,380.52,783,758,0
1156027,381.30,783,760,0
1156037,381.17,783,757,0
1156047,381.59,783,760,0
1156057,381.03,783,758,0
1156067,381.19,783,760,0
1156077,380.62,783,757,0
1156087,381.55,783,760,0
1156097,383.23,783,758,0
1156107,388.17,783,760,0
1156117,395.54,783,756,0
1156127,408.06,783,760,0
1156147,424.89,833,759,0
1156150,448.02,833,761,0
1156159,475.44,833,752,0
1156169,507.75,833,760,0
1156179,541.47,833,751,0
1156189,576.47,833,761,0
1156199,608.60,833,751,0
1156209,637.48,833,761,0
1156219,659.62,833,751,0
1156229,675.63,833,761,0
1156239,683.29,833,752,0
1156249,684.40,833,760,0
1156259,677.77,833,751,0
1156269,666.52,833,761,0
1156279,649.69,833,752,0
1156289,630.50,833,760,0
1156299,607.76,833,751,0
1156310,584.44,833,760,0
1156319,559.92,833,752,0
1156329,536.76,833,760,0
1156339,513.26,833,751,0
1156349,491.97,833,760,0
1156359,471.28,833,752,0
1156369,453.54,833,760,0
1156379,436.92,833,751,0
1156389,423.27,833,761,0
1156399,410.85,833,752,0
1156409,401.81,833,760,0
1156419,394.19,833,751,0
1156429,389.76,833,761,0
1156439,386.49,833,752,0
1156449,386.04,833,760,0
1156459,386.07,833,751,0
1156469,388.02,833,760,0
1156480,389.56,833,751,0
1156489,392.48,833,760,0
1156499,394.35,833,751,0
1156509,396.86,833,760,0
1156519,397.84,833,751,0
1156529,399.22,833,760,0
1156539,398.85,833,751,0
1156549,398.55,833,761,0
1156559,396.37,833,751,0
1156569,394.46,833,760,0
1156579,390.85,833,751,0
1156589,387.81,833,760,0
1156599,383.58,833,751,0
1156609,380.36,833,760,0
1156619,376.48,833,752,0
1156629,373.77,833,761,0
1156639,370.54,833,752,0
1156649,368.79,833,760,0
1156659,366.50,833,752,0
1156669,365.62,833,761,0
1156679,364.15,833,752,0
1156689,364.06,833,760,0
1156699,363.23,833,752,0
1156709,363.55,833,760,0
1156719,363.17,833,751,0
1156729,363.85,833,760,0
1156739,363.76,833,752,0
1156749,364.73,833,761,0
1156759,364.86,833,752,0
1156769,366.10,833,760,0
1156780,366.50,833,751,0
1156790,367.63,833,760,0
1156800,367.92,833,751,0
1156810,368.80,833,760,0
1156820,368.86,833,751,0
1156830,369.50,833,760,0
1156840,369.27,833,751,0
1156850,369.66,833,760,0
1156860,369.29,833,751,0
1156870,369.67,833,761,0
1156880,369.17,833,751,0
1156890,369.25,833,760,0
1156900,368.53,833,751,0
1156910,368.41,833,761,0
1156920,367.52,833,751,0
1156930,367.28,833,760,0
1156940,366.59,833,751,0
1156951,367.53,833,761,0
1156961,369.21,833,751,0
1156971,373.69,833,760,0
1156981,380.56,833,751,0
1157001,392.13,854,750,0
1157004,408.38,854,756,0
1157013,430.72,854,760,0
1157023,457.81,854,753,0
1157033,489.58,854,760,0
1157043,523.78,854,753,0
1157053,559.24,854,760,0
1157063,592.98,854,753,0
1157073,622.99,854,760,0
1157083,646.86,854,752,0
1157093,663.62,854,760,0
1157103,672.39,854,753,0
1157113,673.52,854,760,0
1157123,667.32,854,753,0
1157133,654.97,854,760,0
1157143,637.45,854,753,0
1157153,615.84,854,760,0
1157164,591.63,854,755,0
1157174,566.16,854,760,0
1157184,540.65,854,756,0
1157194,515.47,854,760,0
1157204,491.59,854,757,0
1157214,469.38,854,760,0
1157224,449.55,854,756,0
1157234,432.07,854,760,0
1157244,417.22,854,757,0
1157254,404.68,854,760,0
1157264,395.09,854,756,0
1157274,387.69,854,760,0
1157284,383.03,854,757,0
1157294,380.58,854,760,0
1157304,380.36,854,756,0
1157314,381.45,854,760,0
1157324,383.97,854,757,0
1157335,386.81,854,759,0
1157345,390.38,854,759,0
1157355,393.40,854,758,0
1157365,396.36,854,760,0
1157376,398.05,854,757,0
1157385,399.41,854,759,0
1157395,399.24,854,758,0
1157405,398.87,854,760,0
1157415,396.94,854,757,0
1157425,394.81,854,759,0
1157435,391.48,854,758,0
1157445,388.42,854,760,0
1157455,384.53,854,757,0
1157465,381.24,854,759,0
1157475,377.40,854,758,0
1157485,374.53,854,760,0
1157495,371.33,854,757,0
1157505,369.05,854,759,0
1157515,366.80,854,758,0
1157525,365.62,854,760,0
1157535,364.23,854,757,0
1157545,363.95,854,760,0
1157555,363.49,854,758,0
1157565,364.16,854,760,0
1157575,364.50,854,757,0
1157585,365.72,854,760,0
1157595,366.49,854,758,0
1157605,368.06,854,760,0
1157615,368.90,854,757,0
1157625,370.43,854,760,0
1157635,371.41,854,758,0
1157645,373.13,854,760,0
1157655,374.08,854,757,0
1157665,375.38,854,760,0
1157676,375.61,854,755,0
1157686,376.46,854,761,0
1157696,376.23,854,754,0
1157706,376.46,854,760,0
1157716,375.68,854,753,0
1157726,375.56,854,761,0
1157736,374.71,854,754,0
1157746,374.80,854,760,0
1157756,373.87,854,753,0
1157766,374.00,854,761,0
1157776,373.31,854,754,0
1157786,374.07,854,760,0
1157796,374.78,854,752,0
1157806,378.06,854,761,0
