Time,PPG,IBI,GSR,GSR_Event
1012039,385.55,853,775,0
1012049,377.24,853,774,0
1012059,367.18,853,776,0
1012069,356.07,853,773,0
1012079,345.21,853,776,0
1012089,334.94,853,774,0
1012099,326.13,853,776,0
1012109,319.54,853,773,0
1012119,319.89,853,775,0
1012129,324.42,853,773,0
1012140,331.92,853,775,0
1012150,340.99,853,774,0
1012160,350.72,853,775,0
1012170,360.58,853,774,0
1012180,369.83,853,775,0
1012190,378.15,853,774,0
1012200,385.01,853,775,0
1012210,390.83,853,774,0
1012220,395.13,853,775,0
1012230,398.30,853,774,0
1012240,400.05,853,775,0
1012250,400.94,853,774,0
1012260,400.74,853,775,0
1012270,400.01,853,774,0
1012280,398.46,853,775,0
1012290,396.82,853,774,0
1012300,394.90,853,774,0
1012311,393.22,853,775,0
1012321,391.78,853,774,0
1012331,391.68,853,775,0
1012341,393.06,853,774,0
1012352,396.98,853,775,0
1012361,403.63,853,774,0
1012371,413.98,853,775,0
1012381,428.05,853,774,0
1012391,446.46,853,775,0
1012401,467.84,853,774,0
1012411,491.93,853,775,0
1012421,516.76,853,773,0
1012431,541.91,853,775,0
1012441,565.12,853,774,0
1012451,585.66,853,775,0
1012461,601.49,853,773,0
1012471,612.83,853,775,0
1012490,618.58,924,775,0
1012493,621.15,924,778,0
1012502,620.03,924,773,0
1012512,616.04,924,777,0
1012523,608.31,924,774,0
1012532,598.28,924,777,0
1012542,585.34,924,774,0
1012552,570.83,924,777,0
1012562,553.06,924,774,0
1012572,533.37,924,777,0
1012582,512.04,924,774,0
1012592,491.29,924,778,0
1012602,470.93,924,774,0
1012612,452.95,924,777,0
1012622,437.02,924,774,0
1012632,424.46,924,778,0
1012642,414.34,924,774,0
1012652,407.68,924,777,0
1012662,403.36,924,775,0
1012672,402.01,924,778,0
1012682,402.09,924,774,0
1012692,404.21,924,778,0
1012702,406.55,924,775,0
1012712,409.68,924,778,0
1012722,412.13,924,774,0
1012732,414.54,924,778,0
1012742,415.75,924,775,0
1012752,416.51,924,778,0
1012762,415.71,924,774,0
1012772,414.51,924,778,0
1012782,412.05,924,775,0
1012792,409.37,924,778,0
1012802,405.66,924,774,0
1012812,402.12,924,778,0
1012823,397.84,924,774,0
1012833,394.20,924,778,0
1012843,390.24,924,774,0
1012853,387.17,924,778,0
1012864,383.99,924,773,0
1012873,381.85,924,778,0
1012883,379.54,924,774,0
1012893,378.43,924,778,0
1012903,377.10,924,773,0
1012913,376.86,924,778,0
1012923,376.39,924,774,0
1012933,376.91,924,778,0
1012943,377.15,924,773,0
1012953,378.31,924,778,0
1012963,379.07,924,774,0
1012973,380.59,924,778,0
1012983,381.49,924,773,0
1012993,382.88,924,778,0
1013003,383.52,924,774,0
1013013,384.69,924,778,0
1013023,385.00,924,774,0
1013033,385.68,924,778,0
1013043,385.56,924,774,0
1013053,385.87,924,778,0
1013063,385.35,924,774,0
1013073,385.29,924,778,0
1013083,384.34,924,774,0
1013093,383.94,924,778,0
1013103,382.72,924,774,0
1013113,382.03,924,778,0
1013123,380.82,924,774,0
1013133,380.70,924,778,0
1013143,380.79,924,774,0
1013153,383.00,924,778,0
1013164,386.77,924,773,0
1013174,394.17,924,778,0
1013184,404.66,924,773,0
1013203,419.98,713,771,0
1013207,439.27,713,775,0
1013215,463.66,713,778,0
1013225,490.59,713,772,0
1013235,519.90,713,778,0
1013245,548.82,713,772,0
1013255,576.94,713,778,0
1013265,601.65,713,772,0
1013275,622.54,713,777,0
1013285,637.16,713,772,0
1013295,646.88,713,778,0
1013305,650.48,713,772,0
1013315,649.56,713,777,0
1013325,643.39,713,773,0
1013335,633.98,713,778,0
1013345,620.78,713,772,0
1013355,605.68,713,777,0
1013365,587.99,713,773,0
1013376,569.73,713,778,0
1013385,550.27,713,773,0
1013395,531.38,713,777,0
1013405,512.06,713,773,0
1013415,493.96,713,778,0
1013425,476.57,713,773,0
1013435,461.40,713,778,0
1013445,447.48,713,773,0
1013455,436.15,713,778,0
1013465,426.29,713,773,0
1013475,419.13,713,778,0
1013485,413.44,713,773,0
1013495,410.18,713,778,0
1013505,407.85,713,773,0
1013515,407.47,713,778,0
1013525,407.37,713,773,0
1013535,408.46,713,778,0
1013545,409.18,713,774,0
1013555,410.45,713,778,0
1013565,410.75,713,773,0
1013575,411.17,713,778,0
1013585,410.26,713,774,0
1013595,409.37,713,778,0
1013605,407.11,713,773,0
1013615,404.77,713,778,0
1013625,401.49,713,774,0
1013635,398.52,713,778,0
1013645,394.76,713,773,0
1013655,391.62,713,778,0
1013665,388.13,713,774,0
1013676,385.74,713,778,0
1013686,383.33,713,774,0
1013696,381.90,713,778,0
1013706,380.43,713,774,0
1013716,380.13,713,778,0
1013726,379.75,713,774,0
1013736,380.17,713,778,0
1013746,380.20,713,774,0
1013756,380.87,713,778,0
1013766,381.12,713,774,0
1013776,381.99,713,778,0
1013786,382.38,713,774,0
1013796,383.21,713,778,0
1013806,383.44,713,774,0
1013816,384.00,713,778,0
1013826,384.13,713,774,0
1013836,384.60,713,778,0
1013847,384.38,713,775,0
1013857,384.27,713,777,0
1013867,383.54,713,775,0
1013877,382.99,713,777,0
1013888,382.18,713,776,0
1013897,381.66,713,778,0
1013907,380.82,713,775,0
1013917,380.36,713,777,0
1013927,379.65,713,776,0
1013937,379.37,713,777,0
1013947,379.04,713,775,0
1013957,379.37,713,777,0
1013967,380.29,713,776,0
1013977,382.95,713,778,0
1013987,387.51,713,775,0
1013997,395.28,713,777,0
1014007,406.43,713,775,0
1014026,421.94,823,773,0
1014029,441.12,823,777,0
1014038,464.70,823,776,0
1014048,491.14,823,776,0
1014059,519.56,823,776,0
1014068,547.85,823,775,0
1014078,574.72,823,776,0
1014088,598.38,823,775,0
1014098,618.02,823,776,0
1014108,631.90,823,775,0
1014118,639.86,823,776,0
1014128,641.96,823,775,0
1014138,638.71,823,776,0
1014148,630.74,823,775,0
1014158,618.95,823,776,0
1014168,603.96,823,776,0
1014178,586.57,823,776,0
1014188,567.55,823,775,0
1014198,547.75,823,777,0
1014208,527.81,823,776,0
1014218,508.11,823,776,0
1014228,489.09,823,776,0
1014238,471.36,823,777,0
1014248,455.18,823,776,0
1014258,440.86,823,777,0
1014268,428.60,823,777,0
1014278,418.61,823,777,0
1014288,411.01,823,776,0
1014298,405.65,823,777,0
1014308,402.45,823,776,0
1014318,401.08,823,777,0
1014328,401.18,823,776,0
1014338,402.24,823,777,0
1014348,404.01,823,776,0
1014359,405.77,823,776,0
1014369,407.34,823,777,0
1014379,408.26,823,776,0
1014389,408.83,823,777,0
1014400,408.62,823,775,0
1014409,407.92,823,777,0
1014419,406.49,823,776,0
1014429,404.97,823,777,0
1014439,402.92,823,775,0
1014449,400.85,823,777,0
1014459,398.28,823,776,0
1014469,396.05,823,777,0
1014479,393.55,823,775,0
1014489,391.37,823,777,0
1014499,388.99,823,776,0
1014509,387.23,823,777,0
1014519,385.28,823,775,0
1014529,383.87,823,777,0
1014539,382.41,823,776,0
1014549,381.60,823,777,0
1014559,380.82,823,775,0
1014569,380.62,823,778,0
1014579,380.30,823,776,0
1014589,380.64,823,777,0
1014599,380.83,823,775,0
1014609,381.53,823,778,0
1014619,382.10,823,776,0
1014629,382.97,823,777,0
1014639,383.45,823,775,0
1014649,384.21,823,778,0
1014659,384.62,823,776,0
1014669,385.21,823,777,0
1014679,385.14,823,776,0
1014689,385.10,823,778,0
1014700,384.34,823,775,0
1014710,383.90,823,778,0
1014720,382.64,823,774,0
1014730,381.72,823,778,0
1014740,380.39,823,775,0
1014750,380.10,823,778,0
1014760,380.07,823,775,0
1014770,381.89,823,778,0
1014780,384.92,823,774,0
1014790,391.12,823,778,0
1014800,399.83,823,774,0
1014810,412.86,823,778,0
1014830,429.28,803,777,0
1014833,450.19,803,779,0
1014842,474.26,803,773,0
1014852,501.70,803,778,0
1014862,529.78,803,772,0
1014872,558.26,803,778,0
1014882,584.11,803,773,0
1014892,606.83,803,778,0
1014902,624.11,803,772,0
1014913,636.04,803,778,0
1014923,641.12,803,772,0
1014933,640.92,803,778,0
1014943,634.56,803,772,0
1014953,624.15,803,778,0
1014963,609.40,803,772,0
1014973,592.48,803,778,0
1014983,572.88,803,772,0
1014993,552.73,803,778,0
1015003,531.73,803,773,0
1015013,511.62,803,778,0
1015023,491.64,803,772,0
1015033,473.49,803,778,0
1015043,456.33,803,773,0
1015053,442.04,803,778,0
1015063,429.39,803,772,0
1015073,419.71,803,778,0
1015084,411.83,803,773,0
1015094,407.04,803,778,0
1015104,403.77,803,773,0
1015114,403.02,803,778,0
1015124,403.15,803,774,0
1015134,405.03,803,778,0
1015144,406.91,803,773,0
1015154,409.59,803,778,0
1015164,411.60,803,774,0
1015174,413.82,803,778,0
1015184,414.86,803,773,0
1015194,415.54,803,778,0
1015204,414.78,803,774,0
1015214,413.69,803,778,0
1015224,411.21,803,773,0
1015234,408.62,803,778,0
1015244,404.96,803,774,0
1015255,401.46,803,778,0
1015265,397.42,803,774,0
1015275,393.95,803,778,0
1015285,390.15,803,775,0
1015296,387.06,803,777,0
1015305,383.74,803,774,0
1015315,381.55,803,778,0
1015325,379.58,803,775,0
1015335,378.72,803,777,0
1015345,378.08,803,774,0
1015355,378.53,803,778,0
1015365,379.23,803,775,0
1015375,380.83,803,778,0
1015385,382.17,803,774,0
1015395,383.96,803,778,0
1015405,385.26,803,775,0
1015415,386.72,803,778,0
1015425,387.66,803,774,0
1015435,388.88,803,778,0
1015445,389.51,803,775,0
1015455,390.35,803,778,0
1015465,390.59,803,775,0
1015475,391.01,803,778,0
1015485,390.79,803,775,0
1015495,390.68,803,778,0
1015505,389.92,803,775,0
1015515,389.39,803,778,0
1015525,388.46,803,775,0
1015535,388.06,803,778,0
1015545,387.87,803,775,0
1015555,389.20,803,778,0
1015565,391.92,803,775,0
1015575,397.47,803,778,0
1015585,405.90,803,775,0
1015596,418.49,803,777,0
1015606,435.14,803,775,0
1015625,456.10,796,774,0
1015628,480.50,796,778,0
1015638,507.82,796,776,0
1015647,536.25,796,776,0
1015657,564.24,796,776,0
1015667,589.88,796,776,0
1015677,611.43,796,776,0
1015687,627.93,796,776,0
1015697,638.45,796,776,0
1015707,642.60,796,777,0
1015717,640.32,796,775,0
1015727,632.73,796,776,0
1015737,620.38,796,776,0
1015747,604.45,796,777,0
1015757,585.50,796,776,0
1015767,564.74,796,776,0
1015777,543.00,796,776,0
1015787,521.57,796,777,0
1015797,500.49,796,776,0
1015808,480.71,796,777,0
1015817,462.54,796,776,0
1015827,446.65,796,777,0
1015837,433.04,796,776,0
1015847,422.10,796,777,0
1015857,413.33,796,776,0
1015867,407.27,796,777,0
1015877,403.38,796,776,0
1015887,401.89,796,777,0
1015897,402.10,796,776,0
1015907,403.95,796,777,0
1015917,406.58,796,776,0
1015927,410.18,796,777,0
1015937,413.77,796,777,0
1015947,417.22,796,777,0
1015957,419.81,796,776,0
1015967,421.58,796,777,0
1015977,421.97,796,776,0
1015987,421.46,796,777,0
1015997,419.74,796,776,0
1016007,417.33,796,777,0
1016017,413.93,796,776,0
1016027,410.27,796,777,0
1016037,406.20,796,776,0
1016047,402.63,796,777,0
1016057,399.01,796,776,0
1016067,395.84,796,777,0
1016077,392.80,796,776,0
1016087,390.59,796,777,0
1016097,388.57,796,776,0
1016108,387.33,796,778,0
1016118,386.11,796,775,0
1016128,385.57,796,778,0
1016138,385.10,796,775,0
1016148,385.28,796,778,0
1016158,385.41,796,775,0
1016168,386.10,796,778,0
1016178,386.59,796,775,0
1016188,387.61,796,778,0
1016198,388.33,796,775,0
1016208,389.51,796,778,0
1016218,390.09,796,775,0
1016228,391.05,796,778,0
1016238,391.42,796,775,0
1016248,392.06,796,778,0
1016258,391.96,796,775,0
1016268,392.19,796,778,0
1016279,391.53,796,774,0
1016289,391.24,796,778,0
1016299,390.18,796,774,0
1016309,389.61,796,778,0
1016320,388.36,796,774,0
1016329,387.74,796,778,0
1016339,386.49,796,774,0
1016349,386.04,796,778,0
1016359,385.21,796,774,0
1016369,385.36,796,778,0
1016379,385.60,796,774,0
1016389,387.82,796,778,0
1016399,391.34,796,774,0
1016409,398.10,796,778,0
1016419,407.75,796,774,0
1016438,422.44,813,772,0
1016441,441.25,813,772,0
1016450,465.35,813,778,0
1016460,492.80,813,773,0
1016470,523.55,813,778,0
1016480,554.71,813,773,0
1016491,585.53,813,778,0
1016500,612.71,813,773,0
1016510,635.86,813,778,0
1016520,652.18,813,772,0
1016530,662.24,813,778,0
1016540,664.70,813,773,0
1016550,661.36,813,778,0
1016560,651.65,813,772,0
1016570,637.66,813,778,0
1016580,619.25,813,773,0
1016590,598.94,813,778,0
1016600,576.42,813,773,0
1016610,553.96,813,778,0
1016620,531.05,813,774,0
1016630,509.69,813,778,0
1016640,489.17,813,773,0
1016650,471.12,813,778,0
1016660,454.58,813,773,0
1016670,441.12,813,778,0
1016680,429.30,813,773,0
1016690,420.64,813,778,0
1016700,413.68,813,773,0
1016710,409.74,813,778,0
1016720,407.25,813,773,0
1016730,407.13,813,778,0
1016740,407.65,813,773,0
1016750,409.94,813,778,0
1016760,412.10,813,773,0
1016770,415.03,813,778,0
1016780,416.99,813,773,0
1016791,419.05,813,778,0
1016801,419.55,813,773,0
1016811,419.86,813,778,0
1016821,418.70,813,773,0
1016832,417.20,813,778,0
1016841,414.36,813,773,0
1016851,411.51,813,778,0
1016861,407.58,813,773,0
1016871,404.24,813,778,0
1016881,400.27,813,773,0
1016891,397.01,813,778,0
1016901,393.50,813,773,0
1016911,391.03,813,778,0
1016921,388.41,813,773,0
1016931,386.91,813,778,0
1016941,385.23,813,773,0
1016951,384.73,813,778,0
1016961,383.95,813,773,0
1016971,384.14,813,778,0
1016981,383.88,813,773,0
1016991,384.43,813,778,0
1017001,384.56,813,773,0
1017011,385.46,813,778,0
1017021,385.75,813,773,0
1017031,386.73,813,778,0
1017041,387.11,813,773,0
1017051,388.06,813,778,0
1017061,388.26,813,773,0
1017071,388.95,813,778,0
1017081,388.79,813,773,0
1017091,389.07,813,778,0
1017101,388.54,813,773,0
1017111,388.46,813,778,0
1017121,387.64,813,774,0
1017132,387.40,813,778,0
1017142,386.51,813,774,0
1017152,386.36,813,778,0
1017162,385.95,813,774,0
1017172,386.87,813,778,0
1017182,388.28,813,774,0
1017192,392.14,813,778,0
1017202,398.10,813,774,0
1017212,407.92,813,778,0
1017222,421.19,813,773,0
1017241,439.30,803,772,0
1017244,461.24,803,776,0
1017253,487.70,803,777,0
1017263,516.12,803,774,0
1017273,545.82,803,778,0
1017283,574.38,803,774,0
1017293,600.62,803,777,0
1017303,622.16,803,773,0
1017313,638.36,803,777,0
1017323,647.25,803,774,0
1017333,649.75,803,777,0
1017344,645.62,803,775,0
1017353,636.31,803,777,0
1017363,622.16,803,774,0
1017373,604.75,803,777,0
1017383,584.56,803,775,0
1017393,563.43,803,778,0
1017403,541.62,803,775,0
1017413,520.26,803,778,0
1017423,499.14,803,775,0
1017433,479.47,803,778,0
1017443,460.94,803,775,0
1017453,444.63,803,778,0
1017463,430.30,803,775,0
1017473,418.77,803,778,0
1017483,409.58,803,775,0
1017493,403.36,803,778,0
1017503,399.48,803,775,0
1017513,398.22,803,777,0
1017523,398.67,803,775,0
1017533,400.83,803,778,0
1017543,403.54,803,775,0
1017553,406.98,803,777,0
1017563,409.98,803,775,0
1017573,412.86,803,777,0
1017583,414.79,803,775,0
1017593,415.97,803,777,0
1017603,415.80,803,775,0
1017613,414.96,803,778,0
1017623,412.87,803,775,0
1017633,410.25,803,777,0
1017644,406.75,803,776,0
1017654,402.97,803,777,0
1017664,398.95,803,776,0
1017674,395.02,803,777,0
1017684,391.24,803,777,0
1017694,387.96,803,777,0
1017704,385.06,803,776,0
1017714,382.60,803,777,0
1017724,380.75,803,777,0
1017734,379.36,803,777,0
1017744,378.57,803,776,0
1017754,378.18,803,777,0
1017764,378.17,803,777,0
1017774,378.51,803,777,0
1017784,379.17,803,776,0
1017794,379.98,803,777,0
1017804,381.05,803,777,0
1017815,382.19,803,776,0
1017825,383.34,803,777,0
1017835,384.22,803,776,0
1017845,385.05,803,777,0
1017856,385.60,803,775,0
1017865,386.06,803,777,0
1017875,386.00,803,776,0
1017885,385.91,803,778,0
1017895,385.38,803,775,0
1017905,385.01,803,777,0
1017915,384.19,803,776,0
1017925,383.62,803,777,0
1017935,382.71,803,775,0
1017945,382.32,803,777,0
1017955,382.05,803,776,0
1017965,383.02,803,778,0
1017975,385.16,803,775,0
1017985,389.70,803,777,0
1017995,396.86,803,776,0
1018005,408.00,803,777,0
1018015,423.00,803,775,0
1018035,442.67,793,773,0
1018038,465.74,793,774,0
1018047,492.86,793,778,0
1018057,521.49,793,773,0
1018067,550.61,793,778,0
1018077,577.52,793,773,0
1018087,601.32,793,778,0
1018097,619.74,793,773,0
1018107,633.02,793,778,0
1018117,638.97,793,774,0
1018127,639.28,793,778,0
1018137,633.32,793,773,0
1018147,623.11,793,778,0
1018157,608.46,793,773,0
1018167,591.40,793,778,0
1018177,571.39,793,773,0
1018187,550.75,793,778,0
1018198,528.88,793,773,0
1018207,507.87,793,778,0
1018217,487.00,793,774,0
1018227,467.88,793,778,0
1018237,449.58,793,773,0
1018247,434.15,793,778,0
1018257,420.34,793,774,0
1018267,409.83,793,778,0
1018277,401.22,793,773,0
1018287,395.84,793,778,0
1018297,392.29,793,774,0
1018307,391.82,793,778,0
1018317,392.51,793,773,0
1018327,395.15,793,778,0
1018337,397.80,793,774,0
1018347,401.33,793,778,0
1018357,403.93,793,773,0
1018368,406.70,793,778,0
1018377,407.94,793,774,0
1018387,408.95,793,778,0
1018397,408.15,793,773,0
1018407,407.03,793,778,0
1018417,404.37,793,774,0
1018427,401.73,793,778,0
1018437,397.87,793,773,0
1018447,394.35,793,778,0
1018457,390.09,793,774,0
1018467,386.76,793,778,0
1018477,383.15,793,773,0
1018487,380.66,793,778,0
1018497,378.06,793,774,0
1018507,376.63,793,778,0
1018517,375.03,793,774,0
1018527,374.55,793,778,0
1018537,373.83,793,773,0
1018547,374.18,793,778,0
1018557,374.08,793,773,0
1018567,374.91,793,778,0
1018577,375.24,793,773,0
1018587,376.45,793,778,0
1018597,377.00,793,773,0
1018607,378.16,793,778,0
1018617,378.54,793,773,0
1018627,379.54,793,778,0
1018637,379.72,793,773,0
1018647,380.40,793,778,0
1018657,380.15,793,774,0
1018668,380.32,793,778,0
1018678,379.67,793,773,0
1018688,379.42,793,778,0
1018698,378.40,793,773,0
1018708,377.85,793,778,0
1018718,376.74,793,773,0
1018728,376.56,793,778,0
1018738,376.35,793,773,0
1018748,378.04,793,778,0
1018758,380.95,793,773,0
1018768,387.13,793,778,0
1018778,395.92,793,773,0
1018788,409.27,793,778,0
1018798,425.95,793,773,0
1018817,447.31,783,771,0
1018820,471.56,783,774,0
1018829,499.25,783,778,0
1018839,527.12,783,772,0
1018849,554.85,783,778,0
1018859,579.45,783,773,0
1018869,600.83,783,778,0
1018880,616.35,783,772,0
1018889,626.49,783,778,0
1018899,629.51,783,772,0
1018909,627.17,783,778,0
1018919,618.85,783,773,0
1018929,606.51,783,778,0
1018939,589.86,783,773,0
1018949,571.17,783,778,0
1018959,550.08,783,773,0
1018969,528.75,783,778,0
1018979,506.67,783,773,0
1018989,485.77,783,778,0
1018999,465.40,783,774,0
1019009,447.58,783,778,0
1019019,431.55,783,773,0
1019029,418.70,783,778,0
1019039,407.90,783,774,0
1019049,400.65,783,778,0
1019059,395.52,783,773,0
1019069,393.57,783,778,0
1019079,393.01,783,773,0
1019089,394.59,783,778,0
1019099,396.73,783,773,0
1019109,400.07,783,778,0
1019119,402.96,783,773,0
1019129,406.19,783,778,0
1019139,408.19,783,773,0
1019149,409.93,783,778,0
1019159,410.00,783,774,0
1019169,409.53,783,778,0
1019180,407.44,783,774,0
1019190,404.99,783,778,0
1019200,401.35,783,774,0
1019210,397.73,783,778,0
1019220,393.44,783,775,0
1019230,389.84,783,778,0
1019240,385.94,783,774,0
1019250,382.92,783,777,0
1019260,380.03,783,775,0
1019270,378.22,783,778,0
1019280,376.65,783,775,0
1019290,375.99,783,777,0
1019300,375.48,783,775,0
1019310,375.93,783,778,0
1019320,376.47,783,774,0
1019330,377.61,783,778,0
1019340,378.67,783,775,0
1019351,380.06,783,777,0
1019361,381.20,783,775,0
1019371,382.51,783,777,0
1019381,383.56,783,776,0
1019392,384.72,783,777,0
1019401,385.62,783,775,0
1019411,386.72,783,777,0
1019421,387.70,783,776,0
1019431,388.78,783,777,0
1019441,389.53,783,775,0
1019451,390.19,783,777,0
1019461,390.52,783,776,0
1019471,390.83,783,777,0
1019481,390.88,783,775,0
1019491,391.43,783,777,0
1019501,392.85,783,776,0
1019511,395.98,783,777,0
1019521,401.26,783,775,0
1019531,409.79,783,777,0
1019541,422.03,783,776,0
1019551,438.56,783,777,0
1019571,459.14,753,775,0
1019574,482.54,753,775,0
1019583,508.73,753,777,0
1019593,535.81,753,775,0
1019603,562.36,753,777,0
1019613,586.16,753,775,0
1019623,605.91,753,777,0
1019633,619.95,753,775,0
1019643,628.71,753,777,0
1019653,630.60,753,775,0
1019663,626.73,753,777,0
1019673,616.96,753,775,0
1019683,602.91,753,777,0
1019693,585.07,753,775,0
1019703,565.16,753,777,0
1019713,543.30,753,775,0
1019723,521.18,753,778,0
1019734,498.84,753,775,0
1019743,477.76,753,778,0
1019753,457.86,753,775,0
1019763,440.42,753,778,0
1019773,425.03,753,775,0
1019783,412.98,753,778,0
1019793,403.43,753,775,0
1019803,397.43,753,778,0
1019813,393.83,753,775,0
1019823,393.15,753,777,0
1019833,393.96,753,775,0
1019843,396.80,753,778,0
1019853,400.16,753,775,0
1019863,404.27,753,777,0
1019873,407.66,753,775,0
1019883,410.98,753,778,0
1019893,412.96,753,774,0
1019904,414.25,753,778,0
1019913,414.01,753,775,0
1019923,413.19,753,778,0
1019933,411.25,753,775,0
1019943,409.16,753,778,0
1019953,406.33,753,775,0
1019963,403.83,753,778,0
1019973,400.88,753,775,0
1019983,398.52,753,778,0
1019993,395.79,753,775,0
1020003,393.71,753,778,0
1020013,391.44,753,775,0
1020023,389.81,753,778,0
1020033,388.02,753,775,0
1020043,387.03,753,778,0
1020053,385.78,753,775,0
1020063,385.33,753,778,0
1020073,384.72,753,774,0
1020083,384.63,753,778,0
1020093,384.27,753,775,0
1020103,384.70,753,778,0
1020113,385.01,753,775,0
1020123,386.03,753,778,0
1020133,386.67,753,775,0
1020143,387.71,753,778,0
1020153,388.31,753,775,0
1020163,389.20,753,778,0
1020173,389.14,753,775,0
1020183,389.27,753,778,0
1020193,388.68,753,775,0
1020204,388.64,753,778,0
1020214,388.32,753,775,0
1020224,389.43,753,778,0
1020234,391.48,753,775,0
1020244,396.40,753,778,0
1020254,403.61,753,775,0
1020264,415.08,753,778,0
1020274,430.19,753,775,0
1020284,450.44,753,778,0
1020303,474.01,733,777,0
1020306,500.79,733,779,0
1020315,528.97,733,773,0
1020325,558.12,733,778,0
1020335,585.17,733,773,0
1020345,609.42,733,778,0
1020355,628.15,733,773,0
1020365,641.73,733,778,0
1020375,648.93,733,773,0
1020385,650.19,733,778,0
1020395,644.43,733,773,0
1020405,633.72,733,778,0
1020416,617.82,733,773,0
1020425,599.14,733,778,0
1020435,577.29,733,773,0
1020445,554.74,733,778,0
1020455,530.99,733,773,0
1020465,508.58,733,778,0
1020475,486.59,733,773,0
1020485,467.00,733,778,0
1020495,448.87,733,773,0
1020505,434.08,733,778,0
1020515,421.24,733,773,0
1020525,411.91,733,778,0
1020535,404.70,733,773,0
1020545,400.84,733,778,0
1020555,398.75,733,773,0
1020565,399.38,733,778,0
1020575,400.85,733,773,0
1020585,404.20,733,778,0
1020595,407.48,733,773,0
1020605,411.58,733,778,0
1020615,414.75,733,773,0
1020625,417.95,733,778,0
1020635,419.47,733,773,0
1020645,420.66,733,778,0
1020655,419.86,733,773,0
1020665,418.57,733,778,0
1020675,415.49,733,773,0
1020685,412.25,733,778,0
1020695,407.81,733,773,0
1020705,403.66,733,778,0
1020716,398.75,733,773,0
1020726,394.67,733,778,0
1020736,390.40,733,773,0
1020746,387.41,733,778,0
1020756,384.50,733,774,0
1020766,382.89,733,778,0
1020776,381.21,733,773,0
1020786,380.68,733,778,0
1020796,380.00,733,773,0
1020806,380.43,733,778,0
1020816,380.56,733,773,0
1020826,381.46,733,778,0
1020836,381.79,733,773,0
1020846,383.01,733,778,0
1020856,383.65,733,773,0
1020866,384.96,733,778,0
1020876,385.44,733,773,0
1020887,386.42,733,778,0
1020897,386.72,733,774,0
1020907,387.54,733,778,0
1020917,387.63,733,774,0
1020928,388.26,733,778,0
1020937,388.18,733,774,0
1020947,388.51,733,778,0
1020957,388.10,733,774,0
1020967,387.98,733,778,0
1020977,387.26,733,774,0
1020987,386.97,733,778,0
1020997,386.12,733,774,0
1021007,385.78,733,778,0
1021017,385.16,733,774,0
1021027,385.54,733,778,0
1021037,386.37,733,774,0
1021047,389.30,733,778,0
1021057,394.09,733,774,0
1021067,402.98,733,778,0
1021077,415.93,733,773,0
1021096,434.68,793,772,0
1021100,458.69,793,777,0
1021108,488.61,793,778,0
1021118,522.33,793,774,0
1021128,559.13,793,777,0
1021138,595.78,793,775,0
1021148,630.69,793,777,0
1021158,661.21,793,774,0
1021168,686.09,793,777,0
1021178,703.42,793,774,0
1021188,713.45,793,777,0
1021198,715.59,793,774,0
1021208,710.91,793,777,0
1021218,700.01,793,775,0
1021228,684.23,793,777,0
1021238,664.28,793,774,0
1021248,641.87,793,777,0
1021258,617.39,793,775,0
1021268,592.12,793,777,0
1021278,566.54,793,775,0
1021288,541.73,793,778,0
1021298,517.77,793,775,0
1021308,495.51,793,777,0
1021318,474.79,793,775,0
1021328,456.55,793,778,0
1021338,440.79,793,775,0
1021348,427.95,793,777,0
1021358,417.64,793,775,0
1021368,410.25,793,777,0
1021378,405.16,793,775,0
1021388,402.37,793,777,0
1021399,401.23,793,776,0
1021409,401.67,793,777,0
1021419,403.10,793,777,0
1021429,405.26,793,776,0
1021440,407.71,793,777,0
1021449,410.24,793,777,0
1021459,412.44,793,776,0
1021469,414.02,793,776,0
1021479,414.96,793,777,0
1021489,415.06,793,777,0
1021499,414.27,793,777,0
1021509,412.34,793,776,0
1021519,409.63,793,777,0
1021529,406.40,793,777,0
1021539,402.93,793,776,0
1021549,399.14,793,776,0
1021559,395.41,793,777,0
1021569,391.95,793,777,0
1021579,388.96,793,776,0
1021589,386.36,793,776,0
1021599,384.41,793,777,0
1021609,382.79,793,776,0
1021619,381.82,793,776,0
1021629,381.28,793,776,0
1021639,381.28,793,777,0
1021649,381.58,793,775,0
1021659,382.39,793,777,0
1021669,383.30,793,776,0
1021679,384.54,793,777,0
1021689,385.58,793,776,0
1021699,386.65,793,777,0
1021709,387.52,793,776,0
1021719,388.44,793,777,0
1021729,389.04,793,776,0
1021740,389.50,793,777,0
1021750,389.56,793,776,0
1021760,389.61,793,778,0
1021770,389.21,793,775,0
1021780,388.89,793,778,0
1021790,388.24,793,776,0
1021800,387.87,793,778,0
1021810,387.39,793,775,0
1021820,388.00,793,778,0
1021830,389.63,793,776,0
1021840,393.68,793,778,0
1021850,400.21,793,775,0
1021860,410.95,793,778,0
1021870,425.75,793,775,0
1021880,445.88,793,777,0
1021899,470.47,803,776,0
1021902,499.52,803,778,0
1021911,531.08,803,774,0
1021921,564.14,803,778,0
1021931,595.81,803,773,0
1021941,625.23,803,778,0
1021952,649.59,803,773,0
1021961,668.31,803,778,0
1021971,679.79,803,773,0
1021981,684.39,803,778,0
1021991,681.53,803,773,0
1022001,673.06,803,778,0
1022011,658.47,803,773,0
1022021,640.16,803,778,0
1022031,618.04,803,773,0
1022041,594.50,803,778,0
1022051,569.58,803,774,0
1022061,545.28,803,778,0
1022071,520.76,803,774,0
1022081,498.12,803,778,0
1022091,476.44,803,774,0
1022101,457.07,803,778,0
1022111,439.05,803,774,0
1022121,424.08,803,778,0
1022131,411.15,803,774,0
1022141,401.59,803,778,0
1022151,394.30,803,774,0
1022161,390.40,803,778,0
1022171,388.73,803,774,0
1022181,389.93,803,778,0
1022191,391.92,803,774,0
1022201,395.46,803,778,0
1022211,398.92,803,774,0
1022221,402.89,803,778,0
1022231,405.71,803,774,0
1022241,408.28,803,778,0
1022252,409.18,803,773,0
1022262,409.73,803,778,0
1022272,408.44,803,773,0
1022282,406.81,803,778,0
1022292,403.61,803,773,0
1022302,400.51,803,778,0
1022312,396.24,803,773,0
1022322,392.44,803,778,0
1022332,388.07,803,773,0
1022342,384.75,803,778,0
1022352,381.22,803,774,0
1022362,378.93,803,778,0
1022372,376.42,803,773,0
1022382,375.22,803,778,0
1022392,373.91,803,774,0
1022402,373.60,803,778,0
1022412,372.99,803,774,0
1022423,373.38,803,778,0
1022433,373.48,803,774,0
1022443,374.54,803,778,0
1022453,375.19,803,774,0
1022464,376.72,803,778,0
1022473,377.79,803,774,0
1022483,379.48,803,778,0
1022493,380.28,803,774,0
1022503,381.48,803,778,0
1022513,381.68,803,774,0
1022523,382.20,803,778,0
1022533,381.84,803,774,0
1022543,381.98,803,778,0
1022553,381.30,803,773,0
1022563,381.25,803,778,0
1022573,380.66,803,772,0
1022583,381.02,803,778,0
1022593,381.14,803,772,0
1022603,382.56,803,778,0
1022613,384.40,803,772,0
1022623,388.70,803,778,0
1022633,395.05,803,773,0
1022643,405.32,803,778,0
1022653,419.07,803,772,0
1022663,438.25,803,778,0
1022683,461.53,783,777,0
1022686,489.27,783,778,0
1022695,519.92,783,773,0
1022705,552.56,783,777,0
1022715,584.32,783,774,0
1022725,614.09,783,778,0
1022735,638.71,783,773,0
1022745,657.78,783,777,0
1022755,669.72,783,774,0
1022765,674.56,783,778,0
1022775,671.78,783,773,0
1022785,662.93,783,777,0
1022795,648.25,783,774,0
1022806,629.70,783,777,0
1022815,607.72,783,774,0
1022825,584.15,783,778,0
1022835,559.08,783,775,0
1022845,534.20,783,777,0
1022855,509.49,783,775,0
1022865,486.25,783,778,0
1022875,464.14,783,776,0
1022885,444.26,783,778,0
1022895,426.39,783,775,0
1022905,411.58,783,778,0
1022915,399.32,783,776,0
1022925,390.39,783,778,0
1022935,384.02,783,775,0
1022945,381.01,783,778,0
1022955,380.28,783,775,0
1022965,382.04,783,777,0
1022976,384.98,783,775,0
1022985,389.32,783,778,0
1022995,393.64,783,775,0
1023005,398.03,783,777,0
1023015,401.32,783,775,0
1023025,404.01,783,778,0
1023035,405.25,783,774,0
1023045,405.56,783,777,0
1023055,404.49,783,775,0
1023065,402.97,783,778,0
1023075,400.71,783,775,0
1023085,398.61,783,777,0
1023095,396.37,783,776,0
1023105,394.89,783,778,0
1023115,393.64,783,775,0
1023125,393.06,783,778,0
1023135,392.27,783,776,0
1023145,391.80,783,778,0
1023155,390.58,783,776,0
1023165,389.20,783,778,0
1023175,386.79,783,776,0
1023185,384.06,783,777,0
1023195,380.53,783,775,0
1023205,377.11,783,777,0
1023215,373.52,783,775,0
1023225,370.54,783,777,0
1023235,367.63,783,774,0
1023245,365.64,783,777,0
1023255,364.08,783,775,0
1023265,363.41,783,777,0
1023276,363.12,783,775,0
1023286,363.30,783,777,0
1023296,363.85,783,776,0
1023306,364.84,783,776,0
1023316,365.92,783,776,0
1023326,367.18,783,777,0
1023336,368.29,783,776,0
1023346,369.36,783,776,0
1023356,370.36,783,776,0
1023366,371.41,783,777,0
1023376,372.66,783,776,0
1023386,374.52,783,776,0
1023396,377.75,783,776,0
1023406,383.10,783,777,0
1023416,391.34,783,776,0
1023426,403.41,783,776,0
1023436,420.09,783,776,0
1023447,441.49,783,776,0
1023457,467.27,783,777,0
1023476,496.16,794,776,0
1023479,527.10,794,779,0
1023489,558.40,794,773,0
1023499,588.41,794,778,0
1023509,614.26,794,773,0
1023519,635.27,794,778,0
1023529,649.59,794,773,0
1023539,657.72,794,778,0
1023549,658.88,794,773,0
1023559,654.16,794,778,0
1023569,643.27,794,773,0
1023579,628.74,794,778,0
1023589,610.01,794,773,0
1023599,589.43,794,778,0
1023609,566.42,794,773,0
1023619,543.28,794,778,0
1023629,519.49,794,774,0
1023639,496.93,794,778,0
1023649,474.71,794,774,0
1023660,454.95,794,778,0
1023670,436.80,794,774,0
1023680,421.99,794,778,0
1023690,409.30,794,773,0
1023700,400.17,794,778,0
1023710,393.35,794,774,0
1023720,389.90,794,778,0
1023730,388.17,794,773,0
1023740,388.94,794,778,0
1023750,390.41,794,773,0
1023760,393.37,794,778,0
1023770,395.79,794,773,0
1023780,398.64,794,778,0
1023790,400.25,794,773,0
1023800,401.72,794,778,0
1023810,401.54,794,773,0
1023820,401.08,794,778,0
1023831,398.91,794,773,0
1023841,396.75,794,778,0
1023851,393.27,794,773,0
1023861,390.06,794,778,0
1023872,385.89,794,773,0
1023881,382.53,794,778,0
1023891,378.69,794,773,0
1023901,375.91,794,778,0
1023911,372.89,794,773,0
1023921,371.04,794,778,0
1023931,369.06,794,773,0
1023941,368.23,794,778,0
1023951,367.21,794,774,0
1023961,367.24,794,778,0
1023971,366.87,794,773,0
1023981,367.33,794,778,0
1023991,367.41,794,773,0
1024001,368.18,794,778,0
1024011,368.34,794,773,0
1024021,369.05,794,778,0
1024031,369.04,794,773,0
1024041,369.63,794,778,0
1024051,369.57,794,773,0
1024061,370.13,794,778,0
1024071,370.00,794,773,0
1024081,370.56,794,778,0
1024091,370.35,794,773,0
1024101,370.67,794,778,0
1024111,370.30,794,773,0
1024121,370.30,794,778,0
1024131,369.44,794,773,0
1024141,369.13,794,778,0
1024151,368.11,794,773,0
1024161,367.82,794,778,0
1024172,367.44,794,774,0
1024182,368.64,794,778,0
1024192,371.10,794,774,0
1024202,376.64,794,778,0
1024212,385.07,794,774,0
1024222,398.12,794,778,0
1024241,415.27,765,777,0
1024244,437.43,765,777,0
1024253,464.04,765,775,0
1024263,494.33,765,778,0
1024273,525.90,765,774,0
1024283,557.60,765,777,0
1024293,586.74,765,774,0
1024303,612.36,765,777,0
1024313,632.22,765,774,0
1024323,645.10,765,777,0
1024333,650.43,765,774,0
1024343,649.18,765,778,0
1024353,641.11,765,774,0
1024363,627.79,765,777,0
1024373,609.64,765,775,0
1024384,588.41,765,777,0
1024393,564.84,765,775,0
1024403,540.55,765,777,0
1024413,515.83,765,775,0
1024423,492.01,765,777,0
1024433,469.38,765,775,0
1024443,448.95,765,777,0
1024453,430.71,765,775,0
1024463,415.45,765,777,0
1024473,402.93,765,775,0
1024483,393.78,765,777,0
1024493,387.67,765,775,0
1024503,384.90,765,777,0
1024513,384.72,765,775,0
1024523,387.37,765,777,0
1024533,391.80,765,775,0
1024543,397.82,765,777,0
1024553,404.26,765,776,0
1024563,410.91,765,777,0
1024573,416.72,765,775,0
1024583,421.61,765,777,0
1024593,424.90,765,776,0
1024603,426.64,765,778,0
1024613,426.41,765,775,0
1024623,424.61,765,777,0
1024633,421.13,765,776,0
1024643,416.72,765,777,0
1024653,411.32,765,775,0
1024663,405.48,765,777,0
1024673,399.38,765,776,0
1024684,393.74,765,777,0
1024694,388.54,765,776,0
1024704,384.18,765,777,0
1024714,380.66,765,777,0
1024724,378.19,765,776,0
1024734,376.50,765,776,0
1024744,375.62,765,777,0
1024754,375.39,765,777,0
1024764,375.53,765,776,0
1024774,376.02,765,776,0
1024784,376.44,765,777,0
1024794,376.95,765,777,0
1024804,377.39,765,776,0
1024814,377.96,765,776,0
1024824,378.27,765,777,0
1024834,378.62,765,777,0
1024844,378.69,765,776,0
1024855,378.83,765,777,0
1024865,378.58,765,776,0
1024875,378.53,765,778,0
1024885,378.07,765,775,0
1024896,378.01,765,778,0
1024905,377.96,765,776,0
1024915,378.70,765,778,0
1024925,380.16,765,775,0
1024935,383.76,765,778,0
1024945,389.40,765,776,0
1024955,398.58,765,778,0
1024965,411.09,765,775,0
1024975,428.25,765,778,0
1024985,449.26,765,775,0
1024995,474.17,765,777,0
1025014,500.90,773,776,0
1025017,528.53,773,780,0
1025026,555.16,773,774,0
1025036,579.45,773,778,0
1025046,598.77,773,773,0
1025056,613.03,773,778,0
1025067,620.43,773,773,0
1025076,622.15,773,778,0
1025086,617.60,773,774,0
1025096,607.99,773,778,0
1025106,593.38,773,773,0
1025116,576.17,773,778,0
1025126,556.06,773,774,0
1025136,535.38,773,778,0
1025146,513.54,773,773,0
1025156,492.51,773,778,0
1025166,471.70,773,774,0
1025176,452.93,773,778,0
1025186,435.17,773,774,0
1025196,420.20,773,778,0
1025206,407.07,773,774,0
1025216,397.32,773,778,0
1025226,389.72,773,774,0
1025236,385.56,773,778,0
1025246,383.42,773,774,0
1025256,384.33,773,778,0
1025266,386.50,773,773,0
1025276,390.85,773,778,0
1025286,395.39,773,774,0
1025296,400.93,773,778,0
1025306,405.58,773,774,0
1025316,410.16,773,778,0
1025326,413.20,773,774,0
1025336,415.63,773,778,0
1025346,416.00,773,774,0
1025356,415.57,773,778,0
1025367,413.21,773,774,0
1025377,410.36,773,778,0
1025387,405.97,773,773,0
1025397,401.52,773,778,0
1025408,396.14,773,773,0
1025417,391.30,773,778,0
1025427,386.02,773,773,0
1025437,381.69,773,778,0
1025447,376.98,773,773,0
1025457,373.56,773,778,0
1025467,370.05,773,773,0
1025477,367.72,773,778,0
1025487,365.23,773,773,0
1025497,364.09,773,778,0
1025507,362.82,773,773,0
1025517,362.70,773,778,0
1025527,362.15,773,773,0
1025537,362.49,773,778,0
1025547,362.34,773,773,0
1025557,362.93,773,778,0
1025567,362.65,773,773,0
1025577,362.97,773,778,0
1025587,362.51,773,773,0
1025597,362.65,773,778,0
1025607,361.82,773,773,0
1025617,361.44,773,778,0
1025627,360.32,773,773,0
1025637,359.93,773,778,0
1025647,358.88,773,773,0
1025657,358.74,773,778,0
1025667,358.05,773,773,0
1025677,358.46,773,779,0
1025687,358.54,773,773,0
1025697,359.88,773,778,0
1025708,361.20,773,773,0
1025718,364.27,773,779,0
1025728,368.13,773,773,0
1025738,374.91,773,778,0
1025748,383.85,773,773,0
1025758,396.88,773,778,0
1025768,413.03,773,773,0
1025787,433.76,773,771,0
1025790,457.53,773,775,0
1025799,485.10,773,778,0
1025809,513.40,773,773,0
1025819,541.99,773,778,0
1025829,568.05,773,773,0
1025839,591.01,773,778,0
1025849,608.23,773,773,0
1025859,619.82,773,778,0
1025869,623.82,773,773,0
1025879,622.07,773,778,0
1025889,613.91,773,773,0
1025899,601.34,773,778,0
1025909,584.18,773,774,0
1025920,564.67,773,777,0
1025929,542.95,773,774,0
1025939,521.11,773,778,0
1025949,498.58,773,774,0
1025959,477.19,773,778,0
1025969,456.26,773,774,0
1025979,437.37,773,778,0
1025989,419.86,773,774,0
1025999,404.81,773,778,0
1026009,391.50,773,774,0
1026019,381.19,773,778,0
1026029,373.03,773,775,0
1026039,368.05,773,778,0
1026049,365.12,773,775,0
1026059,365.13,773,778,0
1026069,366.72,773,775,0
1026079,370.53,773,778,0
1026089,375.13,773,775,0
1026099,381.09,773,778,0
1026109,386.93,773,774,0
1026119,393.30,773,778,0
1026129,398.82,773,775,0
1026139,404.32,773,778,0
1026149,408.42,773,774,0
1026159,411.94,773,778,0
1026169,413.89,773,775,0
1026179,415.29,773,778,0
1026189,415.33,773,774,0
1026199,414.89,773,778,0
1026209,413.29,773,775,0
1026220,411.62,773,778,0
1026230,409.55,773,775,0
1026240,407.67,773,777,0
1026250,405.63,773,776,0
1026260,403.94,773,777,0
1026270,402.11,773,775,0
1026280,400.75,773,777,0
1026290,399.24,773,776,0
1026300,397.80,773,777,0
1026310,396.14,773,775,0
1026320,394.47,773,777,0
1026330,392.49,773,776,0
1026340,390.46,773,777,0
1026350,387.92,773,775,0
1026360,385.41,773,777,0
1026370,382.59,773,776,0
1026380,379.84,773,777,0
1026391,376.93,773,776,0
1026401,374.08,773,777,0
1026411,371.53,773,777,0
1026421,369.44,773,776,0
1026432,367.98,773,777,0
1026441,367.26,773,777,0
1026451,367.27,773,777,0
1026461,367.91,773,776,0
1026471,369.70,773,777,0
1026481,372.19,773,777,0
1026491,375.86,773,777,0
1026501,380.53,773,776,0
1026511,387.01,773,777,0
1026521,395.41,773,777,0
1026531,406.64,773,776,0
1026541,420.89,773,776,0
1026551,438.88,773,777,0
1026561,460.30,773,777,0
1026571,484.98,773,776,0
1026590,511.77,803,775,0
1026593,539.36,803,779,0
1026603,566.34,803,774,0
1026612,591.22,803,777,0
1026622,611.94,803,775,0
1026632,627.69,803,777,0
1026642,637.12,803,774,0
1026652,640.26,803,777,0
1026662,637.18,803,775,0
1026672,628.47,803,777,0
1026682,614.23,803,775,0
1026692,596.33,803,777,0
1026702,575.10,803,776,0
1026712,552.36,803,778,0
1026722,528.21,803,775,0
1026732,504.40,803,777,0
1026742,480.84,803,776,0
1026752,458.94,803,778,0
1026762,438.30,803,775,0
1026772,420.21,803,778,0
1026782,404.29,803,776,0
1026792,391.60,803,778,0
1026802,381.39,803,776,0
1026812,374.68,803,778,0
1026822,370.70,803,776,0
1026832,369.93,803,778,0
1026842,370.94,803,775,0
1026852,374.13,803,778,0
1026862,378.33,803,775,0
1026872,383.89,803,778,0
1026882,389.24,803,775,0
1026892,394.74,803,778,0
1026903,398.93,803,774,0
1026913,402.81,803,778,0
1026923,404.79,803,774,0
1026933,405.84,803,778,0
1026944,404.78,803,774,0
1026953,402.96,803,778,0
1026963,399.33,803,774,0
1026973,395.46,803,778,0
1026983,390.31,803,774,0
1026993,385.76,803,778,0
1027003,380.73,803,774,0
1027013,376.83,803,778,0
1027023,372.89,803,774,0
1027033,370.27,803,778,0
1027043,367.79,803,774,0
1027053,366.78,803,778,0
1027063,365.69,803,774,0
1027073,365.78,803,778,0
1027083,365.63,803,774,0
1027093,366.51,803,778,0
1027103,367.05,803,774,0
1027113,368.58,803,778,0
1027123,369.47,803,774,0
1027133,371.13,803,778,0
1027143,372.08,803,774,0
1027153,373.68,803,778,0
1027163,374.51,803,774,0
1027173,375.81,803,778,0
1027183,376.08,803,774,0
1027193,376.74,803,778,0
1027203,376.43,803,774,0
1027213,376.60,803,778,0
1027223,375.69,803,774,0
1027233,375.10,803,778,0
1027244,373.66,803,773,0
1027254,372.90,803,778,0
1027264,371.77,803,773,0
1027274,371.88,803,778,0
1027284,372.26,803,773,0
1027294,375.01,803,778,0
1027304,379.38,803,773,0
1027314,387.67,803,778,0
1027324,399.17,803,773,0
1027334,415.62,803,778,0
1027353,435.70,763,777,0
1027356,460.31,763,778,0
1027365,487.56,763,773,0
1027375,517.35,763,778,0
1027385,546.47,763,772,0
1027395,574.44,763,778,0
1027405,598.27,763,772,0
1027415,618.03,763,778,0
1027425,631.44,763,772,0
1027435,638.93,763,778,0
1027445,639.47,763,773,0
1027456,634.83,763,778,0
1027465,624.59,763,772,0
1027475,610.83,763,778,0
1027485,593.05,763,773,0
1027495,573.62,763,778,0
1027505,552.35,763,772,0
1027515,531.12,763,778,0
1027525,507.85,763,766,0
1027535,469.15,763,761,0
1027545,420.34,763,759,0
1027555,366.06,763,764,0
1027565,308.40,763,760,0
1027575,249.57,763,764,0
1027585,190.21,763,761,0
1027595,134.86,763,765,0
1027605,100.70,763,762,0
1027615,85.88,763,765,0
1027625,87.33,763,763,0
1027635,103.52,763,766,0
1027645,131.43,763,762,0
1027655,170.13,763,766,0
1027665,215.43,763,762,0
1027675,264.42,763,766,0
1027685,311.52,763,762,0
1027695,355.55,763,767,0
1027705,393.10,763,762,0
1027715,422.68,763,766,0
1027725,442.96,763,760,0
1027735,455.23,763,765,0
1027745,458.51,763,761,0
1027756,456.08,763,766,0
1027766,448.00,763,762,0
1027776,437.50,763,766,0
1027786,426.55,763,763,0
1027796,417.51,763,767,0
1027806,410.12,763,763,0
1027816,405.54,763,767,0
1027826,401.39,763,763,0
1027836,398.15,763,766,0
1027846,394.42,763,763,0
1027856,391.46,763,767,0
1027866,387.30,763,763,0
1027876,382.49,763,766,0
1027886,374.97,763,761,0
1027896,368.30,763,766,0
1027906,347.46,763,743,0
1027916,317.28,763,751,0
1027927,280.21,763,751,0
1027937,239.01,763,754,0
1027947,195.12,763,753,0
1027957,152.61,763,750,0
1027968,108.03,763,748,0
1027977,76.82,763,745,0
1027987,54.97,763,743,0
1027997,39.68,763,744,0
1028007,28.98,763,744,0
1028017,25.34,763,745,0
1028027,28.15,763,744,0
1028037,40.92,763,745,0
1028047,63.02,763,744,0
1028057,94.21,763,745,0
1028067,134.56,763,744,0
1028077,183.51,763,745,0
1028087,235.51,763,744,0
1028097,289.44,763,746,0
1028107,341.55,763,744,0
1028117,391.96,763,746,0
1028127,439.11,763,745,0
1028137,482.79,763,747,0
1028147,521.47,763,745,0
1028157,554.16,763,745,0
1028167,578.11,763,743,0
1028177,594.02,763,745,0
1028187,604.56,763,746,0
1028197,606.83,763,746,0
1028207,604.95,763,747,0
1028217,602.70,763,749,0
1028227,602.23,763,749,0
1028237,604.73,763,749,0
1028247,607.60,763,748,0
1028257,605.79,763,749,0
1028268,604.10,763,748,0
1028278,598.41,763,749,0
1028288,586.97,763,750,0
1028298,569.41,763,748,0
1028308,547.60,763,751,0
1028318,524.75,763,749,0
1028328,503.65,763,751,0
1028338,484.04,763,750,0
1028348,466.29,763,752,0
1028358,450.43,763,750,0
1028368,437.44,763,751,0
1028378,426.72,763,750,0
1028388,418.11,763,752,0
1028398,411.22,763,750,0
1028408,405.80,763,751,0
1028418,401.49,763,750,0
1028428,398.25,763,752,0
1028439,396.29,763,749,0
1028449,395.48,763,752,0
1028459,395.12,763,748,0
1028469,395.60,763,752,0
1028480,396.19,763,748,0
1028489,397.08,763,752,0
1028499,397.27,763,748,0
1028509,396.46,763,752,0
1028519,393.96,763,747,0
1028529,391.32,763,752,0
1028539,387.49,763,748,0
1028549,384.09,763,752,0
1028559,382.05,763,749,0
1028569,382.50,763,753,0
1028579,385.27,763,750,0
1028589,389.82,763,753,0
1028599,394.20,763,749,0
1028609,399.11,763,753,0
1028619,403.02,763,750,0
1028629,404.90,763,753,0
1028639,403.90,763,749,0
1028649,400.63,763,753,0
1028659,395.90,763,750,0
1028669,391.21,763,753,0
1028679,385.92,763,750,0
1028689,381.66,763,754,0
1028699,377.65,763,751,0
1028709,374.84,763,754,0
1028719,372.10,763,751,0
1028729,370.49,763,754,0
1028739,369.05,763,751,0
1028749,368.48,763,754,0
1028759,367.44,763,751,0
1028769,366.88,763,754,0
1028780,365.97,763,751,0
1028790,365.89,763,754,0
1028800,365.20,763,750,0
1028810,365.22,763,754,0
1028820,365.03,763,750,0
1028830,365.79,763,754,0
1028840,366.67,763,750,0
1028850,369.25,763,754,0
1028860,372.69,763,750,0
1028870,378.78,763,754,0
1028880,386.39,763,750,0
1028890,397.59,763,754,0
1028900,410.83,763,750,0
1028910,427.42,763,754,0
1028920,445.38,763,750,0
1028930,465.45,763,755,0
1028940,485.29,763,749,0
1028951,505.39,763,754,0
1028970,522.80,0,753,0
1028973,537.47,0,755,0
1028982,548.69,0,749,0
1028993,557.05,0,754,0
1029003,560.72,0,749,0
1029013,561.41,0,754,0
1029023,557.81,0,750,0
1029033,552.13,0,754,0
1029043,544.16,0,749,0
1029053,534.51,0,754,0
1029063,522.62,0,750,0
1029073,510.77,0,754,0
1029083,497.90,0,750,0
1029093,485.89,0,754,0
1029103,473.41,0,751,0
1029113,462.27,0,754,0
1029123,451.09,0,750,0
1029133,441.55,0,755,0
1029143,432.13,0,751,0
1029153,424.33,0,754,0
1029164,416.82,0,751,0
1029174,411.17,0,754,0
1029184,405.85,0,752,0
1029194,402.04,0,754,0
1029204,398.51,0,752,0
1029214,396.34,0,754,0
1029224,394.10,0,752,0
1029234,392.70,0,754,0
1029244,390.99,0,752,0
1029254,390.01,0,754,0
1029264,388.42,0,752,0
1029274,387.09,0,754,0
1029284,384.92,0,752,0
1029294,383.10,0,754,0
1029304,380.54,0,752,0
1029314,378.19,0,754,0
1029324,375.18,0,753,0
1029335,373.15,0,754,0
1029345,370.88,0,753,0
1029355,369.33,0,753,0
1029365,367.65,0,753,0
1029376,366.81,0,753,0
1029385,366.09,0,753,0
1029395,366.32,0,753,0
1029405,366.57,0,754,0
1029415,367.56,0,753,0
1029425,368.85,0,753,0
1029435,370.82,0,753,0
1029445,373.02,0,753,0
1029455,375.41,0,753,0
1029465,377.52,0,753,0
1029475,379.50,0,753,0
1029485,381.11,0,753,0
1029495,382.45,0,753,0
1029505,383.00,0,753,0
1029515,383.21,0,753,0
1029525,382.94,0,753,0
1029535,382.48,0,753,0
1029545,381.61,0,754,0
1029555,380.78,0,753,0
1029565,379.61,0,754,0
1029575,378.40,0,753,0
1029585,376.91,0,754,0
1029595,375.43,0,754,0
1029605,373.85,0,754,0
1029615,372.31,0,753,0
1029625,370.89,0,754,0
1029635,370.28,0,754,0
1029645,370.92,0,754,0
1029655,373.39,0,753,0
1029665,378.20,0,754,0
1029676,385.73,0,752,0
1029686,396.27,0,754,0
1029696,409.77,0,752,0
1029706,426.34,0,755,0
1029726,445.18,755,753,0
1029729,465.27,755,755,0
1029738,485.63,755,750,0
1029748,506.14,755,756,0
1029758,524.70,755,750,0
1029768,541.33,755,755,0
1029778,554.09,755,750,0
1029788,563.62,755,755,0
1029798,568.75,755,750,0
1029808,570.58,755,755,0
1029818,567.58,755,750,0
1029828,562.09,755,755,0
1029838,552.81,755,750,0
1029848,542.06,755,755,0
1029858,528.72,755,750,0
1029868,515.43,755,756,0
1029878,500.82,755,750,0
1029889,487.20,755,755,0
1029899,473.21,755,750,0
1029909,461.10,755,756,0
1029919,449.29,755,750,0
1029929,440.16,755,756,0
1029939,431.97,755,750,0
1029949,426.41,755,756,0
1029959,421.40,755,750,0
1029969,418.84,755,755,0
1029979,416.57,755,750,0
1029989,416.53,755,756,0
1029999,416.07,755,750,0
1030009,416.95,755,756,0
1030019,417.14,755,750,0
1030029,418.55,755,756,0
1030039,419.07,755,751,0
1030049,420.46,755,756,0
1030060,420.63,755,750,0
1030070,421.55,755,756,0
1030080,421.30,755,751,0
1030090,421.68,755,756,0
1030100,420.88,755,751,0
1030110,420.74,755,756,0
1030120,419.45,755,751,0
1030130,418.80,755,756,0
1030140,417.10,755,751,0
1030150,416.17,755,756,0
1030160,414.28,755,751,0
1030170,413.34,755,756,0
1030180,411.52,755,751,0
1030190,410.89,755,756,0
1030200,409.47,755,751,0
1030210,409.20,755,756,0
1030220,408.07,755,751,0
1030231,407.96,755,756,0
1030241,406.90,755,752,0
1030251,406.85,755,756,0
1030261,405.86,755,752,0
1030272,405.99,755,756,0
1030281,405.31,755,752,0
1030291,405.64,755,756,0
1030301,405.28,755,752,0
1030311,405.84,755,756,0
1030321,405.50,755,752,0
1030331,405.78,755,756,0
1030341,405.20,755,752,0
1030351,405.10,755,756,0
1030361,404.08,755,752,0
1030371,403.72,755,756,0
1030381,402.60,755,752,0
1030391,402.68,755,756,0
1030401,402.77,755,752,0
1030411,404.86,755,756,0
1030421,407.90,755,752,0
1030431,413.80,755,756,0
1030441,421.79,755,753,0
1030451,433.72,755,756,0
1030461,448.08,755,752,0
1030480,466.18,755,751,0
1030483,485.67,755,756,0
1030492,507.84,755,755,0
1030502,529.83,755,753,0
1030512,551.35,755,755,0
1030522,570.23,755,754,0
1030532,586.66,755,755,0
1030542,598.64,755,753,0
1030552,606.93,755,755,0
1030562,609.95,755,754,0
1030572,609.28,755,755,0
1030582,604.35,755,754,0
1030592,596.36,755,755,0
1030602,584.98,755,754,0
1030612,571.53,755,755,0
1030622,555.86,755,754,0
1030632,539.27,755,755,0
1030642,521.66,755,754,0
1030652,504.41,755,755,0
1030662,487.40,755,754,0
1030672,471.98,755,756,0
1030682,457.97,755,754,0
1030692,446.37,755,755,0
1030702,436.61,755,754,0
1030712,429.31,755,756,0
1030722,424.03,755,754,0
1030732,421.07,755,755,0
1030743,419.76,755,755,0
1030753,420.13,755,755,0
1030763,421.68,755,755,0
1030773,424.09,755,754,0
1030784,427.15,755,756,0
1030793,430.53,755,754,0
1030803,433.97,755,755,0
1030813,436.98,755,754,0
1030823,439.73,755,756,0
1030833,441.74,755,754,0
1030843,443.32,755,756,0
1030853,444.04,755,754,0
1030863,444.24,755,756,0
1030873,443.83,755,754,0
1030883,443.15,755,756,0
1030893,441.99,755,754,0
1030903,440.88,755,756,0
1030913,439.67,755,754,0
1030923,438.70,755,756,0
1030933,437.50,755,754,0
1030943,436.37,755,756,0
1030953,434.80,755,754,0
1030963,433.19,755,756,0
1030973,430.99,755,754,0
1030983,428.68,755,756,0
1030993,425.73,755,754,0
1031003,422.81,755,756,0
1031013,419.57,755,754,0
1031023,416.74,755,756,0
1031033,413.82,755,754,0
1031043,411.47,755,756,0
1031053,409.36,755,754,0
1031063,408.01,755,756,0
1031073,407.02,755,753,0
1031084,406.93,755,756,0
1031094,407.12,755,753,0
1031104,408.20,755,757,0
1031114,409.25,755,752,0
1031124,410.93,755,757,0
1031134,412.41,755,753,0
1031144,414.26,755,756,0
1031154,415.42,755,752,0
1031164,417.14,755,757,0
1031174,418.73,755,753,0
1031184,421.81,755,756,0
1031194,425.55,755,752,0
1031204,431.99,755,757,0
1031214,440.48,755,753,0
1031224,452.76,755,756,0
1031234,467.62,755,752,0
1031244,486.03,755,757,0
1031255,505.99,755,752,0
1031265,527.90,755,757,0
1031284,548.93,804,755,0
1031287,568.49,804,757,0
1031297,584.80,804,751,0
1031307,598.45,804,757,0
1031317,607.01,804,750,0
1031327,611.98,804,757,0
1031337,611.77,804,751,0
1031347,608.58,804,757,0
1031357,601.89,804,751,0
1031367,593.18,804,757,0
1031377,581.13,804,751,0
1031387,568.36,804,757,0
1031397,553.30,804,751,0
1031407,538.29,804,756,0
1031417,521.79,804,752,0
1031427,506.21,804,757,0
1031437,490.16,804,751,0
1031447,475.84,804,757,0
1031457,461.87,804,752,0
1031468,450.51,804,757,0
1031478,440.12,804,752,0
1031488,432.54,804,757,0
1031498,425.82,804,753,0
1031508,421.42,804,757,0
1031518,417.35,804,752,0
1031528,414.84,804,756,0
1031538,411.51,804,753,0
1031548,408.83,804,756,0
1031558,404.93,804,752,0
1031568,401.48,804,757,0
1031578,396.67,804,754,0
1031588,392.35,804,757,0
1031598,386.89,804,753,0
1031608,382.47,804,757,0
1031618,377.57,804,754,0
1031628,373.84,804,757,0
1031639,369.77,804,754,0
1031649,367.10,804,757,0
1031659,364.33,804,754,0
1031669,362.99,804,756,0
1031680,361.66,804,755,0
1031689,361.68,804,757,0
1031699,361.65,804,754,0
1031709,362.74,804,756,0
1031719,363.80,804,754,0
1031729,365.79,804,757,0
1031739,367.40,804,754,0
1031749,369.76,804,756,0
1031759,371.63,804,754,0
1031769,374.02,804,757,0
1031779,375.68,804,754,0
1031789,377.58,804,756,0
1031799,378.69,804,755,0
1031809,380.11,804,757,0
1031819,380.55,804,754,0
1031829,381.07,804,756,0
1031839,380.71,804,755,0
1031849,380.41,804,756,0
1031859,379.13,804,754,0
1031869,377.76,804,756,0
1031879,375.39,804,755,0
1031889,372.87,804,756,0
1031899,369.35,804,754,0
1031909,365.73,804,756,0
1031919,361.27,804,755,0
1031929,357.08,804,756,0
1031939,352.60,804,754,0
1031949,349.33,804,756,0
1031959,346.96,804,755,0
1031969,347.06,804,756,0
1031980,349.53,804,755,0
1031990,355.93,804,756,0
1032000,366.02,804,755,0
1032010,380.63,804,755,0
1032020,399.08,804,756,0
1032030,421.43,804,755,0
1032049,446.11,765,753,0
1032052,471.32,765,752,0
1032061,496.77,765,756,0
1032071,520.80,765,754,0
1032081,542.03,765,756,0
1032091,558.73,765,753,0
1032101,570.51,765,756,0
1032111,576.75,765,754,0
1032121,578.62,765,756,0
1032131,574.49,765,753,0
1032141,565.77,765,756,0
1032151,552.77,765,754,0
1032161,537.28,765,756,0
1032171,519.33,765,753,0
1032181,500.50,765,756,0
1032192,480.76,765,753,0
1032201,462.06,765,756,0
1032211,444.17,765,754,0
1032221,428.31,765,757,0
1032231,414.07,765,754,0
1032241,402.65,765,756,0
1032251,393.41,765,754,0
1032261,387.37,765,757,0
1032271,383.15,765,753,0
1032281,381.22,765,756,0
1032291,380.51,765,753,0
1032301,381.34,765,757,0
1032311,382.27,765,753,0
1032321,383.86,765,756,0
1032331,384.93,765,753,0
1032341,386.15,765,757,0
1032351,386.36,765,753,0
1032361,386.43,765,757,0
1032371,385.61,765,754,0
1032381,384.83,765,757,0
1032391,383.12,765,753,0
1032401,381.46,765,757,0
1032411,379.01,765,753,0
1032421,376.90,765,757,0
1032431,374.15,765,753,0
1032441,371.75,765,757,0
1032451,369.08,765,753,0
1032461,367.26,765,757,0
1032471,365.16,765,753,0
1032481,364.04,765,757,0
1032492,362.70,765,752,0
1032502,362.41,765,757,0
1032512,361.73,765,752,0
1032522,361.98,765,757,0
1032532,361.60,765,751,0
1032542,362.23,765,757,0
1032552,362.21,765,752,0
1032562,363.22,765,757,0
1032572,363.49,765,751,0
1032582,364.89,765,758,0
1032592,365.61,765,752,0
1032602,367.35,765,757,0
1032612,368.23,765,751,0
1032622,370.01,765,757,0
1032632,370.90,765,752,0
1032642,372.65,765,757,0
1032652,373.44,765,751,0
1032663,375.02,765,757,0
1032673,375.83,765,751,0
1032683,377.98,765,757,0
1032693,380.21,765,751,0
1032704,384.78,765,757,0
1032713,390.55,765,751,0
1032723,399.77,765,757,0
1032733,411.02,765,751,0
1032743,426.53,765,758,0
1032762,444.16,713,756,0
1032765,464.68,713,758,0
1032774,486.85,713,750,0
1032784,510.77,713,757,0
1032794,533.29,713,750,0
1032804,555.06,713,757,0
1032814,572.74,713,750,0
1032824,587.35,713,757,0
1032834,596.93,713,750,0
1032844,601.67,713,757,0
1032854,600.35,713,750,0
1032864,595.02,713,757,0
1032875,584.43,713,751,0
1032884,571.14,713,757,0
1032894,554.21,713,751,0
1032904,536.28,713,758,0
1032914,516.52,713,752,0
1032924,497.34,713,757,0
1032934,477.82,713,751,0
1032944,460.09,713,757,0
1032954,443.18,713,752,0
1032964,429.15,713,757,0
1032974,416.46,713,751,0
1032984,406.85,713,758,0
1032994,398.75,713,751,0
1033004,393.86,713,757,0
1033014,390.39,713,751,0
1033024,389.58,713,757,0
1033034,389.49,713,751,0
1033044,391.32,713,757,0
1033054,392.98,713,751,0
1033064,395.77,713,757,0
1033074,397.68,713,752,0
1033084,400.05,713,757,0
1033094,401.02,713,751,0
1033104,402.17,713,757,0
1033114,401.99,713,752,0
1033124,402.08,713,757,0
1033134,401.07,713,751,0
1033144,400.58,713,757,0
1033154,399.29,713,752,0
1033164,398.99,713,757,0
1033175,398.05,713,752,0
1033185,398.03,713,757,0
1033195,397.60,713,753,0
1033205,398.02,713,757,0
1033216,397.75,713,753,0
1033225,398.26,713,757,0
1033235,398.09,713,753,0
1033245,398.49,713,757,0
1033255,398.09,713,753,0
1033265,397.89,713,757,0
1033275,396.68,713,753,0
1033285,395.71,713,757,0
1033295,393.78,713,753,0
1033305,391.83,713,757,0
1033315,388.92,713,753,0
1033325,386.16,713,757,0
1033335,382.68,713,753,0
1033345,379.56,713,757,0
1033355,375.88,713,753,0
1033365,372.92,713,757,0
1033375,369.90,713,753,0
1033385,368.09,713,757,0
1033395,366.77,713,753,0
1033405,367.57,713,757,0
1033415,370.19,713,753,0
1033425,376.04,713,757,0
1033435,384.43,713,752,0
1033445,396.73,713,757,0
1033455,412.37,713,753,0
1033475,431.93,712,751,0
1033478,453.89,712,757,0
1033487,478.31,712,756,0
1033497,503.16,712,756,0
1033507,527.11,712,754,0
1033517,548.51,712,755,0
1033527,566.10,712,755,0
1033537,578.97,712,756,0
1033547,586.48,712,754,0
1033558,588.31,712,756,0
1033567,584.74,712,755,0
1033577,576.98,712,756,0
1033587,565.20,712,754,0
1033597,550.78,712,756,0
1033607,534.18,712,755,0
1033617,516.72,712,756,0
1033627,498.46,712,755,0
1033637,480.71,712,757,0
1033647,463.65,712,756,0
1033657,448.16,712,756,0
1033667,433.84,712,755,0
1033677,421.42,712,757,0
1033687,410.71,712,756,0
1033697,402.22,712,756,0
1033707,395.30,712,755,0
1033717,390.45,712,757,0
1033728,386.97,712,755,0
1033737,385.52,712,756,0
1033747,385.24,712,755,0
1033757,386.37,712,757,0
1033767,387.76,712,755,0
1033777,389.84,712,756,0
1033787,391.69,712,755,0
1033797,393.71,712,757,0
1033807,394.96,712,755,0
1033817,395.91,712,757,0
1033827,395.68,712,755,0
1033837,395.22,712,757,0
1033847,393.78,712,755,0
1033857,392.05,712,756,0
1033867,389.68,712,755,0
1033877,387.54,712,757,0
1033887,384.94,712,755,0
1033897,382.86,712,757,0
1033907,380.67,712,755,0
1033917,379.14,712,757,0
1033927,377.30,712,755,0
1033937,376.05,712,757,0
1033947,374.32,712,755,0
1033957,373.07,712,757,0
1033967,371.16,712,755,0
1033977,369.48,712,757,0
1033987,367.37,712,755,0
1033997,365.76,712,758,0
1034007,363.56,712,755,0
1034017,361.81,712,757,0
1034028,359.55,712,754,0
1034038,358.01,712,758,0
1034048,356.25,712,753,0
1034058,355.53,712,758,0
1034068,354.99,712,753,0
1034078,356.15,712,758,0
1034088,358.38,712,753,0
1034098,363.49,712,757,0
1034108,370.67,712,752,0
1034118,381.57,712,757,0
1034128,394.99,712,753,0
1034138,412.78,712,758,0
1034148,433.03,712,752,0
1034158,456.51,712,757,0
1034177,480.65,703,756,0
1034180,505.10,703,757,0
1034189,527.91,703,751,0
1034199,549.41,703,758,0
1034209,566.34,703,751,0
1034219,579.53,703,758,0
1034229,586.53,703,751,0
1034240,588.90,703,757,0
1034249,585.93,703,751,0
1034259,578.88,703,757,0
1034269,566.40,703,751,0
1034279,551.32,703,757,0
1034289,532.88,703,752,0
1034299,513.80,703,758,0
1034309,492.99,703,751,0
1034319,472.94,703,757,0
1034329,452.68,703,752,0
1034339,434.78,703,758,0
1034349,417.62,703,752,0
1034359,403.25,703,757,0
1034369,390.36,703,752,0
1034379,381.08,703,758,0
1034389,373.47,703,752,0
1034399,369.00,703,757,0
1034409,365.61,703,751,0
1034419,365.13,703,757,0
1034429,365.35,703,752,0
1034439,367.82,703,757,0
1034449,370.27,703,751,0
1034459,374.22,703,758,0
1034469,377.58,703,752,0
1034479,381.74,703,757,0
1034489,384.56,703,752,0
1034499,387.69,703,758,0
1034509,388.98,703,752,0
1034519,390.23,703,757,0
1034529,389.69,703,751,0
1034540,389.23,703,758,0
1034550,387.27,703,751,0
1034560,385.65,703,757,0
1034570,382.71,703,751,0
1034580,380.40,703,758,0
1034590,377.11,703,751,0
1034600,374.80,703,757,0
1034610,371.82,703,751,0
1034620,370.12,703,758,0
1034630,367.98,703,751,0
1034640,367.39,703,757,0
1034650,366.59,703,751,0
1034660,367.01,703,757,0
1034670,366.92,703,751,0
1034680,367.97,703,757,0
1034690,368.41,703,751,0
1034700,369.87,703,758,0
1034711,370.68,703,751,0
1034721,372.41,703,757,0
1034731,373.91,703,752,0
1034741,376.72,703,757,0
1034752,379.94,703,752,0
1034761,385.31,703,757,0
1034771,392.12,703,752,0
1034781,402.07,703,757,0
1034791,414.48,703,752,0
1034801,430.83,703,758,0
1034820,450.00,643,756,0
1034823,472.33,643,757,0
1034832,497.30,643,753,0
1034842,524.12,643,757,0
1034852,550.32,643,752,0
1034862,575.46,643,757,0
1034872,597.05,643,752,0
1034882,614.95,643,757,0
1034892,627.61,643,752,0
1034902,634.11,643,757,0
1034912,634.29,643,753,0
1034923,629.40,643,757,0
1034932,619.25,643,752,0
1034942,605.34,643,757,0
1034952,587.83,643,753,0
1034962,568.21,643,757,0
1034972,547.06,643,752,0
1034982,525.66,643,757,0
1034992,504.12,643,753,0
1035002,483.43,643,757,0
1035012,463.67,643,753,0
1035022,445.77,643,757,0
1035032,429.55,643,753,0
1035042,415.46,643,757,0
1035052,403.19,643,753,0
1035062,393.49,643,757,0
1035072,385.80,643,754,0
1035082,380.59,643,757,0
1035092,377.16,643,755,0
1035102,375.95,643,757,0
1035112,376.09,643,754,0
1035122,377.78,643,757,0
1035132,380.03,643,754,0
1035142,383.24,643,757,0
1035152,386.64,643,753,0
1035162,390.35,643,757,0
1035172,393.71,643,754,0
1035182,396.93,643,757,0
1035192,399.35,643,754,0
1035202,401.30,643,757,0
1035212,402.28,643,754,0
1035223,402.33,643,757,0
1035233,401.29,643,755,0
1035243,399.27,643,756,0
1035253,396.45,643,756,0
1035264,393.06,643,756,0
1035273,389.14,643,755,0
1035283,385.03,643,756,0
1035293,380.82,643,756,0
1035303,376.59,643,756,0
1035313,372.55,643,755,0
1035323,368.74,643,756,0
1035333,365.39,643,755,0
1035343,362.36,643,756,0
1035353,359.72,643,755,0
1035363,357.36,643,756,0
1035373,355.75,643,755,0
1035383,354.41,643,756,0
1035393,353.43,643,755,0
1035403,353.05,643,757,0
1035413,353.42,643,756,0
1035423,354.62,643,756,0
1035433,357.39,643,757,0
1035443,361.47,643,756,0
1035453,367.89,643,755,0
1035463,377.05,643,756,0
1035473,389.34,643,756,0
1035483,405.01,643,756,0
1035493,424.29,643,755,0
1035503,446.62,643,756,0
1035513,471.89,643,756,0
1035523,498.75,643,756,0
1035542,526.21,722,754,0
1035545,551.48,722,753,0
1035554,575.12,722,757,0
1035564,595.23,722,754,0
1035574,611.32,722,757,0
1035584,621.89,722,754,0
1035594,627.54,722,757,0
1035604,627.46,722,753,0
1035614,624.15,722,757,0
1035624,615.79,722,754,0
1035634,604.37,722,757,0
1035644,589.52,722,753,0
1035654,573.46,722,757,0
1035664,555.67,722,754,0
1035674,537.98,722,757,0
1035684,519.56,722,753,0
1035694,501.99,722,757,0
1035704,484.38,722,754,0
1035714,468.19,722,757,0
1035724,452.24,722,754,0
1035735,438.15,722,758,0
1035745,424.78,722,753,0
1035755,413.62,722,758,0
1035765,403.32,722,752,0
1035776,395.25,722,758,0
1035785,388.28,722,753,0
1035795,383.52,722,758,0
1035805,379.25,722,752,0
1035815,376.73,722,758,0
1035825,374.16,722,753,0
1035835,372.82,722,758,0
1035845,370.90,722,752,0
1035855,369.78,722,758,0
1035865,367.96,722,753,0
1035875,366.90,722,758,0
1035885,365.13,722,752,0
1035895,364.15,722,758,0
1035905,362.47,722,753,0
1035915,361.73,722,758,0
1035925,360.10,722,752,0
1035935,359.00,722,758,0
1035945,357.07,722,752,0
1035955,355.72,722,758,0
1035965,353.40,722,752,0
1035975,351.74,722,758,0
1035985,349.12,722,752,0
1035995,347.15,722,758,0
1036005,344.41,722,752,0
1036015,342.53,722,758,0
1036025,340.01,722,752,0
1036035,338.64,722,758,0
1036045,336.69,722,752,0
1036055,335.75,722,758,0
1036065,334.28,722,752,0
1036076,333.90,722,758,0
1036086,332.77,722,752,0
1036096,332.41,722,758,0
1036106,331.09,722,751,0
1036116,330.46,722,758,0
1036126,329.08,722,752,0
1036136,328.46,722,758,0
1036146,327.21,722,751,0
1036156,327.23,722,758,0
1036166,327.33,722,752,0
1036176,329.50,722,758,0
1036186,332.48,722,751,0
1036196,338.17,722,758,0
1036206,345.10,722,751,0
1036216,354.84,722,757,0
1036226,365.43,722,751,0
1036236,378.12,722,758,0
1036247,390.47,722,751,0
1036257,403.57,722,757,0
1036267,415.01,722,750,0
1036277,425.98,722,758,0
1036297,434.17,754,756,0
1036300,440.38,754,759,0
1036309,444.25,754,752,0
1036319,446.53,754,757,0
1036329,446.03,754,753,0
1036339,444.09,754,758,0
1036349,439.69,754,752,0
1036359,434.47,754,758,0
1036369,428.16,754,754,0
1036379,420.74,754,758,0
1036389,412.20,754,753,0
1036399,403.61,754,758,0
1036409,394.39,754,754,0
1036419,385.74,754,757,0
1036429,377.03,754,753,0
1036439,369.22,754,758,0
1036449,361.66,754,754,0
1036460,355.33,754,757,0
1036470,349.62,754,754,0
1036480,345.28,754,757,0
1036490,341.59,754,755,0
1036500,338.97,754,757,0
1036510,336.79,754,754,0
1036520,335.53,754,757,0
1036530,334.64,754,755,0
1036540,334.19,754,757,0
1036550,333.83,754,754,0
1036560,333.84,754,757,0
1036570,333.80,754,755,0
1036580,333.73,754,757,0
1036590,333.21,754,754,0
1036600,332.64,754,757,0
1036610,331.72,754,755,0
1036620,330.60,754,757,0
1036631,329.14,754,755,0
1036641,327.68,754,756,0
1036651,326.40,754,757,0
1036661,325.34,754,756,0
1036672,324.34,754,757,0
1036681,323.64,754,757,0
1036691,323.19,754,757,0
1036701,322.66,754,756,0
1036711,322.42,754,757,0
1036721,321.91,754,756,0
1036731,321.55,754,757,0
1036741,320.83,754,756,0
1036751,320.24,754,757,0
1036761,319.44,754,757,0
1036771,318.83,754,757,0
1036781,317.64,754,756,0
1036791,316.59,754,757,0
1036801,315.26,754,756,0
1036811,314.28,754,757,0
1036821,313.08,754,756,0
1036831,312.20,754,757,0
1036841,311.11,754,755,0
1036851,310.56,754,757,0
1036861,309.97,754,755,0
1036871,310.06,754,757,0
1036881,310.04,754,755,0
1036891,310.63,754,757,0
1036901,311.26,754,755,0
1036911,312.94,754,757,0
1036921,314.84,754,755,0
1036931,317.85,754,757,0
1036941,320.98,754,755,0
1036951,325.23,754,757,0
1036961,329.40,754,755,0
1036972,334.34,754,758,0
1036982,338.74,754,754,0
1036992,343.57,754,758,0
1037002,347.43,754,753,0
1037012,351.50,754,758,0
1037022,354.26,754,754,0
1037041,356.93,745,752,0
1037044,357.76,745,753,0
1037053,359.21,745,758,0
1037063,359.23,745,753,0
1037073,359.42,745,758,0
1037083,358.22,745,752,0
1037093,357.43,745,758,0
1037103,355.71,745,752,0
1037113,355.33,745,758,0
1037123,353.69,745,752,0
1037133,353.14,745,758,0
1037143,351.94,745,753,0
1037153,351.66,745,758,0
1037163,350.52,745,753,0
1037173,350.41,745,758,0
1037184,349.30,745,752,0
1037193,349.12,745,758,0
1037203,348.01,745,753,0
1037213,348.01,745,758,0
1037223,347.24,745,752,0
1037233,347.68,745,758,0
1037243,347.30,745,753,0
1037253,347.90,745,758,0
1037263,347.67,745,753,0
1037273,348.50,745,758,0
1037283,348.43,745,753,0
1037293,349.42,745,758,0
1037303,349.59,745,753,0
1037313,350.70,745,758,0
1037323,351.09,745,753,0
1037333,352.39,745,758,0
1037343,352.75,745,753,0
1037353,353.94,745,758,0
1037363,354.13,745,753,0
1037373,355.25,745,758,0
1037383,355.43,745,752,0
1037393,356.46,745,758,0
1037403,356.41,745,752,0
1037413,357.18,745,758,0
1037423,356.87,745,752,0
1037433,357.42,745,758,0
1037443,357.00,745,752,0
1037453,357.43,745,758,0
1037463,356.87,745,752,0
1037473,357.17,745,758,0
1037484,356.30,745,751,0
1037494,356.21,745,758,0
1037504,355.29,745,752,0
1037514,355.03,745,758,0
1037524,353.82,745,751,0
1037534,353.40,745,758,0
1037544,352.08,745,752,0
1037554,351.84,745,758,0
1037564,350.82,745,751,0
1037574,350.53,745,758,0
1037584,349.34,745,752,0
1037594,349.07,745,758,0
1037604,347.98,745,751,0
1037614,347.86,745,758,0
1037624,346.91,745,752,0
1037634,346.98,745,758,0
1037644,346.43,745,751,0
1037655,347.12,745,758,0
1037665,347.30,745,752,0
1037675,348.71,745,758,0
1037685,349.82,745,751,0
1037696,352.19,745,758,0
1037705,354.10,745,752,0
1037715,356.99,745,758,0
1037725,359.18,745,751,0
1037735,362.04,745,758,0
1037745,364.04,745,752,0
1037755,366.43,745,758,0
1037765,367.80,745,752,0
1037775,369.53,745,758,0
1037785,370.14,745,752,0
1037795,371.00,745,758,0
1037805,370.66,745,752,0
1037815,370.55,745,758,0
1037825,369.35,745,752,0
1037835,368.65,745,758,0
1037845,367.08,745,752,0
1037855,366.07,745,758,0
1037865,364.38,745,753,0
1037875,363.58,745,758,0
1037885,362.29,745,752,0
1037895,361.82,745,758,0
1037905,360.84,745,753,0
1037915,360.76,745,758,0
1037925,360.32,745,752,0
1037935,360.69,745,758,0
1037945,360.53,745,753,0
1037955,361.06,745,758,0
1037965,360.91,745,752,0
1037975,361.37,745,758,0
1037985,361.13,745,753,0
1037996,361.39,745,757,0
1038006,361.14,745,753,0
1038016,361.40,745,758,0
1038026,361.32,745,754,0
1038036,362.00,745,757,0
1038046,362.21,745,753,0
1038056,363.05,745,757,0
1038066,363.76,745,754,0
1038076,364.91,745,757,0
1038086,365.75,745,753,0
1038096,366.81,745,757,0
1038106,367.68,745,754,0
1038116,368.85,745,758,0
1038126,369.71,745,753,0
1038136,370.57,745,758,0
1038146,371.08,745,754,0
1038156,371.66,745,757,0
1038167,371.97,745,755,0
1038177,372.03,745,757,0
1038187,371.85,745,756,0
1038197,371.51,745,757,0
1038208,370.93,745,756,0
1038217,370.35,745,757,0
1038236,369.82,1195,755,0
1038239,368.97,1195,755,0
1038249,369.02,1195,758,0
1038259,368.97,1195,755,0
1038269,369.58,1195,758,0
1038279,370.09,1195,754,0
1038289,371.18,1195,758,0
1038299,372.07,1195,755,0
1038309,373.76,1195,758,0
1038319,374.48,1195,754,0
1038329,375.83,1195,758,0
1038339,376.78,1195,755,0
1038349,378.43,1195,758,0
1038359,379.46,1195,754,0
1038369,381.12,1195,758,0
1038380,382.11,1195,754,0
1038390,383.75,1195,758,0
1038400,384.60,1195,753,0
1038410,385.75,1195,758,0
1038420,386.04,1195,752,0
1038430,387.05,1195,758,0
1038449,387.38,0,756,0
1038452,387.87,0,760,0
1038461,388.12,0,752,0
1038471,389.28,0,758,0
1038481,389.67,0,752,0
1038491,390.88,0,758,0
1038501,390.96,0,752,0
1038511,391.66,0,758,0
1038521,391.76,0,752,0
1038531,391.92,0,758,0
1038541,390.87,0,752,0
1038551,390.57,0,758,0
1038561,389.20,0,752,0
1038571,388.62,0,758,0
1038581,387.15,0,752,0
1038592,386.55,0,758,0
1038601,385.27,0,752,0
1038611,385.02,0,758,0
1038621,383.98,0,752,0
1038631,383.95,0,758,0
1038641,383.28,0,752,0
1038651,383.58,0,758,0
1038661,383.28,0,751,0
1038671,383.88,0,758,0
1038681,383.66,0,752,0
1038691,384.28,0,758,0
1038701,384.02,0,751,0
1038711,384.53,0,758,0
1038721,384.11,0,752,0
1038731,384.64,0,758,0
1038741,384.19,0,751,0
1038751,384.56,0,758,0
1038761,383.96,0,751,0
1038771,384.27,0,758,0
1038781,383.68,0,751,0
1038791,383.86,0,758,0
1038801,383.13,0,752,0
1038811,383.31,0,758,0
1038821,382.61,0,751,0
1038831,382.86,0,758,0
1038841,382.22,0,751,0
1038851,382.54,0,757,0
1038861,382.16,0,751,0
1038871,382.67,0,758,0
1038881,382.38,0,751,0
1038892,383.00,0,758,0
1038902,382.87,0,751,0
1038912,383.72,0,758,0
1038922,383.89,0,752,0
1038932,385.00,0,758,0
1038942,385.34,0,751,0
1038952,386.78,0,758,0
1038962,387.49,0,752,0
1038982,389.31,532,750,0
1038985,390.68,532,757,0
1038995,393.47,532,757,0
1039005,396.46,532,755,0
1039015,400.35,532,757,0
1039025,404.19,532,754,0
1039035,409.10,532,757,0
1039045,413.83,532,755,0
1039055,419.19,532,757,0
1039065,423.77,532,754,0
1039075,428.25,532,757,0
1039085,432.42,532,755,0
1039095,436.28,532,757,0
1039105,439.37,532,754,0
1039115,442.08,532,757,0
1039125,444.25,532,755,0
1039135,446.01,532,757,0
1039145,447.12,532,755,0
1039155,447.82,532,757,0
1039165,448.04,532,755,0
1039175,448.03,532,757,0
1039185,447.76,532,755,0
1039195,447.23,532,757,0
1039205,446.52,532,755,0
1039215,445.72,532,757,0
1039225,444.82,532,755,0
1039235,443.89,532,757,0
1039245,443.11,532,755,0
1039255,442.26,532,757,0
1039265,441.54,532,755,0
1039276,440.78,532,756,0
1039286,440.16,532,756,0
1039296,439.43,532,756,0
1039306,438.87,532,757,0
1039316,437.97,532,755,0
1039326,437.16,532,756,0
1039336,436.00,532,756,0
1039346,435.14,532,757,0
1039356,433.81,532,755,0
1039366,432.88,532,757,0
1039376,431.46,532,756,0
1039386,430.55,532,757,0
1039396,429.36,532,755,0
1039406,428.78,532,756,0
1039416,427.90,532,756,0
1039426,427.76,532,757,0
1039436,427.23,532,755,0
1039447,427.55,532,757,0
1039457,427.51,532,755,0
1039467,428.22,532,757,0
1039477,428.32,532,754,0
1039488,429.17,532,758,0
1039497,429.46,532,754,0
1039507,430.48,532,757,0
1039517,430.81,532,754,0
1039527,431.89,532,758,0
1039537,432.27,532,754,0
1039547,433.43,532,758,0
1039557,433.69,532,754,0
1039567,434.81,532,758,0
1039577,435.25,532,754,0
1039587,436.38,532,758,0
1039597,436.69,532,754,0
1039607,437.98,532,758,0
1039617,438.93,532,754,0
1039627,441.35,532,758,0
1039637,443.60,532,754,0
1039647,447.75,532,758,0
1039657,452.37,532,753,0
1039667,459.20,532,758,0
1039686,466.68,705,757,0
1039689,476.12,705,758,0
1039698,486.24,705,752,0
1039708,498.38,705,758,0
1039718,509.88,705,752,0
1039728,522.13,705,758,0
1039738,532.76,705,752,0
1039748,543.08,705,758,0
1039758,551.11,705,753,0
1039768,557.81,705,758,0
1039778,561.42,705,752,0
1039788,564.12,705,758,0
1039798,564.17,705,752,0
1039808,563.78,705,758,0
1039818,561.19,705,752,0
1039828,558.60,705,758,0
1039838,554.35,705,752,0
1039848,550.39,705,758,0
1039858,545.04,705,752,0
1039868,540.53,705,758,0
1039878,534.97,705,752,0
1039888,530.52,705,758,0
1039898,525.39,705,752,0
1039908,521.59,705,758,0
1039918,517.38,705,752,0
1039928,514.74,705,758,0
1039938,511.82,705,752,0
1039948,510.42,705,758,0
1039959,508.58,705,751,0
1039969,507.93,705,758,0
1039979,506.62,705,751,0
1039989,506.18,705,758,0
1040000,504.84,705,751,0
1040009,504.16,705,758,0
1040019,502.40,705,751,0
1040029,501.25,705,758,0
1040039,498.99,705,751,0
1040049,497.36,705,758,0
1040059,494.68,705,751,0
1040069,492.59,705,758,0
1040079,489.46,705,751,0
1040089,487.22,705,758,0
1040099,484.11,705,751,0
1040109,481.81,705,758,0
1040119,478.65,705,751,0
1040129,476.57,705,758,0
1040139,473.87,705,751,0
1040149,472.15,705,758,0
1040159,469.62,705,751,0
1040169,468.02,705,758,0
1040179,465.79,705,751,0
1040189,464.52,705,758,0
1040199,462.48,705,751,0
1040209,461.31,705,758,0
1040219,459.37,705,751,0
1040229,458.40,705,758,0
1040239,456.70,705,751,0
1040249,456.23,705,758,0
1040259,455.35,705,751,0
1040269,456.14,705,758,0
1040279,457.34,705,751,0
1040289,461.27,705,758,0
1040300,466.67,705,751,0
1040310,475.69,705,758,0
1040320,486.84,705,752,0
1040330,501.76,705,758,0
1040340,518.50,705,752,0
1040350,537.85,705,758,0
1040360,557.40,705,752,0
1040370,577.46,705,758,0
1040390,595.92,703,756,0
1040393,612.53,703,757,0
1040402,626.60,703,754,0
1040412,638.16,703,757,0
1040422,646.17,703,755,0
1040432,651.31,703,757,0
1040442,652.97,703,754,0
1040452,651.87,703,757,0
1040462,648.31,703,755,0
1040472,641.96,703,758,0
1040482,633.23,703,754,0
1040492,623.04,703,757,0
1040502,611.67,703,755,0
1040513,599.73,703,757,0
1040523,587.72,703,756,0
1040533,575.76,703,757,0
1040543,564.69,703,757,0
1040553,554.50,703,756,0
1040563,545.56,703,756,0
1040573,537.85,703,756,0
1040583,531.68,703,756,0
1040593,526.81,703,756,0
1040603,523.56,703,756,0
1040613,521.25,703,757,0
1040623,520.15,703,757,0
1040633,519.42,703,756,0
1040643,519.21,703,756,0
1040653,518.97,703,757,0
1040663,518.72,703,757,0
1040673,517.78,703,756,0
1040684,516.52,703,757,0
1040694,514.35,703,756,0
1040704,512.01,703,757,0
1040714,508.88,703,755,0
1040724,505.87,703,758,0
1040734,502.27,703,756,0
1040744,499.10,703,758,0
1040754,495.51,703,755,0
1040764,492.75,703,758,0
1040774,489.78,703,756,0
1040784,487.57,703,758,0
1040794,484.92,703,755,0
1040804,482.93,703,758,0
1040814,480.68,703,755,0
1040824,479.06,703,758,0
1040834,476.77,703,755,0
1040844,474.95,703,758,0
1040855,472.61,703,754,0
1040865,470.97,703,758,0
1040875,468.75,703,753,0
1040885,467.28,703,758,0
1040896,465.61,703,753,0
1040905,465.51,703,758,0
1040915,466.22,703,753,0
1040925,469.71,703,758,0
1040935,474.90,703,753,0
1040945,483.88,703,759,0
1040955,495.23,703,753,0
1040965,510.72,703,758,0
1040975,528.20,703,753,0
1040985,548.46,703,758,0
1040995,568.89,703,753,0
1041005,590.14,703,758,0
1041015,609.30,703,752,0
1041034,627.08,645,751,0
1041037,639.61,645,753,0
1041046,650.19,645,758,0
1041056,656.00,645,752,0
1041067,658.74,645,758,0
1041076,656.72,645,752,0
1041086,652.05,645,758,0
1041096,643.38,645,751,0
1041106,634.09,645,758,0
1041116,621.12,645,752,0
1041126,607.41,645,758,0
1041136,591.60,645,751,0
1041146,576.04,645,758,0
1041156,559.57,645,752,0
1041166,544.48,645,758,0
1041176,529.38,645,751,0
1041186,516.32,645,758,0
1041196,503.84,645,752,0
1041206,494.16,645,758,0
1041216,485.37,645,751,0
1041226,479.26,645,758,0
1041236,473.87,645,752,0
1041246,471.08,645,758,0
1041256,468.53,645,751,0
1041266,467.77,645,758,0
1041276,466.55,645,752,0
1041286,466.56,645,758,0
1041296,465.66,645,752,0
1041306,465.51,645,758,0
1041316,463.81,645,752,0
1041326,462.54,645,758,0
1041336,459.85,645,752,0
1041346,457.54,645,758,0
1041356,453.99,645,752,0
1041367,450.95,645,758,0
1041377,446.68,645,751,0
1041387,443.35,645,758,0
1041397,439.04,645,752,0
1041408,435.73,645,758,0
1041417,431.61,645,752,0
1041427,428.51,645,758,0
1041437,424.76,645,752,0
1041447,422.13,645,758,0
1041457,418.79,645,752,0
1041467,416.63,645,758,0
1041477,413.95,645,752,0
1041487,412.42,645,758,0
1041497,410.41,645,752,0
1041507,409.47,645,758,0
1041517,408.13,645,752,0
1041527,407.92,645,758,0
1041537,407.47,645,752,0
1041547,408.62,645,758,0
1041557,410.15,645,752,0
1041567,414.05,645,758,0
1041577,419.35,645,752,0
1041587,427.98,645,758,0
1041597,438.88,645,752,0
1041607,453.70,645,758,0
1041617,470.46,645,752,0
1041627,490.25,645,758,0
1041637,510.49,645,752,0
1041647,531.69,645,758,0
1041657,551.07,645,752,0
1041667,569.00,645,759,0
1041677,582.76,645,752,0
1041696,593.16,662,750,0
1041699,597.83,662,755,0
1041708,599.64,662,758,0
1041718,596.57,662,753,0
1041728,590.49,662,758,0
1041738,580.78,662,753,0
1041748,569.41,662,758,0
1041758,555.91,662,753,0
1041768,542.74,662,758,0
1041778,527.69,662,753,0
1041788,513.42,662,758,0
1041798,499.24,662,753,0
1041808,486.53,662,758,0
1041818,474.45,662,753,0
1041828,464.25,662,758,0
1041838,454.79,662,753,0
1041848,447.44,662,758,0
1041858,440.92,662,753,0
1041868,436.36,662,758,0
1041879,432.44,662,754,0
1041889,429.99,662,758,0
1041899,428.11,662,755,0
1041909,427.48,662,758,0
1041920,427.03,662,756,0
1041929,427.41,662,758,0
1041939,427.29,662,755,0
1041949,427.24,662,758,0
1041959,426.74,662,756,0
1041969,426.05,662,758,0
1041979,424.58,662,755,0
1041989,422.82,662,758,0
1041999,420.26,662,756,0
1042009,417.52,662,758,0
1042019,414.20,662,755,0
1042029,410.67,662,758,0
1042039,406.65,662,756,0
1042049,402.77,662,758,0
1042059,398.64,662,755,0
1042069,394.76,662,758,0
1042079,390.89,662,756,0
1042089,387.54,662,757,0
1042099,384.33,662,755,0
1042109,381.58,662,758,0
1042119,378.92,662,756,0
1042129,376.67,662,757,0
1042139,374.58,662,755,0
1042149,372.87,662,757,0
1042159,371.41,662,756,0
1042169,370.34,662,757,0
1042179,369.68,662,755,0
1042189,369.86,662,757,0
1042199,370.89,662,756,0
1042209,373.32,662,757,0
1042220,377.47,662,756,0
1042230,383.63,662,756,0
1042240,392.31,662,757,0
1042250,403.40,662,756,0
1042260,417.04,662,757,0
1042270,432.80,662,756,0
1042280,450.13,662,757,0
1042290,468.09,662,756,0
1042300,486.06,662,757,0
1042310,502.72,662,756,0
1042320,517.59,662,757,0
1042330,529.20,662,756,0
1042340,537.67,662,757,0
1042359,542.18,663,755,0
1042362,542.64,663,760,0
1042371,539.71,663,755,0
1042381,533.92,663,758,0
1042391,525.07,663,755,0
1042401,514.64,663,758,0
1042411,502.19,663,755,0
1042421,489.45,663,758,0
1042432,476.50,663,754,0
1042441,463.88,663,758,0
1042451,451.31,663,755,0
1042461,440.33,663,758,0
1042471,429.95,663,754,0
1042481,421.69,663,758,0
1042491,414.33,663,755,0
1042501,409.30,663,758,0
1042511,405.18,663,754,0
1042521,403.07,663,758,0
1042531,401.59,663,755,0
1042541,401.93,663,758,0
1042551,402.51,663,754,0
1042561,404.33,663,758,0
1042571,405.73,663,755,0
1042581,407.74,663,758,0
1042591,408.85,663,754,0
1042601,410.31,663,759,0
1042611,410.60,663,755,0
1042621,411.02,663,758,0
1042631,410.24,663,754,0
1042641,409.66,663,758,0
1042651,407.96,663,755,0
1042661,406.73,663,758,0
1042671,404.50,663,754,0
1042681,402.89,663,758,0
1042691,400.69,663,755,0
1042701,399.11,663,758,0
1042711,396.85,663,754,0
1042721,395.31,663,758,0
1042732,393.03,663,754,0
1042742,391.56,663,758,0
1042752,389.25,663,753,0
1042762,387.55,663,758,0
1042772,385.07,663,753,0
1042782,383.33,663,758,0
1042792,380.83,663,753,0
1042802,379.34,663,758,0
1042812,377.18,663,753,0
1042822,376.23,663,758,0
1042832,374.83,663,753,0
1042842,374.88,663,759,0
1042852,374.83,663,753,0
1042862,376.77,663,758,0
1042872,379.24,663,753,0
1042882,384.35,663,758,0
1042892,390.67,663,752,0
1042903,400.07,663,758,0
1042913,410.81,663,752,0
1042923,424.58,663,758,0
1042933,439.19,663,752,0
1042944,455.76,663,758,0
1042953,471.78,663,752,0
1042972,487.96,613,750,0
1042975,501.13,613,753,0
1042984,513.13,613,758,0
1042994,521.66,613,751,0
1043004,527.98,613,759,0
1043014,530.21,613,752,0
1043024,529.98,613,758,0
1043034,526.08,613,751,0
1043044,520.92,613,758,0
1043054,512.46,613,752,0
1043064,502.93,613,758,0
1043074,491.34,613,752,0
1043084,479.88,613,758,0
1043094,467.49,613,752,0
1043104,456.03,613,758,0
1043115,444.53,613,752,0
1043124,434.99,613,758,0
1043134,425.86,613,752,0
1043144,418.83,613,758,0
1043154,412.45,613,752,0
1043164,408.25,613,758,0
1043174,404.70,613,752,0
1043184,403.12,613,758,0
1043194,401.84,613,752,0
1043204,402.23,613,758,0
1043214,402.63,613,752,0
1043224,404.20,613,758,0
1043234,405.30,613,752,0
1043244,407.09,613,758,0
1043254,408.05,613,752,0
1043264,409.45,613,758,0
1043274,409.66,613,752,0
1043284,410.10,613,758,0
1043294,409.13,613,752,0
1043304,408.19,613,758,0
1043314,406.03,613,752,0
1043324,404.35,613,758,0
1043334,401.80,613,752,0
1043344,399.93,613,758,0
1043354,397.43,613,753,0
1043364,395.80,613,758,0
1043374,393.93,613,752,0
1043384,393.01,613,758,0
1043394,391.59,613,753,0
1043404,390.99,613,758,0
1043415,390.00,613,753,0
1043425,389.75,613,758,0
1043435,389.18,613,754,0
1043445,389.17,613,757,0
1043456,388.73,613,754,0
1043465,388.81,613,758,0
1043475,388.44,613,754,0
1043485,388.69,613,758,0
1043495,388.74,613,755,0
1043505,389.81,613,758,0
1043515,391.32,613,754,0
1043525,394.57,613,758,0
1043535,399.24,613,754,0
1043545,406.41,613,758,0
1043555,415.37,613,753,0
1043565,427.13,613,758,0
1043575,440.81,613,754,0
1043585,456.81,613,758,0
1043604,473.71,632,756,0
1043607,490.55,632,757,0
1043616,507.27,632,756,0
1043627,523.09,632,757,0
1043636,536.65,632,755,0
1043646,547.64,632,757,0
1043656,555.25,632,756,0
1043666,559.50,632,757,0
1043676,561.02,632,755,0
1043686,558.87,632,757,0
1043696,553.55,632,756,0
1043706,545.67,632,757,0
1043716,535.53,632,755,0
1043726,523.93,632,757,0
1043736,511.52,632,756,0
1043746,499.02,632,757,0
1043756,486.63,632,755,0
1043766,474.95,632,757,0
1043776,464.30,632,756,0
1043786,455.25,632,757,0
1043796,447.80,632,756,0
1043806,442.03,632,758,0
1043816,437.70,632,756,0
1043826,435.00,632,757,0
1043836,433.93,632,756,0
1043846,434.29,632,758,0
1043856,435.62,632,756,0
1043866,437.75,632,757,0
1043876,440.40,632,756,0
1043886,443.36,632,757,0
1043896,446.00,632,756,0
1043906,448.31,632,757,0
1043916,450.19,632,756,0
1043927,451.46,632,756,0
1043937,452.14,632,757,0
1043947,451.92,632,756,0
1043957,451.09,632,758,0
1043968,449.61,632,755,0
1043977,447.62,632,757,0
1043987,444.91,632,756,0
1043997,441.98,632,758,0
1044007,438.30,632,755,0
1044017,434.78,632,757,0
1044027,430.65,632,756,0
1044037,426.90,632,758,0
1044047,422.81,632,755,0
1044057,419.31,632,757,0
1044067,415.66,632,756,0
1044077,412.68,632,758,0
1044087,409.52,632,755,0
1044097,407.09,632,757,0
1044107,404.75,632,756,0
1044117,403.24,632,758,0
1044127,401.71,632,755,0
1044137,401.15,632,758,0
1044147,401.02,632,756,0
1044157,402.43,632,758,0
1044167,404.96,632,755,0
1044177,409.81,632,758,0
1044187,416.43,632,756,0
1044197,425.94,632,758,0
1044207,437.70,632,755,0
1044217,452.71,632,758,0
1044227,469.55,632,756,0
1044237,488.67,632,758,0
1044247,508.06,632,755,0
1044257,527.97,632,758,0
1044268,546.23,632,754,0
1044278,562.96,632,758,0
1044288,575.87,632,754,0
1044307,585.77,703,751,0
1044311,589.78,703,753,0
1044319,591.13,703,758,0
1044329,588.18,703,753,0
1044339,582.81,703,758,0
1044349,573.82,703,752,0
1044359,563.68,703,759,0
1044369,551.09,703,753,0
1044379,539.36,703,758,0
1044389,525.45,703,752,0
1044399,512.20,703,758,0
1044409,498.38,703,753,0
1044419,486.01,703,758,0
1044429,473.54,703,753,0
1044439,463.22,703,758,0
1044449,453.55,703,753,0
1044459,446.49,703,758,0
1044469,439.96,703,753,0
1044480,435.60,703,758,0
1044489,431.78,703,753,0
1044499,430.13,703,758,0
1044509,428.46,703,753,0
1044519,428.41,703,758,0
1044529,427.86,703,753,0
1044539,428.33,703,758,0
1044549,427.89,703,753,0
1044559,428.05,703,758,0
1044569,426.96,703,753,0
1044579,426.29,703,758,0
1044589,424.19,703,753,0
1044599,422.29,703,758,0
1044609,419.20,703,753,0
1044619,416.61,703,758,0
1044629,412.91,703,753,0
1044639,410.03,703,758,0
1044649,406.25,703,752,0
1044659,403.56,703,758,0
1044669,400.18,703,753,0
1044679,397.85,703,758,0
1044689,394.90,703,752,0
1044699,393.17,703,758,0
1044709,390.68,703,753,0
1044719,389.53,703,758,0
1044729,387.61,703,752,0
1044739,387.09,703,758,0
1044749,386.03,703,753,0
1044759,386.19,703,758,0
1044769,385.62,703,752,0
1044780,386.12,703,758,0
1044790,385.87,703,752,0
1044800,386.94,703,758,0
1044810,387.77,703,752,0
1044820,390.45,703,758,0
1044830,393.79,703,752,0
1044840,400.11,703,758,0
1044850,408.22,703,752,0
1044860,420.20,703,758,0
1044870,434.49,703,752,0
1044880,452.86,703,758,0
1044890,473.05,703,752,0
1044900,496.09,703,759,0
1044910,519.08,703,752,0
1044929,542.54,622,750,0
1044932,563.12,622,754,0
1044941,582.11,622,758,0
1044951,596.35,622,752,0
1044961,607.00,622,758,0
1044971,612.02,622,752,0
1044981,613.13,622,758,0
1044992,608.93,622,752,0
1045001,602.09,622,758,0
1045011,590.79,622,752,0
1045021,577.57,622,758,0
1045031,561.63,622,753,0
1045041,545.28,622,758,0
1045051,527.93,622,753,0
1045061,511.75,622,758,0
1045071,495.71,622,753,0
1045081,481.83,622,758,0
1045091,469.02,622,753,0
1045101,459.03,622,758,0
1045111,450.36,622,753,0
1045121,444.55,622,758,0
1045131,439.93,622,753,0
1045141,437.81,622,758,0
1045151,436.54,622,753,0
1045161,437.19,622,758,0
1045171,437.86,622,753,0
1045181,439.66,622,758,0
1045191,440.79,622,753,0
1045201,442.35,622,758,0
1045211,442.72,622,753,0
1045221,443.15,622,758,0
1045231,442.20,622,753,0
1045241,441.41,622,758,0
1045251,439.53,622,753,0
1045261,437.87,622,758,0
1045271,435.25,622,753,0
1045281,433.03,622,758,0
1045292,429.98,622,754,0
1045302,427.46,622,758,0
1045312,424.24,622,754,0
1045322,421.42,622,758,0
1045332,418.08,622,755,0
1045342,415.31,622,758,0
1045352,411.96,622,754,0
1045362,409.23,622,758,0
1045372,406.25,622,755,0
1045382,403.90,622,758,0
1045392,401.45,622,754,0
1045402,399.60,622,758,0
1045412,397.75,622,755,0
1045422,396.67,622,758,0
1045432,395.52,622,755,0
1045442,395.02,622,758,0
1045452,394.80,622,756,0
1045463,395.50,622,758,0
1045473,396.98,622,756,0
1045483,400.03,622,757,0
1045493,405.04,622,757,0
1045504,412.48,622,756,0
1045513,422.67,622,756,0
1045523,436.14,622,757,0
1045533,452.85,622,757,0
1045543,472.48,622,756,0
1045553,494.15,622,756,0
1045563,516.86,622,757,0
1045573,539.75,622,757,0
1045593,561.21,663,755,0
1045596,579.02,663,759,0
1045605,592.81,663,755,0
1045615,602.34,663,758,0
1045625,606.57,663,754,0
1045635,605.97,663,758,0
1045645,600.28,663,755,0
1045655,590.64,663,758,0
1045665,577.72,663,754,0
1045676,562.25,663,758,0
1045686,543.96,663,753,0
1045696,525.41,663,758,0
1045706,505.96,663,753,0
1045716,487.67,663,758,0
1045726,469.77,663,754,0
1045736,454.33,663,758,0
1045746,440.08,663,753,0
1045756,428.83,663,758,0
1045766,418.68,663,754,0
1045776,411.19,663,758,0
1045786,404.53,663,753,0
1045796,400.43,663,758,0
1045806,397.04,663,754,0
1045816,396.00,663,758,0
1045826,395.23,663,753,0
1045836,396.36,663,758,0
1045847,397.24,663,753,0
1045857,399.40,663,758,0
1045867,400.56,663,752,0
1045877,402.32,663,758,0
1045888,402.70,663,752,0
1045897,403.39,663,759,0
1045907,402.41,663,752,0
1045917,401.60,663,758,0
1045927,399.32,663,752,0
1045937,397.51,663,759,0
1045947,394.49,663,752,0
1045957,392.16,663,758,0
1045967,388.72,663,752,0
1045977,386.15,663,759,0
1045987,382.80,663,752,0
1045997,380.51,663,758,0
1046007,377.53,663,752,0
1046017,375.78,663,758,0
1046027,373.36,663,752,0
1046037,372.14,663,758,0
1046047,370.25,663,752,0
1046057,369.71,663,759,0
1046067,368.64,663,753,0
1046077,368.70,663,758,0
1046087,368.11,663,752,0
1046097,368.63,663,759,0
1046107,368.66,663,752,0
1046117,370.05,663,758,0
1046127,371.23,663,752,0
1046137,374.33,663,758,0
1046147,378.22,663,752,0
1046157,385.10,663,758,0
1046167,393.55,663,752,0
1046177,405.90,663,759,0
1046188,420.80,663,752,0
1046198,439.80,663,759,0
1046208,460.69,663,751,0
1046218,484.27,663,759,0
1046238,507.67,645,757,0
1046241,530.96,645,759,0
1046250,552.23,645,754,0
1046260,570.85,645,758,0
1046270,584.56,645,755,0
1046280,593.82,645,758,0
1046290,597.13,645,754,0
1046300,595.85,645,758,0
1046310,589.72,645,755,0
1046320,579.35,645,758,0
1046330,565.02,645,754,0
1046340,548.43,645,758,0
1046350,530.04,645,755,0
1046360,511.51,645,758,0
1046370,492.59,645,754,0
1046380,474.67,645,758,0
1046390,457.50,645,755,0
1046401,442.39,645,758,0
1046411,429.12,645,756,0
1046421,418.02,645,758,0
1046431,408.93,645,757,0
1046441,402.22,645,757,0
1046451,397.44,645,756,0
1046461,394.70,645,757,0
1046471,393.72,645,756,0
1046481,394.06,645,757,0
1046491,395.45,645,756,0
1046501,397.46,645,757,0
1046511,399.77,645,757,0
1046521,401.98,645,757,0
1046531,403.91,645,756,0
1046541,405.23,645,757,0
1046551,405.93,645,757,0
1046561,405.78,645,757,0
1046572,404.86,645,757,0
1046582,403.10,645,756,0
1046592,401.01,645,758,0
1046602,398.27,645,756,0
1046612,395.36,645,758,0
1046622,392.12,645,756,0
1046632,389.00,645,758,0
1046642,385.57,645,756,0
1046652,382.70,645,758,0
1046662,379.79,645,756,0
1046672,377.62,645,758,0
1046682,375.29,645,756,0
1046692,373.71,645,758,0
1046702,372.12,645,756,0
1046712,371.40,645,758,0
1046722,370.47,645,756,0
1046732,370.37,645,758,0
1046743,370.00,645,755,0
1046753,370.60,645,759,0
1046763,370.93,645,754,0
1046773,372.45,645,758,0
1046784,374.38,645,754,0
1046793,378.46,645,758,0
1046803,383.77,645,754,0
1046813,392.32,645,758,0
1046823,403.24,645,754,0
1046833,418.21,645,759,0
1046843,435.93,645,754,0
1046853,457.47,645,758,0
1046863,480.47,645,754,0
1046882,505.40,645,753,0
1046885,528.51,645,753,0
1046894,551.07,645,758,0
1046904,570.04,645,752,0
1046914,585.84,645,759,0
1046924,596.04,645,753,0
1046934,601.86,645,758,0
1046944,601.39,645,753,0
1046955,597.59,645,758,0
1046964,588.11,645,753,0
1046974,575.65,645,758,0
1046984,559.04,645,753,0
1046994,541.16,645,759,0
1047004,521.14,645,753,0
1047014,501.68,645,758,0
1047024,481.72,645,753,0
1047034,463.59,645,759,0
1047044,446.14,645,753,0
1047054,431.74,645,758,0
1047064,418.58,645,753,0
1047074,408.68,645,758,0
1047084,400.46,645,754,0
1047094,395.69,645,758,0
1047104,392.44,645,753,0
1047114,392.31,645,759,0
1047124,393.12,645,753,0
1047134,396.42,645,759,0
1047144,399.77,645,753,0
1047154,404.60,645,759,0
1047164,408.49,645,753,0
1047174,413.01,645,759,0
1047184,415.88,645,753,0
1047194,418.74,645,758,0
1047204,419.51,645,753,0
1047214,420.13,645,758,0
1047224,418.67,645,753,0
1047234,417.14,645,759,0
1047244,413.80,645,753,0
1047255,410.73,645,759,0
1047265,406.23,645,753,0
1047275,402.34,645,759,0
1047285,397.44,645,752,0
1047296,393.41,645,759,0
1047305,388.70,645,753,0
1047315,385.10,645,759,0
1047325,380.79,645,752,0
1047335,377.72,645,759,0
1047345,374.21,645,753,0
1047355,371.96,645,759,0
1047365,369.14,645,752,0
1047375,367.43,645,758,0
1047385,365.03,645,752,0
1047395,363.91,645,758,0
1047405,362.39,645,753,0
1047415,362.27,645,758,0
1047425,361.98,645,752,0
1047435,363.57,645,759,0
1047445,365.63,645,752,0
1047455,370.50,645,758,0
1047465,376.90,645,752,0
1047475,386.75,645,758,0
1047485,398.87,645,752,0
1047495,415.36,645,758,0
1047505,434.71,645,752,0
1047515,458.16,645,759,0
1047525,483.01,645,752,0
1047535,509.96,645,759,0
1047545,536.12,645,751,0
1047564,561.67,682,750,0
1047567,582.34,682,755,0
1047576,599.85,682,758,0
1047586,611.60,682,752,0
1047596,619.00,682,759,0
1047606,620.07,682,752,0
1047616,616.71,682,758,0
1047626,607.62,682,752,0
1047636,596.21,682,758,0
1047646,580.42,682,753,0
1047656,562.68,682,758,0
1047666,542.46,682,753,0
1047676,522.05,682,758,0
1047686,500.82,682,753,0
1047696,480.95,682,758,0
1047706,461.46,682,753,0
1047716,444.18,682,758,0
1047726,428.14,682,753,0
1047736,414.98,682,758,0
1047746,403.55,682,753,0
1047756,395.37,682,758,0
1047767,389.00,682,754,0
1047777,385.70,682,758,0
1047787,384.08,682,754,0
1047797,384.87,682,758,0
1047808,386.32,682,755,0
1047817,389.23,682,758,0
1047827,391.73,682,754,0
1047837,394.64,682,758,0
1047847,396.89,682,755,0
1047857,399.19,682,758,0
1047867,400.46,682,754,0
1047877,401.44,682,758,0
1047887,401.35,682,755,0
1047897,400.99,682,758,0
1047907,399.53,682,754,0
1047917,397.57,682,758,0
1047927,394.53,682,755,0
1047937,391.54,682,758,0
1047947,387.95,682,754,0
1047957,384.54,682,758,0
1047967,380.86,682,756,0
1047977,377.77,682,758,0
1047987,374.71,682,755,0
1047997,372.36,682,758,0
1048007,369.94,682,756,0
1048017,368.24,682,758,0
1048027,366.54,682,755,0
1048037,365.48,682,758,0
1048047,364.52,682,756,0
1048057,364.06,682,758,0
1048067,363.40,682,755,0
1048077,363.32,682,758,0
1048087,363.44,682,756,0
1048097,364.47,682,758,0
1048108,366.38,682,756,0
1048118,369.91,682,758,0
1048128,375.60,682,757,0
1048138,384.20,682,757,0
1048148,396.14,682,757,0
1048158,411.66,682,757,0
1048168,430.96,682,757,0
1048178,453.73,682,757,0
1048188,479.48,682,757,0
1048207,506.81,643,755,0
1048210,533.82,643,759,0
1048219,559.42,643,755,0
1048229,582.78,643,758,0
1048239,601.92,643,756,0
1048249,616.21,643,758,0
1048259,624.38,643,755,0
1048269,626.88,643,758,0
1048279,624.22,643,756,0
1048289,616.56,643,758,0
1048299,603.75,643,755,0
1048309,587.41,643,758,0
1048320,567.57,643,755,0
1048329,546.49,643,758,0
1048339,524.10,643,756,0
1048349,501.95,643,758,0
1048359,479.90,643,755,0
1048369,459.78,643,758,0
1048379,441.21,643,756,0
1048389,425.72,643,758,0
1048399,412.13,643,755,0
1048409,401.51,643,758,0
1048419,393.00,643,756,0
1048429,387.55,643,758,0
1048439,383.92,643,755,0
1048449,382.74,643,758,0
1048459,382.78,643,756,0
1048469,384.73,643,758,0
1048479,387.21,643,755,0
1048489,390.88,643,759,0
1048499,394.34,643,756,0
1048509,398.14,643,758,0
1048519,400.97,643,755,0
1048529,403.76,643,759,0
1048539,405.29,643,756,0
1048549,406.62,643,758,0
1048559,406.56,643,755,0
1048569,406.44,643,759,0
1048579,405.32,643,756,0
1048589,404.62,643,758,0
1048599,403.07,643,755,0
1048609,401.80,643,759,0
1048620,399.72,643,755,0
1048630,398.05,643,759,0
1048640,395.42,643,754,0
1048650,393.11,643,759,0
1048660,389.73,643,754,0
1048670,386.81,643,759,0
1048680,383.23,643,754,0
1048690,380.46,643,759,0
1048700,377.28,643,754,0
1048710,375.27,643,759,0
1048720,372.87,643,754,0
1048730,371.80,643,759,0
1048740,370.19,643,754,0
1048750,369.62,643,759,0
1048760,368.57,643,754,0
1048770,369.09,643,759,0
1048780,369.88,643,754,0
1048791,373.34,643,759,0
1048801,378.38,643,752,0
1048811,387.74,643,759,0
1048821,400.20,643,753,0
1048832,418.23,643,759,0
1048841,439.67,643,752,0
1048860,466.09,653,751,0
1048863,494.17,653,754,0
1048872,525.32,653,759,0
1048882,555.70,653,752,0
1048892,585.49,653,759,0
1048902,611.06,653,752,0
1048912,632.81,653,759,0
1048922,647.95,653,752,0
1048932,658.08,653,759,0
1048942,660.33,653,752,0
1048952,657.02,653,759,0
1048962,647.15,653,752,0
1048972,633.26,653,759,0
1048982,614.71,653,752,0
1048992,593.93,653,759,0
1049003,570.42,653,752,0
1049012,547.02,653,759,0
1049022,522.89,653,752,0
1049032,500.38,653,759,0
1049042,478.32,653,752,0
1049052,459.15,653,759,0
1049062,441.49,653,752,0
1049072,427.25,653,759,0
1049082,414.66,653,753,0
1049092,405.55,653,759,0
1049102,398.10,653,752,0
1049112,393.74,653,758,0
1049122,390.43,653,752,0
1049132,389.79,653,759,0
1049142,389.77,653,752,0
1049152,391.72,653,758,0
1049162,393.65,653,753,0
1049172,396.80,653,759,0
1049182,399.26,653,753,0
1049192,402.27,653,759,0
1049202,403.86,653,752,0
1049212,405.44,653,759,0
1049222,405.35,653,753,0
1049232,405.29,653,759,0
1049242,403.70,653,753,0
1049252,402.46,653,759,0
1049262,400.14,653,753,0
1049272,398.51,653,759,0
1049282,396.04,653,753,0
1049292,394.44,653,759,0
1049303,392.17,653,753,0
1049313,390.83,653,759,0
1049323,389.00,653,754,0
1049333,388.10,653,759,0
1049344,386.74,653,754,0
1049353,386.43,653,758,0
1049363,385.75,653,754,0
1049373,385.86,653,759,0
1049383,385.43,653,754,0
1049393,385.65,653,759,0
1049403,385.15,653,754,0
1049413,385.19,653,759,0
1049423,384.49,653,754,0
1049433,384.52,653,758,0
1049443,384.06,653,754,0
1049453,384.69,653,759,0
1049463,385.64,653,754,0
1049473,388.66,653,758,0
1049483,393.18,653,754,0
1049493,401.09,653,758,0
1049503,411.82,653,754,0
1049513,427.13,653,758,0
1049523,445.69,653,753,0
1049542,468.24,682,752,0
1049545,492.56,682,758,0
1049554,519.47,682,758,0
1049564,545.99,682,754,0
1049574,571.02,682,758,0
1049584,592.19,682,755,0
1049594,608.97,682,758,0
1049604,619.82,682,754,0
1049614,625.53,682,758,0
1049624,624.09,682,755,0
1049634,617.03,682,758,0
1049644,604.64,682,754,0
1049654,588.33,682,757,0
1049664,568.69,682,755,0
1049674,547.14,682,758,0
1049684,524.13,682,756,0
1049694,501.29,682,758,0
1049704,478.87,682,756,0
1049714,458.04,682,758,0
1049724,438.87,682,756,0
1049734,422.37,682,758,0
1049744,408.20,682,756,0
1049754,396.95,682,758,0
1049764,388.31,682,756,0
1049774,382.65,682,758,0
1049784,379.28,682,756,0
1049794,378.30,682,758,0
1049804,379.06,682,756,0
1049815,381.45,682,757,0
1049825,384.74,682,757,0
1049835,388.38,682,757,0
1049845,392.03,682,757,0
1049856,395.32,682,756,0
1049865,398.14,682,757,0
1049875,400.11,682,757,0
1049885,401.32,682,758,0
1049895,401.44,682,756,0
1049905,400.92,682,757,0
1049915,399.45,682,757,0
1049925,397.60,682,758,0
1049935,394.76,682,756,0
1049945,391.36,682,757,0
1049955,387.14,682,757,0
1049965,382.81,682,758,0
1049975,378.07,682,756,0
1049985,373.42,682,757,0
1049995,368.84,682,757,0
1050005,364.94,682,758,0
1050015,361.36,682,756,0
1050025,358.72,682,758,0
1050035,356.45,682,757,0
1050045,354.86,682,758,0
1050055,353.49,682,756,0
1050065,352.35,682,758,0
1050075,351.18,682,757,0
1050085,350.57,682,758,0
1050095,349.93,682,756,0
1050105,349.73,682,758,0
1050115,349.68,682,757,0
1050125,350.12,682,758,0
1050135,350.81,682,756,0
1050145,352.46,682,758,0
1050156,354.68,682,756,0
1050166,358.67,682,759,0
1050176,364.26,682,755,0
1050186,373.09,682,759,0
1050196,384.81,682,755,0
1050206,400.81,682,758,0
1050216,420.41,682,755,0
1050226,444.59,682,759,0
1050236,471.37,682,754,0
1050246,500.96,682,758,0
1050256,530.63,682,755,0
1050275,560.22,733,753,0
1050278,585.74,733,754,0
1050287,608.58,733,759,0
1050297,625.29,733,754,0
1050307,636.52,733,759,0
1050317,640.39,733,753,0
1050327,638.43,733,759,0
1050337,629.64,733,753,0
1050347,617.15,733,759,0
1050357,598.51,733,753,0
1050368,577.27,733,759,0
1050377,553.27,733,754,0
1050387,529.19,733,759,0
1050397,504.02,733,754,0
1050407,480.49,733,759,0
1050417,457.80,733,754,0
1050427,438.36,733,759,0
1050437,420.55,733,754,0
1050447,406.37,733,759,0
1050457,394.26,733,754,0
1050467,386.12,733,759,0
1050477,380.09,733,754,0
1050487,377.58,733,759,0
1050497,376.55,733,754,0
1050507,378.35,733,758,0
1050517,380.60,733,754,0
1050527,384.54,733,759,0
1050537,387.93,733,753,0
1050547,391.94,733,758,0
1050557,394.49,733,753,0
1050567,397.00,733,759,0
1050577,397.56,733,753,0
1050587,397.77,733,759,0
1050597,395.78,733,753,0
1050607,393.54,733,759,0
1050617,389.39,733,753,0
1050627,385.37,733,758,0
1050637,380.07,733,754,0
1050647,375.47,733,759,0
1050657,369.88,733,753,0
1050668,365.59,733,759,0
1050678,360.83,733,753,0
1050688,357.58,733,759,0
1050698,354.06,733,753,0
1050708,351.94,733,758,0
1050718,349.65,733,753,0
1050728,348.98,733,759,0
1050738,347.96,733,753,0
1050748,348.36,733,758,0
1050758,348.34,733,753,0
1050768,349.56,733,759,0
1050778,350.25,733,753,0
1050788,351.98,733,758,0
1050798,353.05,733,753,0
1050808,355.44,733,759,0
1050818,357.66,733,753,0
1050828,362.09,733,759,0
1050839,367.55,733,753,0
1050849,376.51,733,759,0
1050859,387.93,733,753,0
1050869,404.11,733,758,0
1050880,423.62,733,753,0
1050889,447.90,733,759,0
1050899,474.50,733,752,0
1050909,503.88,733,759,0
1050919,532.93,733,753,0
1050938,561.62,663,750,0
1050941,585.31,663,755,0
1050950,605.96,663,758,0
1050960,620.71,663,754,0
1050970,630.23,663,759,0
1050980,632.90,663,753,0
1050990,630.10,663,758,0
1051000,621.03,663,754,0
1051010,609.06,663,759,0
1051020,591.82,663,753,0
1051030,571.73,663,758,0
1051040,548.84,663,754,0
1051051,525.19,663,758,0
1051060,500.70,663,754,0
1051070,477.31,663,758,0
1051080,454.50,663,754,0
1051090,434.08,663,759,0
1051100,415.45,663,754,0
1051110,399.98,663,758,0
1051120,386.78,663,755,0
1051130,377.12,663,759,0
1051140,369.71,663,754,0
1051150,365.73,663,758,0
1051160,363.79,663,755,0
1051170,364.50,663,759,0
1051180,366.32,663,754,0
1051190,369.91,663,759,0
1051200,373.62,663,754,0
1051210,378.06,663,758,0
1051220,381.82,663,755,0
1051230,385.47,663,759,0
1051240,387.77,663,754,0
1051250,389.51,663,758,0
1051260,389.79,663,755,0
1051270,389.51,663,758,0
1051280,387.81,663,755,0
1051290,385.55,663,758,0
1051300,382.09,663,755,0
1051310,378.63,663,759,0
1051320,374.37,663,755,0
1051330,370.23,663,758,0
1051340,365.66,663,755,0
1051351,361.86,663,758,0
1051361,358.26,663,756,0
1051371,355.70,663,758,0
1051381,353.73,663,757,0
1051392,352.83,663,758,0
1051401,352.58,663,756,0
1051411,353.35,663,758,0
1051421,354.44,663,757,0
1051431,356.11,663,758,0
1051441,357.66,663,756,0
1051451,359.52,663,758,0
1051461,361.55,663,757,0
1051471,363.87,663,758,0
1051481,366.40,663,756,0
1051491,369.88,663,758,0
1051501,374.80,663,756,0
1051511,382.32,663,757,0
1051521,392.42,663,755,0
1051531,406.74,663,758,0
1051541,425.46,663,756,0
1051551,449.15,663,757,0
1051561,477.13,663,756,0
1051580,508.59,642,754,0
1051583,540.82,642,759,0
1051592,574.39,642,756,0
1051602,606.24,642,758,0
1051612,634.67,642,757,0
1051622,657.95,642,757,0
1051632,674.68,642,756,0
1051642,684.42,642,757,0
1051652,688.02,642,757,0
1051662,684.03,642,757,0
1051672,673.09,642,756,0
1051682,656.48,642,757,0
1051692,634.86,642,757,0
1051702,609.70,642,757,0
1051712,581.72,642,756,0
1051722,552.45,642,758,0
1051732,522.31,642,756,0
1051742,493.03,642,758,0
1051752,464.91,642,756,0
1051762,439.18,642,758,0
1051772,415.94,642,756,0
1051782,396.16,642,758,0
1051792,379.48,642,757,0
1051802,366.87,642,758,0
1051812,357.39,642,756,0
1051822,351.62,642,758,0
1051832,348.52,642,756,0
1051842,348.66,642,758,0
1051852,350.69,642,756,0
1051863,354.81,642,758,0
1051873,359.33,642,755,0
1051883,365.19,642,758,0
1051893,370.62,642,755,0
1051904,376.60,642,759,0
1051913,381.52,642,755,0
1051923,386.25,642,759,0
1051933,389.65,642,755,0
1051943,393.05,642,759,0
1051953,394.79,642,755,0
1051963,396.31,642,759,0
1051973,396.22,642,755,0
1051983,396.20,642,759,0
1051993,395.11,642,755,0
1052003,394.35,642,759,0
1052013,392.53,642,755,0
1052023,391.26,642,759,0
1052033,389.46,642,755,0
1052043,388.51,642,759,0
1052053,386.69,642,755,0
1052063,385.62,642,759,0
1052073,383.64,642,754,0
1052083,382.50,642,759,0
1052093,380.59,642,755,0
1052103,379.17,642,759,0
1052113,376.76,642,754,0
1052123,375.12,642,759,0
1052133,372.56,642,755,0
1052143,370.93,642,759,0
1052153,368.64,642,754,0
1052163,367.59,642,759,0
1052173,367.03,642,755,0
1052183,368.86,642,759,0
1052193,372.16,642,754,0
1052204,379.27,642,759,0
1052214,389.30,642,753,0
1052224,404.43,642,759,0
1052234,423.11,642,753,0
1052244,446.39,642,759,0
1052263,471.82,683,758,0
1052266,498.83,683,760,0
1052275,526.10,683,752,0
1052285,553.11,683,759,0
1052295,576.35,683,752,0
1052305,596.04,683,759,0
1052315,609.32,683,752,0
1052325,617.45,683,759,0
1052335,619.54,683,752,0
1052345,615.69,683,759,0
1052355,604.86,683,752,0
1052365,589.77,683,759,0
1052375,569.83,683,752,0
1052385,548.15,683,759,0
1052395,524.02,683,753,0
1052405,500.14,683,759,0
1052416,475.50,683,752,0
1052425,452.89,683,759,0
1052435,431.11,683,753,0
1052445,412.35,683,759,0
1052455,394.97,683,752,0
1052465,381.10,683,759,0
1052475,369.07,683,753,0
1052485,360.86,683,759,0
1052495,354.65,683,752,0
1052505,352.01,683,759,0
1052515,350.81,683,753,0
1052525,352.49,683,759,0
1052535,354.75,683,752,0
1052545,358.98,683,759,0
1052555,362.89,683,753,0
1052565,367.76,683,759,0
1052575,371.56,683,752,0
1052585,375.68,683,759,0
1052595,378.26,683,753,0
1052605,380.84,683,759,0
1052615,381.62,683,752,0
1052625,382.16,683,759,0
1052635,381.00,683,753,0
1052645,379.84,683,759,0
1052655,377.06,683,752,0
1052665,374.56,683,759,0
1052675,370.92,683,753,0
1052685,368.11,683,759,0
1052695,364.57,683,752,0
1052705,362.08,683,759,0
1052716,359.06,683,753,0
1052726,357.33,683,759,0
1052736,355.13,683,753,0
1052746,354.10,683,759,0
1052756,352.57,683,754,0
1052766,352.27,683,759,0
1052776,351.46,683,753,0
1052786,351.62,683,759,0
1052796,351.44,683,754,0
1052806,352.29,683,759,0
1052816,352.68,683,753,0
1052826,353.89,683,759,0
1052836,354.56,683,754,0
1052846,356.07,683,759,0
1052856,357.37,683,753,0
1052866,360.26,683,759,0
1052876,363.91,683,754,0
1052887,370.37,683,758,0
1052897,379.13,683,754,0
1052907,392.12,683,759,0
1052917,408.93,683,755,0
1052928,430.76,683,758,0
1052937,455.78,683,754,0
1052956,484.51,693,753,0
1052959,513.80,693,758,0
1052968,543.82,693,757,0
1052978,571.99,693,755,0
1052988,597.11,693,758,0
1052998,617.09,693,756,0
1053008,631.50,693,757,0
1053018,639.07,693,755,0
1053028,641.06,693,758,0
1053038,636.37,693,756,0
1053048,626.06,693,757,0
1053058,610.79,693,755,0
1053068,592.08,693,758,0
1053078,570.93,693,756,0
1053088,548.66,693,757,0
1053099,526.18,693,757,0
1053108,504.61,693,758,0
1053118,484.37,693,757,0
1053128,466.26,693,758,0
1053138,450.37,693,757,0
1053148,437.14,693,758,0
1053158,426.17,693,756,0
1053168,417.63,693,758,0
1053178,411.36,693,757,0
1053188,407.48,693,758,0
1053198,405.41,693,756,0
1053208,405.03,693,758,0
1053218,405.75,693,757,0
1053228,407.67,693,758,0
1053238,409.82,693,757,0
1053248,411.98,693,758,0
1053258,413.66,693,757,0
1053268,414.70,693,758,0
1053278,414.79,693,757,0
1053288,414.00,693,758,0
1053298,412.11,693,757,0
1053308,409.34,693,757,0
1053318,405.76,693,757,0
1053328,401.55,693,758,0
1053338,396.88,693,757,0
1053348,391.86,693,757,0
1053358,386.59,693,757,0
1053368,381.40,693,758,0
1053378,376.44,693,757,0
1053388,371.80,693,757,0
1053399,367.62,693,758,0
1053409,363.75,693,757,0
1053419,360.61,693,758,0
1053429,357.90,693,756,0
1053440,355.87,693,759,0
1053449,354.32,693,757,0
1053459,353.50,693,758,0
1053469,352.71,693,756,0
1053479,352.67,693,759,0
1053489,352.47,693,757,0
1053499,352.88,693,758,0
1053509,352.75,693,756,0
1053519,352.91,693,759,0
1053529,352.59,693,756,0
1053539,352.89,693,758,0
1053549,353.01,693,756,0
1053559,354.33,693,759,0
1053569,356.72,693,756,0
1053579,361.82,693,758,0
1053589,369.42,693,755,0
1053599,381.25,693,759,0
1053609,396.86,693,755,0
1053619,417.39,693,758,0
1053629,441.57,693,755,0
1053639,469.51,693,759,0
1053649,499.10,693,755,0
1053659,529.71,693,758,0
1053678,558.43,722,756,0
1053681,583.84,722,759,0
1053690,604.63,722,753,0
1053700,620.47,722,759,0
1053710,629.03,722,754,0
1053720,631.51,722,759,0
1053730,626.64,722,754,0
1053740,616.76,722,759,0
1053750,602.01,722,754,0
1053760,583.40,722,759,0
1053770,561.00,722,754,0
1053780,537.77,722,759,0
1053790,513.02,722,754,0
1053800,489.19,722,759,0
1053810,465.13,722,754,0
1053820,443.19,722,759,0
1053830,422.48,722,754,0
1053840,405.06,722,759,0
1053850,389.44,722,754,0
1053860,377.53,722,759,0
1053870,367.98,722,754,0
1053880,362.29,722,759,0
1053890,358.43,722,754,0
1053900,357.79,722,759,0
1053911,358.11,722,753,0
1053921,360.82,722,759,0
1053931,363.62,722,753,0
1053941,367.89,722,759,0
1053952,371.35,722,753,0
1053961,375.75,722,759,0
1053971,378.74,722,753,0
1053981,381.99,722,759,0
1053991,383.28,722,753,0
1054001,384.52,722,759,0
1054011,383.64,722,753,0
1054021,382.59,722,759,0
1054031,379.63,722,753,0
1054041,377.00,722,759,0
1054051,372.93,722,753,0
1054061,369.65,722,759,0
1054071,365.42,722,753,0
1054081,362.34,722,759,0
1054091,358.68,722,753,0
1054101,356.38,722,759,0
1054111,353.52,722,753,0
1054121,352.08,722,759,0
1054131,350.08,722,754,0
1054141,349.50,722,759,0
1054151,348.49,722,753,0
1054161,349.07,722,759,0
1054171,349.14,722,754,0
1054181,350.60,722,759,0
1054191,351.49,722,753,0
1054201,353.66,722,759,0
1054211,355.26,722,754,0
1054221,358.18,722,759,0
1054231,360.48,722,753,0
1054241,364.15,722,759,0
1054252,367.49,722,753,0
1054262,372.75,722,759,0
1054272,378.56,722,753,0
1054282,387.05,722,759,0
1054292,397.11,722,753,0
1054302,411.05,722,759,0
1054312,427.79,722,753,0
1054322,449.50,722,759,0
1054332,474.12,722,753,0
1054351,502.71,673,751,0
1054354,531.77,673,755,0
1054363,562.52,673,759,0
1054373,591.47,673,753,0
1054383,618.33,673,759,0
1054393,639.66,673,752,0
1054403,655.75,673,759,0
1054413,664.14,673,753,0
1054423,667.01,673,759,0
1054433,661.61,673,752,0
1054443,650.32,673,759,0
1054453,632.61,673,753,0
1054464,611.04,673,759,0
1054473,585.70,673,753,0
1054483,559.31,673,759,0
1054493,531.49,673,754,0
1054503,504.64,673,759,0
1054513,478.22,673,753,0
1054523,454.24,673,759,0
1054533,431.88,673,754,0
1054543,412.63,673,759,0
1054553,395.43,673,753,0
1054563,381.84,673,758,0
1054573,370.62,673,754,0
1054583,363.10,673,759,0
1054593,357.72,673,754,0
1054603,355.87,673,758,0
1054613,355.87,673,754,0
1054623,358.56,673,759,0
1054633,362.04,673,754,0
1054643,367.17,673,758,0
1054653,371.96,673,754,0
1054663,377.37,673,759,0
1054673,381.55,673,754,0
1054683,385.37,673,758,0
1054693,387.53,673,754,0
1054703,389.04,673,759,0
1054713,388.90,673,755,0
1054723,388.50,673,759,0
1054733,386.68,673,754,0
1054743,384.72,673,759,0
1054753,381.67,673,754,0
1054764,378.73,673,758,0
1054774,375.08,673,755,0
1054784,371.71,673,759,0
1054794,367.94,673,756,0
1054804,364.79,673,758,0
1054814,361.47,673,755,0
1054824,359.14,673,759,0
1054834,357.00,673,756,0
1054844,355.97,673,758,0
1054854,355.42,673,756,0
1054864,355.85,673,758,0
1054874,356.71,673,756,0
1054884,358.34,673,758,0
1054894,360.00,673,755,0
1054904,362.14,673,759,0
1054914,364.07,673,756,0
1054924,366.19,673,758,0
1054935,368.02,673,757,0
1054945,369.86,673,758,0
1054955,372.00,673,757,0
1054965,374.79,673,757,0
1054976,378.84,673,758,0
1054985,384.76,673,758,0
1054995,393.19,673,757,0
1055005,404.92,673,757,0
1055015,420.71,673,758,0
1055025,440.38,673,758,0
1055035,463.93,673,757,0
1055054,490.39,703,755,0
1055057,518.00,703,760,0
1055066,546.12,703,756,0
1055076,573.42,703,758,0
1055086,597.64,703,755,0
1055096,617.93,703,759,0
1055106,632.82,703,756,0
1055116,641.92,703,758,0
1055126,645.24,703,755,0
1055136,642.56,703,759,0
1055147,633.43,703,755,0
1055156,619.76,703,758,0
1055166,601.27,703,756,0
1055176,579.89,703,759,0
1055186,555.71,703,755,0
1055196,531.11,703,758,0
1055206,505.88,703,756,0
1055216,481.87,703,759,0
1055226,458.55,703,755,0
1055236,437.73,703,759,0
1055246,418.87,703,756,0
1055256,403.26,703,759,0
1055266,389.77,703,756,0
1055276,379.60,703,758,0
1055286,371.83,703,756,0
1055296,367.34,703,759,0
1055306,364.67,703,756,0
1055316,364.55,703,759,0
1055326,365.59,703,756,0
1055336,368.37,703,759,0
1055346,371.26,703,755,0
1055356,375.04,703,759,0
1055366,378.07,703,756,0
1055376,381.31,703,759,0
1055386,383.19,703,755,0
1055396,384.80,703,759,0
1055406,384.95,703,756,0
1055416,384.79,703,759,0
1055426,383.14,703,756,0
1055436,381.38,703,759,0
1055447,378.44,703,755,0
1055457,375.82,703,759,0
1055467,372.28,703,755,0
1055477,369.36,703,759,0
1055488,365.91,703,754,0
1055497,363.41,703,759,0
1055507,360.80,703,754,0
1055517,359.58,703,759,0
1055527,358.20,703,754,0
1055537,358.31,703,759,0
1055547,358.35,703,755,0
1055557,359.91,703,759,0
1055567,361.18,703,754,0
1055577,363.66,703,759,0
1055587,365.73,703,755,0
1055597,369.03,703,759,0
1055607,371.63,703,754,0
1055617,375.13,703,759,0
1055627,377.83,703,754,0
1055637,381.31,703,759,0
1055647,383.75,703,754,0
1055657,386.61,703,758,0
1055667,388.31,703,754,0
1055677,390.88,703,759,0
1055687,392.88,703,754,0
1055697,396.43,703,759,0
1055707,400.55,703,754,0
1055717,407.67,703,759,0
1055727,416.90,703,754,0
1055737,430.81,703,759,0
1055747,447.84,703,754,0
1055766,469.92,712,752,0
1055769,493.68,712,753,0
1055778,521.42,712,759,0
1055788,549.80,712,753,0
1055798,579.09,712,759,0
1055808,605.42,712,752,0
1055818,629.29,712,759,0
1055828,647.29,712,752,0
1055838,661.60,712,759,0
1055848,668.32,712,752,0
1055858,669.34,712,759,0
1055868,663.11,712,752,0
1055878,652.41,712,759,0
1055888,635.95,712,752,0
1055898,616.55,712,759,0
1055908,593.16,712,753,0
1055918,568.81,712,759,0
1055928,542.60,712,753,0
1055938,517.30,712,759,0
1055948,491.71,712,753,0
1055959,468.57,712,759,0
1055969,446.76,712,753,0
1055979,428.53,712,759,0
1055989,412.17,712,753,0
1056000,399.73,712,759,0
1056009,389.40,712,753,0
1056019,382.98,712,759,0
1056029,378.23,712,753,0
1056039,376.62,712,759,0
1056049,375.83,712,753,0
1056059,377.43,712,759,0
1056069,379.27,712,753,0
1056079,382.53,712,759,0
1056089,385.07,712,753,0
1056099,388.39,712,759,0
1056109,390.55,712,753,0
1056119,393.08,712,759,0
1056129,394.17,712,753,0
1056139,395.41,712,759,0
1056149,395.03,712,753,0
1056159,394.63,712,759,0
1056169,392.69,712,754,0
1056179,390.77,712,759,0
1056189,387.28,712,753,0
1056199,384.07,712,759,0
1056209,379.55,712,754,0
1056219,375.87,712,759,0
1056229,371.45,712,754,0
1056239,368.10,712,759,0
1056249,364.39,712,754,0
1056259,362.38,712,759,0
1056269,360.43,712,753,0
1056279,360.26,712,759,0
1056289,360.14,712,754,0
1056300,361.68,712,759,0
1056310,363.28,712,754,0
1056320,366.37,712,759,0
1056330,369.17,712,755,0
1056340,372.93,712,759,0
1056350,376.12,712,754,0
1056360,379.99,712,759,0
1056370,383.03,712,755,0
1056380,386.37,712,759,0
1056390,388.61,712,754,0
1056400,391.13,712,759,0
1056410,392.72,712,754,0
1056420,394.77,712,759,0
1056430,396.34,712,754,0
1056440,399.50,712,759,0
1056450,403.85,712,754,0
1056460,411.39,712,759,0
1056471,421.69,712,754,0
1056481,436.53,712,759,0
1056491,455.18,712,756,0
1056501,478.27,712,758,0
1056521,503.95,754,756,0
1056524,530.66,754,755,0
1056533,557.68,754,758,0
1056543,583.40,754,756,0
1056553,605.95,754,758,0
1056563,623.92,754,756,0
1056573,636.12,754,758,0
1056583,641.78,754,756,0
1056593,642.15,754,758,0
1056603,635.98,754,756,0
1056613,624.50,754,758,0
1056623,607.76,754,756,0
1056633,587.35,754,758,0
1056643,564.14,754,757,0
1056653,540.01,754,758,0
1056663,515.07,754,756,0
1056673,490.75,754,758,0
1056684,467.08,754,756,0
1056694,445.84,754,759,0
1056704,426.43,754,755,0
1056714,410.19,754,759,0
1056724,396.12,754,755,0
1056734,385.58,754,759,0
1056744,377.39,754,755,0
1056754,372.60,754,759,0
1056764,369.59,754,755,0
1056774,369.63,754,759,0
1056784,370.86,754,755,0
1056794,374.11,754,759,0
1056804,377.34,754,754,0
1056814,381.52,754,759,0
1056824,384.79,754,755,0
1056834,388.28,754,759,0
1056844,390.30,754,755,0
1056855,392.05,754,759,0
1056865,391.91,754,754,0
1056875,391.64,754,759,0
1056885,389.73,754,754,0
1056896,388.14,754,759,0
1056905,385.40,754,754,0
1056915,383.26,754,759,0
1056925,380.19,754,754,0
1056935,378.33,754,759,0
1056945,376.00,754,754,0
1056955,375.06,754,759,0
1056965,373.63,754,754,0
1056975,373.61,754,759,0
1056985,373.26,754,754,0
1056995,374.34,754,759,0
1057005,375.05,754,754,0
1057015,376.92,754,759,0
1057025,378.19,754,754,0
1057035,380.62,754,759,0
1057045,382.27,754,754,0
1057055,384.72,754,759,0
1057065,386.00,754,753,0
1057075,387.85,754,759,0
1057085,388.41,754,754,0
1057095,389.44,754,759,0
1057105,388.92,754,753,0
1057115,388.73,754,759,0
1057125,387.10,754,754,0
1057135,386.21,754,759,0
1057145,384.43,754,753,0
1057155,384.22,754,759,0
1057165,384.24,754,754,0
1057175,387.25,754,759,0
1057185,392.19,754,753,0
1057196,401.69,754,759,0
1057206,414.60,754,753,0
1057216,432.98,754,759,0
1057235,454.84,715,758,0
1057239,480.39,715,759,0
1057247,507.61,715,752,0
1057257,536.44,715,759,0
1057267,563.40,715,752,0
1057277,588.13,715,759,0
1057287,607.47,715,752,0
1057297,621.77,715,759,0
1057307,629.51,715,752,0
1057317,631.07,715,759,0
1057327,625.44,715,752,0
1057337,614.85,715,759,0
1057347,598.52,715,753,0
1057357,579.04,715,759,0
1057367,556.10,715,753,0
1057377,532.41,715,759,0
1057387,507.39,715,753,0
1057397,483.27,715,759,0
1057408,459.19,715,754,0
1057417,437.62,715,759,0
1057427,417.50,715,754,0
1057437,400.55,715,759,0
1057447,385.64,715,754,0
1057457,374.52,715,759,0
1057467,365.79,715,753,0
1057477,360.97,715,759,0
1057487,358.32,715,754,0
1057497,358.91,715,759,0
1057507,360.82,715,753,0
1057517,365.03,715,759,0
1057527,369.39,715,753,0
1057537,374.89,715,759,0
1057547,379.55,715,753,0
1057557,384.40,715,759,0
1057567,387.58,715,754,0
1057577,390.41,715,759,0
1057587,391.14,715,754,0
1057597,391.44,715,759,0
1057607,389.94,715,754,0
1057617,388.20,715,759,0
1057627,385.10,715,754,0
1057637,382.45,715,759,0
1057647,379.10,715,754,0
1057657,376.76,715,759,0
1057667,374.17,715,754,0
1057677,372.96,715,759,0
1057687,371.82,715,754,0
1057697,372.09,715,759,0
1057708,372.40,715,754,0
1057718,374.13,715,759,0
1057728,375.76,715,755,0
1057738,378.49,715,759,0
1057748,380.96,715,756,0
1057758,384.40,715,759,0
1057768,387.32,715,755,0
1057778,390.95,715,759,0
1057788,393.92,715,756,0
1057798,397.33,715,759,0
1057808,399.98,715,754,0
1057818,402.77,715,759,0
1057828,404.47,715,756,0
1057838,406.21,715,759,0
1057848,406.75,715,755,0
1057858,407.21,715,759,0
1057868,406.98,715,756,0
1057879,407.20,715,759,0
1057889,407.78,715,756,0
1057899,410.12,715,758,0
1057909,414.37,715,757,0
1057920,421.97,715,758,0
1057929,432.95,715,756,0
1057948,448.22,713,755,0
1057951,466.97,713,758,0
1057960,489.05,713,756,0
1057970,513.46,713,757,0
1057980,538.82,713,757,0
1057990,563.86,713,758,0
1058000,586.53,713,756,0
1058010,605.62,713,757,0
1058020,620.22,713,757,0
1058030,629.45,713,758,0
1058040,632.74,713,756,0
1058050,630.46,713,757,0
1058060,622.65,713,757,0
1058070,610.67,713,758,0
1058080,594.40,713,756,0
1058091,575.21,713,758,0
1058100,553.80,713,757,0
1058110,531.40,713,758,0
1058120,508.27,713,757,0
1058130,485.52,713,758,0
1058140,463.29,713,758,0
1058150,442.85,713,758,0
1058160,424.04,713,757,0
1058170,407.82,713,758,0
1058180,394.03,713,758,0
1058190,383.61,713,758,0
1058200,376.01,713,757,0
1058210,371.98,713,759,0
1058220,370.61,713,758,0
1058230,372.06,713,758,0
1058240,375.04,713,757,0
1058250,379.74,713,759,0
1058260,384.88,713,756,0
1058270,390.61,713,758,0
1058280,395.62,713,757,0
1058290,400.40,713,758,0
1058300,404.14,713,756,0
1058310,407.53,713,758,0
1058320,409.68,713,757,0
1058330,411.41,713,758,0
1058340,411.76,713,756,0
1058350,411.79,713,758,0
1058360,410.74,713,757,0
1058370,409.53,713,758,0
1058380,407.31,713,756,0
1058391,405.12,713,759,0
1058401,402.08,713,755,0
1058411,399.49,713,759,0
1058421,396.17,713,755,0
1058432,393.42,713,760,0
1058441,390.51,713,755,0
1058451,388.60,713,759,0
1058461,386.53,713,755,0
1058471,385.64,713,760,0
1058481,384.59,713,755,0
1058491,384.84,713,759,0
1058501,384.81,713,755,0
1058511,385.94,713,760,0
1058521,386.64,713,755,0
1058531,388.29,713,759,0
1058541,389.23,713,755,0
1058551,391.09,713,760,0
1058561,392.14,713,755,0
1058571,393.98,713,759,0
1058581,394.71,713,755,0
1058591,396.00,713,759,0
1058601,396.30,713,754,0
1058611,397.58,713,759,0
1058621,398.35,713,754,0
1058631,400.99,713,760,0
1058641,404.51,713,754,0
1058651,411.21,713,759,0
1058661,420.40,713,754,0
1058671,434.43,713,760,0
1058681,451.83,713,754,0
1058691,474.08,713,759,0
1058710,498.66,762,758,0
1058713,525.54,762,760,0
1058722,552.72,762,753,0
1058732,579.55,762,760,0
1058742,602.27,762,752,0
1058752,621.13,762,760,0
1058762,632.96,762,753,0
1058772,639.15,762,759,0
1058782,638.16,762,753,0
1058792,631.04,762,759,0
1058802,616.89,762,753,0
1058812,598.66,762,759,0
1058822,575.75,762,753,0
1058832,551.57,762,759,0
1058842,525.04,762,753,0
1058852,499.01,762,759,0
1058862,472.65,762,754,0
1058872,448.80,762,760,0
1058882,426.23,762,754,0
1058892,407.26,762,759,0
1058903,390.21,762,753,0
1058913,377.29,762,759,0
1058923,366.92,762,753,0
1058933,360.77,762,759,0
1058944,356.85,762,753,0
1058953,356.77,762,759,0
1058963,358.08,762,753,0
1058973,362.30,762,760,0
1058983,367.05,762,753,0
1058993,373.72,762,759,0
1059003,379.72,762,753,0
1059013,386.40,762,759,0
1059023,391.60,762,753,0
1059033,396.99,762,759,0
1059043,400.55,762,753,0
1059053,403.94,762,759,0
1059063,405.20,762,753,0
1059073,406.43,762,759,0
1059083,406.00,762,753,0
1059093,405.74,762,759,0
1059103,403.85,762,753,0
1059113,402.18,762,759,0
1059123,399.34,762,753,0
1059133,397.27,762,760,0
1059143,394.32,762,753,0
1059153,392.29,762,760,0
1059163,389.59,762,753,0
1059173,388.17,762,760,0
1059183,386.23,762,753,0
1059193,385.56,762,759,0
1059203,384.32,762,753,0
1059213,384.40,762,759,0
1059223,384.06,762,753,0
1059233,384.94,762,759,0
1059244,385.22,762,753,0
1059254,386.61,762,759,0
1059264,387.24,762,754,0
1059274,388.71,762,759,0
1059284,389.23,762,754,0
1059294,390.27,762,759,0
1059304,390.32,762,754,0
1059314,390.91,762,759,0
1059324,390.81,762,754,0
1059334,391.68,762,759,0
1059344,392.50,762,754,0
1059354,395.40,762,759,0
1059364,399.69,762,754,0
1059374,407.33,762,759,0
1059384,417.56,762,753,0
1059394,432.35,762,760,0
1059404,450.63,762,754,0
1059424,473.54,714,752,0
1059427,498.24,714,758,0
1059436,525.34,714,759,0
1059446,552.58,714,756,0
1059457,578.98,714,758,0
1059467,601.95,714,757,0
1059477,620.44,714,758,0
1059487,632.69,714,758,0
1059497,638.96,714,757,0
1059507,638.24,714,757,0
1059517,630.88,714,758,0
1059527,617.59,714,758,0
1059537,598.98,714,757,0
1059547,576.79,714,757,0
1059557,552.00,714,758,0
1059567,526.15,714,758,0
1059577,499.62,714,757,0
1059587,473.89,714,757,0
1059597,449.58,714,758,0
1059607,427.85,714,758,0
1059617,408.48,714,757,0
1059628,392.35,714,759,0
1059638,379.00,714,757,0
1059648,369.44,714,759,0
1059658,362.84,714,756,0
1059668,359.85,714,759,0
1059678,359.38,714,757,0
1059688,361.75,714,759,0
1059698,365.51,714,756,0
1059708,371.23,714,759,0
1059718,377.29,714,757,0
1059728,383.84,714,759,0
1059738,389.33,714,756,0
1059748,394.29,714,759,0
1059758,397.63,714,756,0
1059768,399.93,714,759,0
1059778,400.12,714,756,0
1059788,399.06,714,759,0
1059799,396.13,714,755,0
1059809,392.40,714,759,0
1059819,387.22,714,755,0
1059829,381.80,714,760,0
1059840,375.43,714,755,0
1059849,369.73,714,759,0
1059859,363.85,714,755,0
1059869,359.27,714,760,0
1059879,354.82,714,755,0
1059889,352.00,714,760,0
1059899,349.51,714,755,0
1059909,348.97,714,759,0
1059919,348.68,714,755,0
1059929,350.11,714,759,0
1059939,351.62,714,755,0
1059949,354.60,714,759,0
1059959,357.29,714,754,0
1059969,361.06,714,759,0
1059979,364.17,714,755,0
1059989,367.81,714,759,0
1059999,370.35,714,754,0
1060009,373.29,714,759,0
1060019,375.43,714,755,0
1060029,378.56,714,759,0
1060039,381.52,714,754,0
1060049,386.55,714,759,0
1060059,392.81,714,755,0
1060069,402.60,714,759,0
1060079,415.19,714,754,0
1060089,432.58,714,760,0
1060099,453.40,714,755,0
1060109,479.04,714,759,0
1060119,507.01,714,754,0
1060139,537.91,714,752,0
1060142,567.72,714,754,0
1060151,597.33,714,760,0
1060161,622.56,714,753,0
1060171,643.61,714,760,0
1060182,657.40,714,753,0
1060191,665.21,714,759,0
1060201,664.93,714,753,0
1060211,659.55,714,759,0
1060221,646.79,714,753,0
1060231,630.39,714,759,0
1060241,609.28,714,753,0
1060251,586.61,714,759,0
1060261,561.57,714,754,0
1060271,537.27,714,759,0
1060281,512.37,714,754,0
1060291,489.38,714,759,0
1060301,466.59,714,754,0
1060311,446.61,714,759,0
1060321,427.79,714,754,0
1060331,412.12,714,760,0
