Time,PPG,IBI,GSR,GSR_Event
7863457,319.84,1115,735,0
7863468,309.60,1115,745,0
7863478,297.59,1115,736,0
7863488,287.51,1115,745,0
7863498,280.25,1115,736,0
7863508,280.30,1115,743,0
7863518,282.31,1115,732,0
7863528,299.83,1115,741,0
7863538,331.00,1115,734,0
7863548,374.45,1115,743,0
7863558,423.99,1115,735,0
7863577,475.89,1064,735,0
7863580,524.65,1064,737,0
7863590,574.04,1064,743,0
7863600,618.22,1064,737,0
7863610,652.95,1064,744,0
7863620,677.31,1064,736,0
7863630,694.44,1064,744,0
7863640,706.53,1064,737,0
7863650,714.98,1064,744,0
7863660,720.86,1064,736,0
7863670,725.02,1064,744,0
7863681,727.93,1064,737,0
7863691,730.05,1064,744,0
7863701,731.53,1064,737,0
7863711,732.57,1064,743,0
7863721,733.30,1064,738,0
7863731,730.77,1064,744,0
7863741,721.24,1064,737,0
7863751,703.81,1064,743,0
7863761,677.21,1064,737,0
7863771,643.12,1064,744,0
7863781,602.20,1064,738,0
7863791,555.47,1064,743,0
7863801,505.96,1064,737,0
7863811,459.98,1064,744,0
7863821,419.53,1064,737,0
7863831,388.00,1064,743,0
7863841,364.86,1064,738,0
7863852,350.41,1064,742,0
7863862,343.73,1064,737,0
7863872,346.00,1064,742,0
7863882,354.48,1064,738,0
7863892,368.27,1064,741,0
7863902,384.26,1064,737,0
7863912,401.37,1064,742,0
7863922,417.29,1064,738,0
7863932,431.64,1064,741,0
7863942,442.16,1064,737,0
7863952,449.19,1064,742,0
7863962,451.44,1064,738,0
7863972,449.85,1064,741,0
7863982,443.64,1064,738,0
7863992,434.66,1064,743,0
7864002,422.55,1064,738,0
7864012,408.93,1064,742,0
7864023,393.31,1064,738,0
7864033,377.53,1064,741,0
7864043,361.64,1064,739,0
7864053,347.09,1064,740,0
7864064,333.48,1064,739,0
7864073,322.24,1064,741,0
7864083,312.99,1064,739,0
7864093,306.52,1064,741,0
7864103,302.12,1064,739,0
7864113,300.16,1064,741,0
7864123,300.15,1064,739,0
7864133,301.99,1064,741,0
7864143,304.82,1064,739,0
7864153,308.78,1064,741,0
7864163,313.04,1064,738,0
7864173,318.13,1064,740,0
7864183,323.41,1064,739,0
7864193,328.94,1064,741,0
7864203,334.32,1064,738,0
7864213,339.79,1064,740,0
7864223,344.74,1064,739,0
7864233,349.58,1064,740,0
7864243,353.60,1064,739,0
7864253,357.19,1064,741,0
7864263,359.58,1064,739,0
7864273,361.20,1064,740,0
7864283,361.83,1064,738,0
7864293,361.88,1064,740,0
7864303,361.06,1064,739,0
7864313,359.63,1064,740,0
7864323,357.34,1064,739,0
7864333,355.01,1064,741,0
7864343,352.35,1064,739,0
7864353,349.50,1064,740,0
7864364,346.05,1064,740,0
7864374,342.35,1064,739,0
7864384,339.03,1064,741,0
7864394,336.79,1064,738,0
7864404,336.47,1064,742,0
7864414,339.37,1064,739,0
7864424,346.97,1064,740,0
7864434,361.68,1064,738,0
7864444,385.48,1064,742,0
7864454,418.98,1064,739,0
7864464,459.27,1064,740,0
7864474,503.03,1064,738,0
7864494,547.68,916,737,0
7864497,590.59,916,738,0
7864506,629.03,916,745,0
7864516,660.30,916,737,0
7864526,682.80,916,745,0
7864536,698.55,916,738,0
7864546,709.61,916,744,0
7864556,717.36,916,737,0
7864566,722.82,916,745,0
7864577,726.60,916,737,0
7864587,729.29,916,745,0
7864597,731.13,916,737,0
7864607,732.47,916,746,0
7864617,731.51,916,738,0
7864627,726.34,916,745,0
7864637,713.77,916,737,0
7864647,693.44,916,746,0
7864657,664.38,916,738,0
7864667,628.01,916,745,0
7864677,584.38,916,737,0
7864687,536.91,916,746,0
7864697,488.33,916,737,0
7864707,444.52,916,746,0
7864717,406.56,916,737,0
7864727,377.04,916,746,0
7864737,355.43,916,737,0
7864748,343.04,916,746,0
7864758,338.44,916,737,0
7864768,342.25,916,746,0
7864778,351.05,916,737,0
7864788,364.92,916,745,0
7864798,381.06,916,736,0
7864808,399.04,916,746,0
7864818,416.56,916,738,0
7864828,433.28,916,747,0
7864838,449.14,916,739,0
7864848,461.18,916,746,0
7864858,466.36,916,737,0
7864868,466.72,916,746,0
7864878,461.45,916,737,0
7864888,452.36,916,746,0
7864898,438.71,916,737,0
7864908,420.15,916,746,0
7864919,399.88,916,737,0
7864929,381.40,916,746,0
7864939,363.45,916,737,0
7864949,347.76,916,745,0
7864960,333.22,916,737,0
7864969,321.92,916,746,0
7864979,312.52,916,738,0
7864989,306.32,916,745,0
7864999,301.72,916,737,0
7865009,300.26,916,747,0
7865019,299.97,916,738,0
7865029,303.75,916,748,0
7865039,309.70,916,739,0
7865049,316.77,916,747,0
7865059,323.01,916,738,0
7865069,329.74,916,746,0
7865079,335.30,916,738,0
7865089,341.17,916,747,0
7865099,343.86,916,738,0
7865109,345.02,916,746,0
7865119,345.74,916,738,0
7865129,346.63,916,745,0
7865139,346.36,916,738,0
7865149,346.38,916,746,0
7865159,345.36,916,738,0
7865169,345.04,916,746,0
7865179,343.91,916,738,0
7865189,343.08,916,746,0
7865199,342.42,916,738,0
7865209,343.19,916,745,0
7865219,343.43,916,738,0
7865229,344.67,916,746,0
7865239,345.03,916,738,0
7865249,345.28,916,746,0
7865260,344.81,916,739,0
7865270,344.61,916,745,0
7865280,343.40,916,738,0
7865290,343.36,916,745,0
7865300,343.43,916,739,0
7865310,346.38,916,745,0
7865320,353.47,916,739,0
7865330,368.03,916,745,0
7865340,390.82,916,739,0
7865350,424.13,916,746,0
7865360,463.78,916,740,0
7865379,507.77,886,737,0
7865382,552.67,886,741,0
7865391,596.14,886,744,0
7865401,634.03,886,739,0
7865411,664.88,886,743,0
7865421,686.47,886,740,0
7865431,701.59,886,744,0
7865441,712.12,886,740,0
7865451,719.54,886,744,0
7865461,724.74,886,740,0
7865472,728.42,886,743,0
7865481,730.99,886,739,0
7865491,732.79,886,744,0
7865501,734.06,886,740,0
7865511,734.94,886,743,0
7865521,735.56,886,740,0
7865531,735.99,886,744,0
7865541,736.29,886,740,0
7865551,733.93,886,743,0
7865561,725.60,886,740,0
7865571,710.29,886,744,0
7865581,685.99,886,739,0
7865591,653.21,886,742,0
7865601,613.46,886,740,0
7865611,568.92,886,744,0
7865621,522.27,886,740,0
7865631,478.35,886,743,0
7865641,438.22,886,739,0
7865651,405.45,886,743,0
7865661,380.16,886,739,0
7865671,362.45,886,742,0
7865681,351.17,886,739,0
7865691,347.95,886,744,0
7865701,350.45,886,739,0
7865711,358.72,886,743,0
7865721,370.33,886,740,0
7865731,384.16,886,743,0
7865741,397.35,886,739,0
7865751,409.12,886,743,0
7865761,416.28,886,739,0
7865772,419.80,886,742,0
7865782,418.44,886,740,0
7865792,413.51,886,742,0
7865802,405.09,886,740,0
7865812,394.69,886,741,0
7865822,381.84,886,740,0
7865832,368.52,886,742,0
7865842,354.43,886,740,0
7865852,341.32,886,741,0
7865862,328.75,886,740,0
7865872,317.85,886,742,0
7865882,308.68,886,740,0
7865892,301.96,886,741,0
7865902,297.09,886,740,0
7865912,294.79,886,742,0
7865922,294.21,886,740,0
7865932,296.46,886,742,0
7865943,300.95,886,741,0
7865953,307.39,886,741,0
7865963,314.39,886,742,0
7865973,321.73,886,739,0
7865984,327.73,886,742,0
7865993,332.35,886,740,0
7866003,335.03,886,741,0
7866013,336.22,886,739,0
7866023,337.27,886,744,0
7866033,338.73,886,741,0
7866043,339.71,886,741,0
7866053,340.70,886,739,0
7866063,341.77,886,742,0
7866073,343.09,886,741,0
7866083,344.35,886,742,0
7866093,343.94,886,739,0
7866103,342.72,886,743,0
7866113,341.47,886,741,0
7866123,340.86,886,742,0
7866133,340.77,886,740,0
7866143,340.33,886,743,0
7866153,339.07,886,740,0
7866163,337.55,886,742,0
7866173,335.33,886,740,0
7866183,332.44,886,743,0
7866193,329.23,886,740,0
7866203,325.86,886,741,0
7866213,322.81,886,740,0
7866223,320.30,886,743,0
7866233,318.32,886,740,0
7866243,316.85,886,741,0
7866253,315.87,886,740,0
7866263,315.39,886,743,0
7866273,315.10,886,740,0
7866284,314.94,886,744,0
7866294,314.88,886,739,0
7866304,315.47,886,745,0
7866314,316.70,886,739,0
7866324,320.60,886,746,0
7866334,327.84,886,739,0
7866344,341.43,886,745,0
7866354,363.46,886,739,0
7866374,396.45,994,738,0
7866377,436.81,994,739,0
7866386,482.21,994,748,0
7866396,529.16,994,739,0
7866406,575.49,994,748,0
7866416,617.68,994,739,0
7866426,652.92,994,747,0
7866436,678.23,994,739,0
7866446,696.03,994,747,0
7866456,708.45,994,739,0
7866466,717.19,994,747,0
7866476,723.26,994,739,0
7866486,727.55,994,747,0
7866497,730.47,994,739,0
7866507,732.52,994,747,0
7866517,733.90,994,739,0
7866527,734.88,994,747,0
7866537,735.47,994,739,0
7866547,735.93,994,747,0
7866557,736.21,994,739,0
7866567,736.49,994,748,0
7866577,736.68,994,739,0
7866587,736.86,994,748,0
7866597,736.99,994,740,0
7866607,734.12,994,748,0
7866617,724.79,994,739,0
7866627,708.78,994,748,0
7866637,684.84,994,739,0
7866647,654.29,994,748,0
7866657,617.09,994,739,0
7866668,575.19,994,748,0
7866678,531.93,994,739,0
7866688,492.70,994,747,0
7866698,458.03,994,739,0
7866708,430.98,994,747,0
7866718,409.90,994,739,0
7866728,395.96,994,747,0
7866738,386.67,994,739,0
7866748,382.48,994,747,0
7866758,380.80,994,739,0
7866768,381.54,994,747,0
7866778,381.77,994,739,0
7866788,382.26,994,746,0
7866798,381.07,994,739,0
7866808,379.38,994,747,0
7866818,375.54,994,739,0
7866828,370.45,994,746,0
7866839,363.24,994,739,0
7866849,355.84,994,746,0
7866859,346.85,994,739,0
7866869,337.72,994,745,0
7866880,327.56,994,739,0
7866889,318.35,994,746,0
7866899,309.63,994,739,0
7866909,303.27,994,745,0
7866919,298.09,994,739,0
7866929,295.96,994,746,0
7866939,295.55,994,739,0
7866949,297.74,994,745,0
7866959,300.77,994,739,0
7866969,305.30,994,746,0
7866979,309.67,994,739,0
7866989,314.35,994,745,0
7866999,317.89,994,739,0
7867009,321.61,994,745,0
7867019,324.25,994,739,0
7867029,327.18,994,745,0
7867039,329.74,994,739,0
7867049,332.69,994,745,0
7867059,334.97,994,739,0
7867069,337.81,994,745,0
7867079,339.49,994,739,0
7867089,341.87,994,745,0
7867099,343.37,994,739,0
7867109,344.50,994,746,0
7867119,344.09,994,740,0
7867129,343.47,994,745,0
7867139,341.48,994,739,0
7867149,339.45,994,746,0
7867159,335.72,994,739,0
7867169,331.60,994,745,0
7867180,326.49,994,740,0
7867190,321.67,994,744,0
7867200,316.46,994,740,0
7867210,311.91,994,744,0
7867220,307.61,994,740,0
7867230,304.51,994,744,0
7867240,302.04,994,740,0
7867250,300.66,994,744,0
7867260,299.60,994,740,0
7867270,299.68,994,744,0
7867280,299.95,994,739,0
7867290,301.08,994,744,0
7867300,302.04,994,740,0
7867310,303.49,994,744,0
7867320,304.45,994,739,0
7867330,305.77,994,744,0
7867340,306.44,994,739,0
7867351,307.25,994,742,0
7867361,307.31,994,740,0
7867371,307.90,994,743,0
7867381,308.14,994,740,0
7867392,309.09,994,741,0
7867401,309.62,994,740,0
7867411,310.59,994,743,0
7867421,311.31,994,741,0
7867431,312.25,994,741,0
7867441,312.69,994,740,0
7867451,312.87,994,743,0
7867461,312.39,994,740,0
7867471,312.15,994,742,0
7867481,311.67,994,740,0
7867491,311.47,994,743,0
7867501,311.07,994,741,0
7867511,310.54,994,742,0
7867521,309.82,994,740,0
7867531,309.79,994,743,0
7867541,309.72,994,741,0
7867551,310.11,994,742,0
7867561,310.55,994,741,0
7867571,312.14,994,743,0
7867581,315.27,994,741,0
7867591,321.79,994,742,0
7867601,332.82,994,741,0
7867620,351.18,0,739,0
7867623,378.42,0,745,0
7867632,415.45,0,741,0
7867642,458.56,0,743,0
7867652,505.15,0,742,0
7867662,552.08,0,742,0
7867672,596.41,0,741,0
7867682,635.12,0,743,0
7867692,665.77,0,742,0
7867702,687.27,0,742,0
7867712,702.36,0,741,0
7867722,712.92,0,743,0
7867732,720.32,0,740,0
7867742,725.54,0,742,0
7867752,729.19,0,741,0
7867762,731.75,0,743,0
7867772,733.54,0,740,0
7867782,734.79,0,741,0
7867792,735.67,0,741,0
7867802,736.28,0,743,0
7867812,736.71,0,741,0
7867822,737.01,0,741,0
7867832,737.18,0,741,0
7867842,737.30,0,742,0
7867852,737.34,0,740,0
7867863,737.41,0,744,0
7867873,737.46,0,740,0
7867883,737.45,0,745,0
7867893,735.43,0,740,0
7867904,728.66,0,746,0
7867913,715.56,0,740,0
7867923,695.38,0,745,0
7867933,668.01,0,739,0
7867943,634.45,0,746,0
7867953,595.48,0,740,0
7867963,554.20,0,744,0
7867973,514.41,0,739,0
7867983,478.80,0,746,0
7867993,448.77,0,740,0
7868003,425.01,0,744,0
7868013,407.40,0,740,0
7868023,394.85,0,746,0
7868033,386.24,0,740,0
7868043,380.72,0,744,0
7868053,376.78,0,739,0
7868063,373.93,0,745,0
7868073,371.12,0,739,0
7868083,367.66,0,743,0
7868093,363.52,0,739,0
7868103,359.20,0,746,0
7868113,353.74,0,739,0
7868123,347.82,0,743,0
7868133,341.62,0,740,0
7868143,336.50,0,746,0
7868153,331.94,0,740,0
7868163,327.20,0,743,0
7868173,322.21,0,740,0
7868183,317.99,0,746,0
7868193,314.39,0,739,0
7868204,311.58,0,746,0
7868214,308.57,0,739,0
7868224,306.30,0,747,0
7868234,305.61,0,739,0
7868244,306.63,0,747,0
7868254,308.80,0,739,0
7868264,312.67,0,747,0
7868274,316.80,0,739,0
7868284,322.13,0,747,0
7868294,327.02,0,739,0
7868304,332.07,0,747,0
7868314,336.12,0,739,0
7868324,340.11,0,747,0
7868334,342.52,0,739,0
7868344,344.72,0,747,0
7868354,345.36,0,739,0
7868364,346.03,0,747,0
7868375,345.68,0,739,0
7868385,345.34,0,747,0
7868395,343.91,0,739,0
7868405,342.52,0,747,0
7868416,340.40,0,739,0
7868425,338.56,0,748,0
7868435,335.82,0,739,0
7868445,333.35,0,747,0
7868455,330.20,0,739,0
7868465,327.61,0,747,0
7868475,324.60,0,739,0
7868485,322.49,0,747,0
7868495,319.86,0,739,0
7868505,318.27,0,747,0
7868515,316.65,0,739,0
7868525,316.24,0,748,0
7868535,315.70,0,739,0
7868545,316.26,0,747,0
7868555,316.70,0,739,0
7868565,318.29,0,747,0
7868575,319.36,0,739,0
7868585,321.22,0,748,0
7868595,322.83,0,739,0
7868605,325.06,0,747,0
7868615,326.72,0,739,0
7868625,328.69,0,748,0
7868635,329.85,0,739,0
7868645,332.17,0,748,0
7868655,333.83,0,739,0
7868665,335.34,0,748,0
7868675,336.01,0,739,0
7868685,337.16,0,748,0
7868695,336.94,0,739,0
7868705,336.96,0,748,0
7868716,335.26,0,739,0
7868726,338.22,0,752,0
7868736,344.84,0,743,0
7868746,352.48,0,749,0
7868756,357.69,0,738,0
7868766,365.20,0,747,0
7868776,376.54,0,738,0
7868795,396.82,1175,737,0
7868798,422.89,1175,741,0
7868808,453.56,1175,745,0
7868818,489.40,1175,739,0
7868828,531.36,1175,744,0
7868838,574.80,1175,739,0
7868848,616.39,1175,745,0
7868858,651.24,1175,738,0
7868868,676.75,1175,745,0
7868878,694.61,1175,739,0
7868888,707.16,1175,745,0
7868898,715.94,1175,739,0
7868908,722.13,1175,745,0
7868918,726.42,1175,739,0
7868929,729.46,1175,744,0
7868939,731.60,1175,739,0
7868949,733.13,1175,743,0
7868959,734.21,1175,739,0
7868969,735.00,1175,743,0
7868979,735.52,1175,739,0
7868989,735.92,1175,743,0
7868999,736.20,1175,739,0
7869009,736.35,1175,742,0
7869019,734.58,1175,739,0
7869029,727.80,1175,743,0
7869039,713.33,1175,739,0
7869049,691.76,1175,743,0
7869059,663.03,1175,739,0
7869069,628.22,1175,744,0
7869079,587.57,1175,740,0
7869089,544.54,1175,743,0
7869100,502.85,1175,740,0
7869110,466.85,1175,743,0
7869120,436.60,1175,740,0
7869130,413.36,1175,742,0
7869140,396.41,1175,741,0
7869150,386.26,1175,743,0
7869160,381.08,1175,740,0
7869170,380.89,1175,742,0
7869180,383.49,1175,740,0
7869190,387.89,1175,743,0
7869200,391.99,1175,740,0
7869210,395.51,1175,742,0
7869220,397.20,1175,740,0
7869230,397.44,1175,743,0
7869240,395.21,1175,741,0
7869250,390.95,1175,743,0
7869260,384.66,1175,741,0
7869271,377.18,1175,742,0
7869281,368.17,1175,742,0
7869291,358.35,1175,741,0
7869301,347.96,1175,744,0
7869312,337.21,1175,741,0
7869321,326.43,1175,742,0
7869331,316.49,1175,741,0
7869341,307.51,1175,743,0
7869351,300.50,1175,741,0
7869361,294.95,1175,742,0
7869371,290.81,1175,741,0
7869381,288.68,1175,743,0
7869391,288.52,1175,741,0
7869401,289.95,1175,742,0
7869411,292.49,1175,741,0
7869421,295.65,1175,742,0
7869431,299.52,1175,741,0
7869441,303.69,1175,742,0
7869451,307.90,1175,741,0
7869461,311.87,1175,742,0
7869471,315.55,1175,741,0
7869481,319.29,1175,744,0
7869491,322.50,1175,741,0
7869501,325.27,1175,742,0
7869511,327.63,1175,740,0
7869521,329.24,1175,744,0
7869531,330.24,1175,741,0
7869541,330.42,1175,742,0
7869551,329.87,1175,741,0
7869561,329.35,1175,744,0
7869571,329.07,1175,742,0
7869581,328.79,1175,743,0
7869591,328.08,1175,741,0
7869601,326.86,1175,744,0
7869612,325.19,1175,740,0
7869622,323.16,1175,745,0
7869632,320.20,1175,740,0
7869642,316.71,1175,746,0
7869652,312.64,1175,740,0
7869662,309.23,1175,745,0
7869672,306.08,1175,740,0
7869682,303.61,1175,746,0
7869692,301.41,1175,739,0
7869702,299.92,1175,744,0
7869712,298.49,1175,740,0
7869722,297.87,1175,746,0
7869732,297.18,1175,739,0
7869742,297.08,1175,744,0
7869752,297.23,1175,740,0
7869762,298.02,1175,746,0
7869772,298.96,1175,739,0
7869783,300.47,1175,747,0
7869793,301.66,1175,739,0
7869803,303.22,1175,747,0
7869813,304.39,1175,739,0
7869824,305.73,1175,747,0
7869833,306.63,1175,739,0
7869843,307.85,1175,748,0
7869853,308.88,1175,739,0
7869863,310.68,1175,748,0
7869873,311.93,1175,740,0
7869883,313.75,1175,748,0
7869893,315.03,1175,740,0
7869903,317.03,1175,748,0
7869913,318.91,1175,740,0
7869923,322.11,1175,748,0
7869933,326.70,1175,740,0
7869943,335.88,1175,748,0
7869953,350.31,1175,740,0
7869963,373.71,1175,748,0
7869982,407.22,1187,746,0
7869985,448.13,1187,749,0
7869996,492.92,1187,740,0
7870006,539.44,1187,748,0
7870016,584.18,1187,740,0
7870026,625.10,1187,747,0
7870036,658.54,1187,740,0
7870046,682.16,1187,748,0
7870056,698.70,1187,740,0
7870066,710.32,1187,747,0
7870076,718.41,1187,740,0
7870086,724.11,1187,748,0
7870096,728.15,1187,740,0
7870106,731.02,1187,747,0
7870116,733.03,1187,740,0
7870126,734.48,1187,748,0
7870136,735.49,1187,740,0
7870146,736.24,1187,748,0
7870156,736.77,1187,740,0
7870167,737.14,1187,747,0
7870177,737.35,1187,740,0
7870187,737.51,1187,747,0
7870197,737.61,1187,740,0
7870208,737.68,1187,746,0
7870217,737.74,1187,740,0
7870227,734.94,1187,747,0
7870237,725.88,1187,740,0
7870247,709.97,1187,746,0
7870257,686.28,1187,740,0
7870267,655.94,1187,747,0
7870277,619.01,1187,740,0
7870287,577.22,1187,746,0
7870297,533.83,1187,740,0
7870307,494.02,1187,747,0
7870317,458.87,1187,740,0
7870327,430.97,1187,746,0
7870337,409.03,1187,740,0
7870347,394.15,1187,747,0
7870357,384.08,1187,740,0
7870367,379.25,1187,747,0
7870377,377.38,1187,741,0
7870387,378.55,1187,747,0
7870397,379.63,1187,740,0
7870407,381.20,1187,747,0
7870417,381.01,1187,741,0
7870427,380.02,1187,747,0
7870437,376.50,1187,740,0
7870447,371.64,1187,747,0
7870457,364.07,1187,741,0
7870467,356.38,1187,748,0
7870477,347.35,1187,740,0
7870487,338.46,1187,747,0
7870497,328.98,1187,741,0
7870508,320.37,1187,746,0
7870518,311.95,1187,740,0
7870528,304.93,1187,746,0
7870538,298.01,1187,741,0
7870548,292.52,1187,745,0
7870558,288.12,1187,740,0
7870568,285.43,1187,745,0
7870578,283.80,1187,741,0
7870588,283.56,1187,744,0
7870598,284.25,1187,740,0
7870608,286.27,1187,745,0
7870618,288.59,1187,741,0
7870628,291.80,1187,745,0
7870638,294.99,1187,740,0
7870648,298.76,1187,746,0
7870658,302.26,1187,741,0
7870668,306.21,1187,745,0
7870679,309.62,1187,741,0
7870689,313.29,1187,744,0
7870699,316.03,1187,742,0
7870709,318.72,1187,743,0
7870720,320.48,1187,741,0
7870729,322.35,1187,744,0
7870739,322.97,1187,741,0
7870749,323.50,1187,743,0
7870759,323.18,1187,741,0
7870769,322.69,1187,744,0
7870779,321.71,1187,742,0
7870789,320.34,1187,743,0
7870799,318.01,1187,741,0
7870809,315.61,1187,744,0
7870819,312.64,1187,741,0
7870829,309.75,1187,743,0
7870839,306.78,1187,741,0
7870849,304.02,1187,744,0
7870859,301.48,1187,742,0
7870869,299.54,1187,744,0
7870879,297.79,1187,741,0
7870889,296.57,1187,743,0
7870899,295.45,1187,741,0
7870909,294.89,1187,744,0
7870919,294.32,1187,741,0
7870929,294.27,1187,743,0
7870939,294.23,1187,741,0
7870949,294.50,1187,744,0
7870959,294.78,1187,741,0
7870969,295.32,1187,743,0
7870979,295.99,1187,741,0
7870989,296.94,1187,744,0
7870999,297.99,1187,742,0
7871009,299.28,1187,743,0
7871020,300.65,1187,743,0
7871030,301.96,1187,742,0
7871040,303.13,1187,743,0
7871050,303.86,1187,741,0
7871060,304.46,1187,745,0
7871070,304.88,1187,742,0
7871080,305.13,1187,743,0
7871090,305.43,1187,741,0
7871100,306.93,1187,745,0
7871110,310.47,1187,742,0
7871120,317.57,1187,743,0
7871130,329.74,1187,741,0
7871140,349.02,1187,744,0
7871159,377.56,1177,741,0
7871162,415.75,1177,749,0
7871172,459.79,1177,740,0
7871182,506.74,1177,748,0
7871192,553.62,1177,740,0
7871202,597.79,1177,747,0
7871212,636.38,1177,740,0
7871222,666.87,1177,749,0
7871233,688.25,1177,740,0
7871243,703.22,1177,748,0
7871253,713.70,1177,740,0
7871263,721.03,1177,749,0
7871273,726.21,1177,741,0
7871283,729.87,1177,749,0
7871293,732.40,1177,741,0
7871303,734.21,1177,749,0
7871313,735.47,1177,741,0
7871323,736.40,1177,748,0
7871333,737.05,1177,740,0
7871343,737.51,1177,749,0
7871353,737.78,1177,740,0
7871363,737.98,1177,749,0
7871373,735.11,1177,740,0
7871383,726.81,1177,749,0
7871393,710.79,1177,740,0
7871404,686.98,1177,749,0
7871414,655.15,1177,740,0
7871424,616.66,1177,749,0
7871434,572.02,1177,740,0
7871444,526.24,1177,748,0
7871454,482.58,1177,740,0
7871464,444.99,1177,749,0
7871474,414.18,1177,740,0
7871484,391.97,1177,748,0
7871494,377.32,1177,740,0
7871504,370.67,1177,749,0
7871514,369.31,1177,740,0
7871524,373.55,1177,749,0
7871534,380.33,1177,739,0
7871544,389.44,1177,749,0
7871554,398.10,1177,740,0
7871564,406.34,1177,748,0
7871575,411.94,1177,739,0
7871585,415.94,1177,748,0
7871595,416.00,1177,740,0
7871605,413.86,1177,748,0
7871616,408.20,1177,740,0
7871625,400.98,1177,749,0
7871635,391.05,1177,740,0
7871645,380.75,1177,748,0
7871655,368.52,1177,740,0
7871665,356.71,1177,748,0
7871675,344.20,1177,740,0
7871685,332.91,1177,748,0
7871695,321.71,1177,739,0
7871705,312.37,1177,749,0
7871715,303.60,1177,740,0
7871725,297.42,1177,748,0
7871735,292.28,1177,739,0
7871745,289.97,1177,749,0
7871755,288.52,1177,740,0
7871765,289.44,1177,748,0
7871775,290.76,1177,739,0
7871785,293.66,1177,747,0
7871795,296.59,1177,740,0
7871805,301.09,1177,748,0
7871815,304.83,1177,739,0
7871825,309.55,1177,748,0
7871835,313.63,1177,740,0
7871845,318.33,1177,748,0
7871855,321.96,1177,739,0
7871865,325.87,1177,748,0
7871875,328.48,1177,740,0
7871885,331.64,1177,748,0
7871895,333.72,1177,739,0
7871905,335.64,1177,748,0
7871916,336.27,1177,740,0
7871926,337.21,1177,747,0
7871936,336.98,1177,739,0
7871946,336.60,1177,746,0
7871956,334.88,1177,740,0
7871966,333.41,1177,747,0
7871976,330.98,1177,740,0
7871986,329.40,1177,747,0
7871996,326.84,1177,740,0
7872006,325.13,1177,747,0
7872016,322.82,1177,739,0
7872026,321.46,1177,747,0
7872036,319.52,1177,740,0
7872046,318.51,1177,747,0
7872056,316.86,1177,739,0
7872066,316.08,1177,747,0
7872076,314.90,1177,740,0
7872087,314.50,1177,746,0
7872097,313.62,1177,740,0
7872107,313.26,1177,745,0
7872117,312.54,1177,740,0
7872128,312.17,1177,744,0
7872137,311.39,1177,740,0
7872147,310.97,1177,745,0
7872157,310.85,1177,741,0
7872167,311.92,1177,744,0
7872177,314.56,1177,740,0
7872187,320.78,1177,745,0
7872197,331.73,1177,740,0
7872207,350.07,1177,744,0
7872217,376.41,1177,740,0
7872236,412.67,1077,739,0
7872239,455.20,1077,744,0
7872249,501.30,1077,741,0
7872259,547.58,1077,741,0
7872269,591.72,1077,742,0
7872279,630.50,1077,742,0
7872289,662.32,1077,741,0
7872300,684.68,1077,743,0
7872310,700.38,1077,740,0
7872320,711.37,1077,744,0
7872330,719.06,1077,740,0
7872340,724.44,1077,746,0
7872350,728.21,1077,740,0
7872360,730.84,1077,745,0
7872370,732.69,1077,740,0
7872380,733.98,1077,746,0
7872390,734.89,1077,740,0
7872400,735.57,1077,745,0
7872410,734.28,1077,740,0
7872420,727.85,1077,746,0
7872430,714.40,1077,740,0
7872440,692.81,1077,744,0
7872450,662.91,1077,740,0
7872460,625.56,1077,746,0
7872471,581.42,1077,740,0
7872481,533.81,1077,747,0
7872491,486.94,1077,740,0
7872501,444.61,1077,747,0
7872512,408.90,1077,739,0
7872521,381.59,1077,747,0
7872531,362.64,1077,740,0
7872541,352.72,1077,747,0
7872551,350.19,1077,739,0
7872561,354.72,1077,747,0
7872571,364.15,1077,740,0
7872581,377.77,1077,747,0
7872591,393.06,1077,740,0
7872601,408.98,1077,747,0
7872611,423.39,1077,740,0
7872621,436.09,1077,748,0
7872631,445.57,1077,740,0
7872641,452.00,1077,747,0
7872651,453.97,1077,740,0
7872661,452.40,1077,748,0
7872671,446.62,1077,740,0
7872681,437.86,1077,748,0
7872691,425.99,1077,740,0
7872701,412.45,1077,748,0
7872711,396.80,1077,740,0
7872721,381.00,1077,748,0
7872731,364.85,1077,741,0
7872741,350.02,1077,748,0
7872751,336.04,1077,740,0
7872761,324.50,1077,749,0
7872771,315.14,1077,741,0
7872781,309.35,1077,749,0
7872791,305.86,1077,741,0
7872801,308.43,1077,753,0
7872812,314.56,1077,744,0
7872822,323.05,1077,753,0
7872832,331.48,1077,744,0
7872842,339.39,1077,753,0
7872852,345.10,1077,744,0
7872862,349.70,1077,753,0
7872872,348.98,1077,743,0
7872882,345.55,1077,753,0
7872892,340.16,1077,744,0
7872902,334.24,1077,751,0
7872912,326.24,1077,741,0
7872922,318.20,1077,751,0
7872932,308.84,1077,741,0
7872942,300.61,1077,749,0
7872952,289.89,1077,737,0
7872962,279.08,1077,746,0
7872972,269.41,1077,737,0
7872983,264.57,1077,746,0
7872993,263.46,1077,737,0
7873003,267.86,1077,747,0
7873013,275.02,1077,737,0
7873024,287.61,1077,746,0
7873033,302.56,1077,737,0
7873043,318.72,1077,746,0
7873053,333.07,1077,737,0
7873063,346.00,1077,746,0
7873073,355.38,1077,737,0
7873083,362.47,1077,747,0
7873093,365.80,1077,737,0
7873103,367.36,1077,747,0
7873113,365.97,1077,737,0
7873123,363.66,1077,747,0
7873133,359.18,1077,738,0
7873143,354.11,1077,747,0
7873153,347.52,1077,738,0
7873163,342.35,1077,748,0
7873173,338.04,1077,739,0
7873183,337.35,1077,748,0
7873193,338.87,1077,738,0
7873203,345.25,1077,748,0
7873213,356.88,1077,739,0
7873223,377.36,1077,748,0
7873233,406.48,1077,738,0
7873243,443.96,1077,748,0
7873253,485.37,1077,740,0
7873263,529.23,1077,748,0
7873273,572.41,1077,739,0
7873283,613.04,1077,748,0
7873293,647.61,1077,739,0
7873303,674.39,1077,747,0
7873323,693.09,1086,752,0
7873326,706.43,1086,754,0
7873335,716.03,1086,746,0
7873345,723.05,1086,752,0
7873355,728.18,1086,745,0
7873366,731.77,1086,745,0
7873375,734.28,1086,739,0
7873385,736.08,1086,745,0
7873395,737.00,1086,739,0
7873405,737.39,1086,745,0
7873415,737.36,1086,739,0
7873425,733.86,1086,746,0
7873435,723.88,1086,738,0
7873445,706.81,1086,745,0
7873455,681.50,1086,738,0
7873465,648.86,1086,745,0
7873475,608.92,1086,738,0
7873485,563.56,1086,745,0
7873495,516.76,1086,739,0
7873505,473.63,1086,746,0
7873515,435.39,1086,739,0
7873525,405.06,1086,745,0
7873536,382.07,1086,739,0
7873545,367.90,1086,746,0
7873555,360.52,1086,739,0
7873565,360.28,1086,745,0
7873575,364.87,1086,739,0
7873585,374.29,1086,745,0
7873595,385.65,1086,738,0
7873605,399.00,1086,745,0
7873615,411.64,1086,739,0
7873625,423.83,1086,746,0
7873635,433.31,1086,739,0
7873645,440.59,1086,745,0
7873655,444.01,1086,739,0
7873665,444.87,1086,746,0
7873675,441.86,1086,739,0
7873685,436.03,1086,746,0
7873695,426.77,1086,739,0
7873705,415.39,1086,745,0
7873715,401.52,1086,739,0
7873725,386.75,1086,746,0
7873735,370.54,1086,739,0
7873745,354.65,1086,745,0
7873755,338.55,1086,739,0
7873765,324.07,1086,745,0
7873775,310.85,1086,739,0
7873785,300.27,1086,744,0
7873795,291.44,1086,738,0
7873805,285.70,1086,745,0
7873815,281.72,1086,738,0
7873825,280.94,1086,744,0
7873836,282.25,1086,739,0
7873846,286.37,1086,744,0
7873856,291.88,1086,740,0
7873866,298.98,1086,744,0
7873876,305.97,1086,740,0
7873886,313.10,1086,744,0
7873896,318.85,1086,739,0
7873906,323.65,1086,743,0
7873916,326.63,1086,739,0
7873926,328.75,1086,744,0
7873936,329.51,1086,739,0
7873946,330.22,1086,743,0
7873956,330.71,1086,739,0
7873966,331.95,1086,743,0
7873976,332.87,1086,739,0
7873986,334.11,1086,743,0
7873996,334.59,1086,739,0
7874007,335.27,1086,742,0
7874017,335.10,1086,740,0
7874027,335.37,1086,743,0
7874037,335.35,1086,740,0
7874048,335.37,1086,741,0
7874057,334.62,1086,740,0
7874067,333.96,1086,743,0
7874077,332.60,1086,740,0
7874087,331.22,1086,741,0
7874097,328.71,1086,740,0
7874107,325.76,1086,743,0
7874117,322.53,1086,740,0
7874127,319.63,1086,741,0
7874137,316.57,1086,740,0
7874147,313.65,1086,742,0
7874157,310.84,1086,740,0
7874167,308.66,1086,741,0
7874177,307.01,1086,740,0
7874187,306.15,1086,742,0
7874197,305.76,1086,740,0
7874207,306.05,1086,741,0
7874217,307.02,1086,740,0
7874227,308.64,1086,742,0
7874237,310.21,1086,739,0
7874247,311.86,1086,741,0
7874257,313.66,1086,740,0
7874267,316.42,1086,742,0
7874277,321.14,1086,739,0
7874287,329.37,1086,741,0
7874297,342.97,1086,740,0
7874307,364.54,1086,742,0
7874326,396.39,1004,740,0
7874329,436.09,1004,740,0
7874339,480.50,1004,745,0
7874349,526.85,1004,739,0
7874359,572.41,1004,743,0
7874369,614.25,1004,738,0
7874379,649.61,1004,745,0
7874390,675.44,1004,738,0
7874399,693.57,1004,743,0
7874409,706.21,1004,738,0
7874419,715.06,1004,744,0
7874429,721.26,1004,738,0
7874439,725.64,1004,743,0
7874449,728.66,1004,738,0
7874459,730.78,1004,745,0
7874469,732.26,1004,739,0
7874479,733.38,1004,743,0
7874489,734.17,1004,739,0
7874499,734.76,1004,745,0
7874509,735.17,1004,739,0
7874519,735.55,1004,743,0
7874529,735.81,1004,739,0
7874539,736.04,1004,745,0
7874549,736.20,1004,739,0
7874560,735.41,1004,746,0
7874569,730.27,1004,739,0
7874579,718.75,1004,745,0
7874589,698.90,1004,738,0
7874599,671.41,1004,745,0
7874609,636.87,1004,739,0
7874619,596.54,1004,744,0
7874629,552.62,1004,739,0
7874639,510.05,1004,745,0
7874649,471.76,1004,739,0
7874659,440.76,1004,744,0
7874669,417.01,1004,738,0
7874679,400.76,1004,745,0
7874689,390.89,1004,739,0
7874699,386.55,1004,743,0
7874709,385.96,1004,739,0
7874719,388.33,1004,745,0
7874729,391.83,1004,738,0
7874739,395.82,1004,743,0
7874749,398.83,1004,738,0
7874759,400.68,1004,745,0
7874769,400.44,1004,738,0
7874779,398.33,1004,743,0
7874789,393.78,1004,738,0
7874799,387.76,1004,745,0
7874809,379.77,1004,738,0
7874819,370.80,1004,743,0
7874829,360.66,1004,738,0
7874839,350.35,1004,745,0
7874849,339.79,1004,738,0
7874860,330.08,1004,746,0
7874870,320.63,1004,738,0
7874880,312.85,1004,746,0
7874890,305.91,1004,738,0
7874900,300.84,1004,746,0
7874910,296.82,1004,738,0
7874920,294.51,1004,746,0
7874930,292.99,1004,738,0
7874940,293.29,1004,746,0
7874950,294.06,1004,738,0
7874960,296.31,1004,746,0
7874970,298.71,1004,738,0
7874980,302.22,1004,746,0
7874990,305.63,1004,738,0
7875000,310.24,1004,746,0
7875010,314.88,1004,738,0
7875020,320.62,1004,747,0
7875031,325.75,1004,738,0
7875041,331.18,1004,747,0
7875051,335.33,1004,738,0
7875061,339.34,1004,747,0
7875072,341.43,1004,738,0
7875081,342.80,1004,747,0
7875091,342.09,1004,738,0
7875101,341.08,1004,747,0
7875111,338.65,1004,738,0
7875121,336.57,1004,747,0
7875131,333.66,1004,738,0
7875141,331.40,1004,747,0
7875151,328.37,1004,738,0
7875161,326.24,1004,747,0
7875171,323.68,1004,738,0
7875181,322.11,1004,747,0
7875191,320.02,1004,738,0
7875201,318.81,1004,747,0
7875211,317.11,1004,738,0
7875221,316.44,1004,747,0
7875231,315.36,1004,739,0
7875241,315.12,1004,748,0
7875251,314.36,1004,739,0
7875261,314.51,1004,748,0
7875271,313.80,1004,738,0
7875281,313.82,1004,748,0
7875291,313.06,1004,739,0
7875301,312.70,1004,748,0
7875311,311.76,1004,738,0
7875321,311.57,1004,748,0
7875331,310.76,1004,738,0
7875341,310.96,1004,747,0
7875351,310.71,1004,738,0
7875361,311.87,1004,748,0
7875372,312.64,1004,738,0
7875382,317.33,1004,751,0
7875392,323.40,1004,741,0
7875402,329.97,1004,750,0
7875412,333.24,1004,739,0
7875422,336.55,1004,748,0
7875432,340.63,1004,738,0
7875442,350.47,1004,747,0
7875452,364.08,1004,738,0
7875462,386.69,1004,747,0
7875481,418.58,1155,746,0
7875484,460.11,1155,744,0
7875494,506.53,1155,739,0
7875504,554.54,1155,744,0
7875514,599.30,1155,739,0
7875524,638.21,1155,744,0
7875534,667.50,1155,738,0
7875544,688.05,1155,745,0
7875554,702.39,1155,738,0
7875564,712.43,1155,744,0
7875574,719.46,1155,738,0
7875585,724.38,1155,743,0
7875595,727.82,1155,739,0
7875605,730.23,1155,743,0
7875615,731.92,1155,739,0
7875625,733.14,1155,742,0
7875635,733.96,1155,738,0
7875645,734.53,1155,743,0
7875655,734.93,1155,739,0
7875665,735.16,1155,741,0
7875675,735.33,1155,738,0
7875685,735.44,1155,743,0
7875695,734.54,1155,739,0
7875705,729.83,1155,742,0
7875715,718.78,1155,738,0
7875725,701.06,1155,743,0
7875735,675.33,1155,739,0
7875745,642.96,1155,742,0
7875756,604.23,1155,739,0
7875766,561.60,1155,741,0
7875776,518.91,1155,739,0
7875786,480.32,1155,741,0
7875796,446.97,1155,740,0
7875806,421.31,1155,741,0
7875816,402.57,1155,739,0
7875826,391.17,1155,741,0
7875836,385.42,1155,739,0
7875846,384.69,1155,741,0
7875856,386.97,1155,739,0
7875866,391.35,1155,740,0
7875876,396.30,1155,739,0
7875886,401.01,1155,740,0
7875896,405.17,1155,739,0
7875906,407.30,1155,741,0
7875916,406.65,1155,739,0
7875927,403.59,1155,739,0
7875937,398.10,1155,740,0
7875947,390.61,1155,739,0
7875957,381.38,1155,741,0
7875968,370.04,1155,738,0
7875977,358.41,1155,740,0
7875987,347.40,1155,739,0
7875997,337.04,1155,741,0
7876007,327.51,1155,739,0
7876017,319.26,1155,740,0
7876027,312.67,1155,739,0
7876037,307.45,1155,741,0
7876047,303.89,1155,739,0
7876057,301.44,1155,740,0
7876067,300.79,1155,739,0
7876077,301.20,1155,741,0
7876087,302.47,1155,739,0
7876097,303.91,1155,740,0
7876107,306.00,1155,739,0
7876117,308.48,1155,741,0
7876127,311.38,1155,739,0
7876137,314.01,1155,743,0
7876147,316.79,1155,739,0
7876157,319.55,1155,740,0
7876167,323.76,1155,739,0
7876177,327.60,1155,743,0
7876187,330.68,1155,739,0
7876197,333.18,1155,741,0
7876207,335.09,1155,738,0
7876217,336.74,1155,742,0
7876227,337.93,1155,739,0
7876237,337.48,1155,740,0
7876247,336.95,1155,738,0
7876257,336.67,1155,742,0
7876268,336.47,1155,738,0
7876278,336.54,1155,743,0
7876288,336.38,1155,738,0
7876298,336.39,1155,745,0
7876308,335.93,1155,738,0
7876318,335.44,1155,743,0
7876328,334.28,1155,738,0
7876338,332.99,1155,745,0
7876348,331.02,1155,738,0
7876358,329.22,1155,744,0
7876368,326.92,1155,738,0
7876378,324.98,1155,745,0
7876388,322.54,1155,738,0
7876398,320.58,1155,744,0
7876408,318.18,1155,738,0
7876418,316.19,1155,746,0
7876428,314.04,1155,738,0
7876439,312.48,1155,746,0
7876449,310.84,1155,738,0
7876459,310.41,1155,747,0
7876469,310.16,1155,738,0
7876480,310.93,1155,746,0
7876489,311.51,1155,738,0
7876499,312.55,1155,747,0
7876509,313.12,1155,738,0
7876519,314.24,1155,746,0
7876529,314.90,1155,738,0
7876539,316.86,1155,747,0
7876549,319.81,1155,738,0
7876559,326.64,1155,746,0
7876569,337.51,1155,738,0
7876579,355.70,1155,746,0
7876589,382.57,1155,738,0
7876609,419.22,1127,736,0
7876612,461.49,1127,739,0
7876622,507.20,1127,746,0
7876632,552.61,1127,739,0
7876642,596.10,1127,744,0
7876652,634.21,1127,738,0
7876662,664.54,1127,745,0
7876672,685.76,1127,738,0
7876682,700.62,1127,744,0
7876692,710.98,1127,738,0
7876702,718.27,1127,746,0
7876712,723.37,1127,738,0
7876722,726.95,1127,745,0
7876732,729.41,1127,738,0
7876742,731.17,1127,746,0
7876752,732.40,1127,738,0
7876762,733.27,1127,745,0
7876772,733.87,1127,739,0
7876782,734.34,1127,747,0
7876792,734.71,1127,738,0
7876802,735.01,1127,745,0
7876812,731.02,1127,738,0
7876823,721.76,1127,746,0
7876833,704.90,1127,739,0
7876843,680.72,1127,746,0
7876853,651.06,1127,741,0
7876864,617.57,1127,747,0
7876873,579.56,1127,742,0
7876883,542.40,1127,747,0
7876893,506.80,1127,741,0
7876903,476.51,1127,747,0
7876913,451.42,1127,741,0
7876923,429.86,1127,746,0
7876933,410.15,1127,739,0
7876943,394.29,1127,747,0
7876953,381.73,1127,739,0
7876963,374.83,1127,746,0
7876973,371.92,1127,739,0
7876983,373.14,1127,745,0
7876993,377.86,1127,739,0
7877003,386.47,1127,746,0
7877013,396.06,1127,739,0
7877023,405.77,1127,745,0
7877033,412.48,1127,740,0
7877043,416.62,1127,746,0
7877053,416.48,1127,739,0
7877063,412.91,1127,745,0
7877073,405.13,1127,740,0
7877083,395.75,1127,746,0
7877093,384.55,1127,740,0
7877103,373.29,1127,746,0
7877113,361.12,1127,740,0
7877123,350.07,1127,746,0
7877133,339.08,1127,739,0
7877143,329.28,1127,745,0
7877153,319.43,1127,739,0
7877164,310.81,1127,744,0
7877174,302.73,1127,739,0
7877184,296.68,1127,743,0
7877194,292.02,1127,739,0
7877204,290.04,1127,742,0
7877214,290.29,1127,739,0
7877224,293.59,1127,744,0
7877234,298.42,1127,740,0
7877244,305.24,1127,743,0
7877254,313.01,1127,740,0
7877264,321.54,1127,744,0
7877274,329.18,1127,740,0
7877284,335.51,1127,743,0
7877294,339.56,1127,739,0
7877304,342.52,1127,744,0
7877314,343.61,1127,739,0
7877324,343.68,1127,745,0
7877335,343.35,1127,740,0
7877345,343.54,1127,744,0
7877355,343.94,1127,741,0
7877365,344.68,1127,742,0
7877376,344.82,1127,740,0
7877385,344.92,1127,743,0
7877395,344.17,1127,740,0
7877405,342.49,1127,742,0
7877415,339.60,1127,740,0
7877425,336.64,1127,743,0
7877435,333.74,1127,740,0
7877445,331.16,1127,743,0
7877455,329.74,1127,741,0
7877465,329.18,1127,743,0
7877475,328.65,1127,740,0
7877485,328.80,1127,742,0
7877495,328.73,1127,740,0
7877505,328.68,1127,743,0
7877515,328.91,1127,741,0
7877525,329.11,1127,743,0
7877535,329.16,1127,741,0
7877545,329.50,1127,742,0
7877555,329.86,1127,742,0
7877565,330.63,1127,744,0
7877575,331.99,1127,741,0
7877585,334.82,1127,742,0
7877595,339.46,1127,741,0
7877605,348.36,1127,743,0
7877615,363.25,1127,741,0
7877635,386.32,1026,740,0
7877638,419.40,1026,749,0
7877648,459.39,1026,740,0
7877658,503.16,1026,747,0
7877668,548.11,1026,740,0
7877678,591.24,1026,747,0
7877688,630.12,1026,740,0
7877698,662.06,1026,747,0
7877708,684.67,1026,740,0
7877719,700.54,1026,748,0
7877729,711.61,1026,740,0
7877739,719.35,1026,747,0
7877749,724.73,1026,740,0
7877760,728.54,1026,748,0
7877769,731.16,1026,740,0
7877779,733.00,1026,747,0
7877789,734.24,1026,739,0
7877799,732.84,1026,748,0
7877809,725.99,1026,740,0
7877819,712.36,1026,747,0
7877829,690.27,1026,739,0
7877839,660.96,1026,749,0
7877849,624.16,1026,740,0
7877859,580.91,1026,748,0
7877869,533.84,1026,740,0
7877879,488.20,1026,749,0
7877889,446.10,1026,740,0
7877899,410.93,1026,749,0
7877909,381.93,1026,740,0
7877919,361.04,1026,749,0
7877929,347.27,1026,740,0
7877939,341.53,1026,748,0
7877949,341.50,1026,740,0
7877959,347.39,1026,749,0
7877969,356.70,1026,739,0
7877979,369.52,1026,748,0
7877989,383.21,1026,739,0
7877999,398.23,1026,748,0
7878009,411.96,1026,739,0
7878019,424.53,1026,747,0
7878029,434.40,1026,739,0
7878039,442.47,1026,748,0
7878049,446.70,1026,739,0
7878060,448.20,1026,748,0
7878070,445.23,1026,739,0
7878080,439.67,1026,748,0
7878090,430.34,1026,739,0
7878100,418.88,1026,748,0
7878110,404.52,1026,739,0
7878120,389.58,1026,748,0
7878130,373.55,1026,739,0
7878140,358.77,1026,748,0
7878150,344.57,1026,739,0
7878160,333.43,1026,749,0
7878170,323.83,1026,739,0
7878180,317.24,1026,748,0
7878190,312.41,1026,739,0
7878200,310.57,1026,749,0
7878210,309.54,1026,739,0
7878220,310.41,1026,748,0
7878231,311.27,1026,739,0
7878241,313.25,1026,750,0
7878251,314.89,1026,739,0
7878261,317.62,1026,748,0
7878272,319.92,1026,739,0
7878281,323.67,1026,748,0
7878291,327.11,1026,739,0
7878301,331.54,1026,747,0
7878311,335.66,1026,740,0
7878321,340.82,1026,748,0
7878331,345.07,1026,739,0
7878341,350.15,1026,748,0
7878351,354.52,1026,740,0
7878361,359.25,1026,748,0
7878371,362.30,1026,740,0
7878381,364.83,1026,748,0
7878391,365.26,1026,740,0
7878401,365.40,1026,748,0
7878411,363.48,1026,740,0
7878421,361.19,1026,748,0
7878431,357.58,1026,740,0
7878441,354.53,1026,748,0
7878451,351.07,1026,740,0
7878461,349.04,1026,749,0
7878471,346.84,1026,740,0
7878481,346.07,1026,748,0
7878491,345.45,1026,740,0
7878501,347.42,1026,749,0
7878511,351.79,1026,740,0
7878521,361.37,1026,748,0
7878531,376.21,1026,740,0
7878541,399.98,1026,748,0
7878551,432.99,1026,740,0
7878561,472.72,1026,748,0
7878581,515.40,947,746,0
7878584,559.08,947,746,0
7878593,600.46,947,741,0
7878603,637.82,947,745,0
7878614,667.79,947,741,0
7878623,688.85,947,746,0
7878633,703.60,947,741,0
7878643,713.92,947,745,0
7878653,721.14,947,741,0
7878663,726.20,947,746,0
7878673,729.74,947,741,0
7878683,732.22,947,745,0
7878693,733.95,947,741,0
7878703,735.17,947,746,0
7878713,736.02,947,740,0
7878723,735.37,947,745,0
7878733,729.17,947,741,0
7878743,716.52,947,746,0
7878753,695.49,947,740,0
7878763,666.12,947,747,0
7878773,628.50,947,741,0
7878784,583.99,947,744,0
7878793,535.14,947,740,0
7878803,487.48,947,745,0
7878813,443.11,947,741,0
7878823,405.58,947,744,0
7878833,375.96,947,740,0
7878843,355.70,947,745,0
7878853,343.49,947,740,0
7878863,339.14,947,744,0
7878873,341.07,947,740,0
7878883,349.54,947,745,0
7878893,362.06,947,741,0
7878903,377.60,947,744,0
7878913,393.19,947,740,0
7878923,408.86,947,745,0
7878933,422.49,947,741,0
7878943,433.83,947,744,0
7878953,441.21,947,741,0
7878963,445.43,947,746,0
7878973,445.39,947,742,0
7878983,442.14,947,745,0
7878993,435.24,947,741,0
7879003,425.78,947,746,0
7879013,413.72,947,742,0
7879023,401.46,947,747,0
7879033,388.85,947,743,0
7879043,377.07,947,748,0
7879053,365.35,947,743,0
7879063,354.49,947,747,0
7879073,344.10,947,743,0
7879084,335.24,947,746,0
7879094,324.37,947,742,0
7879104,312.51,947,744,0
7879114,300.36,947,742,0
7879124,289.97,947,743,0
7879134,281.32,947,742,0
7879144,275.35,947,744,0
7879154,271.65,947,742,0
7879164,271.92,947,743,0
7879174,275.33,947,742,0
7879184,281.28,947,744,0
7879194,288.56,947,742,0
7879204,296.62,947,743,0
7879214,304.67,947,742,0
7879224,312.48,947,744,0
7879234,319.54,947,742,0
7879244,325.80,947,743,0
7879255,331.05,947,743,0
7879265,335.19,947,742,0
7879275,338.91,947,744,0
7879285,341.51,947,741,0
7879296,343.24,947,746,0
7879305,343.98,947,743,0
7879315,344.03,947,745,0
7879325,343.21,947,741,0
7879335,342.20,947,746,0
7879345,340.34,947,742,0
7879355,338.40,947,744,0
7879365,336.26,947,741,0
7879375,334.34,947,745,0
7879385,332.40,947,742,0
7879395,330.65,947,744,0
7879405,328.70,947,741,0
7879415,326.86,947,745,0
7879425,325.10,947,742,0
7879435,323.44,947,744,0
7879445,321.90,947,741,0
7879455,321.03,947,745,0
7879465,321.45,947,741,0
7879475,324.53,947,743,0
7879485,331.78,947,741,0
7879495,345.09,947,744,0
7879505,366.84,947,741,0
7879515,398.81,947,743,0
7879525,438.73,947,741,0
7879535,483.47,947,744,0
7879555,530.00,973,743,0
7879558,575.43,973,749,0
7879567,617.08,973,739,0
7879577,651.90,973,748,0
7879587,677.56,973,740,0
7879597,695.56,973,747,0
7879607,708.17,973,739,0
7879617,716.99,973,747,0
7879627,723.16,973,740,0
7879638,727.53,973,748,0
7879647,730.54,973,739,0
7879657,732.69,973,748,0
7879667,734.20,973,740,0
7879677,735.30,973,748,0
7879687,736.02,973,739,0
7879697,736.53,973,748,0
7879707,736.84,973,740,0
7879717,737.10,973,748,0
7879727,737.24,973,739,0
7879737,737.34,973,748,0
7879747,737.41,973,740,0
7879757,734.16,973,748,0
7879767,724.90,973,739,0
7879777,708.34,973,747,0
7879787,683.98,973,740,0
7879797,652.62,973,748,0
7879808,614.55,973,739,0
7879817,571.44,973,747,0
7879827,527.46,973,740,0
7879837,487.08,973,748,0
7879847,452.30,973,739,0
7879857,425.21,973,748,0
7879867,405.22,973,740,0
7879877,392.85,973,748,0
7879887,386.25,973,740,0
7879897,385.41,973,748,0
7879907,387.73,973,740,0
7879917,392.65,973,748,0
7879927,397.64,973,740,0
7879937,402.64,973,748,0
7879947,405.83,973,740,0
7879957,407.38,973,749,0
7879967,405.60,973,740,0
7879977,401.65,973,749,0
7879987,395.02,973,741,0
7879997,386.79,973,749,0
7880007,376.57,973,740,0
7880017,365.85,973,749,0
7880027,354.28,973,741,0
7880037,343.57,973,749,0
7880047,332.81,973,740,0
7880057,323.44,973,750,0
7880067,315.04,973,741,0
7880077,308.64,973,749,0
7880087,303.43,973,740,0
7880097,300.52,973,749,0
7880108,298.39,973,741,0
7880118,298.70,973,750,0
7880128,299.43,973,740,0
7880138,301.79,973,750,0
7880148,304.12,973,740,0
7880158,307.60,973,750,0
7880168,310.68,973,740,0
7880178,314.76,973,750,0
7880188,317.88,973,740,0
7880198,321.68,973,750,0
7880208,324.56,973,740,0
7880218,327.95,973,750,0
7880228,330.15,973,740,0
7880238,332.64,973,750,0
7880248,333.82,973,740,0
7880258,335.33,973,750,0
7880268,335.74,973,740,0
7880279,336.42,973,750,0
7880289,335.87,973,740,0
7880299,335.99,973,750,0
7880309,334.92,973,740,0
7880320,334.60,973,749,0
7880329,333.31,973,740,0
7880339,332.74,973,750,0
7880349,331.11,973,740,0
7880359,330.22,973,749,0
7880369,328.01,973,740,0
7880379,326.59,973,750,0
7880389,324.10,973,740,0
7880399,322.23,973,749,0
7880409,319.80,973,740,0
7880419,318.23,973,750,0
7880429,316.28,973,741,0
7880439,315.21,973,749,0
7880449,313.82,973,740,0
7880459,313.66,973,749,0
7880469,313.16,973,741,0
7880479,313.11,973,749,0
7880489,312.78,973,740,0
7880499,313.32,973,749,0
7880509,313.31,973,740,0
7880519,314.12,973,749,0
7880529,313.91,973,740,0
7880539,314.58,973,749,0
7880549,315.09,973,740,0
7880559,317.16,973,749,0
7880569,320.59,973,740,0
7880579,328.25,973,749,0
7880589,340.61,973,740,0
7880599,361.42,973,749,0
7880619,391.30,1064,747,0
7880622,430.16,1064,746,0
7880632,474.04,1064,741,0
7880642,520.45,1064,745,0
7880652,566.21,1064,741,0
7880663,608.96,1064,743,0
7880673,645.32,1064,742,0
7880683,673.12,1064,743,0
7880693,692.59,1064,742,0
7880704,706.21,1064,742,0
7880713,715.75,1064,742,0
7880723,722.42,1064,743,0
7880733,727.10,1064,742,0
7880743,730.37,1064,742,0
7880753,732.66,1064,742,0
7880763,734.26,1064,743,0
7880773,735.38,1064,742,0
7880783,736.17,1064,742,0
7880793,736.72,1064,741,0
7880803,737.10,1064,743,0
7880813,737.41,1064,742,0
7880823,737.63,1064,742,0
7880833,737.79,1064,742,0
7880843,737.89,1064,743,0
7880853,733.55,1064,742,0
7880863,722.97,1064,742,0
7880873,704.64,1064,742,0
7880883,678.86,1064,743,0
7880893,645.86,1064,742,0
7880903,606.90,1064,742,0
7880913,562.87,1064,742,0
7880923,519.93,1064,744,0
7880933,480.65,1064,742,0
7880943,447.54,1064,742,0
7880953,421.19,1064,742,0
7880963,402.11,1064,744,0
7880973,389.47,1064,742,0
7880983,382.65,1064,742,0
7880993,379.92,1064,742,0
7881004,380.59,1064,742,0
7881014,383.41,1064,743,0
7881024,386.85,1064,741,0
7881034,390.28,1064,745,0
7881044,392.51,1064,741,0
7881054,393.26,1064,743,0
7881064,392.15,1064,741,0
7881074,388.76,1064,744,0
7881084,383.13,1064,741,0
7881094,375.94,1064,743,0
7881104,367.17,1064,741,0
7881114,357.69,1064,744,0
7881124,347.67,1064,741,0
7881134,337.70,1064,743,0
7881144,328.23,1064,741,0
7881154,320.28,1064,745,0
7881164,313.68,1064,741,0
7881175,308.80,1064,746,0
7881185,305.22,1064,741,0
7881195,303.31,1064,748,0
7881205,302.53,1064,741,0
7881216,303.27,1064,748,0
7881225,304.43,1064,741,0
7881235,306.53,1064,748,0
7881245,308.64,1064,741,0
7881255,311.71,1064,748,0
7881265,314.54,1064,741,0
7881275,317.76,1064,748,0
7881285,320.75,1064,741,0
7881295,324.60,1064,749,0
7881305,328.45,1064,741,0
7881315,332.77,1064,748,0
7881325,336.78,1064,742,0
7881335,341.00,1064,749,0
7881345,344.52,1064,742,0
7881355,347.58,1064,748,0
7881365,349.03,1064,742,0
7881375,349.54,1064,749,0
7881385,348.48,1064,741,0
7881395,346.36,1064,748,0
7881405,343.04,1064,741,0
7881415,339.60,1064,749,0
7881425,335.60,1064,741,0
7881435,331.99,1064,748,0
7881445,327.97,1064,741,0
7881455,324.89,1064,749,0
7881465,321.92,1064,741,0
7881475,319.85,1064,748,0
7881485,317.71,1064,741,0
7881495,316.34,1064,749,0
7881505,314.74,1064,741,0
7881516,314.04,1064,750,0
7881526,313.00,1064,741,0
7881536,312.74,1064,750,0
7881546,312.14,1064,741,0
7881556,312.31,1064,751,0
7881566,312.26,1064,741,0
7881576,312.91,1064,750,0
7881586,313.41,1064,741,0
7881596,314.49,1064,750,0
7881606,315.15,1064,741,0
7881616,316.35,1064,750,0
7881626,316.76,1064,741,0
7881636,317.65,1064,750,0
7881646,317.80,1064,741,0
7881656,318.24,1064,750,0
7881666,318.13,1064,741,0
7881676,318.47,1064,750,0
7881687,318.29,1064,741,0
7881697,319.10,1064,750,0
7881707,319.20,1064,741,0
7881717,320.55,1064,751,0
7881728,322.27,1064,741,0
7881737,326.86,1064,750,0
7881747,334.53,1064,741,0
7881757,348.64,1064,750,0
7881767,370.22,1064,741,0
7881786,402.30,1168,739,0
7881789,441.72,1168,741,0
7881799,486.21,1168,748,0
7881809,532.17,1168,741,0
7881819,577.55,1168,749,0
7881829,618.78,1168,741,0
7881839,653.39,1168,748,0
7881849,678.82,1168,741,0
7881859,696.70,1168,749,0
7881869,709.22,1168,741,0
7881879,717.98,1168,748,0
7881889,724.07,1168,741,0
7881900,728.38,1168,748,0
7881910,731.35,1168,741,0
7881920,733.43,1168,746,0
7881930,734.85,1168,741,0
7881940,735.88,1168,746,0
7881950,736.60,1168,741,0
7881960,737.11,1168,747,0
7881970,737.42,1168,741,0
7881980,737.68,1168,746,0
7881990,737.86,1168,741,0
7882000,736.70,1168,747,0
7882010,729.98,1168,741,0
7882020,716.70,1168,746,0
7882030,695.36,1168,741,0
7882040,666.84,1168,747,0
7882050,630.97,1168,741,0
7882060,589.45,1168,746,0
7882071,543.93,1168,741,0
7882081,500.58,1168,745,0
7882091,460.72,1168,741,0
7882101,427.85,1168,745,0
7882112,401.71,1168,742,0
7882121,383.41,1168,745,0
7882131,371.33,1168,741,0
7882141,365.87,1168,745,0
7882151,364.88,1168,741,0
7882161,368.22,1168,745,0
7882171,373.21,1168,741,0
7882181,379.40,1168,745,0
7882191,385.03,1168,741,0
7882201,390.03,1168,745,0
7882211,392.68,1168,741,0
7882221,393.55,1168,745,0
7882231,391.67,1168,741,0
7882241,388.00,1168,745,0
7882251,381.83,1168,741,0
7882261,374.42,1168,745,0
7882271,365.29,1168,741,0
7882281,355.95,1168,744,0
7882291,345.81,1168,741,0
7882301,336.05,1168,745,0
7882311,326.26,1168,741,0
7882321,317.57,1168,744,0
7882331,309.47,1168,741,0
7882341,303.16,1168,745,0
7882351,297.93,1168,742,0
7882361,294.35,1168,744,0
7882371,292.14,1168,741,0
7882381,291.93,1168,745,0
7882391,292.55,1168,741,0
7882401,294.61,1168,744,0
7882412,297.39,1168,742,0
7882422,301.43,1168,744,0
7882432,305.80,1168,742,0
7882442,310.40,1168,743,0
7882452,314.70,1168,744,0
7882462,319.20,1168,744,0
7882472,323.04,1168,742,0
7882482,326.41,1168,743,0
7882492,328.78,1168,743,0
7882502,330.77,1168,744,0
7882512,332.21,1168,742,0
7882522,333.13,1168,743,0
7882532,333.57,1168,743,0
7882542,333.87,1168,744,0
7882552,333.74,1168,742,0
7882562,333.34,1168,743,0
7882572,332.94,1168,743,0
7882583,332.27,1168,742,0
7882593,331.38,1168,744,0
7882603,330.19,1168,741,0
7882613,328.98,1168,746,0
7882624,327.61,1168,741,0
7882633,326.31,1168,744,0
7882643,324.59,1168,741,0
7882653,323.13,1168,746,0
7882663,321.63,1168,741,0
7882673,320.50,1168,744,0
7882683,319.28,1168,741,0
7882693,318.42,1168,745,0
7882703,317.61,1168,741,0
7882713,317.17,1168,744,0
7882723,316.78,1168,741,0
7882733,316.84,1168,745,0
7882743,316.76,1168,741,0
7882753,317.09,1168,744,0
7882763,317.49,1168,741,0
7882773,318.16,1168,745,0
7882783,318.45,1168,741,0
7882793,319.39,1168,747,0
7882803,319.96,1168,741,0
7882813,320.87,1168,745,0
7882823,321.42,1168,741,0
7882833,322.11,1168,747,0
7882843,322.42,1168,741,0
7882853,323.45,1168,745,0
7882863,324.99,1168,741,0
7882873,329.66,1168,747,0
7882883,338.42,1168,742,0
7882893,352.91,1168,744,0
7882903,374.92,1168,741,0
7882923,406.87,1136,740,0
7882926,446.55,1136,740,0
7882936,490.83,1136,750,0
7882946,536.22,1136,741,0
7882956,580.17,1136,749,0
7882967,620.45,1136,741,0
7882977,654.39,1136,749,0
7882987,679.51,1136,741,0
7882997,697.14,1136,749,0
7883008,709.49,1136,741,0
7883017,718.17,1136,750,0
7883027,724.25,1136,741,0
7883037,728.54,1136,749,0
7883047,731.51,1136,741,0
7883057,733.63,1136,750,0
7883067,735.11,1136,741,0
7883077,736.19,1136,750,0
7883087,736.91,1136,741,0
7883097,737.45,1136,750,0
7883107,733.59,1136,741,0
7883117,723.90,1136,750,0
7883127,705.76,1136,740,0
7883137,679.86,1136,750,0
7883147,645.87,1136,741,0
7883157,605.32,1136,750,0
7883167,558.64,1136,741,0
7883177,512.03,1136,749,0
7883187,467.80,1136,741,0
7883197,430.36,1136,749,0
7883207,399.61,1136,741,0
7883217,377.65,1136,749,0
7883227,363.19,1136,741,0
7883237,357.22,1136,749,0
7883247,357.32,1136,740,0
7883257,363.53,1136,748,0
7883267,373.35,1136,741,0
7883277,386.66,1136,749,0
7883287,400.18,1136,740,0
7883297,414.35,1136,748,0
7883308,425.95,1136,740,0
7883318,436.03,1136,748,0
7883328,442.07,1136,740,0
7883338,445.22,1136,747,0
7883348,443.74,1136,741,0
7883358,439.79,1136,749,0
7883368,431.67,1136,741,0
7883378,422.12,1136,748,0
7883388,409.49,1136,741,0
7883398,396.48,1136,749,0
7883408,381.94,1136,741,0
7883418,368.16,1136,748,0
7883428,354.22,1136,741,0
7883438,342.67,1136,749,0
7883448,331.20,1136,740,0
7883458,321.75,1136,748,0
7883468,313.43,1136,741,0
7883479,307.47,1136,748,0
7883489,302.87,1136,741,0
7883499,300.38,1136,747,0
7883509,298.25,1136,741,0
7883520,298.39,1136,746,0
7883529,299.47,1136,741,0
7883539,302.16,1136,747,0
7883549,305.24,1136,741,0
7883559,309.20,1136,746,0
7883569,313.12,1136,741,0
7883579,317.80,1136,747,0
7883589,321.97,1136,741,0
7883599,326.57,1136,746,0
7883609,330.17,1136,741,0
7883619,333.93,1136,747,0
7883629,336.70,1136,741,0
7883639,339.40,1136,746,0
7883649,341.12,1136,741,0
7883659,342.80,1136,747,0
7883669,343.37,1136,741,0
7883679,343.91,1136,746,0
7883689,343.38,1136,741,0
7883699,343.09,1136,747,0
7883709,341.91,1136,741,0
7883719,340.86,1136,746,0
7883729,339.10,1136,741,0
7883739,337.83,1136,747,0
7883749,336.17,1136,741,0
7883759,335.26,1136,747,0
7883769,333.94,1136,741,0
7883779,333.44,1136,747,0
7883789,332.45,1136,741,0
7883799,331.93,1136,747,0
7883809,330.75,1136,741,0
7883820,329.84,1136,746,0
7883830,328.13,1136,741,0
7883840,326.72,1136,745,0
7883850,324.83,1136,742,0
7883860,323.81,1136,744,0
7883870,323.48,1136,741,0
7883880,325.65,1136,745,0
7883890,331.11,1136,742,0
7883900,342.22,1136,744,0
7883910,360.16,1136,741,0
7883920,387.28,1136,745,0
7883939,423.71,1017,744,0
7883942,466.35,1017,743,0
7883952,511.89,1017,744,0
7883962,557.65,1017,743,0
7883972,600.66,1017,745,0
7883982,638.52,1017,742,0
7883992,668.53,1017,744,0
7884002,689.63,1017,743,0
7884012,704.44,1017,745,0
7884022,714.81,1017,742,0
7884033,722.07,1017,746,0
7884043,727.15,1017,742,0
7884053,730.70,1017,748,0
7884063,733.15,1017,742,0
7884073,734.86,1017,749,0
7884083,736.06,1017,742,0
7884093,736.90,1017,748,0
7884103,737.49,1017,741,0
7884113,737.90,1017,749,0
7884123,735.23,1017,742,0
7884133,727.06,1017,748,0
7884143,711.48,1017,741,0
7884153,688.11,1017,748,0
7884163,657.22,1017,741,0
7884173,619.83,1017,747,0
7884183,576.51,1017,741,0
7884193,531.83,1017,748,0
7884204,489.15,1017,741,0
7884214,452.59,1017,749,0
7884224,422.80,1017,741,0
7884234,401.26,1017,749,0
7884244,386.87,1017,741,0
7884254,380.44,1017,749,0
7884264,379.75,1017,740,0
7884274,384.97,1017,749,0
7884284,392.48,1017,741,0
7884294,402.70,1017,749,0
7884304,412.91,1017,741,0
7884314,423.35,1017,749,0
7884324,431.34,1017,741,0
7884334,437.67,1017,749,0
7884344,440.51,1017,741,0
7884354,441.09,1017,749,0
7884364,438.06,1017,741,0
7884375,432.51,1017,750,0
7884385,423.83,1017,741,0
7884395,413.60,1017,750,0
7884405,401.12,1017,741,0
7884416,387.97,1017,750,0
7884425,373.96,1017,741,0
7884435,360.73,1017,750,0
7884445,347.87,1017,741,0
7884455,336.59,1017,750,0
7884465,326.22,1017,741,0
7884475,318.31,1017,750,0
7884485,311.49,1017,741,0
7884495,307.31,1017,750,0
7884505,304.05,1017,741,0
7884515,303.13,1017,749,0
7884525,303.14,1017,741,0
7884535,305.20,1017,750,0
7884545,307.41,1017,741,0
7884555,310.93,1017,749,0
7884565,314.04,1017,741,0
7884575,318.01,1017,750,0
7884585,321.18,1017,740,0
7884595,324.64,1017,749,0
7884605,327.06,1017,741,0
7884615,330.13,1017,750,0
7884625,332.23,1017,740,0
7884635,334.61,1017,749,0
7884645,335.88,1017,740,0
7884655,337.67,1017,750,0
7884665,339.01,1017,741,0
7884675,341.02,1017,750,0
7884685,342.00,1017,741,0
7884695,343.46,1017,750,0
7884705,343.75,1017,741,0
7884716,344.60,1017,750,0
7884726,344.07,1017,741,0
7884736,343.24,1017,750,0
7884746,341.02,1017,741,0
7884756,339.09,1017,749,0
7884766,336.23,1017,741,0
7884776,333.89,1017,750,0
7884786,330.58,1017,741,0
7884796,327.92,1017,749,0
7884806,324.90,1017,741,0
7884816,322.96,1017,750,0
7884826,320.53,1017,741,0
7884836,319.26,1017,749,0
7884846,317.81,1017,741,0
7884856,317.61,1017,750,0
7884866,317.00,1017,741,0
7884876,317.43,1017,750,0
7884887,317.34,1017,741,0
7884897,318.52,1017,749,0
7884907,320.08,1017,741,0
7884917,324.64,1017,748,0
7884928,332.38,1017,741,0
7884937,346.79,1017,749,0
7884947,368.33,1017,741,0
7884966,400.63,1027,739,0
7884969,440.38,1027,744,0
7884979,485.14,1027,746,0
7884989,531.34,1027,741,0
7884999,576.80,1027,745,0
7885009,618.04,1027,742,0
7885019,653.13,1027,746,0
7885029,678.59,1027,741,0
7885039,696.46,1027,745,0
7885049,708.96,1027,742,0
7885059,717.76,1027,746,0
7885069,723.92,1027,741,0
7885079,728.23,1027,745,0
7885089,731.20,1027,742,0
7885100,733.33,1027,744,0
7885110,734.81,1027,742,0
7885120,735.86,1027,744,0
7885130,736.54,1027,742,0
7885140,737.02,1027,743,0
7885150,737.36,1027,742,0
7885160,737.59,1027,744,0
7885170,737.72,1027,742,0
7885180,737.80,1027,743,0
7885190,734.95,1027,742,0
7885200,726.95,1027,744,0
7885210,711.62,1027,742,0
7885220,688.93,1027,743,0
7885230,659.08,1027,742,0
7885240,622.84,1027,744,0
7885250,580.93,1027,742,0
7885260,537.75,1027,743,0
7885271,496.51,1027,743,0
7885281,460.83,1027,742,0
7885291,431.61,1027,744,0
7885301,409.83,1027,742,0
7885312,395.01,1027,745,0
7885321,386.82,1027,742,0
7885331,384.00,1027,744,0
7885341,385.33,1027,742,0
7885351,389.35,1027,745,0
7885361,394.86,1027,742,0
7885371,400.08,1027,744,0
7885381,404.22,1027,742,0
7885391,406.77,1027,745,0
7885401,407.01,1027,742,0
7885411,405.21,1027,744,0
7885421,400.99,1027,742,0
7885431,394.48,1027,745,0
7885441,386.49,1027,743,0
7885451,377.17,1027,744,0
7885461,366.96,1027,742,0
7885471,356.43,1027,745,0
7885481,345.84,1027,742,0
7885491,335.78,1027,743,0
7885501,326.72,1027,742,0
7885511,318.74,1027,745,0
7885521,312.61,1027,742,0
7885531,307.92,1027,743,0
7885541,304.73,1027,742,0
7885551,303.01,1027,745,0
7885561,302.62,1027,741,0
7885571,303.51,1027,743,0
7885581,305.54,1027,742,0
7885591,308.38,1027,745,0
7885601,311.95,1027,742,0
7885612,316.34,1027,746,0
7885622,320.65,1027,741,0
7885632,325.43,1027,748,0
7885642,329.54,1027,741,0
7885652,333.32,1027,748,0
7885662,336.31,1027,741,0
7885672,338.87,1027,748,0
7885682,340.33,1027,741,0
7885692,341.73,1027,748,0
7885702,342.28,1027,741,0
7885712,342.97,1027,748,0
7885722,342.98,1027,741,0
7885732,342.98,1027,748,0
7885742,342.52,1027,741,0
7885752,342.11,1027,748,0
7885762,340.83,1027,741,0
7885772,339.51,1027,748,0
7885783,337.56,1027,741,0
7885793,335.89,1027,749,0
7885803,333.61,1027,741,0
7885813,331.84,1027,749,0
7885824,329.57,1027,741,0
7885833,328.16,1027,749,0
7885843,326.14,1027,741,0
7885853,324.77,1027,749,0
7885863,322.82,1027,741,0
7885873,321.93,1027,749,0
7885883,320.63,1027,741,0
7885893,320.14,1027,749,0
7885903,319.28,1027,741,0
7885913,319.41,1027,749,0
7885923,319.46,1027,741,0
7885933,320.31,1027,749,0
7885943,320.39,1027,741,0
7885953,320.91,1027,749,0
7885963,321.07,1027,741,0
7885973,321.73,1027,749,0
7885983,321.86,1027,741,0
7885993,322.50,1027,750,0
7886003,322.61,1027,741,0
7886013,323.41,1027,749,0
7886023,323.54,1027,741,0
7886033,324.62,1027,750,0
7886043,324.95,1027,741,0
7886053,326.04,1027,749,0
7886063,327.05,1027,740,0
7886073,330.68,1027,750,0
7886083,336.91,1027,741,0
7886093,348.81,1027,749,0
7886103,366.95,1027,740,0
7886123,395.29,1156,739,0
7886126,432.23,1156,741,0
7886136,475.15,1156,748,0
7886146,520.23,1156,741,0
7886156,565.51,1156,748,0
7886167,607.65,1156,741,0
7886177,644.40,1156,747,0
7886187,672.44,1156,741,0
7886197,692.11,1156,746,0
7886208,705.87,1156,741,0
7886217,715.51,1156,747,0
7886227,722.26,1156,741,0
7886237,726.98,1156,747,0
7886247,730.29,1156,741,0
7886257,732.60,1156,747,0
7886267,734.22,1156,741,0
7886277,735.35,1156,747,0
7886287,736.15,1156,741,0
7886297,736.70,1156,747,0
7886307,737.09,1156,741,0
7886317,737.36,1156,747,0
7886327,736.96,1156,741,0
7886337,733.41,1156,748,0
7886347,723.60,1156,741,0
7886357,706.88,1156,747,0
7886367,681.93,1156,741,0
7886377,649.94,1156,746,0
7886387,611.26,1156,741,0
7886397,568.28,1156,747,0
7886407,524.01,1156,741,0
7886417,483.42,1156,746,0
7886427,447.77,1156,740,0
7886437,419.94,1156,747,0
7886447,399.00,1156,741,0
7886457,385.80,1156,746,0
7886467,378.27,1156,740,0
7886477,376.82,1156,747,0
7886487,378.89,1156,741,0
7886497,384.36,1156,746,0
7886508,390.81,1156,740,0
7886518,398.15,1156,745,0
7886528,404.15,1156,741,0
7886538,409.12,1156,744,0
7886548,411.66,1156,741,0
7886558,412.27,1156,746,0
7886568,409.66,1156,741,0
7886578,405.18,1156,745,0
7886588,397.88,1156,741,0
7886598,389.39,1156,746,0
7886608,379.16,1156,741,0
7886618,368.22,1156,745,0
7886628,356.50,1156,741,0
7886638,345.76,1156,746,0
7886648,335.08,1156,741,0
7886658,325.88,1156,745,0
7886668,317.48,1156,741,0
7886679,310.99,1156,745,0
7886689,306.11,1156,742,0
7886699,303.20,1156,744,0
7886709,301.47,1156,741,0
7886720,301.12,1156,744,0
7886729,301.94,1156,742,0
7886739,304.06,1156,744,0
7886749,307.13,1156,741,0
7886759,310.64,1156,742,0
7886769,314.48,1156,742,0
7886779,318.88,1156,744,0
7886789,323.42,1156,741,0
7886799,328.05,1156,743,0
7886809,332.23,1156,741,0
7886819,335.93,1156,744,0
7886829,339.17,1156,741,0
7886839,341.99,1156,743,0
7886849,343.71,1156,741,0
7886859,345.55,1156,744,0
7886869,346.50,1156,741,0
7886879,347.38,1156,743,0
7886889,347.65,1156,743,0
7886899,347.67,1156,745,0
7886909,347.00,1156,741,0
7886919,345.93,1156,743,0
7886929,344.23,1156,743,0
7886939,341.98,1156,747,0
7886949,339.46,1156,742,0
7886959,336.75,1156,744,0
7886969,334.51,1156,743,0
7886979,332.94,1156,744,0
7886989,331.59,1156,741,0
7886999,330.47,1156,743,0
7887009,329.69,1156,743,0
7887020,328.88,1156,742,0
7887030,328.19,1156,743,0
7887040,327.10,1156,742,0
7887050,325.70,1156,745,0
7887060,324.42,1156,741,0
7887070,323.05,1156,743,0
7887080,322.31,1156,742,0
7887090,322.09,1156,745,0
7887100,322.32,1156,742,0
7887110,322.44,1156,744,0
7887120,322.56,1156,742,0
7887130,322.99,1156,746,0
7887140,323.30,1156,742,0
7887150,323.76,1156,744,0
7887160,323.79,1156,742,0
7887170,323.77,1156,745,0
7887180,324.44,1156,742,0
7887191,326.49,1156,746,0
7887201,330.54,1156,741,0
7887211,338.78,1156,748,0
7887221,351.58,1156,741,0
7887232,372.15,1156,748,0
7887241,401.12,1156,741,0
7887260,438.54,1138,740,0
7887263,481.02,1138,742,0
7887273,525.84,1138,749,0
7887283,569.78,1138,741,0
7887293,610.99,1138,750,0
7887303,646.05,1138,741,0
7887313,673.68,1138,749,0
7887323,693.02,1138,741,0
7887333,706.64,1138,750,0
7887343,716.22,1138,741,0
7887353,722.92,1138,750,0
7887363,727.58,1138,741,0
7887373,730.87,1138,750,0
7887383,733.14,1138,741,0
7887393,734.73,1138,749,0
7887404,735.79,1138,741,0
7887414,736.54,1138,750,0
7887424,732.95,1138,741,0
7887434,723.37,1138,749,0
7887444,705.77,1138,740,0
7887454,680.68,1138,750,0
7887464,647.52,1138,741,0
7887474,607.81,1138,749,0
7887484,561.62,1138,740,0
7887494,515.41,1138,750,0
7887504,471.14,1138,741,0
7887514,432.96,1138,749,0
7887524,400.83,1138,740,0
7887534,377.31,1138,750,0
7887544,361.02,1138,740,0
7887554,353.42,1138,749,0
7887564,352.01,1138,740,0
7887575,357.49,1138,749,0
7887585,367.12,1138,740,0
7887595,380.71,1138,748,0
7887605,395.37,1138,740,0
7887616,410.82,1138,751,0
7887625,424.24,1138,740,0
7887635,436.13,1138,749,0
7887645,444.45,1138,740,0
7887655,449.84,1138,748,0
7887665,451.00,1138,740,0
7887675,449.24,1138,748,0
7887685,443.73,1138,740,0
7887695,436.35,1138,748,0
7887705,426.13,1138,741,0
7887715,414.78,1138,748,0
7887725,401.69,1138,740,0
7887735,388.80,1138,748,0
7887745,375.14,1138,741,0
7887755,362.67,1138,749,0
7887765,350.04,1138,740,0
7887775,339.01,1138,748,0
7887785,328.51,1138,741,0
7887795,320.47,1138,749,0
7887805,313.56,1138,740,0
7887815,309.06,1138,748,0
7887825,305.79,1138,741,0
7887835,305.08,1138,748,0
7887845,305.48,1138,740,0
7887855,308.17,1138,748,0
7887865,310.99,1138,740,0
7887875,315.11,1138,749,0
7887885,319.06,1138,739,0
7887895,324.10,1138,748,0
7887905,328.40,1138,740,0
7887916,333.42,1138,747,0
7887926,337.32,1138,740,0
7887936,341.47,1138,747,0
7887946,344.50,1138,740,0
7887956,347.69,1138,746,0
7887966,349.93,1138,740,0
7887976,352.86,1138,748,0
7887986,354.45,1138,741,0
7887996,356.11,1138,747,0
7888006,356.55,1138,740,0
7888016,356.94,1138,747,0
7888026,356.27,1138,741,0
7888036,354.99,1138,747,0
7888046,352.04,1138,740,0
7888056,349.20,1138,748,0
7888066,345.92,1138,741,0
7888076,343.50,1138,747,0
7888087,340.91,1138,741,0
7888097,338.97,1138,746,0
7888107,337.00,1138,742,0
7888117,335.76,1138,745,0
7888128,334.20,1138,741,0
7888137,332.90,1138,746,0
7888147,331.00,1138,742,0
7888157,329.33,1138,746,0
7888167,327.39,1138,741,0
7888177,325.94,1138,746,0
7888187,324.46,1138,741,0
7888197,323.85,1138,747,0
7888207,324.50,1138,741,0
7888217,328.08,1138,747,0
7888227,335.55,1138,741,0
7888237,349.06,1138,745,0
7888247,370.04,1138,741,0
7888257,400.29,1138,746,0
7888276,438.90,1016,744,0
7888279,482.47,1016,743,0
7888289,527.85,1016,744,0
7888300,572.46,1016,741,0
7888310,613.47,1016,746,0
7888320,648.34,1016,741,0
7888330,675.20,1016,746,0
7888340,693.99,1016,741,0
7888350,707.20,1016,745,0
7888360,716.44,1016,741,0
7888370,722.91,1016,746,0
7888380,727.43,1016,741,0
7888390,730.60,1016,745,0
7888400,732.82,1016,741,0
7888410,734.38,1016,747,0
7888420,735.46,1016,741,0
7888430,734.72,1016,745,0
7888440,729.06,1016,741,0
7888450,716.57,1016,746,0
7888460,696.04,1016,740,0
7888471,667.66,1016,748,0
7888481,631.50,1016,740,0
7888491,588.97,1016,747,0
7888501,542.09,1016,740,0
7888512,495.99,1016,749,0
7888521,453.39,1016,740,0
7888531,417.36,1016,748,0
7888541,387.98,1016,740,0
7888551,367.37,1016,749,0
7888561,354.40,1016,740,0
7888571,349.74,1016,748,0
7888581,351.36,1016,740,0
7888591,359.10,1016,748,0
7888601,370.47,1016,740,0
7888611,385.50,1016,747,0
7888621,400.91,1016,740,0
7888631,416.41,1016,748,0
7888641,429.78,1016,740,0
7888651,440.91,1016,747,0
7888661,448.13,1016,740,0
7888671,452.34,1016,748,0
7888681,452.02,1016,740,0
7888691,448.71,1016,747,0
7888701,441.56,1016,740,0
7888711,432.09,1016,748,0
7888721,419.93,1016,740,0
7888731,406.97,1016,747,0
7888741,392.79,1016,740,0
7888751,379.70,1016,749,0
7888761,367.06,1016,740,0
7888771,356.41,1016,748,0
7888781,346.65,1016,741,0
7888791,339.04,1016,749,0
7888801,332.17,1016,741,0
7888812,327.23,1016,749,0
7888822,322.49,1016,740,0
7888832,319.22,1016,750,0
7888842,316.11,1016,740,0
7888852,314.92,1016,750,0
7888862,314.13,1016,740,0
7888872,315.50,1016,750,0
7888882,317.02,1016,740,0
7888892,320.36,1016,750,0
7888902,323.29,1016,740,0
7888912,327.41,1016,750,0
7888922,331.06,1016,741,0
7888932,335.20,1016,750,0
7888942,337.92,1016,741,0
7888952,341.07,1016,751,0
7888962,342.98,1016,740,0
7888972,345.39,1016,750,0
7888983,346.60,1016,740,0
7888993,347.71,1016,750,0
7889003,347.97,1016,741,0
7889013,348.66,1016,750,0
7889024,348.21,1016,740,0
7889033,347.97,1016,750,0
7889043,346.65,1016,740,0
7889053,345.99,1016,750,0
7889063,344.15,1016,740,0
7889073,342.90,1016,751,0
7889083,340.57,1016,741,0
7889093,339.07,1016,750,0
7889103,336.91,1016,741,0
7889113,335.95,1016,750,0
7889123,334.25,1016,741,0
7889133,333.88,1016,751,0
7889143,332.93,1016,741,0
7889153,333.08,1016,751,0
7889163,332.67,1016,741,0
7889173,332.90,1016,750,0
7889183,331.81,1016,740,0
7889193,331.14,1016,750,0
7889203,329.38,1016,741,0
7889213,328.15,1016,751,0
7889223,326.09,1016,740,0
7889233,325.08,1016,751,0
7889243,324.41,1016,741,0
7889253,326.60,1016,750,0
7889263,331.18,1016,740,0
7889273,341.50,1016,750,0
7889283,357.85,1016,741,0
7889302,384.77,1026,739,0
7889305,420.79,1026,742,0
7889315,463.37,1026,748,0
7889325,508.69,1026,741,0
7889335,555.02,1026,749,0
7889345,598.60,1026,741,0
7889355,637.64,1026,747,0
7889366,667.87,1026,741,0
7889375,689.13,1026,748,0
7889385,703.96,1026,741,0
7889395,714.34,1026,747,0
7889405,721.61,1026,741,0
7889415,726.74,1026,748,0
7889425,730.29,1026,741,0
7889435,732.82,1026,747,0
7889445,734.59,1026,741,0
7889455,735.87,1026,749,0
7889465,736.72,1026,741,0
7889475,737.32,1026,747,0
7889485,737.74,1026,742,0
7889495,738.07,1026,748,0
7889505,738.27,1026,741,0
7889515,738.40,1026,749,0
7889525,738.45,1026,742,0
7889536,736.82,1026,747,0
7889545,730.06,1026,741,0
7889555,717.35,1026,747,0
7889565,696.98,1026,741,0
7889575,669.64,1026,746,0
7889585,635.12,1026,741,0
7889595,595.10,1026,747,0
7889605,551.70,1026,741,0
7889615,510.17,1026,746,0
7889625,472.06,1026,741,0
7889635,440.55,1026,747,0
7889645,415.48,1026,741,0
7889655,398.07,1026,747,0
7889665,386.17,1026,741,0
7889675,380.38,1026,748,0
7889685,378.17,1026,741,0
7889695,379.40,1026,747,0
7889705,381.81,1026,741,0
7889715,385.25,1026,749,0
7889725,387.66,1026,741,0
7889735,389.95,1026,748,0
7889745,390.01,1026,741,0
7889755,389.45,1026,749,0
7889765,386.87,1026,742,0
7889775,383.14,1026,747,0
7889785,377.31,1026,742,0
7889795,370.83,1026,748,0
7889805,362.74,1026,742,0
7889815,354.50,1026,749,0
7889825,344.97,1026,742,0
7889836,335.72,1026,747,0
7889846,326.55,1026,742,0
7889856,318.67,1026,746,0
7889866,311.57,1026,742,0
7889876,306.34,1026,745,0
7889886,302.42,1026,742,0
7889896,300.75,1026,746,0
7889906,299.97,1026,742,0
7889916,300.58,1026,746,0
7889926,301.69,1026,742,0
7889936,303.97,1026,746,0
7889946,306.46,1026,742,0
7889956,309.84,1026,745,0
7889966,312.67,1026,742,0
7889976,315.99,1026,746,0
7889986,318.99,1026,742,0
7889996,322.25,1026,745,0
7890007,325.05,1026,743,0
7890017,327.65,1026,745,0
7890027,329.42,1026,743,0
7890037,330.71,1026,744,0
7890048,331.40,1026,744,0
7890057,331.96,1026,745,0
7890067,332.10,1026,743,0
7890077,331.94,1026,744,0
7890087,331.49,1026,744,0
7890097,330.91,1026,745,0
7890107,330.38,1026,743,0
7890117,329.63,1026,744,0
7890127,328.84,1026,744,0
7890137,327.77,1026,746,0
7890147,326.21,1026,743,0
7890157,324.48,1026,744,0
7890167,322.53,1026,744,0
7890177,321.00,1026,745,0
7890187,319.42,1026,743,0
7890197,318.05,1026,744,0
7890207,316.92,1026,744,0
7890217,315.83,1026,744,0
7890227,314.94,1026,743,0
7890237,314.06,1026,744,0
7890247,313.31,1026,744,0
7890257,312.79,1026,743,0
7890267,312.04,1026,743,0
7890277,311.13,1026,745,0
7890287,310.83,1026,744,0
7890297,310.71,1026,743,0
7890307,311.01,1026,743,0
7890317,311.14,1026,745,0
7890327,311.52,1026,744,0
7890337,312.10,1026,743,0
7890348,313.01,1026,745,0
7890358,313.86,1026,742,0
7890368,314.85,1026,746,0
7890378,316.09,1026,742,0
7890388,317.61,1026,748,0
7890398,319.44,1026,742,0
7890408,322.57,1026,746,0
7890418,328.01,1026,742,0
7890428,337.99,1026,748,0
7890438,353.59,1026,742,0
7890448,377.67,1026,746,0
7890467,411.93,1165,744,0
7890470,453.22,1165,751,0
7890480,498.37,1165,741,0
7890490,544.72,1165,749,0
7890500,589.03,1165,742,0
7890510,629.35,1165,750,0
7890520,662.07,1165,741,0
7890530,685.19,1165,750,0
7890540,701.38,1165,742,0
7890550,712.75,1165,750,0
7890561,720.67,1165,741,0
7890571,726.21,1165,750,0
7890581,730.09,1165,741,0
7890591,732.85,1165,750,0
7890601,734.74,1165,741,0
7890611,736.10,1165,750,0
7890621,737.01,1165,741,0
7890631,737.70,1165,751,0
7890641,738.13,1165,741,0
7890651,738.48,1165,750,0
7890661,738.68,1165,741,0
7890671,738.86,1165,751,0
7890681,738.90,1165,741,0
7890691,738.93,1165,751,0
7890701,737.41,1165,741,0
7890711,731.84,1165,750,0
7890721,719.42,1165,740,0
7890732,699.96,1165,750,0
7890742,672.68,1165,741,0
7890752,639.09,1165,750,0
7890762,599.20,1165,741,0
7890772,556.59,1165,749,0
7890782,514.28,1165,741,0
7890792,476.83,1165,751,0
7890802,444.65,1165,741,0
7890812,420.24,1165,749,0
7890822,401.83,1165,741,0
7890832,390.91,1165,750,0
7890842,384.46,1165,741,0
7890852,383.04,1165,750,0
7890862,383.54,1165,741,0
7890872,386.29,1165,751,0
7890882,388.39,1165,741,0
7890892,390.76,1165,751,0
7890903,390.70,1165,741,0
7890913,389.72,1165,750,0
7890923,385.90,1165,741,0
7890933,381.09,1165,749,0
7890944,374.16,1165,741,0
7890953,366.91,1165,749,0
7890963,358.50,1165,741,0
7890973,350.33,1165,749,0
7890983,341.41,1165,741,0
7890993,333.57,1165,749,0
7891003,325.77,1165,741,0
7891013,319.45,1165,749,0
7891023,313.53,1165,741,0
7891033,309.17,1165,749,0
7891043,305.43,1165,741,0
7891053,303.72,1165,749,0
7891063,302.56,1165,741,0
7891073,303.38,1165,751,0
7891083,304.55,1165,741,0
7891093,307.26,1165,750,0
7891103,309.92,1165,741,0
7891113,313.85,1165,749,0
7891123,317.41,1165,741,0
7891133,321.66,1165,749,0
7891143,325.10,1165,742,0
7891153,328.59,1165,750,0
7891163,330.90,1165,742,0
7891173,333.28,1165,749,0
7891183,334.36,1165,742,0
7891193,335.62,1165,750,0
7891203,335.95,1165,742,0
7891213,336.69,1165,749,0
7891223,336.44,1165,742,0
7891233,336.48,1165,750,0
7891244,335.48,1165,742,0
7891254,334.78,1165,748,0
7891264,333.00,1165,742,0
7891274,331.24,1165,748,0
7891284,328.39,1165,742,0
7891294,326.26,1165,749,0
7891304,323.61,1165,742,0
7891314,321.54,1165,749,0
7891324,319.11,1165,742,0
7891334,317.53,1165,748,0
7891344,315.79,1165,742,0
7891354,314.56,1165,747,0
7891364,312.98,1165,742,0
7891374,312.04,1165,749,0
7891384,310.83,1165,742,0
7891394,310.24,1165,748,0
7891404,309.27,1165,742,0
7891415,308.84,1165,746,0
7891425,308.25,1165,742,0
7891435,308.13,1165,746,0
7891445,307.75,1165,742,0
7891456,307.82,1165,744,0
7891465,307.62,1165,742,0
7891475,307.61,1165,748,0
7891485,307.38,1165,743,0
7891495,307.57,1165,745,0
7891505,307.78,1165,742,0
7891515,308.96,1165,746,0
7891525,311.33,1165,742,0
7891535,316.59,1165,744,0
7891545,325.71,1165,742,0
7891555,340.88,1165,745,0
7891565,363.85,1165,742,0
7891575,397.15,1165,745,0
7891594,437.95,1127,744,0
7891597,483.35,1127,744,0
7891607,530.13,1127,745,0
7891617,575.99,1127,742,0
7891628,617.82,1127,747,0
7891638,653.02,1127,742,0
7891648,678.73,1127,748,0
7891658,696.77,1127,741,0
7891668,709.44,1127,749,0
7891678,718.31,1127,742,0
7891688,724.51,1127,748,0
7891698,728.86,1127,741,0
7891708,731.90,1127,749,0
7891718,734.03,1127,742,0
7891728,735.52,1127,748,0
7891738,736.57,1127,741,0
7891748,737.30,1127,749,0
7891758,737.81,1127,742,0
7891768,738.16,1127,748,0
7891778,738.37,1127,741,0
7891788,738.52,1127,749,0
7891799,734.38,1127,741,0
7891809,724.11,1127,749,0
7891819,705.86,1127,741,0
7891829,680.06,1127,750,0
7891840,646.57,1127,741,0
7891849,607.10,1127,749,0
7891859,561.94,1127,741,0
7891869,517.39,1127,750,0
7891879,476.13,1127,741,0
7891889,441.63,1127,749,0
7891899,414.19,1127,741,0
7891909,395.19,1127,749,0
7891919,382.70,1127,741,0
7891929,377.48,1127,749,0
7891939,377.03,1127,741,0
7891949,381.18,1127,749,0
7891959,387.34,1127,741,0
7891969,395.12,1127,749,0
7891979,402.46,1127,741,0
7891989,409.65,1127,750,0
7891999,414.55,1127,741,0
7892009,417.95,1127,750,0
7892019,418.05,1127,741,0
7892029,415.85,1127,750,0
7892039,410.32,1127,741,0
7892049,402.81,1127,750,0
7892059,392.84,1127,741,0
7892069,382.64,1127,750,0
7892079,370.62,1127,741,0
7892089,359.08,1127,750,0
7892099,347.61,1127,741,0
7892109,337.53,1127,750,0
7892119,327.90,1127,741,0
7892129,320.30,1127,750,0
7892140,313.01,1127,741,0
7892150,308.51,1127,752,0
7892160,304.54,1127,741,0
7892170,302.84,1127,751,0
7892180,301.98,1127,741,0
7892190,303.49,1127,751,0
7892200,305.23,1127,741,0
7892210,308.80,1127,751,0
7892220,311.82,1127,741,0
7892230,316.46,1127,751,0
7892240,320.35,1127,741,0
7892250,325.00,1127,750,0
7892260,328.60,1127,741,0
7892270,332.71,1127,750,0
7892280,335.62,1127,741,0
7892290,338.86,1127,750,0
7892300,340.58,1127,741,0
7892311,342.46,1127,752,0
7892321,343.22,1127,741,0
7892331,344.06,1127,750,0
7892341,343.87,1127,741,0
7892352,343.61,1127,750,0
7892361,342.44,1127,741,0
7892371,341.75,1127,751,0
7892381,339.94,1127,741,0
7892391,338.71,1127,750,0
7892401,336.66,1127,741,0
7892411,335.09,1127,750,0
7892421,332.88,1127,741,0
7892431,331.28,1127,750,0
7892441,329.01,1127,741,0
7892451,327.77,1127,750,0
7892461,325.74,1127,741,0
7892471,324.62,1127,749,0
7892481,322.93,1127,741,0
7892491,322.31,1127,751,0
7892501,321.23,1127,741,0
7892511,321.03,1127,750,0
7892521,320.34,1127,741,0
7892531,320.58,1127,750,0
7892541,320.32,1127,741,0
7892551,320.91,1127,749,0
7892561,320.55,1127,741,0
7892571,321.16,1127,750,0
7892581,321.24,1127,741,0
7892591,323.05,1127,751,0
7892601,325.82,1127,741,0
7892611,332.73,1127,750,0
7892621,344.00,1127,740,0
7892631,363.28,1127,749,0
7892651,390.63,1056,748,0
7892654,427.77,1056,746,0
7892664,470.18,1056,742,0
7892674,515.90,1056,745,0
7892684,561.01,1056,742,0
7892695,603.65,1056,744,0
7892705,640.44,1056,742,0
7892715,669.71,1056,743,0
7892725,690.20,1056,742,0
7892736,704.54,1056,743,0
7892745,714.62,1056,742,0
7892755,721.68,1056,744,0
7892765,726.66,1056,743,0
7892775,730.19,1056,743,0
7892785,732.66,1056,742,0
7892795,734.39,1056,743,0
7892805,735.60,1056,742,0
7892815,736.45,1056,743,0
7892825,734.13,1056,742,0
7892835,725.86,1056,743,0
7892845,709.70,1056,742,0
7892855,685.06,1056,743,0
7892865,652.52,1056,742,0
7892875,612.38,1056,744,0
7892885,565.76,1056,743,0
7892895,516.85,1056,743,0
7892905,469.75,1056,744,0
7892915,427.91,1056,743,0
7892925,392.97,1056,743,0
7892935,365.98,1056,743,0
7892945,347.51,1056,744,0
7892955,337.29,1056,744,0
7892965,334.54,1056,742,0
7892975,338.54,1056,743,0
7892985,347.72,1056,743,0
7892995,361.13,1056,743,0
7893005,376.74,1056,742,0
7893015,393.31,1056,743,0
7893025,409.33,1056,743,0
7893036,423.51,1056,742,0
7893046,434.75,1056,745,0
7893056,442.71,1056,742,0
7893066,447.00,1056,746,0
7893076,447.39,1056,741,0
7893086,444.10,1056,744,0
7893096,437.30,1056,742,0
7893106,427.95,1056,746,0
7893116,416.05,1056,742,0
7893126,402.62,1056,745,0
7893136,388.08,1056,742,0
7893146,373.35,1056,746,0
7893156,358.63,1056,741,0
7893166,344.86,1056,745,0
7893176,332.21,1056,742,0
7893186,321.56,1056,746,0
7893196,312.61,1056,741,0
7893207,305.70,1056,748,0
7893217,300.86,1056,742,0
7893227,298.29,1056,749,0
7893237,297.17,1056,741,0
7893248,297.81,1056,749,0
7893257,299.32,1056,741,0
7893267,302.18,1056,749,0
7893277,305.56,1056,741,0
7893287,309.72,1056,749,0
7893297,313.87,1056,741,0
7893307,318.80,1056,748,0
7893317,323.36,1056,741,0
7893327,328.44,1056,749,0
7893337,332.76,1056,741,0
7893347,337.08,1056,748,0
7893357,340.31,1056,741,0
7893367,343.39,1056,749,0
7893377,345.16,1056,741,0
7893387,346.65,1056,749,0
7893397,347.10,1056,741,0
7893407,347.50,1056,749,0
7893417,347.35,1056,741,0
7893427,347.12,1056,748,0
7893437,346.44,1056,741,0
7893447,345.88,1056,749,0
7893457,344.67,1056,741,0
7893467,343.66,1056,748,0
7893477,341.83,1056,741,0
7893487,340.47,1056,749,0
7893497,338.57,1056,740,0
7893507,336.77,1056,748,0
7893517,334.82,1056,741,0
7893527,333.42,1056,749,0
7893537,331.71,1056,741,0
7893548,331.11,1056,749,0
7893558,329.71,1056,741,0
7893568,329.37,1056,750,0
7893578,328.44,1056,741,0
7893588,328.01,1056,750,0
7893598,327.32,1056,741,0
7893608,327.65,1056,750,0
7893618,328.31,1056,741,0
7893628,331.95,1056,750,0
7893638,338.39,1056,740,0
7893648,351.09,1056,750,0
7893658,370.95,1056,741,0
7893668,400.79,1056,749,0
7893687,438.74,1037,747,0
7893690,482.02,1037,751,0
7893700,527.06,1037,740,0
7893710,571.87,1037,749,0
7893720,613.09,1037,740,0
7893730,648.55,1037,749,0
7893740,675.30,1037,741,0
7893750,694.07,1037,748,0
7893761,707.25,1037,740,0
7893771,716.47,1037,749,0
7893781,722.93,1037,741,0
7893791,727.45,1037,747,0
7893801,730.62,1037,741,0
7893811,732.83,1037,748,0
7893821,734.38,1037,740,0
7893831,735.47,1037,749,0
7893841,736.18,1037,740,0
7893851,736.64,1037,748,0
7893861,731.86,1037,740,0
7893871,720.68,1037,747,0
7893881,700.76,1037,740,0
7893891,673.32,1037,748,0
7893901,637.91,1037,740,0
7893911,595.72,1037,749,0
7893921,547.16,1037,740,0
7893932,499.41,1037,747,0
7893942,454.80,1037,740,0
7893952,417.53,1037,746,0
7893962,387.16,1037,740,0
7893972,365.68,1037,745,0
7893982,352.54,1037,740,0
7893992,348.09,1037,747,0
7894002,350.21,1037,740,0
7894012,358.29,1037,745,0
7894022,369.81,1037,740,0
7894032,384.40,1037,745,0
7894042,399.28,1037,740,0
7894052,413.94,1037,744,0
7894062,426.34,1037,740,0
7894072,436.70,1037,745,0
7894082,443.17,1037,740,0
7894092,446.64,1037,746,0
7894103,445.67,1037,740,0
7894113,441.91,1037,744,0
7894123,434.35,1037,740,0
7894133,424.73,1037,743,0
7894144,412.09,1037,740,0
7894153,398.30,1037,744,0
7894163,382.95,1037,740,0
7894173,367.63,1037,743,0
7894183,352.22,1037,740,0
7894193,338.19,1037,744,0
7894203,325.27,1037,740,0
7894213,314.56,1037,742,0
7894223,305.52,1037,740,0
7894233,299.11,1037,743,0
7894243,294.70,1037,739,0
7894253,292.56,1037,744,0
7894263,292.31,1037,740,0
7894273,293.93,1037,744,0
7894283,297.72,1037,740,0
7894293,304.36,1037,744,0
7894303,311.97,1037,741,0
7894313,320.46,1037,743,0
7894323,328.30,1037,741,0
7894333,335.45,1037,743,0
7894343,341.40,1037,741,0
7894353,345.69,1037,743,0
7894363,347.29,1037,741,0
7894373,347.41,1037,744,0
7894383,346.26,1037,741,0
7894393,344.55,1037,745,0
7894403,342.80,1037,741,0
7894413,341.02,1037,745,0
7894423,339.17,1037,741,0
7894433,337.79,1037,744,0
7894444,336.57,1037,741,0
7894454,335.71,1037,742,0
7894464,335.41,1037,742,0
7894474,334.90,1037,742,0
7894484,335.19,1037,744,0
7894494,335.18,1037,742,0
7894504,334.69,1037,742,0
7894514,334.10,1037,742,0
7894524,333.21,1037,744,0
7894534,332.68,1037,743,0
7894544,331.96,1037,742,0
7894554,330.43,1037,742,0
7894564,329.31,1037,744,0
7894574,328.58,1037,744,0
7894584,328.32,1037,743,0
7894594,328.09,1037,743,0
7894604,327.68,1037,744,0
7894615,327.22,1037,742,0
7894625,327.67,1037,746,0
7894635,329.14,1037,742,0
7894645,333.47,1037,747,0
7894656,341.86,1037,741,0
7894665,357.03,1037,745,0
7894675,380.81,1037,741,0
7894694,415.41,1007,740,0
7894697,456.60,1007,743,0
7894707,501.93,1007,750,0
7894717,547.98,1007,741,0
7894727,592.30,1007,749,0
7894737,631.77,1007,741,0
7894747,663.72,1007,749,0
7894757,686.09,1007,741,0
7894767,701.84,1007,750,0
7894777,712.81,1007,741,0
7894787,720.58,1007,750,0
7894797,725.98,1007,741,0
7894807,729.80,1007,749,0
7894817,732.43,1007,741,0
7894828,734.32,1007,750,0
7894838,735.59,1007,741,0
7894848,736.53,1007,750,0
7894858,737.10,1007,741,0
7894868,737.54,1007,750,0
7894878,737.81,1007,741,0
7894888,738.04,1007,750,0
7894898,738.15,1007,741,0
7894908,738.28,1007,750,0
7894918,737.51,1007,741,0
7894928,732.77,1007,750,0
7894938,721.10,1007,741,0
7894948,702.04,1007,750,0
7894958,674.98,1007,741,0
7894968,641.56,1007,750,0
7894978,601.36,1007,741,0
7894988,557.24,1007,750,0
7894999,512.64,1007,741,0
7895009,472.59,1007,750,0
7895019,438.04,1007,741,0
7895029,411.24,1007,750,0
7895040,390.60,1007,741,0
7895049,378.12,1007,752,0
7895059,371.10,1007,741,0
7895069,369.95,1007,750,0
7895079,371.68,1007,741,0
7895089,376.28,1007,750,0
7895099,380.91,1007,741,0
7895109,385.95,1007,749,0
7895119,388.88,1007,741,0
7895129,390.63,1007,750,0
7895139,389.71,1007,741,0
7895149,387.23,1007,752,0
7895159,381.67,1007,741,0
7895169,375.39,1007,750,0
7895179,366.87,1007,741,0
7895189,357.95,1007,749,0
7895199,347.72,1007,741,0
7895209,337.99,1007,749,0
7895219,328.01,1007,741,0
7895229,319.86,1007,749,0
7895239,311.68,1007,741,0
7895249,305.60,1007,749,0
7895259,300.15,1007,741,0
7895269,296.85,1007,749,0
7895279,294.11,1007,741,0
7895289,293.26,1007,751,0
7895299,292.71,1007,741,0
7895309,294.04,1007,749,0
7895319,295.53,1007,741,0
7895329,298.41,1007,749,0
7895340,301.07,1007,741,0
7895350,304.78,1007,748,0
7895360,307.98,1007,741,0
7895370,311.75,1007,750,0
7895380,314.70,1007,741,0
7895390,318.00,1007,748,0
7895400,320.36,1007,741,0
7895410,323.12,1007,748,0
7895420,324.84,1007,741,0
7895430,327.33,1007,748,0
7895440,328.56,1007,741,0
7895450,329.85,1007,748,0
7895460,329.94,1007,741,0
7895470,330.17,1007,749,0
7895480,329.31,1007,741,0
7895490,328.53,1007,748,0
7895500,326.48,1007,741,0
7895511,324.92,1007,746,0
7895521,322.68,1007,741,0
7895531,321.02,1007,746,0
7895541,318.78,1007,741,0
7895552,317.05,1007,745,0
7895561,314.98,1007,741,0
7895571,313.44,1007,747,0
7895581,311.85,1007,742,0
7895591,310.82,1007,746,0
7895601,309.63,1007,741,0
7895611,309.06,1007,748,0
7895621,308.36,1007,741,0
7895631,308.25,1007,746,0
7895641,307.87,1007,741,0
7895651,308.08,1007,747,0
7895661,308.19,1007,741,0
7895671,308.73,1007,746,0
7895681,309.03,1007,741,0
7895691,309.75,1007,748,0
7895701,310.25,1007,741,0
7895711,311.08,1007,746,0
7895721,311.44,1007,742,0
7895731,312.21,1007,747,0
7895741,312.53,1007,741,0
7895751,313.10,1007,746,0
7895761,313.76,1007,742,0
7895771,315.03,1007,747,0
7895781,317.03,1007,741,0
7895791,322.00,1007,746,0
7895801,330.18,1007,741,0
7895811,344.53,1007,746,0
7895821,366.44,1007,741,0
7895840,398.84,1146,740,0
7895843,439.00,1146,746,0
7895853,484.09,1146,744,0
7895863,530.43,1146,743,0
7895873,576.07,1146,742,0
7895883,617.79,1146,744,0
7895894,653.21,1146,742,0
7895903,678.82,1146,743,0
7895913,696.79,1146,743,0
7895923,709.41,1146,744,0
7895933,718.24,1146,742,0
7895943,724.47,1146,743,0
7895953,728.83,1146,743,0
7895963,731.88,1146,744,0
7895973,734.02,1146,742,0
7895983,735.51,1146,743,0
7895993,736.56,1146,743,0
7896003,737.29,1146,744,0
7896013,737.80,1146,742,0
7896023,738.16,1146,743,0
7896033,738.37,1146,743,0
7896043,738.52,1146,744,0
7896053,738.58,1146,743,0
7896064,738.62,1146,746,0
7896073,738.65,1146,743,0
7896083,736.82,1146,744,0
7896093,730.32,1146,742,0
7896103,717.20,1146,745,0
7896113,697.25,1146,743,0
7896123,669.88,1146,744,0
7896133,635.93,1146,742,0
7896143,596.05,1146,745,0
7896153,553.31,1146,743,0
7896163,511.60,1146,743,0
7896173,474.05,1146,743,0
7896183,442.06,1146,745,0
7896193,416.80,1146,743,0
7896203,398.30,1146,743,0
7896213,385.91,1146,742,0
7896223,379.04,1146,745,0
7896233,376.03,1146,742,0
7896243,375.76,1146,743,0
7896253,376.52,1146,743,0
7896263,378.08,1146,746,0
7896273,379.34,1146,742,0
7896283,379.88,1146,743,0
7896293,378.72,1146,743,0
7896303,376.23,1146,745,0
7896313,372.30,1146,742,0
7896323,367.37,1146,743,0
7896333,361.13,1146,743,0
7896343,353.98,1146,745,0
7896353,345.93,1146,742,0
7896364,338.06,1146,746,0
7896374,330.20,1146,742,0
7896384,323.20,1146,748,0
7896394,316.71,1146,741,0
7896404,311.31,1146,748,0
7896414,306.46,1146,742,0
7896424,303.45,1146,748,0
7896434,301.09,1146,741,0
7896444,300.59,1146,748,0
7896454,300.63,1146,742,0
7896464,301.90,1146,748,0
7896474,303.38,1146,741,0
7896484,306.01,1146,749,0
7896494,308.84,1146,742,0
7896504,312.23,1146,748,0
7896514,314.90,1146,741,0
7896524,317.93,1146,748,0
7896535,320.52,1146,741,0
7896545,323.50,1146,749,0
7896555,325.79,1146,741,0
7896565,327.95,1146,750,0
7896576,328.95,1146,741,0
7896585,330.30,1146,750,0
7896595,330.98,1146,741,0
7896605,332.01,1146,748,0
7896615,332.40,1146,742,0
7896625,332.92,1146,749,0
7896635,332.39,1146,741,0
7896645,332.74,1146,749,0
7896655,332.01,1146,741,0
7896665,331.53,1146,749,0
7896675,330.00,1146,741,0
7896685,328.54,1146,748,0
7896695,326.24,1146,741,0
7896705,324.62,1146,749,0
7896715,322.55,1146,741,0
7896725,321.06,1146,749,0
7896735,318.81,1146,741,0
7896745,317.28,1146,749,0
7896755,315.57,1146,741,0
7896765,314.84,1146,748,0
7896775,313.77,1146,741,0
7896785,313.20,1146,749,0
7896795,312.58,1146,742,0
7896805,312.71,1146,749,0
7896815,312.32,1146,741,0
7896825,312.48,1146,749,0
7896835,312.04,1146,741,0
7896845,312.16,1146,749,0
7896855,311.77,1146,741,0
7896865,312.31,1146,749,0
7896876,312.47,1146,741,0
7896886,313.83,1146,750,0
7896896,314.52,1146,741,0
7896906,315.95,1146,750,0
7896916,316.78,1146,741,0
7896926,318.18,1146,749,0
7896936,318.38,1146,741,0
7896946,319.12,1146,750,0
7896956,318.87,1146,741,0
7896966,319.51,1146,750,0
7896976,320.04,1146,741,0
7896986,322.13,1146,750,0
7896996,325.73,1146,741,0
7897006,333.40,1146,752,0
7897016,345.32,1146,741,0
7897026,365.84,1146,750,0
7897046,395.59,0,751,0
7897049,433.94,0,752,0
7897058,477.24,0,741,0
7897068,523.11,0,751,0
7897078,568.42,0,742,0
7897089,611.32,0,748,0
7897099,647.36,0,742,0
7897109,674.76,0,747,0
7897119,693.99,0,742,0
7897129,707.45,0,750,0
7897139,716.87,0,742,0
7897149,723.47,0,751,0
7897159,728.08,0,742,0
7897169,731.27,0,750,0
7897179,733.46,0,741,0
7897189,735.04,0,749,0
7897199,736.18,0,742,0
7897209,736.99,0,749,0
7897219,737.50,0,741,0
7897229,737.87,0,748,0
7897239,738.16,0,742,0
7897249,738.42,0,748,0
7897260,738.55,0,742,0
7897270,738.64,0,747,0
7897280,735.32,0,742,0
7897290,726.22,0,747,0
7897300,709.79,0,742,0
7897310,686.06,0,747,0
7897320,655.10,0,742,0
7897330,617.96,0,746,0
7897340,575.24,0,742,0
7897350,532.10,0,747,0
7897360,491.53,0,742,0
7897370,456.91,0,747,0
7897380,428.39,0,742,0
7897390,407.10,0,749,0
7897400,392.07,0,742,0
7897410,383.78,0,745,0
7897420,379.99,0,741,0
7897431,380.64,0,744,0
7897441,383.06,0,742,0
7897451,387.28,0,744,0
7897461,391.40,0,742,0
7897472,395.22,0,744,0
7897481,397.13,0,742,0
7897491,397.43,0,745,0
7897501,395.29,0,742,0
7897511,391.26,0,745,0
7897521,385.10,0,743,0
7897531,377.05,0,748,0
7897541,367.87,0,742,0
7897551,357.92,0,744,0
7897561,347.66,0,742,0
7897571,337.86,0,745,0
7897581,328.77,0,742,0
7897591,320.66,0,744,0
7897601,314.07,0,742,0
7897611,308.52,0,746,0
7897621,304.21,0,742,0
7897631,301.27,0,744,0
7897641,299.39,0,743,0
7897651,298.59,0,745,0
7897661,298.54,0,742,0
7897671,299.32,0,744,0
7897681,300.98,0,743,0
7897691,303.52,0,747,0
7897701,306.53,0,742,0
7897711,309.24,0,745,0
7897721,312.13,0,743,0
7897731,315.13,0,746,0
7897741,318.18,0,741,0
7897751,320.14,0,744,0
7897761,322.28,0,743,0
7897772,323.31,0,742,0
7897782,325.45,0,748,0
7897792,326.43,0,741,0
7897802,327.80,0,753,0
7897812,328.03,0,741,0
7897822,329.35,0,749,0
7897832,329.16,0,741,0
7897842,330.05,0,753,0
7897852,329.18,0,741,0
7897862,329.47,0,749,0
7897872,328.17,0,741,0
7897882,328.08,0,753,0
7897892,326.55,0,741,0
7897902,326.17,0,749,0
7897912,324.24,0,741,0
7897922,323.48,0,753,0
7897932,321.36,0,741,0
7897943,320.74,0,753,0
7897953,318.76,0,741,0
7897963,318.58,0,753,0
7897973,317.07,0,741,0
7897984,317.82,0,753,0
7897993,316.89,0,741,0
7898003,317.69,0,753,0
7898013,316.54,0,744,0
7898023,316.89,0,751,0
7898033,316.11,0,742,0
7898043,316.64,0,748,0
7898053,315.76,0,741,0
7898063,316.43,0,748,0
7898073,315.83,0,742,0
7898083,316.70,0,748,0
7898093,316.44,0,741,0
7898103,316.65,0,749,0
7898113,316.20,0,742,0
7898123,316.27,0,748,0
7898133,315.59,0,742,0
7898143,315.80,0,749,0
7898153,315.69,0,741,0
7898163,316.60,0,748,0
7898173,317.19,0,742,0
7898183,319.45,0,749,0
7898193,322.74,0,741,0
7898203,329.85,0,748,0
7898213,340.82,0,741,0
7898232,359.13,1187,739,0
7898235,385.88,1187,742,0
7898245,422.56,1187,753,0
7898255,464.73,1187,741,0
7898265,510.28,1187,753,0
7898275,555.80,1187,741,0
7898285,599.36,1187,753,0
7898295,637.39,1187,741,0
7898305,667.62,1187,753,0
7898315,688.78,1187,740,0
7898326,703.63,1187,753,0
7898335,714.03,1187,741,0
7898345,721.30,1187,753,0
7898355,726.36,1187,740,0
7898365,729.89,1187,753,0
7898375,732.37,1187,741,0
7898385,734.14,1187,753,0
7898395,735.34,1187,740,0
7898405,736.23,1187,753,0
7898415,736.89,1187,741,0
7898425,737.39,1187,753,0
7898435,737.75,1187,740,0
7898445,738.04,1187,753,0
7898455,738.15,1187,741,0
7898465,735.24,1187,753,0
7898475,725.82,1187,740,0
7898485,709.42,1187,753,0
7898496,684.69,1187,740,0
7898505,653.11,1187,753,0
7898515,614.29,1187,740,0
7898525,570.19,1187,753,0
7898535,524.62,1187,741,0
7898545,482.82,1187,753,0
7898555,445.59,1187,740,0
7898565,416.31,1187,753,0
7898575,393.85,1187,741,0
7898585,380.05,1187,753,0
7898595,372.19,1187,740,0
7898605,370.55,1187,753,0
7898615,372.61,1187,740,0
7898625,379.07,1187,753,0
7898635,386.42,1187,740,0
7898645,394.95,1187,753,0
7898655,401.91,1187,740,0
7898665,408.62,1187,753,0
7898675,412.51,1187,740,0
7898685,414.63,1187,753,0
7898695,413.07,1187,740,0
7898705,409.66,1187,753,0
7898715,403.46,1187,740,0
7898725,395.95,1187,753,0
7898735,386.37,1187,740,0
7898745,376.44,1187,753,0
7898755,365.34,1187,740,0
7898765,355.04,1187,753,0
7898775,344.53,1187,740,0
7898785,335.37,1187,753,0
7898796,326.64,1187,740,0
7898806,319.38,1187,753,0
7898816,313.09,1187,741,0
7898826,308.99,1187,753,0
7898836,305.61,1187,740,0
7898846,304.44,1187,753,0
7898856,303.54,1187,740,0
7898866,304.23,1187,753,0
7898876,305.36,1187,740,0
7898886,307.61,1187,753,0
7898896,309.96,1187,741,0
7898906,312.88,1187,753,0
7898916,315.36,1187,740,0
7898926,318.38,1187,753,0
7898936,320.92,1187,741,0
7898946,323.56,1187,753,0
7898956,325.75,1187,740,0
7898967,327.67,1187,752,0
7898977,329.27,1187,741,0
7898987,330.64,1187,752,0
7898997,331.57,1187,740,0
7899008,332.25,1187,753,0
7899017,332.91,1187,741,0
7899027,333.28,1187,752,0
7899037,333.45,1187,741,0
7899047,333.32,1187,752,0
7899057,332.75,1187,741,0
7899067,332.82,1187,751,0
7899077,332.66,1187,741,0
7899087,332.29,1187,751,0
7899097,331.48,1187,741,0
7899107,330.90,1187,751,0
7899117,329.95,1187,741,0
7899127,329.49,1187,751,0
7899137,327.72,1187,741,0
7899147,326.43,1187,751,0
7899157,324.72,1187,741,0
7899167,323.64,1187,750,0
7899177,322.25,1187,741,0
7899187,321.66,1187,751,0
7899197,320.73,1187,741,0
7899207,320.39,1187,752,0
7899217,319.54,1187,741,0
7899227,319.42,1187,752,0
7899237,318.82,1187,741,0
7899247,318.66,1187,752,0
7899257,317.99,1187,741,0
7899267,318.25,1187,752,0
7899277,318.43,1187,741,0
7899287,319.07,1187,752,0
7899297,319.14,1187,741,0
7899308,319.83,1187,751,0
7899318,320.01,1187,741,0
7899328,320.65,1187,748,0
7899338,320.58,1187,741,0
7899348,321.18,1187,749,0
7899358,322.84,1187,741,0
7899368,327.30,1187,747,0
7899378,335.35,1187,741,0
7899388,348.79,1187,749,0
7899398,369.47,1187,742,0
7899417,400.06,1185,739,0
7899420,438.82,1185,744,0
7899430,482.51,1185,743,0
7899440,527.91,1185,742,0
7899450,572.42,1185,744,0
7899460,613.87,1185,743,0
7899470,649.35,1185,742,0
7899480,675.99,1185,742,0
7899490,694.63,1185,743,0
7899500,707.69,1185,743,0
7899510,716.82,1185,742,0
7899521,723.22,1185,744,0
7899531,727.70,1185,742,0
7899541,730.87,1185,745,0
7899551,733.05,1185,741,0
7899561,734.62,1185,746,0
7899571,735.68,1185,741,0
7899581,736.46,1185,745,0
7899591,737.01,1185,742,0
7899601,737.43,1185,746,0
7899611,737.69,1185,742,0
7899621,735.81,1185,745,0
7899631,728.24,1185,742,0
7899641,713.94,1185,746,0
7899651,691.93,1185,741,0
7899661,662.64,1185,745,0
7899671,625.55,1185,741,0
7899681,582.91,1185,747,0
7899692,536.95,1185,741,0
7899702,493.72,1185,747,0
7899712,454.55,1185,741,0
7899722,422.41,1185,748,0
7899732,397.05,1185,740,0
7899742,380.70,1185,748,0
7899752,370.76,1185,741,0
7899762,368.69,1185,748,0
7899772,371.01,1185,740,0
7899782,378.38,1185,747,0
7899792,387.35,1185,741,0
7899802,398.35,1185,748,0
7899812,407.89,1185,741,0
7899822,417.31,1185,747,0
7899832,423.26,1185,740,0
7899842,427.68,1185,753,0
7899852,427.95,1185,740,0
7899863,426.68,1185,748,0
7899873,421.85,1185,740,0
7899883,416.06,1185,753,0
7899893,407.00,1185,740,0
7899904,397.92,1185,753,0
7899913,386.33,1185,741,0
7899923,375.81,1185,753,0
7899933,363.83,1185,740,0
7899943,353.55,1185,753,0
7899953,342.97,1185,741,0
7899963,335.05,1185,752,0
7899973,327.15,1185,740,0
7899983,322.09,1185,753,0
7899993,316.88,1185,741,0
7900003,314.34,1185,752,0
7900013,311.71,1185,740,0
7900023,311.54,1185,753,0
7900033,310.78,1185,741,0
7900043,311.87,1185,753,0
7900053,312.21,1185,740,0
7900063,314.46,1185,753,0
7900073,315.91,1185,741,0
7900083,318.77,1185,753,0
7900093,320.16,1185,740,0
7900103,322.99,1185,753,0
7900113,324.62,1185,741,0
7900123,327.69,1185,753,0
7900133,329.24,1185,740,0
7900143,331.91,1185,753,0
7900153,333.05,1185,740,0
7900163,335.44,1185,753,0
7900173,336.38,1185,740,0
7900183,338.41,1185,753,0
7900193,338.67,1185,741,0
7900204,339.97,1185,753,0
7900214,339.64,1185,740,0
7900224,340.17,1185,752,0
7900234,339.26,1185,740,0
7900244,339.27,1185,752,0
7900254,337.78,1185,740,0
7900264,337.24,1185,753,0
7900274,335.41,1185,740,0
7900284,334.35,1185,752,0
7900294,332.53,1185,740,0
7900304,331.64,1185,753,0
7900314,329.91,1185,740,0
7900324,329.03,1185,752,0
7900334,327.61,1185,740,0
7900344,327.17,1185,753,0
7900354,325.83,1185,740,0
7900364,325.11,1185,752,0
7900375,323.54,1185,740,0
7900385,322.65,1185,752,0
7900395,321.38,1185,740,0
7900405,320.67,1185,752,0
7900416,319.57,1185,740,0
7900425,319.65,1185,752,0
7900435,319.41,1185,740,0
7900445,320.23,1185,752,0
7900455,320.59,1185,740,0
7900465,321.66,1185,753,0
7900475,322.15,1185,740,0
7900485,322.74,1185,752,0
7900495,322.99,1185,740,0
7900505,323.68,1185,753,0
7900515,324.38,1185,740,0
7900525,326.53,1185,752,0
7900535,330.45,1185,740,0
7900545,338.46,1185,752,0
7900555,351.56,1185,740,0
7900565,372.05,1185,752,0
7900584,401.35,1167,751,0
7900588,438.96,1167,751,0
7900598,481.57,1167,741,0
7900608,526.36,1167,749,0
7900618,570.48,1167,741,0
7900628,611.65,1167,744,0
7900638,646.90,1167,741,0
7900648,674.06,1167,749,0
7900658,693.15,1167,741,0
7900668,706.48,1167,744,0
7900678,715.81,1167,741,0
7900688,722.29,1167,748,0
7900698,726.88,1167,741,0
7900708,730.04,1167,744,0
7900718,732.30,1167,741,0
7900728,733.84,1167,749,0
7900738,734.96,1167,741,0
7900748,735.70,1167,743,0
7900759,736.26,1167,742,0
7900769,734.43,1167,744,0
7900779,728.26,1167,742,0
7900789,714.72,1167,741,0
7900800,694.06,1167,745,0
7900809,665.33,1167,743,0
7900819,630.22,1167,742,0
7900829,588.32,1167,741,0
7900839,544.21,1167,744,0
7900849,500.01,1167,743,0
7900859,461.09,1167,742,0
7900869,427.16,1167,741,0
7900879,401.70,1167,743,0
7900889,382.72,1167,744,0
7900899,372.39,1167,742,0
7900909,367.90,1167,741,0
7900919,370.59,1167,743,0
7900929,377.18,1167,743,0
7900939,388.49,1167,741,0
7900949,400.68,1167,741,0
7900959,414.62,1167,743,0
7900969,426.73,1167,740,0
7900979,438.17,1167,742,0
7900989,446.13,1167,741,0
7900999,452.22,1167,743,0
7901009,454.00,1167,741,0
7901019,453.36,1167,742,0
7901029,448.36,1167,741,0
7901039,442.13,1167,743,0
7901049,432.27,1167,741,0
7901059,421.95,1167,742,0
7901069,409.06,1167,742,0
7901079,396.83,1167,743,0
7901089,383.25,1167,741,0
7901100,371.61,1167,745,0
7901110,359.17,1167,740,0
7901120,349.47,1167,752,0
7901130,339.30,1167,740,0
7901140,331.93,1167,753,0
7901150,324.45,1167,740,0
7901160,319.99,1167,751,0
7901170,315.66,1167,740,0
7901180,314.22,1167,751,0
7901190,312.70,1167,740,0
7901200,313.77,1167,751,0
7901210,314.44,1167,741,0
7901220,317.39,1167,752,0
7901230,319.68,1167,741,0
7901240,323.42,1167,748,0
7901250,325.86,1167,740,0
7901260,329.72,1167,751,0
7901271,332.07,1167,740,0
7901281,335.74,1167,753,0
7901291,337.79,1167,740,0
7901301,340.72,1167,753,0
7901312,342.09,1167,740,0
7901321,344.68,1167,753,0
7901331,345.33,1167,740,0
7901341,347.33,1167,753,0
7901351,347.36,1167,740,0
7901361,348.75,1167,753,0
7901371,348.83,1167,740,0
7901381,350.04,1167,752,0
7901391,349.64,1167,740,0
7901401,350.22,1167,753,0
7901411,348.91,1167,740,0
7901421,348.72,1167,753,0
7901431,346.75,1167,740,0
7901441,345.62,1167,753,0
7901451,343.12,1167,740,0
7901461,342.06,1167,753,0
7901471,340.15,1167,740,0
7901481,339.94,1167,753,0
7901491,338.67,1167,741,0
7901501,338.81,1167,753,0
7901511,337.54,1167,740,0
7901521,337.72,1167,753,0
7901531,336.30,1167,740,0
7901541,336.30,1167,753,0
7901551,334.88,1167,740,0
7901561,334.75,1167,753,0
7901571,333.24,1167,740,0
7901581,333.29,1167,753,0
7901591,332.13,1167,740,0
7901601,332.48,1167,753,0
7901612,332.08,1167,740,0
7901622,333.68,1167,752,0
7901632,335.88,1167,740,0
7901642,342.17,1167,752,0
7901652,351.76,1167,740,0
7901662,368.33,1167,752,0
7901681,391.85,1097,751,0
7901684,425.28,1097,751,0
7901694,464.71,1097,741,0
7901704,508.08,1097,751,0
7901714,551.77,1097,740,0
7901724,594.14,1097,751,0
7901734,631.81,1097,741,0
7901744,663.20,1097,751,0
7901754,685.47,1097,740,0
7901764,701.06,1097,751,0
7901774,711.97,1097,741,0
7901784,719.65,1097,751,0
7901794,725.03,1097,740,0
7901804,728.79,1097,751,0
7901814,731.38,1097,740,0
7901825,733.15,1097,751,0
7901835,734.39,1097,741,0
7901845,735.22,1097,751,0
7901855,735.75,1097,741,0
7901865,736.13,1097,749,0
7901875,734.93,1097,740,0
7901885,729.38,1097,750,0
7901895,717.14,1097,740,0
7901905,697.21,1097,749,0
7901915,669.63,1097,740,0
7901925,635.03,1097,749,0
7901935,594.05,1097,740,0
7901945,549.25,1097,748,0
7901955,504.82,1097,740,0
7901965,464.29,1097,750,0
7901975,429.87,1097,740,0
7901985,402.65,1097,749,0
7901996,383.09,1097,741,0
7902006,370.97,1097,747,0
7902016,366.22,1097,741,0
7902026,367.44,1097,747,0
7902036,373.74,1097,741,0
7902046,383.37,1097,747,0
7902056,395.05,1097,741,0
7902066,407.38,1097,746,0
7902076,419.78,1097,741,0
7902086,430.64,1097,747,0
7902096,439.19,1097,742,0
7902106,444.36,1097,747,0
7902116,446.61,1097,742,0
7902126,445.87,1097,748,0
7902136,441.88,1097,742,0
7902146,434.20,1097,748,0
7902156,423.94,1097,742,0
7902167,411.36,1097,745,0
7902177,398.14,1097,742,0
7902187,383.95,1097,743,0
7902197,370.38,1097,742,0
7902208,357.37,1097,742,0
7902217,346.50,1097,742,0
7902227,336.66,1097,745,0
7902237,329.74,1097,743,0
7902247,324.03,1097,742,0
7902257,320.72,1097,743,0
7902267,317.80,1097,747,0
7902277,316.79,1097,743,0
7902287,315.70,1097,743,0
7902297,316.13,1097,743,0
7902307,315.96,1097,745,0
7902317,316.83,1097,743,0
7902327,317.57,1097,743,0
7902337,319.15,1097,743,0
7902347,320.14,1097,745,0
7902357,322.58,1097,743,0
7902367,323.99,1097,743,0
7902377,326.27,1097,744,0
7902387,327.69,1097,746,0
7902397,329.54,1097,743,0
7902407,330.75,1097,744,0
7902417,332.75,1097,744,0
7902427,333.55,1097,746,0
7902437,335.45,1097,743,0
7902447,336.34,1097,743,0
7902457,338.08,1097,744,0
7902467,338.70,1097,747,0
7902477,339.86,1097,743,0
7902487,339.73,1097,744,0
7902497,340.24,1097,744,0
7902508,339.40,1097,744,0
7902518,339.58,1097,747,0
7902528,338.68,1097,742,0
7902538,338.77,1097,751,0
7902548,337.90,1097,742,0
7902558,337.97,1097,747,0
7902568,336.61,1097,742,0
7902578,336.47,1097,751,0
7902588,335.13,1097,742,0
7902598,334.88,1097,747,0
7902608,333.16,1097,742,0
7902618,332.55,1097,751,0
7902628,330.67,1097,742,0
7902638,330.26,1097,745,0
7902648,328.59,1097,742,0
7902658,328.50,1097,750,0
7902668,327.07,1097,742,0
7902679,327.39,1097,752,0
7902689,326.59,1097,741,0
7902699,327.91,1097,753,0
7902709,328.02,1097,742,0
7902720,329.99,1097,753,0
7902729,330.81,1097,741,0
7902739,334.21,1097,752,0
7902749,338.86,1097,741,0
7902759,348.67,1097,752,0
7902778,362.06,1097,749,0
7902781,384.75,1097,753,0
7902791,416.80,1097,741,0
7902801,456.63,1097,753,0
7902811,499.94,1097,741,0
7902821,544.96,1097,753,0
7902831,588.00,1097,741,0
7902841,628.11,1097,752,0
7902851,660.91,1097,741,0
7902861,684.21,1097,752,0
7902871,700.52,1097,741,0
7902881,711.98,1097,751,0
7902892,719.95,1097,741,0
7902902,725.58,1097,751,0
7902912,729.52,1097,741,0
7902922,732.32,1097,751,0
7902932,734.28,1097,741,0
7902942,735.66,1097,752,0
7902952,736.57,1097,741,0
7902962,737.26,1097,751,0
7902972,737.70,1097,741,0
7902982,738.00,1097,751,0
7902992,738.17,1097,741,0
7903002,738.29,1097,750,0
7903012,734.99,1097,741,0
7903022,726.98,1097,751,0
7903032,711.60,1097,741,0
7903042,689.52,1097,750,0
7903052,659.62,1097,741,0
7903063,623.82,1097,751,0
7903073,582.30,1097,741,0
7903083,540.08,1097,750,0
7903093,499.60,1097,742,0
7903104,465.44,1097,751,0
7903113,437.10,1097,742,0
7903123,416.80,1097,751,0
7903133,402.80,1097,742,0
7903143,395.66,1097,750,0
7903153,393.66,1097,742,0
7903163,396.46,1097,751,0
7903173,401.08,1097,741,0
7903183,407.53,1097,750,0
7903193,413.80,1097,741,0
7903203,420.12,1097,751,0
7903213,425.01,1097,742,0
7903223,428.74,1097,750,0
7903233,429.46,1097,742,0
7903243,428.59,1097,751,0
7903253,424.94,1097,742,0
7903263,419.90,1097,750,0
7903273,412.43,1097,742,0
7903283,403.82,1097,751,0
7903293,393.41,1097,742,0
7903303,382.66,1097,750,0
7903313,370.85,1097,742,0
7903323,359.92,1097,751,0
7903333,349.10,1097,742,0
7903343,339.90,1097,750,0
7903353,331.44,1097,742,0
7903363,325.05,1097,751,0
7903373,319.68,1097,742,0
7903383,316.43,1097,751,0
7903393,314.03,1097,742,0
7903404,313.25,1097,750,0
7903414,312.96,1097,743,0
7903424,314.09,1097,749,0
7903434,315.26,1097,743,0
7903444,317.63,1097,749,0
7903454,319.84,1097,743,0
7903464,322.84,1097,749,0
7903474,322.42,1097,740,0
7903484,317.19,1097,744,0
7903494,310.75,1097,738,0
7903504,306.32,1097,747,0
7903514,302.76,1097,738,0
7903524,300.30,1097,745,0
7903534,297.00,1097,738,0
7903544,299.40,1097,750,0
7903554,312.01,1097,743,0
7903564,327.60,1097,744,0
7903575,339.47,1097,739,0
7903585,348.20,1097,744,0
7903595,355.51,1097,741,0
7903605,362.77,1097,744,0
7903616,368.24,1097,742,0
7903625,367.23,1097,746,0
7903635,363.60,1097,741,0
7903645,360.89,1097,745,0
7903655,358.82,1097,741,0
7903665,355.32,1097,746,0
7903675,351.58,1097,741,0
7903685,347.29,1097,746,0
7903695,343.73,1097,741,0
7903705,339.61,1097,747,0
7903715,337.07,1097,743,0
7903725,334.48,1097,745,0
7903735,332.28,1097,742,0
7903745,328.55,1097,746,0
7903755,323.63,1097,740,0
7903765,318.13,1097,745,0
7903775,314.75,1097,742,0
7903785,310.62,1097,743,0
7903795,308.04,1097,741,0
7903805,307.64,1097,745,0
7903815,310.06,1097,742,0
7903825,313.90,1097,743,0
7903835,319.84,1097,741,0
7903845,324.95,1097,744,0
7903855,334.26,1097,743,0
7903865,348.88,1097,743,0
7903875,370.43,1097,741,0
7903885,401.25,1097,745,0
7903895,440.00,1097,743,0
7903915,483.37,1136,741,0
7903918,530.23,1136,749,0
7903928,575.51,1136,741,0
7903938,617.05,1136,750,0
7903948,652.09,1136,742,0
7903959,678.08,1136,751,0
7903969,696.27,1136,741,0
7903979,709.09,1136,751,0
7903989,718.06,1136,741,0
7904000,724.43,1136,751,0
7904009,728.84,1136,741,0
7904019,731.98,1136,751,0
7904029,734.13,1136,742,0
7904039,735.67,1136,752,0
7904049,736.71,1136,742,0
7904059,737.49,1136,751,0
7904069,737.98,1136,742,0
7904079,738.33,1136,752,0
7904089,738.57,1136,741,0
7904099,738.79,1136,752,0
7904109,738.89,1136,741,0
7904119,738.97,1136,752,0
7904129,738.68,1136,741,0
7904139,734.23,1136,750,0
7904149,722.93,1136,740,0
7904159,706.07,1136,751,0
7904169,682.48,1136,741,0
7904179,653.70,1136,751,0
7904189,619.51,1136,742,0
7904199,581.86,1136,752,0
7904209,544.70,1136,742,0
7904219,511.66,1136,750,0
7904229,483.01,1136,742,0
7904239,461.19,1136,751,0
7904249,444.25,1136,742,0
7904259,432.94,1136,751,0
7904269,424.18,1136,741,0
7904279,419.71,1136,752,0
7904289,417.40,1136,742,0
7904300,416.38,1136,752,0
7904310,413.65,1136,741,0
7904320,410.75,1136,752,0
7904330,406.33,1136,742,0
7904340,402.42,1136,752,0
7904350,395.91,1136,742,0
7904360,388.35,1136,752,0
7904370,379.07,1136,742,0
7904380,370.69,1136,752,0
7904390,361.31,1136,742,0
7904400,352.69,1136,752,0
7904410,343.31,1136,742,0
7904420,335.20,1136,752,0
7904430,326.96,1136,741,0
7904440,319.08,1136,751,0
7904450,311.39,1136,742,0
7904460,305.83,1136,752,0
7904471,300.69,1136,742,0
7904481,297.49,1136,751,0
7904491,294.55,1136,742,0
7904501,292.67,1136,750,0
7904512,292.60,1136,742,0
7904521,294.22,1136,751,0
7904531,295.53,1136,742,0
7904541,296.74,1136,750,0
7904551,297.97,1136,742,0
7904561,301.11,1136,751,0
7904571,305.28,1136,742,0
7904581,308.75,1136,750,0
7904591,311.70,1136,742,0
7904601,315.69,1136,751,0
7904611,319.90,1136,742,0
7904621,322.93,1136,750,0
7904631,324.28,1136,742,0
7904641,326.55,1136,751,0
7904651,328.96,1136,742,0
7904661,331.20,1136,751,0
7904671,331.48,1136,741,0
7904681,330.39,1136,748,0
7904691,328.48,1136,740,0
7904701,327.95,1136,750,0
7904711,326.38,1136,741,0
7904721,323.86,1136,748,0
7904731,320.65,1136,740,0
7904741,319.90,1136,751,0
7904751,321.86,1136,742,0
7904761,326.40,1136,750,0
7904771,329.37,1136,741,0
7904781,330.63,1136,749,0
7904791,332.28,1136,742,0
7904801,335.37,1136,750,0
7904812,336.50,1136,742,0
7904822,334.94,1136,748,0
7904832,330.88,1136,740,0
7904842,327.75,1136,748,0
7904852,327.09,1136,742,0
7904862,327.58,1136,749,0
7904872,325.43,1136,740,0
7904882,322.22,1136,747,0
7904892,320.61,1136,742,0
7904902,322.36,1136,749,0
7904912,325.85,1136,741,0
7904922,330.44,1136,747,0
7904932,340.42,1136,742,0
7904942,359.88,1136,749,0
7904961,387.73,1047,746,0
7904964,425.14,1047,744,0
7904974,467.61,1047,745,0
7904984,512.64,1047,744,0
7904994,558.91,1047,742,0
7905004,601.49,1047,743,0
7905014,637.69,1047,744,0
7905025,667.78,1047,741,0
7905035,688.89,1047,743,0
7905045,703.58,1047,740,0
7905055,713.73,1047,743,0
7905065,720.84,1047,742,0
7905075,725.95,1047,746,0
7905085,729.52,1047,743,0
7905095,732.11,1047,747,0
7905105,733.96,1047,743,0
7905115,735.39,1047,746,0
7905125,736.51,1047,743,0
7905135,737.43,1047,748,0
7905145,738.03,1047,743,0
7905155,738.49,1047,746,0
7905165,736.72,1047,743,0
7905175,730.12,1047,747,0
7905185,716.11,1047,742,0
7905196,694.61,1047,748,0
7905206,664.85,1047,741,0
7905216,628.25,1047,749,0
7905226,584.89,1047,742,0
7905236,539.54,1047,750,0
7905246,495.02,1047,741,0
7905256,456.06,1047,749,0
7905266,422.48,1047,741,0
7905276,396.67,1047,749,0
7905286,376.88,1047,740,0
7905296,363.63,1047,746,0
7905306,353.33,1047,737,0
7905316,347.74,1047,747,0
7905326,347.43,1047,740,0
7905336,353.60,1047,747,0
7905346,362.21,1047,739,0
7905356,372.90,1047,746,0
7905367,384.33,1047,738,0
7905377,397.69,1047,748,0
7905387,409.61,1047,739,0
7905397,417.74,1047,748,0
7905408,419.92,1047,739,0
7905417,418.87,1047,748,0
7905427,413.90,1047,738,0
7905437,406.86,1047,748,0
7905447,396.27,1047,738,0
7905457,388.73,1047,751,0
7905467,384.06,1047,743,0
7905477,382.75,1047,753,0
7905487,382.06,1047,743,0
7905497,383.32,1047,752,0
7905507,383.91,1047,743,0
7905517,385.91,1047,753,0
7905527,382.77,1047,743,0
7905537,375.42,1047,752,0
7905547,364.11,1047,743,0
7905557,352.38,1047,753,0
7905567,340.05,1047,743,0
7905577,329.88,1047,753,0
7905587,320.36,1047,743,0
7905597,313.86,1047,753,0
7905607,308.93,1047,743,0
7905617,307.20,1047,753,0
7905627,306.79,1047,743,0
7905637,308.70,1047,753,0
7905647,310.85,1047,743,0
7905657,314.79,1047,753,0
7905667,318.63,1047,743,0
7905677,323.58,1047,752,0
7905687,327.61,1047,743,0
7905697,332.01,1047,752,0
7905708,335.39,1047,743,0
7905718,339.43,1047,753,0
7905728,342.09,1047,743,0
7905738,344.98,1047,753,0
7905748,346.23,1047,743,0
7905758,347.62,1047,753,0
7905768,347.43,1047,743,0
7905778,347.13,1047,753,0
7905788,345.16,1047,743,0
7905798,343.57,1047,753,0
7905808,340.87,1047,743,0
7905818,338.81,1047,752,0
7905828,336.12,1047,743,0
7905838,334.72,1047,753,0
7905848,332.57,1047,743,0
7905858,331.41,1047,752,0
7905868,329.62,1047,743,0
7905879,328.83,1047,753,0
7905889,327.51,1047,743,0
7905899,326.93,1047,752,0
7905909,325.62,1047,743,0
7905920,325.48,1047,752,0
7905929,324.91,1047,743,0
7905939,325.53,1047,752,0
7905949,326.15,1047,743,0
7905959,329.32,1047,752,0
7905969,334.58,1047,743,0
7905979,344.95,1047,752,0
7905989,360.78,1047,743,0
7905999,385.49,1047,752,0
7906009,418.86,1047,743,0
7906028,459.53,1067,742,0
7906031,503.43,1067,744,0
7906041,548.64,1067,749,0
7906051,591.69,1067,744,0
7906061,630.78,1067,749,0
7906071,662.56,1067,744,0
7906081,685.92,1067,749,0
7906092,702.32,1067,745,0
7906102,713.79,1067,748,0
7906112,721.83,1067,745,0
7906122,727.49,1067,747,0
7906132,731.50,1067,745,0
7906142,734.31,1067,748,0
7906152,736.27,1067,745,0
7906162,737.65,1067,747,0
7906172,738.65,1067,745,0
7906182,739.31,1067,748,0
7906192,739.78,1067,745,0
7906202,740.10,1067,747,0
7906212,739.39,1067,745,0
7906222,734.51,1067,748,0
7906232,722.96,1067,744,0
7906242,703.94,1067,747,0
7906252,677.09,1067,745,0
7906263,642.95,1067,745,0
7906273,602.55,1067,746,0
7906283,557.86,1067,745,0
7906293,513.50,1067,747,0
7906304,472.94,1067,744,0
7906313,438.41,1067,746,0
7906323,411.42,1067,745,0
7906333,392.31,1067,747,0
7906343,380.51,1067,744,0
7906353,375.35,1067,745,0
7906363,375.20,1067,745,0
7906373,379.77,1067,746,0
7906383,386.69,1067,744,0
7906393,395.10,1067,745,0
7906403,403.21,1067,745,0
7906413,411.03,1067,747,0
7906423,417.20,1067,744,0
7906433,421.72,1067,746,0
7906443,423.22,1067,745,0
7906453,422.47,1067,747,0
7906463,418.69,1067,744,0
7906473,412.57,1067,748,0
7906483,403.40,1067,744,0
7906493,392.61,1067,746,0
7906503,380.25,1067,744,0
7906513,367.79,1067,747,0
7906523,355.21,1067,745,0
7906533,343.62,1067,746,0
7906543,330.06,1067,739,0
7906553,313.71,1067,743,0
7906563,298.46,1067,742,0
7906573,286.23,1067,743,0
7906583,276.82,1067,742,0
7906593,272.16,1067,746,0
7906604,270.87,1067,742,0
7906614,276.09,1067,748,0
7906624,287.77,1067,742,0
7906634,301.85,1067,749,0
7906644,315.52,1067,742,0
7906654,328.70,1067,748,0
7906664,338.56,1067,742,0
7906674,346.41,1067,749,0
7906684,351.34,1067,742,0
7906694,355.01,1067,748,0
7906704,356.51,1067,742,0
7906714,357.30,1067,749,0
7906724,356.69,1067,742,0
7906734,356.27,1067,749,0
7906744,354.90,1067,743,0
7906754,353.90,1067,749,0
7906764,352.22,1067,743,0
7906775,351.51,1067,752,0
7906785,351.40,1067,744,0
7906795,352.44,1067,753,0
7906805,352.65,1067,744,0
7906816,353.35,1067,754,0
7906825,353.03,1067,744,0
7906835,353.41,1067,754,0
7906845,352.04,1067,744,0
7906855,349.72,1067,754,0
7906865,345.39,1067,744,0
7906875,341.41,1067,753,0
7906885,336.45,1067,744,0
7906895,332.46,1067,754,0
7906905,327.73,1067,744,0
7906915,324.38,1067,753,0
7906925,320.84,1067,744,0
7906935,318.83,1067,754,0
7906945,316.74,1067,744,0
7906955,316.39,1067,753,0
7906965,315.84,1067,744,0
7906975,316.49,1067,754,0
7906985,316.69,1067,744,0
7906995,317.89,1067,753,0
7907005,318.35,1067,744,0
7907015,319.62,1067,754,0
7907025,319.65,1067,744,0
7907035,320.35,1067,753,0
7907045,319.99,1067,744,0
7907055,320.59,1067,754,0
7907065,320.63,1067,744,0
7907075,322.33,1067,753,0
7907085,324.84,1067,744,0
7907095,331.40,1067,754,0
7907105,341.83,1067,744,0
7907116,359.71,1067,754,0
7907126,385.25,1067,744,0
7907136,421.22,1067,754,0
7907146,463.11,1067,744,0
7907166,508.76,1137,742,0
7907169,554.35,1137,746,0
7907179,598.13,1137,751,0
7907189,636.66,1137,745,0
7907200,668.13,1137,750,0
7907209,690.12,1137,745,0
7907219,705.56,1137,751,0
7907229,716.36,1137,745,0
7907239,723.92,1137,750,0
7907249,729.22,1137,745,0
7907259,732.92,1137,751,0
7907269,735.56,1137,745,0
7907279,737.45,1137,751,0
7907289,738.77,1137,745,0
7907299,739.70,1137,752,0
7907309,740.39,1137,745,0
7907319,740.87,1137,752,0
7907329,740.22,1137,746,0
7907339,736.00,1137,753,0
7907349,725.24,1137,746,0
7907359,707.21,1137,752,0
7907369,681.18,1137,746,0
7907379,648.21,1137,753,0
7907389,608.76,1137,747,0
7907399,565.03,1137,752,0
7907409,520.41,1137,747,0
7907419,479.57,1137,753,0
7907429,443.91,1137,746,0
7907439,415.78,1137,752,0
7907449,394.76,1137,746,0
7907459,381.38,1137,753,0
7907469,374.49,1137,746,0
7907479,373.79,1137,752,0
7907489,377.15,1137,746,0
7907500,384.22,1137,752,0
7907510,392.90,1137,747,0
7907520,402.27,1137,751,0
7907530,411.06,1137,747,0
7907540,418.46,1137,750,0
7907550,423.38,1137,747,0
7907560,425.96,1137,751,0
7907570,425.50,1137,747,0
7907580,422.35,1137,750,0
7907590,416.55,1137,747,0
7907600,408.54,1137,751,0
7907610,398.95,1137,747,0
7907620,388.64,1137,750,0
7907630,377.65,1137,747,0
7907640,366.78,1137,751,0
7907650,356.30,1137,747,0
7907660,346.66,1137,750,0
7907671,337.97,1137,748,0
7907681,330.35,1137,749,0
7907691,323.95,1137,749,0
7907701,318.82,1137,748,0
7907712,315.10,1137,750,0
7907721,312.59,1137,748,0
7907731,311.34,1137,749,0
7907741,311.02,1137,748,0
7907751,311.96,1137,750,0
7907761,313.43,1137,748,0
7907771,315.79,1137,749,0
7907781,318.34,1137,748,0
7907791,321.53,1137,750,0
7907801,324.85,1137,749,0
7907811,328.45,1137,749,0
7907821,331.70,1137,748,0
7907831,335.00,1137,750,0
7907841,337.92,1137,749,0
7907851,340.77,1137,748,0
7907861,342.85,1137,748,0
7907871,344.70,1137,750,0
7907881,345.69,1137,747,0
7907891,346.42,1137,748,0
7907901,346.30,1137,748,0
7907911,345.91,1137,750,0
7907921,344.65,1137,747,0
7907931,343.34,1137,748,0
7907941,341.35,1137,748,0
7907951,339.58,1137,750,0
7907961,337.30,1137,747,0
7907971,335.41,1137,748,0
7907981,333.27,1137,748,0
7907991,331.82,1137,750,0
7908001,330.20,1137,747,0
7908012,329.24,1137,751,0
7908022,328.10,1137,747,0
7908032,327.68,1137,753,0
7908042,327.01,1137,746,0
7908052,327.05,1137,754,0
7908062,326.65,1137,747,0
7908072,326.80,1137,753,0
7908082,326.34,1137,746,0
7908092,326.45,1137,754,0
7908102,325.98,1137,747,0
7908112,326.07,1137,753,0
7908122,325.28,1137,746,0
7908132,325.49,1137,754,0
7908142,325.43,1137,747,0
7908152,327.14,1137,753,0
7908162,330.14,1137,746,0
7908172,337.26,1137,753,0
7908183,348.71,1137,746,0
7908193,367.87,1137,754,0
7908203,394.31,1137,746,0
7908222,430.56,1057,744,0
7908226,472.35,1057,749,0
7908236,517.46,1057,756,0
7908246,562.23,1057,746,0
7908256,604.81,1057,755,0
7908267,641.85,1057,746,0
7908276,672.15,1057,755,0
7908286,693.45,1057,746,0
7908296,708.40,1057,755,0
7908306,718.82,1057,746,0
7908316,726.16,1057,755,0
7908326,731.30,1057,746,0
7908336,734.90,1057,755,0
7908346,737.37,1057,746,0
7908356,739.14,1057,756,0
7908366,737.86,1057,746,0
7908376,731.39,1057,755,0
7908386,717.34,1057,746,0
7908396,696.28,1057,756,0
7908406,667.27,1057,746,0
7908416,631.40,1057,754,0
7908426,588.64,1057,746,0
7908436,543.28,1057,755,0
7908446,498.15,1057,746,0
7908456,457.56,1057,755,0
7908466,421.52,1057,746,0
7908476,392.99,1057,755,0
7908486,371.01,1057,746,0
7908496,357.29,1057,755,0
7908506,349.92,1057,746,0
7908516,349.64,1057,755,0
7908526,354.21,1057,746,0
7908536,363.83,1057,755,0
7908546,375.62,1057,746,0
7908556,389.97,1057,755,0
7908567,404.03,1057,746,0
7908577,418.21,1057,754,0
7908587,430.02,1057,746,0
7908597,439.87,1057,753,0
7908608,446.21,1057,746,0
7908617,450.17,1057,754,0
7908627,450.21,1057,746,0
7908637,447.62,1057,754,0
7908647,441.65,1057,746,0
7908657,433.82,1057,754,0
7908667,423.46,1057,746,0
7908677,412.14,1057,754,0
7908687,399.33,1057,746,0
7908697,386.88,1057,755,0
7908707,373.93,1057,746,0
7908717,362.17,1057,754,0
7908727,350.67,1057,746,0
7908737,341.26,1057,755,0
7908747,332.69,1057,746,0
7908757,326.06,1057,754,0
7908767,320.34,1057,747,0
7908777,316.90,1057,753,0
7908787,314.53,1057,746,0
7908797,314.11,1057,754,0
7908807,314.16,1057,747,0
7908817,315.70,1057,753,0
7908827,317.59,1057,746,0
7908837,320.50,1057,754,0
7908847,323.43,1057,746,0
7908857,326.78,1057,753,0
7908867,329.84,1057,746,0
7908877,333.40,1057,754,0
7908887,336.45,1057,747,0
7908897,339.88,1057,753,0
7908908,342.70,1057,747,0
7908918,345.53,1057,752,0
7908928,347.86,1057,747,0
7908938,350.13,1057,751,0
7908948,351.89,1057,747,0
7908958,353.77,1057,752,0
7908968,354.95,1057,747,0
7908978,356.17,1057,751,0
7908988,357.06,1057,747,0
7908998,357.98,1057,752,0
7909008,358.63,1057,747,0
7909018,359.13,1057,751,0
7909028,359.30,1057,747,0
7909038,359.47,1057,752,0
7909048,359.16,1057,747,0
7909058,358.51,1057,751,0
7909068,357.41,1057,746,0
7909079,356.09,1057,750,0
7909089,354.39,1057,748,0
7909099,352.30,1057,749,0
7909109,350.07,1057,749,0
7909120,347.82,1057,747,0
7909129,346.16,1057,748,0
7909139,345.60,1057,749,0
7909149,347.60,1057,748,0
7909159,353.47,1057,748,0
7909169,364.90,1057,748,0
7909179,383.61,1057,748,0
7909189,411.37,1057,748,0
7909199,447.73,1057,748,0
7909218,489.51,996,748,0
7909221,533.37,996,747,0
7909230,576.80,996,751,0
7909240,617.28,996,747,0
7909250,652.17,996,749,0
7909260,679.42,996,747,0
7909270,698.49,996,750,0
7909280,711.84,996,746,0
7909291,721.23,996,752,0
7909300,727.81,996,747,0
7909310,732.41,996,750,0
7909320,735.63,996,747,0
7909330,737.93,996,753,0
7909340,739.53,996,747,0
7909350,740.66,996,751,0
7909360,741.40,996,747,0
7909370,740.77,996,752,0
7909380,735.74,996,747,0
7909390,724.42,996,750,0
7909400,705.31,996,746,0
7909410,678.60,996,752,0
7909420,644.35,996,747,0
7909430,603.66,996,751,0
7909440,558.20,996,747,0
7909450,512.80,996,753,0
7909460,470.13,996,747,0
7909470,433.41,996,751,0
7909480,403.16,996,747,0
7909490,380.91,996,752,0
7909500,365.81,996,746,0
7909510,358.54,996,751,0
7909520,357.26,996,746,0
7909530,361.73,996,752,0
7909540,369.65,996,746,0
7909550,380.47,996,751,0
7909560,391.90,996,746,0
7909570,403.72,996,752,0
7909580,413.70,996,746,0
7909591,422.15,996,753,0
7909601,427.46,996,746,0
7909611,430.54,996,754,0
7909621,430.08,996,746,0
7909632,427.35,996,755,0
7909641,421.50,996,746,0
7909651,414.20,996,754,0
7909661,404.49,996,746,0
7909671,394.32,996,755,0
7909681,382.61,996,746,0
7909691,371.67,996,755,0
7909701,360.07,996,746,0
7909711,349.76,996,755,0
7909721,339.55,996,746,0
7909731,331.63,996,755,0
7909741,324.45,996,746,0
7909751,319.69,996,755,0
7909761,315.50,996,746,0
7909771,313.46,996,754,0
7909781,312.12,996,746,0
7909791,312.60,996,755,0
7909801,313.02,996,746,0
7909811,314.56,996,754,0
7909821,315.63,996,746,0
7909831,317.84,996,755,0
7909841,319.65,996,746,0
7909851,322.24,996,755,0
7909861,324.22,996,746,0
7909871,326.81,996,755,0
7909881,328.71,996,746,0
7909891,331.37,996,754,0
7909901,333.14,996,746,0
7909911,335.67,996,755,0
7909921,337.01,996,746,0
7909932,339.02,996,756,0
7909942,339.70,996,746,0
7909952,340.86,996,756,0
7909962,340.69,996,745,0
7909972,341.25,996,756,0
7909982,340.45,996,746,0
7909992,340.19,996,756,0
7910002,338.72,996,746,0
7910012,337.94,996,756,0
7910022,336.16,996,746,0
7910032,335.13,996,756,0
7910042,332.86,996,746,0
7910052,331.49,996,757,0
7910062,329.46,996,746,0
7910072,328.38,996,756,0
7910082,326.59,996,746,0
7910092,325.90,996,757,0
7910103,324.60,996,746,0
7910113,324.42,996,756,0
7910123,323.61,996,745,0
7910133,323.73,996,756,0
7910144,323.08,996,746,0
7910153,323.57,996,756,0
7910163,323.36,996,745,0
7910173,324.62,996,756,0
7910183,325.89,996,746,0
7910193,330.08,996,756,0
7910203,336.74,996,745,0
7910213,349.55,996,756,0
7910223,369.18,996,746,0
7910242,398.87,1024,744,0
7910245,436.62,1024,748,0
7910255,480.28,1024,754,0
7910265,525.88,1024,747,0
7910275,571.77,1024,754,0
7910285,614.10,1024,746,0
7910295,650.63,1024,753,0
7910305,678.42,1024,747,0
7910316,697.97,1024,753,0
7910326,711.61,1024,746,0
7910336,721.20,1024,752,0
7910346,727.91,1024,747,0
7910356,732.65,1024,751,0
7910366,735.93,1024,747,0
