Time,PPG,IBI,GSR,GSR_Event
7302976,518.96,753,735,0
7302986,479.63,753,736,0
7302996,441.00,753,737,0
7303006,404.95,753,736,0
7303016,372.61,753,737,0
7303026,344.91,753,737,0
7303036,322.27,753,737,0
7303046,308.60,753,736,0
7303056,302.42,753,737,0
7303066,301.95,753,737,0
7303076,306.04,753,737,0
7303086,313.53,753,737,0
7303096,323.18,753,737,0
7303106,334.53,753,737,0
7303116,346.54,753,737,0
7303127,358.38,753,736,0
7303137,369.71,753,737,0
7303147,379.70,753,736,0
7303157,388.36,753,737,0
7303168,395.02,753,735,0
7303177,399.47,753,737,0
7303187,401.86,753,736,0
7303197,402.20,753,737,0
7303207,400.17,753,735,0
7303217,396.39,753,737,0
7303227,391.22,753,735,0
7303237,385.37,753,737,0
7303247,378.44,753,735,0
7303257,371.07,753,737,0
7303267,363.33,753,736,0
7303277,356.03,753,737,0
7303287,349.17,753,735,0
7303297,342.90,753,737,0
7303307,337.36,753,736,0
7303317,332.88,753,737,0
7303327,329.19,753,735,0
7303337,326.77,753,738,0
7303347,325.08,753,736,0
7303357,324.33,753,737,0
7303367,324.02,753,736,0
7303377,324.31,753,738,0
7303387,325.12,753,736,0
7303397,326.54,753,738,0
7303407,328.18,753,736,0
7303417,330.18,753,738,0
7303427,332.23,753,737,0
7303437,334.34,753,738,0
7303447,336.13,753,736,0
7303457,337.80,753,739,0
7303468,338.89,753,736,0
7303478,339.70,753,738,0
7303488,339.74,753,735,0
7303498,339.61,753,738,0
7303508,339.08,753,735,0
7303518,338.93,753,738,0
7303528,339.08,753,735,0
7303538,340.90,753,738,0
7303548,344.70,753,735,0
7303558,352.12,753,738,0
7303568,363.61,753,735,0
7303578,380.57,753,738,0
7303588,403.03,753,735,0
7303598,431.05,753,738,0
7303617,463.31,763,739,0
7303620,499.77,763,741,0
7303629,537.38,763,736,0
7303639,574.04,763,740,0
7303649,607.54,763,736,0
7303659,635.54,763,740,0
7303669,656.08,763,736,0
7303680,668.22,763,740,0
7303689,670.30,763,736,0
7303699,663.57,763,740,0
7303709,648.35,763,736,0
7303719,625.96,763,740,0
7303729,598.46,763,736,0
7303739,568.45,763,741,0
7303749,537.03,763,737,0
7303759,506.21,763,740,0
7303769,476.62,763,737,0
7303779,449.95,763,740,0
7303789,426.00,763,736,0
7303799,405.26,763,740,0
7303809,387.05,763,737,0
7303819,372.34,763,740,0
7303829,360.41,763,737,0
7303839,351.93,763,740,0
7303849,346.21,763,736,0
7303859,343.83,763,740,0
7303869,344.01,763,736,0
7303879,347.26,763,740,0
7303889,352.46,763,736,0
7303899,359.86,763,740,0
7303909,368.13,763,736,0
7303919,377.39,763,740,0
7303929,386.32,763,736,0
7303939,394.97,763,740,0
7303949,401.88,763,736,0
7303959,407.66,763,740,0
7303969,410.93,763,736,0
7303980,412.75,763,740,0
7303990,411.84,763,736,0
7304000,409.15,763,740,0
7304010,404.22,763,736,0
7304020,398.28,763,740,0
7304030,390.82,763,736,0
7304040,383.25,763,740,0
7304050,374.86,763,736,0
7304060,367.27,763,740,0
7304070,359.95,763,736,0
7304080,353.79,763,740,0
7304090,348.07,763,736,0
7304100,343.51,763,739,0
7304110,339.41,763,736,0
7304120,336.50,763,740,0
7304130,333.99,763,736,0
7304140,332.71,763,739,0
7304151,331.64,763,736,0
7304161,331.66,763,740,0
7304171,331.81,763,735,0
7304181,332.76,763,739,0
7304192,333.82,763,736,0
7304201,335.63,763,739,0
7304211,337.24,763,735,0
7304221,339.78,763,739,0
7304231,341.86,763,736,0
7304241,344.30,763,739,0
7304251,346.18,763,735,0
7304261,348.10,763,739,0
7304271,349.40,763,735,0
7304281,350.56,763,739,0
7304291,350.65,763,735,0
7304301,350.80,763,739,0
7304311,350.65,763,735,0
7304321,351.09,763,739,0
7304331,352.05,763,735,0
7304341,355.16,763,739,0
7304351,360.69,763,735,0
7304361,370.51,763,739,0
7304371,384.76,763,735,0
7304381,404.76,763,739,0
7304391,430.20,763,735,0
7304411,461.30,793,734,0
7304414,495.75,793,738,0
7304423,532.47,793,738,0
7304433,568.46,793,736,0
7304443,602.26,793,738,0
7304453,630.94,793,735,0
7304463,653.50,793,738,0
7304473,667.84,793,736,0
7304483,673.97,793,738,0
7304493,671.71,793,736,0
7304503,661.77,793,738,0
7304513,644.65,793,736,0
7304523,622.04,793,738,0
7304534,594.90,793,736,0
7304543,565.40,793,738,0
7304553,534.81,793,736,0
7304563,504.40,793,738,0
7304573,475.31,793,736,0
7304583,448.64,793,738,0
7304593,424.88,793,736,0
7304603,404.86,793,738,0
7304613,388.31,793,736,0
7304623,375.62,793,738,0
7304633,366.73,793,736,0
7304643,362.10,793,738,0
7304653,360.96,793,736,0
7304663,363.24,793,738,0
7304673,367.84,793,736,0
7304683,374.83,793,738,0
7304693,383.37,793,736,0
7304704,393.11,793,738,0
7304713,402.59,793,735,0
7304723,411.80,793,738,0
7304733,419.58,793,735,0
7304743,425.87,793,737,0
7304753,430.20,793,735,0
7304763,432.45,793,738,0
7304773,432.36,793,735,0
7304783,430.15,793,737,0
7304793,425.56,793,735,0
7304803,419.48,793,737,0
7304813,412.01,793,735,0
7304823,403.61,793,737,0
7304833,394.38,793,735,0
7304843,384.97,793,737,0
7304853,375.85,793,735,0
7304863,367.79,793,737,0
7304873,360.96,793,735,0
7304883,355.44,793,737,0
7304893,351.11,793,735,0
7304903,347.99,793,737,0
7304913,345.94,793,736,0
7304923,344.88,793,737,0
7304933,344.32,793,735,0
7304943,344.18,793,737,0
7304953,344.77,793,735,0
7304963,345.87,793,737,0
7304973,347.15,793,735,0
7304983,348.65,793,737,0
7304993,350.25,793,735,0
7305004,352.41,793,737,0
7305014,354.56,793,735,0
7305024,356.32,793,737,0
7305034,357.64,793,736,0
7305044,358.82,793,736,0
7305054,359.73,793,735,0
7305064,360.32,793,737,0
7305074,360.27,793,736,0
7305084,360.10,793,736,0
7305094,359.94,793,735,0
7305104,360.43,793,736,0
7305114,362.62,793,735,0
7305124,367.40,793,736,0
7305134,376.03,793,735,0
7305144,389.60,793,736,0
7305154,409.09,793,735,0
7305164,435.25,793,736,0
7305175,467.92,793,736,0
7305194,504.54,784,735,0
7305197,542.48,784,737,0
7305206,579.41,784,735,0
7305217,613.44,784,737,0
7305227,642.80,784,735,0
7305237,666.30,784,738,0
7305247,683.31,784,734,0
7305257,694.06,784,738,0
7305267,698.33,784,735,0
7305277,696.21,784,737,0
7305287,687.24,784,734,0
7305297,671.95,784,737,0
7305307,650.28,784,734,0
7305317,622.77,784,737,0
7305327,590.87,784,734,0
7305337,557.26,784,737,0
7305347,523.28,784,735,0
7305357,492.47,784,739,0
7305367,464.47,784,735,0
7305377,440.37,784,739,0
7305388,419.99,784,735,0
7305398,404.05,784,738,0
7305408,393.11,784,735,0
7305418,387.07,784,739,0
7305428,383.67,784,735,0
7305438,383.47,784,739,0
7305448,385.60,784,735,0
7305458,390.52,784,739,0
7305468,397.01,784,735,0
7305478,404.12,784,739,0
7305488,410.90,784,735,0
7305498,417.57,784,739,0
7305508,423.19,784,735,0
7305518,428.10,784,739,0
7305528,431.29,784,735,0
7305538,432.96,784,739,0
7305548,431.81,784,734,0
7305559,429.04,784,738,0
7305569,424.01,784,734,0
7305579,418.05,784,738,0
7305589,410.58,784,734,0
7305600,402.48,784,738,0
7305609,393.81,784,734,0
7305619,385.64,784,738,0
7305629,377.34,784,734,0
7305639,369.83,784,739,0
7305649,362.89,784,735,0
7305659,357.27,784,739,0
7305669,352.22,784,734,0
7305679,348.12,784,738,0
7305689,344.53,784,734,0
7305699,342.27,784,738,0
7305709,340.56,784,734,0
7305719,339.49,784,738,0
7305729,338.40,784,734,0
7305739,338.28,784,738,0
7305749,338.45,784,734,0
7305759,339.77,784,738,0
7305769,341.34,784,735,0
7305779,343.90,784,739,0
7305789,346.46,784,735,0
7305799,349.62,784,738,0
7305809,352.91,784,735,0
7305819,356.19,784,739,0
7305829,358.53,784,735,0
7305839,360.60,784,739,0
7305849,361.62,784,735,0
7305859,362.55,784,739,0
7305869,362.86,784,736,0
7305879,362.81,784,739,0
7305889,362.61,784,736,0
7305900,363.63,784,739,0
7305910,365.80,784,735,0
7305920,370.83,784,738,0
7305930,379.28,784,736,0
7305940,393.60,784,739,0
7305950,414.07,784,735,0
7305960,442.77,784,739,0
7305979,477.38,785,738,0
7305982,515.58,785,739,0
7305991,554.58,785,736,0
7306001,592.29,785,739,0
7306011,625.93,785,736,0
7306021,654.32,785,739,0
7306031,675.40,785,736,0
7306041,690.15,785,739,0
7306051,700.48,785,736,0
7306061,707.70,785,739,0
7306071,712.81,785,735,0
7306081,716.38,785,739,0
7306091,718.84,785,736,0
7306101,720.56,785,739,0
7306112,721.80,785,736,0
7306121,722.68,785,739,0
7306131,720.89,785,736,0
7306141,715.35,785,739,0
7306151,704.57,785,736,0
7306161,688.63,785,739,0
7306171,666.93,785,736,0
7306181,640.12,785,739,0
7306191,608.46,785,736,0
7306201,575.79,785,739,0
7306211,543.71,785,736,0
7306221,515.21,785,739,0
7306231,490.81,785,736,0
7306241,471.92,785,739,0
7306251,458.49,785,736,0
7306261,450.20,785,739,0
7306271,445.55,785,736,0
7306281,444.19,785,739,0
7306291,444.26,785,736,0
7306301,445.64,785,739,0
7306311,446.65,785,736,0
7306321,446.80,785,739,0
7306331,445.70,785,735,0
7306341,443.52,785,739,0
7306351,439.72,785,736,0
7306361,434.96,785,739,0
7306371,428.24,785,735,0
7306381,420.71,785,739,0
7306391,412.10,785,736,0
7306401,403.11,785,739,0
7306412,393.82,785,736,0
7306422,384.75,785,739,0
7306432,375.57,785,736,0
7306442,367.17,785,739,0
7306452,359.23,785,737,0
7306462,352.35,785,739,0
7306472,346.37,785,736,0
7306482,341.20,785,739,0
7306492,337.03,785,737,0
7306502,334.02,785,739,0
7306512,332.21,785,736,0
7306522,331.55,785,740,0
7306532,331.77,785,737,0
7306542,332.95,785,739,0
7306552,334.94,785,736,0
7306562,337.91,785,739,0
7306572,341.37,785,737,0
7306583,345.03,785,739,0
7306593,348.58,785,738,0
7306603,352.13,785,739,0
7306613,355.14,785,738,0
7306624,357.58,785,739,0
7306633,359.04,785,738,0
7306643,360.14,785,739,0
7306653,360.48,785,738,0
7306663,360.47,785,739,0
7306673,359.86,785,738,0
7306683,359.13,785,739,0
7306693,358.75,785,738,0
7306703,358.74,785,739,0
7306713,359.50,785,738,0
7306723,362.09,785,739,0
7306733,368.07,785,738,0
7306743,378.63,785,739,0
7306753,395.37,785,737,0
7306763,419.77,785,739,0
7306773,452.28,785,738,0
7306792,489.83,813,737,0
7306796,529.95,813,740,0
7306804,569.78,813,740,0
7306814,607.26,813,739,0
7306824,640.10,813,739,0
7306834,665.95,813,739,0
7306844,684.10,813,739,0
7306854,696.80,813,739,0
7306864,705.64,813,738,0
7306874,711.84,813,739,0
7306884,716.17,813,739,0
7306894,719.16,813,738,0
7306904,721.26,813,738,0
7306914,722.72,813,739,0
7306924,723.75,813,739,0
7306934,724.47,813,738,0
7306944,722.66,813,739,0
7306954,716.29,813,739,0
7306964,703.43,813,738,0
7306974,683.84,813,738,0
7306984,656.80,813,739,0
7306994,622.92,813,739,0
7307004,582.74,813,738,0
7307014,539.75,813,738,0
7307024,497.05,813,739,0
7307034,458.12,813,739,0
7307044,424.23,813,738,0
7307054,397.46,813,738,0
7307064,378.17,813,739,0
7307074,367.79,813,739,0
7307084,364.34,813,738,0
7307095,367.06,813,739,0
7307105,374.12,813,738,0
7307115,384.28,813,740,0
7307125,395.68,813,737,0
7307136,407.14,813,740,0
7307145,415.62,813,738,0
7307155,421.86,813,740,0
7307165,424.65,813,737,0
7307175,424.54,813,740,0
7307185,421.03,813,738,0
7307195,414.85,813,740,0
7307205,405.81,813,737,0
7307215,395.33,813,740,0
7307225,383.23,813,738,0
7307235,370.73,813,740,0
7307245,357.83,813,737,0
7307255,345.62,813,740,0
7307265,334.16,813,738,0
7307275,324.34,813,740,0
7307285,315.80,813,737,0
7307295,310.50,813,741,0
7307305,307.56,813,737,0
7307315,306.15,813,740,0
7307325,305.55,813,737,0
7307335,306.20,813,740,0
7307345,307.38,813,737,0
7307355,309.84,813,740,0
7307365,311.39,813,737,0
7307375,312.94,813,740,0
7307385,314.80,813,737,0
7307395,317.60,813,740,0
7307405,320.34,813,737,0
7307415,323.49,813,740,0
7307425,326.05,813,737,0
7307436,328.60,813,740,0
7307446,330.44,813,736,0
7307456,332.19,813,740,0
7307466,333.21,813,736,0
7307476,334.13,813,740,0
7307486,334.48,813,736,0
7307496,334.76,813,740,0
7307506,334.36,813,736,0
7307516,334.21,813,740,0
7307526,333.85,813,736,0
7307536,333.89,813,740,0
7307546,333.41,813,736,0
7307556,333.33,813,740,0
7307566,333.10,813,736,0
7307576,334.27,813,740,0
7307586,337.02,813,736,0
7307596,343.53,813,740,0
7307607,354.81,813,735,0
7307617,373.85,813,740,0
7307636,401.20,844,739,0
7307639,437.18,844,741,0
7307649,478.18,844,735,0
7307659,521.67,844,740,0
7307669,564.41,844,735,0
7307679,604.23,844,740,0
7307689,638.15,844,735,0
7307699,664.55,844,741,0
7307709,683.07,844,736,0
7307719,696.08,844,741,0
7307729,705.22,844,736,0
7307739,711.67,844,741,0
7307749,716.23,844,736,0
7307759,719.46,844,741,0
7307769,721.72,844,736,0
7307779,721.42,844,740,0
7307789,715.68,844,734,0
7307799,703.22,844,740,0
7307809,683.22,844,735,0
7307820,655.56,844,740,0
7307830,621.23,844,736,0
7307840,581.05,844,741,0
7307850,537.23,844,737,0
7307860,493.84,844,741,0
7307870,453.21,844,736,0
7307880,417.45,844,741,0
7307890,387.74,844,737,0
7307900,364.21,844,741,0
7307910,346.66,844,736,0
7307920,335.62,844,740,0
7307930,330.42,844,736,0
7307940,330.76,844,740,0
7307950,335.42,844,735,0
7307960,343.57,844,740,0
7307970,353.38,844,736,0
7307980,363.85,844,740,0
7307991,373.80,844,735,0
7308001,382.73,844,740,0
7308011,389.71,844,736,0
7308021,394.60,844,739,0
7308032,396.86,844,737,0
7308041,397.07,844,740,0
7308051,395.25,844,736,0
7308061,392.43,844,740,0
7308071,388.62,844,737,0
7308081,383.80,844,740,0
7308091,377.99,844,737,0
7308101,370.84,844,739,0
7308111,362.70,844,737,0
7308121,354.48,844,740,0
7308131,345.55,844,736,0
7308141,336.43,844,739,0
7308151,328.84,844,738,0
7308161,323.06,844,741,0
7308171,319.70,844,738,0
7308181,318.59,844,741,0
7308191,318.80,844,737,0
7308201,320.57,844,741,0
7308211,323.10,844,738,0
7308221,325.04,844,741,0
7308231,326.27,844,737,0
7308241,327.05,844,740,0
7308251,327.33,844,737,0
7308261,327.75,844,741,0
7308271,328.47,844,738,0
7308281,329.44,844,740,0
7308291,330.98,844,738,0
7308301,332.87,844,741,0
7308311,334.84,844,738,0
7308321,336.82,844,740,0
7308332,338.63,844,738,0
7308342,339.77,844,740,0
7308352,340.65,844,739,0
7308362,340.71,844,740,0
7308372,340.29,844,739,0
7308382,339.34,844,740,0
7308392,337.91,844,738,0
7308402,336.01,844,740,0
7308412,333.82,844,739,0
7308422,331.60,844,740,0
7308432,330.18,844,738,0
7308442,330.21,844,740,0
7308452,333.36,844,739,0
7308462,340.84,844,740,0
7308472,354.56,844,738,0
7308482,376.08,844,740,0
7308502,407.13,865,738,0
7308505,445.53,865,738,0
7308514,488.23,865,740,0
7308524,532.05,865,738,0
7308534,574.72,865,740,0
7308545,613.50,865,737,0
7308555,646.09,865,741,0
7308565,670.24,865,737,0
7308575,687.18,865,741,0
7308585,699.08,865,736,0
7308595,707.46,865,741,0
7308605,713.28,865,737,0
7308615,717.35,865,741,0
7308625,718.06,865,736,0
7308635,713.89,865,740,0
7308645,702.73,865,737,0
7308655,684.13,865,740,0
7308665,657.48,865,736,0
7308675,623.69,865,740,0
7308685,582.68,865,737,0
7308695,537.18,865,740,0
7308705,489.77,865,736,0
7308716,444.58,865,740,0
7308726,404.33,865,736,0
7308736,371.23,865,741,0
7308746,345.24,865,736,0
7308756,327.46,865,741,0
7308766,317.64,865,736,0
7308776,316.12,865,741,0
7308786,321.48,865,736,0
7308796,331.54,865,741,0
7308806,344.45,865,736,0
7308816,359.57,865,741,0
7308826,374.96,865,736,0
7308836,390.23,865,741,0
7308846,403.49,865,736,0
7308856,414.31,865,741,0
7308866,421.80,865,735,0
7308876,425.63,865,740,0
7308887,425.06,865,735,0
7308897,421.74,865,740,0
7308907,414.92,865,735,0
7308917,406.07,865,740,0
7308928,394.99,865,735,0
7308937,383.42,865,740,0
7308947,371.77,865,735,0
7308957,360.91,865,740,0
7308967,349.96,865,735,0
7308977,340.46,865,740,0
7308987,332.09,865,735,0
7308997,325.21,865,740,0
7309007,318.97,865,735,0
7309017,315.17,865,741,0
7309027,313.02,865,735,0
7309037,312.84,865,740,0
7309047,313.49,865,735,0
7309057,315.01,865,740,0
7309067,317.07,865,735,0
7309077,320.13,865,740,0
7309087,322.36,865,735,0
7309097,324.78,865,740,0
7309107,326.61,865,735,0
7309117,328.78,865,740,0
7309127,330.60,865,735,0
7309137,332.82,865,740,0
7309147,334.68,865,735,0
7309157,336.87,865,740,0
7309167,338.75,865,735,0
7309177,340.97,865,740,0
7309187,342.69,865,735,0
7309197,344.63,865,740,0
7309207,345.73,865,734,0
7309217,346.92,865,740,0
7309228,347.33,865,735,0
7309238,347.62,865,740,0
7309248,347.90,865,735,0
7309258,349.90,865,740,0
7309268,355.42,865,736,0
7309278,366.22,865,741,0
7309288,383.00,865,736,0
7309298,407.94,865,741,0
7309308,441.30,865,736,0
7309327,480.60,826,734,0
7309330,522.63,826,739,0
7309339,563.93,826,741,0
7309349,602.39,826,737,0
7309359,636.17,826,741,0
7309369,663.17,826,736,0
7309379,682.32,826,741,0
7309389,695.72,826,737,0
7309399,705.10,826,741,0
7309409,711.67,826,736,0
7309419,716.27,826,741,0
7309429,719.49,826,737,0
7309440,718.74,826,741,0
7309449,712.22,826,736,0
7309459,698.65,826,741,0
7309469,677.46,826,737,0
7309479,648.26,826,741,0
7309489,611.41,826,736,0
7309499,567.87,826,741,0
7309509,520.94,826,737,0
7309519,474.20,826,741,0
7309529,430.13,826,735,0
7309539,391.09,826,741,0
7309549,358.92,826,737,0
7309559,334.43,826,741,0
7309569,317.63,826,736,0
7309579,309.21,826,741,0
7309589,308.21,826,736,0
7309599,314.14,826,741,0
7309609,325.33,826,737,0
7309619,340.36,826,741,0
7309629,357.99,826,736,0
7309639,376.77,826,741,0
7309649,394.84,826,737,0
7309659,411.30,826,741,0
7309669,424.58,826,736,0
7309679,434.44,826,741,0
7309689,440.18,826,737,0
7309699,441.97,826,741,0
7309709,439.71,826,736,0
7309719,435.04,826,741,0
7309729,427.78,826,737,0
7309740,418.85,826,741,0
7309750,408.22,826,738,0
7309760,396.58,826,741,0
7309770,384.24,826,738,0
7309780,372.12,826,741,0
7309790,359.49,826,738,0
7309800,347.34,826,741,0
7309810,336.14,826,738,0
7309820,326.54,826,741,0
7309830,318.96,826,738,0
7309840,313.27,826,741,0
7309850,309.29,826,738,0
7309860,307.23,826,741,0
7309870,306.82,826,737,0
7309880,307.90,826,741,0
7309890,310.03,826,738,0
7309900,313.02,826,741,0
7309911,316.66,826,738,0
7309921,320.79,826,740,0
7309931,325.10,826,739,0
7309941,329.35,826,740,0
7309952,333.40,826,739,0
7309961,337.31,826,740,0
7309971,340.65,826,738,0
7309981,343.24,826,740,0
7309991,345.18,826,739,0
7310001,346.58,826,740,0
7310011,347.99,826,738,0
7310021,350.70,826,740,0
7310031,355.93,826,740,0
7310041,364.82,826,741,0
7310051,379.45,826,739,0
7310061,401.21,826,741,0
7310071,432.09,826,739,0
7310081,469.48,826,740,0
7310091,510.01,826,739,0
7310101,551.02,826,741,0
7310120,590.61,793,739,0
7310124,626.21,793,739,0
7310132,655.85,793,739,0
7310142,677.20,793,740,0
7310152,692.14,793,740,0
7310162,702.60,793,739,0
7310172,709.92,793,739,0
7310182,715.04,793,739,0
7310192,718.63,793,740,0
7310202,721.14,793,739,0
7310212,722.90,793,739,0
7310222,721.56,793,740,0
7310232,714.66,793,739,0
7310242,700.36,793,738,0
7310252,678.27,793,739,0
7310262,648.06,793,739,0
7310272,610.24,793,739,0
7310282,565.34,793,738,0
7310292,517.37,793,739,0
7310302,469.99,793,739,0
7310312,426.70,793,739,0
7310322,389.25,793,738,0
7310332,359.69,793,739,0
7310342,338.44,793,739,0
7310352,326.31,793,739,0
7310362,322.32,793,739,0
7310372,326.12,793,739,0
7310382,336.11,793,739,0
7310392,350.86,793,739,0
7310402,367.75,793,738,0
7310412,385.44,793,739,0
7310423,401.98,793,738,0
7310433,416.26,793,739,0
7310443,426.94,793,738,0
7310453,433.68,793,739,0
7310464,435.96,793,737,0
7310473,434.60,793,739,0
7310483,429.58,793,738,0
7310493,421.65,793,739,0
7310503,411.21,793,737,0
7310513,399.32,793,739,0
7310523,386.32,793,737,0
7310533,373.33,793,739,0
7310543,360.54,793,737,0
7310553,349.07,793,739,0
7310563,338.72,793,737,0
7310573,329.97,793,739,0
7310583,322.70,793,737,0
7310593,317.09,793,738,0
7310603,312.99,793,737,0
7310613,310.55,793,739,0
7310623,309.31,793,737,0
7310633,309.35,793,739,0
7310643,310.70,793,737,0
7310653,313.28,793,738,0
7310663,316.54,793,737,0
7310673,320.70,793,739,0
7310683,325.12,793,737,0
7310693,329.80,793,739,0
7310703,334.32,793,736,0
7310713,338.68,793,739,0
7310723,342.33,793,738,0
7310733,345.83,793,739,0
7310743,348.41,793,737,0
7310753,350.47,793,739,0
7310764,351.66,793,737,0
7310774,352.36,793,739,0
7310784,352.17,793,736,0
7310794,352.03,793,739,0
7310804,352.45,793,736,0
7310814,354.89,793,739,0
7310824,360.88,793,736,0
7310834,373.00,793,739,0
7310844,393.57,793,736,0
7310854,424.21,793,739,0
7310864,461.56,793,736,0
7310874,502.92,793,740,0
7310894,545.68,773,739,0
7310897,587.26,773,741,0
7310906,624.55,773,735,0
7310916,654.82,773,740,0
7310926,676.17,773,735,0
7310936,691.21,773,740,0
7310946,701.73,773,735,0
7310956,709.10,773,740,0
7310966,714.25,773,735,0
7310977,717.91,773,740,0
7310987,720.42,773,735,0
7310997,722.18,773,740,0
7311007,723.37,773,735,0
7311017,724.20,773,740,0
7311027,724.78,773,735,0
7311037,723.31,773,740,0
7311047,716.10,773,735,0
7311057,701.93,773,740,0
7311067,679.58,773,735,0
7311077,649.23,773,740,0
7311087,610.93,773,735,0
7311097,566.25,773,740,0
7311107,517.66,773,735,0
7311117,470.32,773,740,0
7311127,426.73,773,735,0
7311137,389.78,773,740,0
7311148,360.53,773,736,0
7311158,339.93,773,740,0
7311168,326.79,773,736,0
7311178,321.28,773,740,0
7311188,321.93,773,736,0
7311198,327.78,773,740,0
7311208,336.63,773,736,0
7311218,347.24,773,740,0
7311228,357.88,773,736,0
7311238,367.99,773,740,0
7311248,375.92,773,735,0
7311258,381.56,773,740,0
7311268,384.01,773,736,0
7311278,384.13,773,740,0
7311288,381.31,773,735,0
7311298,376.37,773,740,0
7311308,369.23,773,735,0
7311319,361.19,773,740,0
7311329,352.18,773,736,0
7311339,343.17,773,739,0
7311349,333.82,773,736,0
7311360,325.26,773,739,0
7311369,317.47,773,736,0
7311379,311.11,773,739,0
7311389,305.81,773,736,0
7311399,301.96,773,739,0
7311409,299.45,773,736,0
7311419,298.41,773,739,0
7311429,298.55,773,736,0
7311439,299.80,773,739,0
7311449,301.91,773,736,0
7311459,304.98,773,739,0
7311469,308.63,773,736,0
7311479,312.86,773,739,0
7311489,317.18,773,736,0
7311499,321.67,773,739,0
7311509,326.01,773,736,0
7311519,330.08,773,739,0
7311529,333.53,773,737,0
7311539,336.50,773,739,0
7311549,338.71,773,736,0
7311559,340.34,773,739,0
7311569,341.18,773,737,0
7311579,341.55,773,739,0
7311589,341.17,773,736,0
7311599,340.44,773,740,0
7311609,339.62,773,736,0
7311619,339.65,773,739,0
7311629,341.94,773,736,0
7311639,348.39,773,739,0
7311649,360.87,773,736,0
7311660,381.95,773,739,0
7311670,413.12,773,737,0
7311680,451.57,773,739,0
7311699,494.30,806,737,0
7311703,538.48,806,737,0
7311711,581.15,806,738,0
7311721,619.63,806,739,0
7311731,651.12,806,738,0
7311741,673.58,806,738,0
7311751,689.31,806,738,0
7311761,700.31,806,738,0
7311771,708.06,806,738,0
7311781,713.49,806,738,0
7311791,717.33,806,738,0
7311801,720.01,806,738,0
7311811,721.94,806,738,0
7311821,723.29,806,738,0
7311831,722.77,806,738,0
7311841,717.01,806,738,0
7311851,704.45,806,738,0
7311861,683.62,806,738,0
7311872,654.63,806,738,0
7311881,617.76,806,738,0
7311891,573.99,806,738,0
7311901,525.82,806,738,0
7311911,478.17,806,738,0
7311921,434.15,806,738,0
7311931,396.48,806,738,0
7311941,366.42,806,738,0
7311951,344.99,806,738,0
7311961,331.88,806,738,0
7311971,327.07,806,738,0
7311981,329.11,806,738,0
7311991,336.75,806,738,0
7312001,348.39,806,738,0
7312011,362.50,806,738,0
7312021,377.10,806,738,0
7312031,391.17,806,738,0
7312041,402.86,806,737,0
7312051,411.94,806,738,0
7312061,417.49,806,738,0
7312071,419.44,806,738,0
7312081,417.47,806,737,0
7312091,412.40,806,738,0
7312101,404.35,806,738,0
7312111,394.09,806,738,0
7312121,381.89,806,738,0
7312131,368.68,806,738,0
7312141,355.19,806,738,0
7312151,342.15,806,738,0
7312161,329.76,806,738,0
7312172,318.69,806,739,0
7312182,309.10,806,738,0
7312192,301.53,806,739,0
7312202,295.75,806,736,0
7312212,292.01,806,739,0
7312222,290.04,806,737,0
7312232,289.94,806,739,0
7312242,291.12,806,737,0
7312252,294.12,806,739,0
7312262,297.94,806,737,0
7312272,303.06,806,739,0
7312282,308.49,806,737,0
7312292,314.73,806,739,0
7312302,320.81,806,737,0
7312312,327.08,806,739,0
7312322,332.33,806,737,0
7312332,337.16,806,739,0
7312343,340.62,806,736,0
7312353,343.31,806,739,0
7312363,344.50,806,736,0
7312373,344.74,806,740,0
7312384,343.83,806,735,0
7312393,342.72,806,739,0
7312403,341.61,806,736,0
7312413,342.50,806,740,0
7312423,346.63,806,735,0
7312433,356.34,806,739,0
7312443,373.30,806,736,0
7312453,399.82,806,740,0
7312463,435.06,806,735,0
7312473,476.06,806,739,0
7312492,519.50,793,738,0
7312495,562.72,793,741,0
7312504,602.83,793,735,0
7312514,637.55,793,740,0
7312524,664.13,793,735,0
7312534,682.78,793,740,0
7312544,695.83,793,735,0
7312555,705.01,793,740,0
7312564,711.44,793,735,0
7312574,715.98,793,740,0
7312584,719.11,793,735,0
7312594,721.35,793,740,0
7312604,722.87,793,735,0
7312614,721.63,793,740,0
7312624,714.58,793,735,0
7312634,700.39,793,740,0
7312644,677.99,793,735,0
7312654,647.91,793,740,0
7312664,609.75,793,735,0
7312674,564.57,793,740,0
7312684,515.63,793,735,0
7312694,467.65,793,740,0
7312704,422.76,793,735,0
7312714,384.00,793,740,0
7312724,351.77,793,735,0
7312734,328.01,793,740,0
7312744,312.45,793,735,0
7312754,305.24,793,740,0
7312764,305.09,793,735,0
7312774,311.49,793,740,0
7312784,322.06,793,735,0
7312794,335.97,793,740,0
7312804,350.89,793,735,0
7312814,366.01,793,740,0
7312824,379.29,793,735,0
7312834,390.26,793,740,0
7312844,398.11,793,735,0
7312855,402.96,793,740,0
7312865,403.96,793,735,0
7312875,402.00,793,740,0
7312885,396.56,793,734,0
7312896,388.80,793,740,0
7312905,378.58,793,735,0
7312915,367.26,793,740,0
7312925,354.80,793,734,0
7312935,342.82,793,740,0
7312945,330.91,793,735,0
7312955,320.48,793,740,0
7312965,311.12,793,735,0
7312975,303.89,793,740,0
7312985,297.79,793,735,0
7312995,293.83,793,740,0
7313005,290.96,793,734,0
7313015,289.99,793,740,0
7313025,289.86,793,735,0
7313035,291.23,793,740,0
7313045,293.05,793,734,0
7313055,295.99,793,740,0
7313065,299.04,793,735,0
7313075,302.80,793,740,0
7313085,306.29,793,734,0
7313095,310.31,793,740,0
7313105,313.82,793,735,0
7313115,317.56,793,740,0
7313125,320.61,793,735,0
7313135,323.81,793,740,0
7313145,326.40,793,735,0
7313155,329.15,793,740,0
7313165,331.03,793,735,0
7313175,332.99,793,739,0
7313185,334.07,793,735,0
7313196,335.03,793,740,0
7313206,334.98,793,735,0
7313216,334.56,793,739,0
7313226,333.15,793,735,0
7313236,331.52,793,740,0
7313246,329.39,793,735,0
7313256,327.99,793,739,0
7313266,327.99,793,735,0
7313276,331.89,793,740,0
7313286,341.01,793,734,0
7313296,358.41,793,739,0
7313306,385.89,793,735,0
7313326,422.56,833,734,0
7313329,465.12,833,736,0
7313338,510.73,833,739,0
7313348,555.98,833,736,0
7313358,598.46,833,739,0
7313368,634.71,833,736,0
7313378,662.22,833,739,0
7313388,681.48,833,736,0
7313398,694.97,833,739,0
7313409,704.41,833,736,0
7313419,711.01,833,738,0
7313429,715.59,833,737,0
7313439,718.80,833,739,0
7313449,721.05,833,737,0
7313459,722.62,833,738,0
7313469,723.68,833,737,0
7313479,724.37,833,739,0
7313489,724.90,833,738,0
7313499,722.62,833,739,0
7313509,714.42,833,737,0
7313519,698.56,833,739,0
7313529,674.05,833,737,0
7313539,641.17,833,739,0
7313549,600.44,833,737,0
7313559,552.78,833,739,0
7313569,502.23,833,737,0
7313580,453.43,833,738,0
7313590,409.93,833,738,0
7313600,373.87,833,738,0
7313610,346.35,833,738,0
7313620,327.52,833,737,0
7313630,317.59,833,738,0
7313640,315.10,833,738,0
7313650,319.01,833,738,0
7313660,327.02,833,737,0
7313670,337.77,833,737,0
7313680,349.71,833,738,0
7313690,361.41,833,738,0
7313700,371.36,833,737,0
7313710,379.01,833,738,0
7313720,383.29,833,738,0
7313730,384.49,833,738,0
7313740,382.50,833,737,0
7313751,377.59,833,738,0
7313761,370.26,833,737,0
7313771,361.18,833,738,0
7313781,350.84,833,736,0
7313792,340.43,833,739,0
7313801,330.44,833,737,0
7313811,321.35,833,739,0
7313821,312.93,833,737,0
7313831,306.35,833,739,0
7313841,300.89,833,737,0
7313851,297.28,833,738,0
7313861,294.75,833,737,0
7313871,293.58,833,739,0
7313881,293.49,833,738,0
7313891,294.93,833,738,0
7313901,296.97,833,737,0
7313911,300.23,833,739,0
7313921,304.11,833,737,0
7313931,308.83,833,738,0
7313941,313.64,833,737,0
7313951,318.72,833,739,0
7313961,323.69,833,737,0
7313971,328.37,833,738,0
7313981,332.20,833,737,0
7313991,335.40,833,739,0
7314001,337.55,833,737,0
7314011,339.10,833,738,0
7314021,339.76,833,737,0
7314031,339.91,833,739,0
7314041,339.34,833,737,0
7314051,338.51,833,738,0
7314061,337.16,833,737,0
7314071,335.61,833,739,0
7314081,333.54,833,737,0
7314092,331.49,833,739,0
7314102,328.73,833,736,0
7314112,326.07,833,739,0
7314122,323.18,833,736,0
7314132,320.30,833,739,0
7314142,317.34,833,736,0
7314152,314.49,833,739,0
7314162,311.43,833,736,0
7314172,309.33,833,739,0
7314182,308.50,833,736,0
7314192,310.92,833,739,0
7314202,318.15,833,736,0
7314212,333.10,833,739,0
7314222,357.29,833,736,0
7314232,392.64,833,740,0
7314242,435.22,833,736,0
7314262,482.08,936,734,0
7314265,529.84,936,735,0
7314274,575.75,936,740,0
7314284,616.20,936,735,0
7314294,649.14,936,740,0
7314305,672.24,936,735,0
7314315,688.45,936,740,0
7314325,699.85,936,735,0
7314335,707.86,936,740,0
7314345,713.48,936,735,0
7314355,717.45,936,741,0
7314365,720.18,936,735,0
7314375,722.14,936,740,0
7314385,723.47,936,735,0
7314395,724.40,936,740,0
7314405,725.01,936,735,0
7314415,722.35,936,740,0
7314425,713.33,936,735,0
7314435,697.16,936,741,0
7314445,672.34,936,735,0
7314455,639.37,936,740,0
7314465,598.41,936,735,0
7314476,551.02,936,740,0
7314486,501.26,936,735,0
7314496,454.12,936,740,0
7314506,411.57,936,736,0
7314516,376.90,936,740,0
7314526,350.49,936,735,0
7314536,333.33,936,739,0
7314546,324.36,936,735,0
7314556,323.14,936,740,0
7314566,327.55,936,735,0
7314576,336.77,936,740,0
7314586,348.28,936,735,0
7314596,361.18,936,740,0
7314606,373.39,936,735,0
7314616,384.28,936,739,0
7314626,392.38,936,735,0
7314636,397.71,936,740,0
7314647,399.34,936,736,0
7314657,397.95,936,739,0
7314667,393.12,936,736,0
7314677,385.93,936,739,0
7314688,376.35,936,736,0
7314697,365.75,936,739,0
7314707,354.16,936,736,0
7314717,342.72,936,739,0
7314727,331.53,936,736,0
7314737,321.64,936,739,0
7314747,312.96,936,736,0
7314757,306.20,936,739,0
7314767,301.13,936,736,0
7314777,298.35,936,739,0
7314787,297.47,936,736,0
7314797,298.70,936,739,0
7314807,301.58,936,736,0
7314817,306.16,936,739,0
7314827,311.86,936,736,0
7314837,318.67,936,739,0
7314847,325.97,936,736,0
7314857,333.69,936,739,0
7314867,341.20,936,736,0
7314877,348.55,936,739,0
7314887,355.29,936,736,0
7314897,361.46,936,739,0
7314907,366.42,936,736,0
7314917,370.15,936,739,0
7314927,372.51,936,736,0
7314937,373.38,936,739,0
7314947,372.67,936,736,0
7314957,370.15,936,739,0
7314967,365.69,936,736,0
7314977,359.91,936,739,0
7314988,352.70,936,736,0
7314998,344.52,936,738,0
7315008,336.05,936,737,0
7315018,327.50,936,739,0
7315028,319.64,936,737,0
7315038,313.15,936,738,0
7315048,308.26,936,737,0
7315058,306.81,936,738,0
7315068,310.08,936,737,0
7315078,319.66,936,738,0
7315088,337.25,936,737,0
7315098,364.90,936,739,0
7315108,402.56,936,737,0
7315118,446.88,936,739,0
7315128,494.19,936,737,0
7315138,541.44,936,739,0
7315158,585.80,896,737,0
7315161,624.60,896,737,0
7315170,655.06,896,738,0
7315180,676.39,896,737,0
7315190,691.27,896,739,0
7315201,701.73,896,737,0
7315211,709.10,896,739,0
7315221,714.25,896,736,0
7315231,717.86,896,739,0
7315241,720.39,896,735,0
7315251,720.32,896,739,0
7315261,714.74,896,736,0
7315271,701.96,896,739,0
7315281,680.58,896,736,0
7315291,651.05,896,739,0
7315301,613.24,896,736,0
7315311,568.25,896,739,0
7315321,518.29,896,736,0
7315331,468.02,896,739,0
7315341,420.27,896,736,0
7315351,378.23,896,739,0
7315361,342.72,896,736,0
7315372,315.46,896,739,0
7315382,296.21,896,736,0
7315392,285.82,896,739,0
7315402,283.04,896,735,0
7315412,287.49,896,739,0
7315422,297.16,896,736,0
7315432,311.08,896,739,0
7315442,327.04,896,735,0
7315452,344.04,896,739,0
7315462,360.02,896,736,0
7315472,374.37,896,739,0
7315482,385.44,896,735,0
7315492,393.41,896,739,0
7315502,397.32,896,736,0
7315512,397.86,896,739,0
7315522,394.43,896,735,0
7315532,388.17,896,740,0
7315543,378.87,896,735,0
7315553,368.11,896,739,0
7315563,355.77,896,735,0
7315573,343.37,896,740,0
7315584,330.66,896,735,0
7315593,319.15,896,739,0
7315603,308.43,896,735,0
7315613,299.69,896,740,0
7315623,292.15,896,735,0
7315633,286.75,896,739,0
7315643,282.58,896,735,0
7315653,280.44,896,740,0
7315663,279.45,896,735,0
7315673,280.13,896,739,0
7315683,281.63,896,735,0
7315693,284.53,896,740,0
7315703,287.84,896,735,0
7315713,292.09,896,739,0
7315723,296.22,896,735,0
7315733,300.70,896,740,0
7315743,304.73,896,735,0
7315753,308.93,896,740,0
7315763,312.42,896,735,0
7315773,315.85,896,740,0
7315783,318.42,896,735,0
7315793,321.04,896,740,0
7315803,322.87,896,735,0
7315813,324.62,896,740,0
7315823,325.51,896,735,0
7315833,326.30,896,740,0
7315843,326.34,896,735,0
7315853,326.32,896,740,0
7315863,325.41,896,735,0
7315873,324.39,896,739,0
7315884,322.64,896,735,0
7315894,320.91,896,740,0
7315904,318.54,896,735,0
7315914,316.53,896,739,0
7315924,314.44,896,735,0
7315934,313.37,896,740,0
7315944,313.13,896,735,0
7315954,315.70,896,739,0
7315964,322.01,896,735,0
7315974,334.52,896,740,0
7315984,354.16,896,735,0
7315994,383.26,896,740,0
7316004,420.94,896,735,0
7316023,464.37,866,734,0
7316026,509.95,866,737,0
7316035,555.13,866,739,0
7316045,596.88,866,735,0
7316055,632.96,866,740,0
7316065,660.83,866,735,0
7316075,680.34,866,740,0
7316085,693.99,866,735,0
7316096,703.59,866,740,0
7316105,710.32,866,735,0
7316115,715.02,866,740,0
7316125,718.32,866,735,0
7316135,720.62,866,739,0
7316145,722.23,866,735,0
7316155,722.12,866,740,0
7316165,717.58,866,735,0
7316175,707.25,866,739,0
7316185,689.99,866,735,0
7316195,665.74,866,739,0
7316205,634.14,866,735,0
7316215,596.09,866,739,0
7316225,553.37,866,735,0
7316235,510.28,866,739,0
7316245,468.92,866,735,0
7316255,431.96,866,739,0
7316265,400.26,866,736,0
7316275,375.49,866,739,0
7316285,357.30,866,735,0
7316295,346.16,866,739,0
7316305,340.75,866,735,0
7316315,340.95,866,739,0
7316325,345.04,866,735,0
7316335,352.48,866,739,0
7316345,361.38,866,735,0
7316355,371.30,866,739,0
7316365,380.42,866,735,0
7316375,388.57,866,739,0
7316385,394.40,866,735,0
7316396,398.22,866,739,0
7316406,399.05,866,735,0
7316416,397.54,866,738,0
7316426,393.18,866,736,0
7316436,386.91,866,739,0
7316446,378.67,866,735,0
7316456,369.42,866,739,0
7316466,359.05,866,736,0
7316476,348.67,866,739,0
7316486,338.22,866,735,0
7316496,328.64,866,739,0
7316506,319.88,866,736,0
7316516,312.37,866,739,0
7316526,306.09,866,735,0
7316536,301.52,866,739,0
7316546,298.23,866,736,0
7316556,296.62,866,739,0
7316567,296.14,866,736,0
7316577,296.91,866,738,0
7316587,298.56,866,737,0
7316597,301.10,866,738,0
7316608,304.02,866,737,0
7316617,307.49,866,739,0
7316627,310.94,866,737,0
7316637,314.60,866,738,0
7316647,318.02,866,737,0
7316657,321.53,866,739,0
7316667,324.58,866,737,0
7316677,327.20,866,739,0
7316687,329.15,866,737,0
7316697,330.73,866,738,0
7316707,331.67,866,737,0
7316717,332.24,866,738,0
7316727,332.04,866,737,0
7316737,331.69,866,738,0
7316747,331.14,866,736,0
7316757,330.54,866,738,0
7316767,329.73,866,737,0
7316777,328.79,866,738,0
7316787,327.61,866,737,0
7316797,326.52,866,738,0
7316807,325.12,866,737,0
7316817,323.63,866,738,0
7316827,322.07,866,736,0
7316837,321.11,866,738,0
7316847,321.42,866,737,0
7316857,324.38,866,738,0
7316867,331.12,866,736,0
7316877,343.94,866,738,0
7316887,364.53,866,737,0
7316897,394.63,866,738,0
7316908,432.75,866,737,0
7316927,475.81,904,736,0
7316930,520.61,904,739,0
7316939,564.66,904,737,0
7316950,605.00,904,739,0
7316959,639.24,904,737,0
7316969,665.19,904,738,0
7316979,683.34,904,737,0
7316989,696.06,904,739,0
7316999,705.00,904,737,0
7317009,711.25,904,738,0
7317019,715.59,904,737,0
7317029,718.63,904,739,0
7317039,720.03,904,738,0
7317049,717.06,904,738,0
7317059,707.61,904,737,0
7317069,690.76,904,739,0
7317079,666.19,904,737,0
7317089,634.07,904,738,0
7317099,594.75,904,737,0
7317109,549.83,904,739,0
7317120,502.99,904,737,0
7317129,457.82,904,738,0
7317139,416.35,904,737,0
7317149,380.33,904,738,0
7317159,350.66,904,737,0
7317169,328.18,904,738,0
7317179,312.78,904,737,0
7317189,304.79,904,738,0
7317199,303.27,904,737,0
7317209,307.69,904,738,0
7317219,316.61,904,737,0
7317229,329.20,904,738,0
7317239,343.67,904,737,0
7317249,359.11,904,738,0
7317259,373.95,904,737,0
7317269,387.38,904,738,0
7317279,398.28,904,737,0
7317289,406.38,904,739,0
7317299,411.07,904,737,0
7317309,412.55,904,738,0
7317319,410.45,904,737,0
7317329,405.56,904,739,0
7317339,398.06,904,737,0
7317349,388.74,904,738,0
7317359,377.85,904,737,0
7317369,366.28,904,739,0
7317379,354.45,904,737,0
7317389,343.30,904,738,0
7317399,332.63,904,737,0
7317409,323.31,904,739,0
7317420,315.12,904,736,0
7317430,308.78,904,738,0
7317440,303.62,904,736,0
7317450,300.26,904,739,0
7317460,297.95,904,735,0
7317470,297.28,904,738,0
7317480,297.24,904,736,0
7317490,298.45,904,739,0
7317500,299.90,904,735,0
7317510,302.29,904,739,0
7317520,304.60,904,736,0
7317530,307.59,904,739,0
7317540,310.29,904,735,0
7317550,313.42,904,738,0
7317560,315.99,904,736,0
7317570,318.78,904,739,0
7317580,320.86,904,735,0
7317591,323.09,904,739,0
7317601,324.48,904,735,0
7317611,325.96,904,740,0
7317621,326.66,904,734,0
7317632,327.49,904,739,0
7317641,327.64,904,735,0
7317651,328.18,904,739,0
7317661,328.00,904,734,0
7317671,328.08,904,739,0
7317681,327.50,904,735,0
7317691,327.18,904,739,0
7317701,326.18,904,734,0
7317711,325.36,904,739,0
7317721,323.75,904,735,0
7317731,322.32,904,739,0
7317741,320.30,904,734,0
7317751,318.62,904,739,0
7317761,316.59,904,735,0
7317771,315.73,904,739,0
7317781,315.98,904,734,0
7317791,319.50,904,739,0
7317801,327.15,904,734,0
7317811,341.25,904,739,0
7317821,362.69,904,734,0
7317831,393.64,904,739,0
7317851,432.36,923,739,0
7317854,475.97,923,740,0
7317863,520.93,923,734,0
7317873,564.80,923,739,0
7317883,604.76,923,734,0
7317893,638.86,923,740,0
7317903,664.74,923,734,0
7317913,682.86,923,739,0
7317923,695.55,923,734,0
7317933,704.47,923,739,0
7317943,710.71,923,734,0
7317953,715.09,923,740,0
7317963,715.79,923,734,0
7317974,711.09,923,739,0
7317983,699.54,923,734,0
7317993,680.65,923,739,0
7318003,653.84,923,734,0
7318013,619.73,923,739,0
7318023,578.75,923,734,0
7318033,534.26,923,739,0
7318043,488.88,923,734,0
7318053,445.72,923,739,0
7318063,406.29,923,734,0
7318073,372.81,923,739,0
7318083,345.61,923,734,0
7318093,325.67,923,739,0
7318103,312.53,923,734,0
7318113,306.84,923,739,0
7318123,307.53,923,734,0
7318133,314.40,923,739,0
7318144,325.72,923,734,0
7318153,340.98,923,739,0
7318163,358.13,923,734,0
7318173,376.43,923,739,0
7318183,394.00,923,734,0
7318193,410.24,923,739,0
7318203,423.50,923,734,0
7318213,433.81,923,739,0
7318223,439.95,923,734,0
7318233,442.54,923,739,0
7318243,441.05,923,734,0
7318253,436.32,923,739,0
7318263,428.29,923,734,0
7318273,418.31,923,739,0
7318283,406.17,923,734,0
7318293,393.35,923,739,0
7318303,379.70,923,734,0
7318313,366.51,923,739,0
7318323,353.63,923,734,0
7318333,341.99,923,739,0
7318343,331.28,923,734,0
7318353,322.28,923,739,0
7318363,314.53,923,733,0
7318373,308.80,923,739,0
7318383,304.40,923,734,0
7318393,301.92,923,739,0
7318403,300.66,923,733,0
7318413,301.06,923,739,0
7318423,302.33,923,734,0
7318433,304.80,923,739,0
7318444,307.60,923,734,0
7318454,311.15,923,739,0
7318464,314.71,923,734,0
7318474,318.52,923,739,0
7318484,322.01,923,734,0
7318494,325.78,923,739,0
7318504,329.14,923,734,0
7318514,332.66,923,739,0
7318524,335.76,923,735,0
7318534,338.83,923,739,0
7318544,341.54,923,734,0
7318554,344.08,923,739,0
7318564,345.85,923,734,0
7318574,347.31,923,739,0
7318584,347.90,923,734,0
7318594,348.06,923,739,0
7318604,347.44,923,734,0
7318615,346.58,923,739,0
7318625,345.81,923,735,0
7318635,346.34,923,739,0
7318645,349.28,923,735,0
7318656,356.52,923,739,0
7318665,369.22,923,735,0
7318675,389.56,923,739,0
7318685,418.28,923,735,0
7318705,454.49,854,735,0
7318708,495.02,854,738,0
7318717,536.93,854,738,0
7318727,577.49,854,737,0
7318737,614.63,854,737,0
7318747,645.85,854,737,0
7318757,669.68,854,738,0
7318767,686.36,854,737,0
7318777,698.00,854,738,0
7318787,706.18,854,737,0
7318797,711.91,854,738,0
7318807,715.88,854,737,0
7318817,715.19,854,738,0
7318828,708.28,854,738,0
7318838,693.75,854,737,0
7318848,671.28,854,737,0
7318858,640.73,854,736,0
7318868,602.84,854,738,0
7318878,558.23,854,737,0
7318888,511.32,854,738,0
7318898,464.89,854,736,0
7318908,422.03,854,738,0
7318918,384.13,854,737,0
7318928,352.94,854,738,0
7318938,328.65,854,737,0
7318948,312.17,854,738,0
7318958,302.91,854,737,0
7318968,301.05,854,738,0
7318978,305.36,854,737,0
7318988,315.54,854,738,0
7318999,329.56,854,736,0
7319009,346.84,854,738,0
7319019,365.14,854,736,0
7319029,384.09,854,739,0
7319040,401.42,854,735,0
7319049,416.85,854,738,0
7319059,428.77,854,736,0
7319069,437.62,854,739,0
7319079,442.24,854,735,0
7319089,443.45,854,738,0
7319099,440.49,854,736,0
7319109,434.73,854,739,0
7319119,425.77,854,735,0
7319129,415.12,854,738,0
7319139,402.44,854,736,0
7319149,389.24,854,739,0
7319159,375.24,854,735,0
7319169,361.88,854,738,0
7319179,348.93,854,736,0
7319189,337.59,854,739,0
7319199,327.13,854,735,0
7319209,318.69,854,739,0
7319219,311.58,854,736,0
7319229,306.61,854,739,0
7319239,302.91,854,735,0
7319249,301.10,854,739,0
7319259,300.25,854,736,0
7319269,301.08,854,739,0
7319279,302.55,854,735,0
7319289,305.22,854,739,0
7319299,308.15,854,736,0
7319309,311.96,854,739,0
7319319,315.66,854,735,0
7319329,319.88,854,739,0
7319340,323.60,854,735,0
7319350,327.58,854,739,0
7319360,330.92,854,734,0
7319370,334.37,854,739,0
7319380,336.96,854,734,0
7319390,339.59,854,739,0
7319400,341.30,854,734,0
7319410,343.09,854,739,0
7319420,343.97,854,734,0
7319430,344.88,854,739,0
7319440,344.87,854,734,0
7319450,344.95,854,739,0
7319460,344.32,854,734,0
7319470,344.14,854,739,0
7319480,344.14,854,734,0
7319490,346.33,854,739,0
7319500,351.33,854,734,0
7319511,361.94,854,739,0
7319521,379.32,854,734,0
7319531,406.01,854,739,0
7319550,440.85,846,739,0
7319554,481.14,846,740,0
7319563,523.65,846,734,0
7319573,566.06,846,739,0
7319583,605.25,846,735,0
7319593,639.04,846,739,0
7319603,664.82,846,734,0
7319613,682.88,846,739,0
7319623,695.51,846,734,0
7319633,704.36,846,739,0
7319643,710.55,846,734,0
7319653,714.89,846,739,0
7319663,717.92,846,734,0
7319673,720.04,846,739,0
7319683,721.53,846,734,0
7319693,721.16,846,739,0
7319703,715.84,846,734,0
7319713,704.10,846,739,0
7319724,684.70,846,734,0
7319734,657.53,846,739,0
7319744,622.87,846,735,0
7319754,581.51,846,739,0
7319764,535.84,846,735,0
7319774,490.46,846,739,0
7319784,448.07,846,735,0
7319794,411.49,846,739,0
7319804,382.03,846,735,0
7319814,360.63,846,739,0
7319824,347.29,846,735,0
7319834,341.93,846,739,0
7319844,343.49,846,735,0
7319854,351.10,846,739,0
7319864,362.94,846,735,0
7319874,377.75,846,739,0
7319884,393.85,846,735,0
7319895,409.97,846,739,0
7319905,424.51,846,735,0
7319915,436.57,846,738,0
7319925,445.23,846,736,0
7319936,450.22,846,738,0
7319945,451.27,846,736,0
7319955,448.53,846,739,0
7319965,442.24,846,736,0
7319975,432.91,846,738,0
7319985,421.20,846,736,0
7319995,407.85,846,739,0
7320005,393.62,846,736,0
7320015,379.12,846,738,0
7320025,364.94,846,735,0
7320035,351.72,846,739,0
7320045,339.89,846,736,0
7320055,329.64,846,738,0
7320065,321.17,846,735,0
7320075,314.61,846,739,0
7320085,309.93,846,736,0
7320095,306.95,846,738,0
7320105,305.59,846,736,0
7320115,305.63,846,738,0
7320125,306.90,846,736,0
7320135,309.11,846,738,0
7320145,311.99,846,736,0
7320155,315.42,846,739,0
7320165,319.20,846,736,0
7320175,323.08,846,738,0
7320185,327.00,846,736,0
7320195,330.90,846,739,0
7320205,334.79,846,736,0
7320215,338.45,846,738,0
7320225,341.74,846,736,0
7320236,344.65,846,738,0
7320246,347.20,846,737,0
7320256,349.15,846,737,0
7320266,350.65,846,737,0
7320276,351.44,846,737,0
7320286,351.87,846,737,0
7320296,351.73,846,738,0
7320306,351.30,846,737,0
7320316,350.27,846,737,0
7320326,349.16,846,737,0
7320336,347.91,846,738,0
7320346,347.64,846,737,0
7320356,349.12,846,737,0
7320366,354.18,846,737,0
7320376,364.63,846,738,0
7320386,383.00,846,737,0
7320396,410.90,846,738,0
7320416,446.80,866,736,0
7320419,487.45,866,736,0
7320428,530.25,866,739,0
7320438,572.48,866,736,0
7320449,611.42,866,739,0
7320459,644.17,866,735,0
7320469,668.50,866,739,0
7320479,685.54,866,735,0
7320489,697.50,866,739,0
7320499,705.88,866,735,0
7320509,711.79,866,739,0
7320519,715.88,866,735,0
7320529,718.79,866,739,0
7320539,720.78,866,735,0
7320549,722.17,866,739,0
7320559,723.11,866,735,0
7320569,723.80,866,739,0
7320579,723.35,866,735,0
7320589,719.30,866,739,0
7320599,708.63,866,735,0
7320609,690.57,866,739,0
7320620,664.34,866,734,0
7320630,630.81,866,739,0
7320640,590.37,866,734,0
7320650,545.64,866,739,0
7320660,500.02,866,734,0
7320670,458.40,866,739,0
7320680,422.54,866,734,0
7320690,394.90,866,739,0
7320700,375.18,866,734,0
7320710,363.98,866,739,0
7320720,359.70,866,734,0
7320730,362.15,866,739,0
7320740,368.96,866,734,0
7320750,379.39,866,739,0
7320760,390.97,866,734,0
7320770,403.02,866,739,0
7320780,413.52,866,734,0
7320791,422.23,866,739,0
7320801,427.65,866,734,0
7320811,430.20,866,739,0
7320821,428.94,866,734,0
7320832,424.76,866,739,0
7320841,417.50,866,734,0
7320851,408.44,866,739,0
7320861,397.29,866,734,0
7320871,385.59,866,739,0
7320881,373.03,866,734,0
7320891,361.19,866,739,0
7320901,349.69,866,734,0
7320911,339.41,866,739,0
7320921,329.95,866,734,0
7320931,322.33,866,739,0
7320941,315.80,866,734,0
7320951,311.28,866,739,0
7320961,307.72,866,734,0
7320971,306.01,866,739,0
7320981,305.28,866,734,0
7320991,306.18,866,739,0
7321001,307.84,866,734,0
7321011,310.72,866,739,0
7321021,313.89,866,734,0
7321031,317.91,866,739,0
7321041,321.79,866,734,0
7321051,326.10,866,739,0
7321061,329.75,866,734,0
7321071,333.43,866,739,0
7321081,336.34,866,734,0
7321091,339.33,866,739,0
7321101,341.67,866,734,0
7321111,343.96,866,739,0
7321121,345.60,866,734,0
7321132,347.39,866,739,0
7321142,348.52,866,734,0
7321152,349.60,866,739,0
7321162,349.85,866,734,0
7321172,349.68,866,739,0
7321182,348.62,866,734,0
7321192,347.15,866,739,0
7321202,344.79,866,734,0
7321212,342.28,866,739,0
7321222,339.45,866,734,0
7321232,337.52,866,739,0
7321242,337.23,866,734,0
7321252,340.72,866,739,0
7321262,349.25,866,734,0
7321272,365.63,866,739,0
7321282,391.33,866,734,0
7321292,426.41,866,739,0
7321312,467.30,896,738,0
7321315,511.27,896,739,0
7321324,555.20,896,736,0
7321334,596.71,896,739,0
7321345,632.54,896,736,0
7321355,660.45,896,738,0
7321365,680.03,896,737,0
7321375,693.78,896,738,0
7321385,703.44,896,737,0
7321395,710.17,896,738,0
7321405,714.88,896,737,0
7321415,718.17,896,738,0
7321425,720.48,896,737,0
7321435,722.09,896,738,0
7321445,723.22,896,737,0
7321455,724.01,896,738,0
7321465,724.61,896,737,0
7321475,722.03,896,738,0
7321485,713.70,896,737,0
7321495,697.94,896,738,0
7321505,674.17,896,737,0
7321516,642.45,896,738,0
7321526,603.83,896,737,0
7321536,558.88,896,737,0
7321546,512.20,896,738,0
7321556,467.61,896,737,0
7321566,428.43,896,738,0
7321576,396.24,896,737,0
7321586,372.43,896,738,0
7321596,356.48,896,737,0
7321606,348.67,896,737,0
7321616,347.52,896,737,0
7321626,352.17,896,738,0
7321636,360.65,896,737,0
7321646,371.85,896,737,0
7321656,383.77,896,737,0
7321666,395.49,896,738,0
7321676,405.42,896,737,0
7321687,413.18,896,738,0
7321697,417.62,896,736,0
7321707,419.07,896,738,0
7321717,416.95,896,736,0
7321728,412.12,896,739,0
7321737,404.58,896,736,0
7321747,395.45,896,738,0
7321757,384.69,896,736,0
7321767,373.60,896,739,0
7321777,362.19,896,736,0
7321787,351.72,896,738,0
7321797,341.77,896,736,0
7321807,333.48,896,739,0
7321817,326.44,896,736,0
7321827,321.55,896,738,0
7321837,318.21,896,736,0
7321847,317.16,896,738,0
7321857,317.59,896,736,0
7321867,320.20,896,738,0
7321877,323.91,896,736,0
7321887,329.21,896,738,0
7321897,334.93,896,735,0
7321907,341.59,896,738,0
7321917,348.06,896,736,0
7321927,354.90,896,738,0
7321937,361.01,896,736,0
7321947,366.84,896,738,0
7321957,371.34,896,736,0
7321967,375.31,896,738,0
7321977,377.79,896,735,0
7321987,379.40,896,738,0
7321997,379.28,896,736,0
7322007,378.55,896,738,0
7322017,376.20,896,736,0
7322028,373.18,896,739,0
7322038,368.63,896,735,0
7322048,363.68,896,739,0
7322058,357.73,896,734,0
7322068,351.94,896,739,0
7322078,345.75,896,735,0
7322088,341.28,896,739,0
7322098,339.14,896,735,0
7322108,342.10,896,739,0
7322118,350.94,896,735,0
7322128,368.91,896,738,0
7322138,396.84,896,735,0
7322148,433.79,896,739,0
7322158,476.02,896,736,0
7322168,520.76,896,739,0
7322187,564.63,875,738,0
7322190,605.41,875,741,0
7322199,639.70,875,734,0
7322209,665.59,875,739,0
7322219,683.71,875,734,0
7322229,696.36,875,740,0
7322240,705.25,875,734,0
7322249,711.48,875,739,0
7322259,715.83,875,734,0
7322269,718.88,875,740,0
7322279,721.02,875,734,0
7322289,722.51,875,739,0
7322299,723.56,875,735,0
7322309,721.42,875,740,0
7322319,713.24,875,734,0
7322329,698.17,875,739,0
7322339,675.14,875,734,0
7322349,644.29,875,739,0
7322359,605.80,875,734,0
7322369,561.12,875,739,0
7322379,513.85,875,734,0
7322389,468.81,875,739,0
7322399,427.85,875,734,0
7322409,393.95,875,739,0
7322419,367.74,875,734,0
7322429,350.50,875,739,0
7322439,341.14,875,734,0
7322449,339.73,875,739,0
7322459,344.18,875,734,0
7322469,353.90,875,739,0
7322479,366.27,875,734,0
7322489,380.46,875,739,0
7322499,393.95,875,734,0
7322509,406.39,875,739,0
7322519,415.96,875,734,0
7322529,422.83,875,739,0
7322540,425.80,875,734,0
7322550,425.64,875,739,0
7322560,421.81,875,734,0
7322570,415.48,875,739,0
7322580,406.38,875,734,0
7322590,395.98,875,739,0
7322600,383.94,875,734,0
7322610,371.75,875,739,0
7322620,359.18,875,734,0
7322630,347.60,875,739,0
7322640,336.75,875,734,0
7322650,327.61,875,739,0
7322660,319.58,875,734,0
7322670,313.75,875,740,0
7322680,309.33,875,734,0
7322690,307.04,875,739,0
7322700,306.00,875,734,0
7322711,306.86,875,739,0
7322721,308.70,875,734,0
7322731,312.00,875,739,0
7322741,315.82,875,734,0
7322752,320.54,875,739,0
7322761,325.22,875,734,0
7322771,330.43,875,739,0
7322781,335.23,875,734,0
7322791,340.00,875,739,0
7322801,344.03,875,734,0
7322811,347.79,875,739,0
7322821,350.68,875,734,0
7322831,353.26,875,739,0
7322841,354.90,875,734,0
7322851,356.13,875,739,0
7322861,356.48,875,734,0
7322871,356.63,875,740,0
7322881,355.76,875,734,0
7322891,354.54,875,739,0
7322901,352.32,875,734,0
7322911,349.70,875,740,0
7322921,346.45,875,734,0
7322931,343.57,875,739,0
7322941,341.13,875,734,0
7322951,341.26,875,739,0
7322961,345.17,875,734,0
7322971,355.36,875,739,0
7322981,373.60,875,734,0
7322991,402.26,875,740,0
7323001,439.04,875,735,0
7323020,481.11,833,733,0
7323023,525.22,833,736,0
7323032,568.70,833,739,0
7323042,608.69,833,735,0
7323052,642.55,833,739,0
7323062,667.54,833,735,0
7323072,685.04,833,739,0
7323082,697.28,833,735,0
7323092,705.90,833,739,0
7323102,711.93,833,734,0
7323112,716.19,833,739,0
7323122,719.18,833,735,0
7323132,721.27,833,739,0
7323142,722.73,833,735,0
7323152,723.80,833,740,0
7323162,724.54,833,735,0
7323172,725.11,833,739,0
7323182,725.42,833,735,0
7323192,722.25,833,739,0
7323202,713.26,833,735,0
7323212,697.37,833,739,0
7323223,673.86,833,735,0
7323233,643.30,833,739,0
7323243,606.35,833,736,0
7323253,564.38,833,739,0
7323264,521.71,833,736,0
7323273,482.02,833,739,0
7323283,447.47,833,736,0
7323293,419.95,833,739,0
7323303,399.69,833,736,0
7323313,386.54,833,739,0
7323323,379.56,833,736,0
7323333,378.02,833,739,0
7323343,380.42,833,736,0
7323353,385.61,833,739,0
7323363,391.94,833,736,0
7323373,398.43,833,739,0
7323383,404.09,833,736,0
7323393,408.30,833,739,0
7323403,410.35,833,736,0
7323413,410.16,833,739,0
7323423,407.54,833,736,0
7323433,402.71,833,739,0
7323443,395.81,833,736,0
7323453,387.47,833,739,0
7323463,377.77,833,736,0
7323473,367.21,833,739,0
7323483,356.26,833,736,0
7323493,345.43,833,739,0
7323503,335.14,833,736,0
7323513,325.76,833,739,0
7323523,317.39,833,736,0
7323533,310.63,833,739,0
7323543,305.72,833,736,0
7323553,302.76,833,739,0
7323564,301.72,833,737,0
7323574,302.53,833,738,0
7323584,305.07,833,737,0
7323594,309.04,833,738,0
7323604,314.17,833,738,0
7323614,320.03,833,738,0
7323624,326.45,833,737,0
7323634,333.13,833,738,0
7323644,339.95,833,738,0
7323654,346.52,833,738,0
7323664,352.88,833,737,0
7323674,358.53,833,738,0
7323684,363.68,833,738,0
7323694,367.85,833,738,0
7323704,370.98,833,737,0
7323714,372.79,833,738,0
7323724,373.45,833,738,0
7323735,372.67,833,738,0
7323745,370.84,833,738,0
7323755,367.63,833,738,0
7323765,363.46,833,738,0
7323776,358.22,833,737,0
7323785,352.33,833,738,0
7323795,345.88,833,738,0
7323805,339.66,833,738,0
7323815,334.11,833,737,0
7323825,330.95,833,738,0
7323835,331.69,833,738,0
7323845,338.85,833,738,0
7323855,354.54,833,737,0
7323865,380.65,833,738,0
7323875,416.63,833,738,0
7323885,459.21,833,738,0
7323895,504.92,833,738,0
7323905,550.89,833,738,0
7323924,593.86,904,737,0
7323927,630.93,904,739,0
7323936,659.67,904,737,0
7323947,679.82,904,739,0
7323956,693.93,904,737,0
7323966,703.85,904,739,0
7323976,710.80,904,737,0
7323986,715.66,904,739,0
7323996,719.02,904,737,0
7324006,721.37,904,739,0
7324016,723.02,904,737,0
7324026,724.17,904,739,0
7324036,723.05,904,737,0
7324046,717.20,904,739,0
7324056,704.67,904,736,0
7324066,684.71,904,738,0
7324076,657.11,904,737,0
7324086,622.19,904,738,0
7324096,580.44,904,737,0
7324106,535.09,904,739,0
7324116,489.72,904,736,0
7324126,448.15,904,738,0
7324136,412.23,904,736,0
7324146,383.66,904,739,0
7324156,362.93,904,736,0
7324166,350.57,904,739,0
7324176,345.73,904,737,0
7324186,347.74,904,738,0
7324196,354.50,904,736,0
7324206,364.98,904,738,0
7324216,377.03,904,736,0
7324226,389.45,904,738,0
7324236,400.37,904,736,0
7324247,408.87,904,739,0
7324257,413.67,904,736,0
7324267,414.88,904,739,0
7324277,411.88,904,735,0
7324288,405.40,904,739,0
7324297,395.68,904,736,0
7324307,384.25,904,739,0
7324317,371.44,904,735,0
7324327,358.97,904,739,0
7324337,347.02,904,736,0
7324347,337.03,904,739,0
7324357,328.79,904,735,0
7324367,323.20,904,739,0
7324377,319.49,904,736,0
7324387,318.28,904,739,0
7324397,318.66,904,735,0
7324407,321.04,904,739,0
7324417,324.28,904,736,0
7324427,328.83,904,739,0
7324437,333.59,904,735,0
7324447,338.90,904,739,0
7324457,343.69,904,735,0
7324467,348.28,904,739,0
7324477,351.84,904,735,0
7324487,354.84,904,739,0
7324497,356.43,904,735,0
7324507,357.29,904,739,0
7324517,356.77,904,735,0
7324527,355.81,904,739,0
7324537,353.73,904,735,0
7324547,351.49,904,739,0
7324557,348.52,904,735,0
7324567,345.58,904,739,0
7324577,342.10,904,735,0
7324588,338.86,904,739,0
7324598,335.22,904,734,0
7324608,332.11,904,739,0
7324618,328.78,904,735,0
7324628,326.06,904,739,0
7324638,323.55,904,734,0
7324648,321.89,904,739,0
7324658,320.51,904,735,0
7324668,320.31,904,739,0
7324678,321.16,904,735,0
7324688,324.28,904,739,0
7324698,330.20,904,734,0
7324708,341.15,904,739,0
7324718,357.82,904,734,0
7324728,382.69,904,739,0
7324738,416.17,904,734,0
7324748,456.02,904,739,0
7324768,499.04,844,737,0
7324771,542.87,844,738,0
7324780,584.35,844,734,0
7324790,621.70,844,738,0
7324801,652.09,844,734,0
7324811,674.18,844,738,0
7324821,689.64,844,735,0
7324831,700.51,844,738,0
7324841,708.07,844,735,0
7324851,713.36,844,739,0
7324861,717.07,844,735,0
7324871,719.70,844,738,0
7324881,718.72,844,735,0
7324891,712.55,844,739,0
7324901,699.06,844,734,0
7324911,677.74,844,738,0
7324921,648.12,844,735,0
7324931,610.97,844,739,0
7324941,566.53,844,735,0
7324951,518.80,844,738,0
7324961,470.35,844,734,0
7324972,424.99,844,738,0
7324982,384.62,844,735,0
7324992,351.13,844,738,0
7325002,324.86,844,735,0
7325012,306.78,844,738,0
7325022,296.17,844,735,0
7325032,293.08,844,738,0
7325042,295.93,844,735,0
7325052,303.75,844,738,0
7325062,315.01,844,735,0
7325072,328.42,844,738,0
7325082,342.09,844,735,0
7325092,355.39,844,738,0
7325102,366.85,844,735,0
7325112,376.49,844,738,0
7325122,383.25,844,735,0
7325132,386.99,844,738,0
7325143,387.33,844,735,0
7325153,385.05,844,737,0
7325163,379.93,844,736,0
7325173,372.58,844,737,0
7325184,363.11,844,736,0
7325193,352.75,844,737,0
7325203,341.89,844,736,0
7325213,331.17,844,737,0
7325223,320.92,844,736,0
7325233,311.77,844,737,0
7325243,304.08,844,736,0
7325253,298.02,844,737,0
7325263,293.17,844,736,0
7325273,289.56,844,737,0
7325283,287.08,844,736,0
7325293,285.64,844,737,0
7325303,285.11,844,736,0
7325313,285.50,844,737,0
7325323,286.55,844,736,0
7325333,288.23,844,737,0
7325343,290.35,844,736,0
7325353,292.99,844,737,0
7325363,295.90,844,736,0
7325373,298.55,844,737,0
7325383,300.95,844,736,0
7325393,302.94,844,737,0
7325403,304.89,844,736,0
7325413,306.55,844,737,0
7325423,307.97,844,736,0
7325433,308.92,844,737,0
7325443,310.10,844,736,0
7325453,311.10,844,737,0
7325463,311.88,844,736,0
7325473,311.96,844,737,0
7325484,311.72,844,736,0
7325494,310.90,844,736,0
7325504,309.95,844,737,0
7325514,308.33,844,736,0
7325524,306.56,844,737,0
7325534,304.64,844,736,0
7325544,303.03,844,737,0
7325554,301.74,844,736,0
7325564,301.77,844,737,0
7325574,303.34,844,737,0
7325584,308.21,844,737,0
7325594,317.19,844,736,0
7325604,332.56,844,737,0
7325614,354.72,844,737,0
7325633,385.11,865,735,0
7325636,423.35,865,735,0
7325645,466.74,865,738,0
7325655,511.82,865,736,0
7325665,556.06,865,738,0
7325675,596.41,865,735,0
7325685,631.52,865,738,0
7325696,659.35,865,734,0
7325705,679.22,865,738,0
7325715,693.08,865,735,0
7325725,702.78,865,738,0
7325735,708.21,865,734,0
7325745,708.36,865,738,0
7325755,701.82,865,735,0
7325765,688.03,865,738,0
7325775,666.47,865,734,0
7325785,637.57,865,738,0
7325795,601.31,865,736,0
7325805,560.16,865,738,0
7325815,516.18,865,735,0
7325825,472.93,865,738,0
7325835,432.19,865,736,0
7325845,396.44,865,738,0
7325855,366.09,865,735,0
7325865,342.92,865,739,0
7325875,326.53,865,736,0
7325885,318.27,865,738,0
7325895,316.95,865,735,0
7325905,322.58,865,739,0
7325915,333.50,865,736,0
7325925,348.95,865,738,0
7325935,366.88,865,735,0
7325945,386.46,865,738,0
7325955,405.52,865,736,0
7325965,423.28,865,738,0
7325975,437.85,865,735,0
7325985,448.78,865,738,0
7325996,455.32,865,735,0
7326006,457.75,865,738,0
7326016,455.38,865,734,0
7326026,448.93,865,739,0
7326036,438.15,865,734,0
7326046,424.86,865,739,0
7326056,408.92,865,734,0
7326066,391.93,865,739,0
7326076,373.82,865,734,0
7326086,356.47,865,739,0
7326096,339.66,865,734,0
7326106,324.93,865,739,0
7326116,311.54,865,734,0
7326126,300.96,865,738,0
7326136,292.40,865,735,0
7326146,286.71,865,739,0
7326156,282.85,865,734,0
7326167,282.30,865,739,0
7326177,284.18,865,734,0
7326187,288.58,865,740,0
7326197,294.07,865,734,0
7326208,300.95,865,739,0
7326217,308.16,865,734,0
7326227,315.96,865,739,0
7326237,322.66,865,734,0
7326247,328.46,865,739,0
7326257,332.82,865,734,0
7326267,336.60,865,739,0
7326277,338.99,865,734,0
7326287,340.88,865,739,0
7326297,341.56,865,734,0
7326307,341.73,865,739,0
7326317,340.70,865,734,0
7326327,339.33,865,739,0
7326337,336.88,865,734,0
7326347,334.51,865,739,0
7326357,331.66,865,734,0
7326367,329.79,865,739,0
7326377,329.08,865,734,0
7326387,331.37,865,739,0
7326397,337.26,865,734,0
7326407,349.05,865,739,0
7326417,367.08,865,734,0
7326427,392.68,865,740,0
7326437,424.97,865,734,0
7326447,463.59,865,739,0
7326467,505.03,833,738,0
7326470,546.85,833,741,0
7326479,586.11,833,734,0
7326489,621.13,833,739,0
7326499,650.15,833,734,0
7326509,672.73,833,740,0
7326519,686.06,833,734,0
7326529,691.14,833,739,0
7326539,687.58,833,734,0
7326550,675.97,833,739,0
7326559,656.35,833,734,0
7326569,629.54,833,739,0
7326579,595.78,833,734,0
7326589,558.43,833,739,0
7326599,518.96,833,734,0
7326609,480.14,833,739,0
7326619,442.81,833,734,0
7326629,408.84,833,740,0
7326639,378.46,833,734,0
7326649,352.91,833,739,0
7326659,332.11,833,734,0
7326669,316.82,833,739,0
7326679,306.50,833,734,0
7326689,301.89,833,739,0
7326699,302.01,833,734,0
7326709,307.02,833,739,0
7326720,315.72,833,735,0
7326729,327.89,833,739,0
7326739,341.76,833,734,0
7326749,357.09,833,739,0
7326759,371.98,833,734,0
7326769,386.38,833,739,0
7326779,398.57,833,734,0
7326789,408.26,833,739,0
7326799,414.39,833,734,0
7326809,417.75,833,739,0
7326819,417.35,833,734,0
7326829,414.07,833,739,0
7326839,407.37,833,734,0
7326849,398.69,833,739,0
7326859,388.15,833,734,0
7326869,376.71,833,739,0
7326879,364.24,833,734,0
7326889,352.21,833,739,0
7326899,340.79,833,734,0
7326909,330.78,833,739,0
7326919,321.55,833,734,0
7326929,313.93,833,739,0
7326939,307.39,833,734,0
7326949,302.69,833,739,0
7326959,299.10,833,734,0
7326969,296.97,833,739,0
7326979,295.48,833,734,0
7326989,295.16,833,739,0
7326999,295.29,833,734,0
7327009,296.40,833,739,0
7327020,297.69,833,734,0
7327030,299.50,833,739,0
7327040,303.46,833,737,0
7327050,308.38,833,740,0
7327060,313.24,833,736,0
7327070,318.01,833,740,0
7327080,322.08,833,736,0
7327090,325.65,833,740,0
7327100,328.42,833,736,0
7327110,328.29,833,740,0
7327120,326.70,833,736,0
7327130,324.74,833,740,0
7327140,322.24,833,736,0
7327150,319.90,833,740,0
7327160,317.49,833,736,0
7327170,315.71,833,740,0
7327180,314.60,833,736,0
7327191,315.32,833,740,0
7327201,318.31,833,737,0
7327211,325.37,833,739,0
7327221,337.69,833,737,0
7327232,356.94,833,739,0
7327241,383.44,833,737,0
7327251,417.98,833,740,0
7327270,458.49,804,738,0
7327273,501.97,804,737,0
7327282,545.44,804,738,0
7327292,586.32,804,739,0
7327302,622.40,804,738,0
7327312,652.19,804,738,0
7327322,674.42,804,738,0
7327332,689.94,804,739,0
7327342,700.84,804,738,0
7327352,707.62,804,738,0
7327362,709.23,804,738,0
7327372,704.45,804,739,0
7327382,692.61,804,738,0
7327392,673.40,804,738,0
7327403,646.75,804,738,0
7327412,613.23,804,739,0
7327422,574.24,804,738,0
7327432,532.47,804,739,0
7327442,490.80,804,738,0
7327452,451.35,804,739,0
7327462,415.71,804,738,0
7327472,384.90,804,738,0
7327482,359.69,804,738,0
7327492,340.37,804,739,0
7327502,327.36,804,738,0
7327512,320.18,804,738,0
7327522,318.71,804,738,0
7327532,322.23,804,739,0
7327542,330.64,804,737,0
7327552,342.49,804,739,0
7327562,357.09,804,738,0
7327572,372.83,804,738,0
7327582,388.87,804,738,0
7327592,403.82,804,738,0
7327602,416.78,804,738,0
7327612,426.57,804,738,0
7327622,433.04,804,738,0
7327632,435.69,804,739,0
7327642,434.80,804,738,0
7327652,430.40,804,738,0
7327662,423.12,804,738,0
7327672,413.53,804,739,0
7327682,402.36,804,738,0
7327692,389.95,804,739,0
7327703,377.45,804,739,0
7327713,364.80,804,738,0
7327723,353.07,804,739,0
7327733,342.00,804,738,0
7327744,332.57,804,739,0
7327753,324.34,804,738,0
7327763,318.24,804,739,0
7327773,313.28,804,738,0
7327783,310.58,804,739,0
7327793,308.99,804,738,0
7327803,309.21,804,739,0
7327813,310.43,804,738,0
7327823,313.09,804,739,0
7327833,316.32,804,738,0
7327843,320.29,804,739,0
7327853,324.06,804,738,0
7327863,328.33,804,739,0
7327873,332.26,804,738,0
7327883,335.95,804,738,0
7327893,338.84,804,738,0
7327903,341.29,804,739,0
7327913,342.96,804,737,0
7327923,344.64,804,738,0
7327933,345.52,804,738,0
7327943,346.69,804,739,0
7327953,348.16,804,737,0
7327963,351.45,804,738,0
7327973,357.36,804,738,0
7327983,368.09,804,739,0
7327993,384.44,804,737,0
7328003,408.13,804,738,0
7328013,439.59,804,738,0
7328023,477.09,804,739,0
7328033,517.48,804,738,0
7328053,558.18,783,736,0
7328056,596.52,783,736,0
7328065,630.52,783,740,0
7328075,658.44,783,735,0
7328086,678.83,783,740,0
7328095,693.07,783,736,0
7328105,703.03,783,740,0
7328115,710.01,783,735,0
7328125,714.89,783,740,0
7328135,715.65,783,736,0
7328145,711.09,783,740,0
7328155,699.49,783,735,0
7328165,680.74,783,740,0
7328175,654.55,783,736,0
7328185,621.86,783,740,0
7328195,582.51,783,735,0
7328205,540.23,783,740,0
7328215,497.26,783,736,0
7328225,457.20,783,740,0
7328235,420.84,783,735,0
7328245,389.94,783,740,0
7328256,364.33,783,735,0
7328265,345.68,783,740,0
7328275,333.43,783,735,0
7328285,327.94,783,740,0
7328295,327.79,783,735,0
7328305,333.12,783,740,0
7328315,342.30,783,735,0
7328325,355.15,783,740,0
7328335,369.38,783,735,0
7328345,384.39,783,740,0
7328355,398.29,783,735,0
7328365,411.06,783,740,0
7328375,421.07,783,735,0
7328385,428.68,783,740,0
7328395,432.59,783,735,0
7328405,433.70,783,740,0
7328415,431.35,783,735,0
7328425,426.91,783,740,0
7328435,419.78,783,736,0
7328445,411.32,783,740,0
7328455,401.32,783,735,0
7328465,390.85,783,740,0
7328475,379.80,783,736,0
7328485,369.40,783,740,0
7328495,359.12,783,735,0
7328505,350.04,783,740,0
7328515,341.67,783,736,0
7328525,334.79,783,740,0
7328535,328.72,783,735,0
7328545,324.39,783,740,0
7328556,320.84,783,735,0
7328566,318.96,783,740,0
7328576,317.82,783,735,0
7328586,318.09,783,740,0
7328596,318.79,783,735,0
7328606,320.82,783,740,0
7328616,322.89,783,735,0
7328626,325.84,783,740,0
7328636,328.54,783,735,0
7328646,331.94,783,740,0
7328656,335.38,783,735,0
7328666,340.37,783,740,0
7328676,347.16,783,734,0
7328686,357.74,783,740,0
7328696,372.90,783,735,0
7328706,395.22,783,740,0
7328716,425.02,783,735,0
7328727,461.66,783,740,0
7328737,501.75,783,735,0
7328747,543.05,783,740,0
7328757,582.89,783,735,0
7328768,619.35,783,740,0
7328777,649.72,783,735,0
7328796,672.73,743,734,0
7328799,688.88,743,737,0
7328808,700.23,743,740,0
7328818,708.13,743,735,0
7328828,713.67,743,740,0
7328838,717.49,743,735,0
7328848,718.29,743,740,0
7328858,713.96,743,735,0
7328868,703.47,743,740,0
7328878,685.46,743,735,0
7328888,659.99,743,740,0
7328898,627.04,743,735,0
7328908,587.38,743,740,0
7328918,543.47,743,735,0
7328928,498.67,743,740,0
7328939,455.10,743,735,0
7328948,415.73,743,741,0
7328958,381.57,743,735,0
7328968,353.97,743,740,0
7328978,333.23,743,735,0
7328988,319.62,743,740,0
7328998,312.79,743,735,0
7329008,312.64,743,740,0
7329018,317.81,743,735,0
7329028,327.64,743,740,0
7329038,340.56,743,735,0
7329048,355.56,743,740,0
7329058,371.21,743,735,0
7329068,386.70,743,740,0
7329078,400.59,743,735,0
7329088,412.59,743,740,0
7329098,421.45,743,735,0
7329108,427.45,743,740,0
7329118,430.14,743,735,0
7329128,429.58,743,740,0
7329138,425.59,743,735,0
7329148,418.90,743,740,0
7329158,409.89,743,735,0
7329168,399.51,743,741,0
7329178,387.78,743,735,0
7329188,375.51,743,740,0
7329198,363.10,743,735,0
7329208,351.58,743,741,0
7329218,340.78,743,735,0
7329228,331.07,743,740,0
7329239,322.35,743,736,0
7329249,315.17,743,740,0
7329259,309.25,743,736,0
7329269,305.19,743,740,0
7329280,302.43,743,736,0
7329289,301.45,743,740,0
7329299,301.74,743,736,0
7329309,303.66,743,740,0
7329319,306.42,743,737,0
7329329,310.19,743,740,0
7329339,314.21,743,736,0
7329349,318.30,743,740,0
7329359,322.37,743,737,0
7329369,326.37,743,740,0
7329379,330.55,743,736,0
7329389,335.57,743,740,0
7329399,342.17,743,737,0
7329409,351.72,743,740,0
7329419,365.52,743,736,0
7329429,385.25,743,740,0
7329439,412.09,743,737,0
7329449,446.56,743,740,0
7329459,485.69,743,736,0
7329469,526.71,743,740,0
7329479,567.34,743,737,0
7329489,605.43,743,740,0
7329499,638.51,743,736,0
7329518,664.97,722,735,0
7329521,683.54,722,740,0
7329530,696.58,722,739,0
7329540,705.70,722,737,0
7329550,712.09,722,740,0
7329560,716.56,722,738,0
7329570,717.55,722,739,0
7329580,713.53,722,737,0
7329590,703.13,722,740,0
7329600,685.99,722,737,0
7329610,661.14,722,739,0
7329620,628.87,722,738,0
7329630,589.73,722,740,0
7329640,546.53,722,737,0
7329650,501.97,722,739,0
7329660,458.91,722,738,0
7329670,418.95,722,740,0
7329680,384.34,722,737,0
7329690,356.04,722,739,0
7329700,334.64,722,738,0
7329710,320.39,722,740,0
7329720,313.12,722,737,0
7329730,312.18,722,739,0
7329740,317.10,722,738,0
7329751,326.63,722,739,0
7329761,339.64,722,738,0
7329771,354.70,722,739,0
7329781,370.61,722,738,0
7329792,385.98,722,738,0
7329801,400.00,722,738,0
7329811,411.40,722,739,0
7329821,420.02,722,739,0
7329831,424.99,722,739,0
7329841,426.75,722,738,0
7329851,424.98,722,739,0
7329861,420.44,722,739,0
7329871,413.03,722,739,0
7329881,403.80,722,738,0
7329891,392.76,722,739,0
7329901,381.01,722,739,0
7329911,368.49,722,739,0
7329921,356.26,722,738,0
7329931,344.52,722,739,0
7329941,334.17,722,738,0
7329951,324.90,722,739,0
7329961,317.52,722,739,0
7329971,311.83,722,739,0
7329981,308.15,722,738,0
7329991,305.97,722,739,0
7330001,305.50,722,739,0
7330011,306.08,722,739,0
7330021,307.81,722,738,0
7330031,310.01,722,738,0
7330041,313.01,722,739,0
7330051,316.05,722,739,0
7330061,319.46,722,738,0
7330071,322.75,722,739,0
7330081,326.08,722,739,0
7330092,329.14,722,739,0
7330102,332.27,722,739,0
7330112,335.06,722,738,0
7330122,338.47,722,740,0
7330132,342.70,722,737,0
7330142,349.05,722,739,0
7330152,358.55,722,738,0
7330162,373.08,722,740,0
7330172,393.89,722,738,0
7330182,421.99,722,739,0
7330192,457.09,722,738,0
7330202,496.49,722,740,0
7330212,537.28,722,738,0
7330222,577.31,722,739,0
7330232,613.90,722,738,0
7330251,645.17,733,737,0
7330254,669.68,733,737,0
7330263,686.87,733,740,0
7330273,698.91,733,737,0
7330283,707.38,733,741,0
7330293,713.31,733,737,0
7330304,717.55,733,741,0
7330313,718.07,733,737,0
7330323,713.50,733,741,0
7330333,702.34,733,737,0
7330343,684.11,733,741,0
7330353,658.58,733,737,0
7330363,626.22,733,741,0
7330373,587.28,733,737,0
7330383,545.28,733,741,0
7330393,502.68,733,737,0
7330403,462.62,733,741,0
7330413,426.39,733,737,0
7330423,395.93,733,741,0
7330433,371.39,733,737,0
7330443,354.18,733,741,0
7330453,343.49,733,737,0
7330463,339.75,733,741,0
7330473,341.41,733,736,0
7330483,348.23,733,741,0
7330493,358.19,733,737,0
7330503,370.90,733,741,0
7330513,384.18,733,736,0
7330523,397.71,733,741,0
7330533,409.45,733,737,0
7330543,419.60,733,741,0
7330553,426.79,733,736,0
7330563,431.48,733,741,0
7330573,432.75,733,737,0
7330583,431.28,733,741,0
7330593,426.57,733,736,0
7330604,419.76,733,741,0
7330614,410.36,733,736,0
7330624,400.01,733,741,0
7330634,388.26,733,736,0
7330644,376.66,733,741,0
7330654,365.02,733,736,0
7330664,354.55,733,741,0
7330674,344.87,733,736,0
7330684,337.15,733,742,0
7330694,330.51,733,736,0
7330704,326.03,733,741,0
7330714,322.63,733,736,0
7330724,320.99,733,741,0
7330734,320.22,733,736,0
7330744,321.05,733,741,0
7330754,322.54,733,736,0
7330764,325.20,733,741,0
7330775,327.93,733,736,0
7330785,331.34,733,741,0
7330795,334.45,733,735,0
7330805,337.83,733,741,0
7330816,340.54,733,735,0
7330825,343.16,733,741,0
7330835,345.00,733,735,0
7330845,347.06,733,741,0
7330855,349.14,733,736,0
7330865,352.78,733,741,0
7330875,358.51,733,735,0
7330885,368.60,733,742,0
7330895,384.06,733,736,0
7330905,406.97,733,741,0
7330915,437.54,733,735,0
7330925,474.36,733,742,0
7330935,514.28,733,736,0
7330945,555.08,733,741,0
7330955,593.84,733,735,0
7330974,628.56,723,734,0
7330977,657.02,723,737,0
7330987,678.14,723,741,0
7330996,692.93,723,735,0
7331006,703.32,723,741,0
7331016,710.55,723,736,0
7331026,715.66,723,741,0
7331036,719.19,723,735,0
7331046,721.66,723,742,0
7331056,723.35,723,736,0
7331066,722.60,723,741,0
7331076,717.28,723,735,0
7331086,706.22,723,741,0
7331096,687.98,723,735,0
7331106,662.75,723,741,0
7331116,630.51,723,735,0
7331126,592.34,723,741,0
7331136,550.37,723,736,0
7331146,508.21,723,741,0
7331156,467.99,723,735,0
7331166,432.51,723,741,0
7331176,402.70,723,735,0
7331186,379.65,723,741,0
7331196,363.12,723,735,0
7331206,353.49,723,741,0
7331216,349.48,723,735,0
7331226,350.88,723,741,0
7331236,356.32,723,735,0
7331246,364.62,723,740,0
7331256,374.16,723,735,0
7331266,384.31,723,741,0
7331276,393.56,723,735,0
7331287,401.75,723,741,0
7331297,407.57,723,736,0
7331307,411.04,723,741,0
7331317,411.71,723,736,0
7331328,409.91,723,741,0
7331337,405.18,723,736,0
7331347,398.53,723,741,0
7331357,389.80,723,736,0
7331367,380.00,723,741,0
7331377,369.16,723,736,0
7331387,358.35,723,741,0
7331397,347.79,723,736,0
7331407,338.34,723,740,0
7331417,329.84,723,736,0
7331427,322.90,723,741,0
7331437,317.36,723,736,0
7331447,313.52,723,740,0
7331457,311.09,723,736,0
7331467,310.34,723,741,0
7331477,310.71,723,736,0
7331487,312.42,723,741,0
7331497,315.25,723,737,0
7331507,319.25,723,741,0
7331517,323.67,723,736,0
7331527,328.74,723,740,0
7331537,333.71,723,737,0
7331547,338.85,723,741,0
7331557,343.57,723,736,0
7331567,347.64,723,741,0
7331577,350.49,723,737,0
7331587,352.70,723,741,0
7331597,353.35,723,736,0
7331607,353.16,723,741,0
7331617,351.61,723,736,0
7331628,349.41,723,741,0
7331638,346.72,723,737,0
7331648,344.10,723,740,0
7331658,341.84,723,737,0
7331668,341.42,723,740,0
7331678,343.78,723,737,0
7331688,350.83,723,740,0
7331698,364.17,723,737,0
7331708,385.46,723,740,0
7331718,415.66,723,737,0
7331728,453.27,723,740,0
7331747,495.01,773,740,0
7331750,538.17,773,740,0
7331759,579.90,773,738,0
7331769,617.60,773,740,0
7331779,648.97,773,739,0
7331789,672.50,773,740,0
7331799,689.02,773,738,0
7331809,700.59,773,740,0
7331819,708.73,773,738,0
7331829,714.42,773,740,0
7331840,718.45,773,739,0
7331849,721.27,773,740,0
7331859,723.25,773,739,0
7331869,724.63,773,740,0
7331879,724.18,773,739,0
7331889,719.67,773,740,0
7331899,709.27,773,739,0
7331909,691.83,773,740,0
7331919,666.98,773,739,0
7331929,635.15,773,740,0
7331939,596.83,773,739,0
7331949,554.15,773,740,0
7331959,510.52,773,739,0
7331969,469.05,773,740,0
7331979,432.01,773,739,0
7331989,401.06,773,740,0
7331999,376.79,773,739,0
7332009,359.45,773,740,0
7332019,348.90,773,738,0
7332029,344.47,773,740,0
7332039,345.36,773,739,0
7332049,350.35,773,740,0
7332059,358.22,773,738,0
7332069,367.54,773,740,0
7332079,377.19,773,739,0
7332089,386.18,773,740,0
7332099,393.71,773,738,0
7332109,399.11,773,740,0
7332119,402.12,773,739,0
7332129,402.47,773,740,0
7332140,400.57,773,739,0
7332150,396.03,773,739,0
7332160,389.63,773,739,0
7332170,381.64,773,739,0
7332180,372.58,773,740,0
7332190,363.02,773,739,0
7332200,353.24,773,739,0
7332210,343.31,773,739,0
7332220,334.48,773,740,0
7332230,326.40,773,740,0
7332240,319.73,773,739,0
7332250,314.11,773,739,0
7332260,309.75,773,740,0
7332270,306.65,773,739,0
7332280,305.00,773,739,0
7332290,304.23,773,739,0
7332300,304.85,773,739,0
7332311,306.09,773,738,0
7332321,308.55,773,740,0
7332331,311.34,773,738,0
7332341,314.97,773,740,0
7332352,318.62,773,738,0
7332361,322.93,773,740,0
7332371,326.81,773,738,0
7332381,330.68,773,740,0
7332391,333.65,773,738,0
7332401,336.63,773,740,0
7332411,338.67,773,738,0
7332421,340.48,773,740,0
7332431,341.15,773,738,0
7332441,341.58,773,740,0
7332451,341.19,773,738,0
7332461,340.70,773,740,0
7332471,339.42,773,737,0
7332481,338.14,773,740,0
7332491,336.34,773,738,0
7332501,334.91,773,740,0
7332511,333.18,773,737,0
7332521,331.97,773,741,0
7332531,330.69,773,738,0
7332541,330.53,773,740,0
7332551,331.31,773,738,0
7332561,335.29,773,741,0
7332571,342.66,773,738,0
7332581,355.88,773,740,0
7332591,376.27,773,738,0
7332601,405.93,773,741,0
7332620,443.15,873,739,0
7332623,485.19,873,743,0
7332632,528.51,873,737,0
7332642,571.21,873,741,0
7332652,610.41,873,737,0
7332662,643.71,873,741,0
7332672,668.91,873,737,0
7332682,686.55,873,741,0
7332692,698.94,873,736,0
7332702,707.66,873,741,0
7332712,713.76,873,737,0
7332722,718.03,873,741,0
7332732,721.02,873,736,0
7332742,723.12,873,741,0
7332752,724.58,873,737,0
7332762,725.61,873,741,0
7332772,723.50,873,736,0
7332782,716.83,873,741,0
7332792,703.60,873,737,0
7332802,683.15,873,741,0
7332812,655.37,873,736,0
7332823,620.93,873,741,0
7332833,579.98,873,736,0
7332843,536.74,873,742,0
7332853,493.49,873,736,0
7332864,453.83,873,741,0
7332873,419.55,873,736,0
7332883,392.00,873,742,0
7332893,371.04,873,736,0
7332903,357.62,873,741,0
7332913,350.40,873,736,0
7332923,349.38,873,741,0
7332933,352.78,873,736,0
7332943,359.58,873,741,0
7332953,367.93,873,736,0
7332963,377.47,873,741,0
7332973,386.11,873,736,0
7332983,393.92,873,741,0
7332993,399.22,873,736,0
7333003,402.41,873,741,0
7333013,402.63,873,736,0
7333023,400.73,873,742,0
7333033,395.84,873,736,0
7333043,389.59,873,741,0
7333053,381.35,873,736,0
7333063,372.33,873,742,0
7333073,362.20,873,736,0
7333083,352.24,873,741,0
7333093,342.06,873,736,0
7333103,333.21,873,741,0
7333113,324.70,873,736,0
7333123,317.85,873,742,0
7333133,311.94,873,736,0
7333143,307.93,873,741,0
7333153,304.91,873,736,0
7333164,303.73,873,742,0
7333174,303.21,873,736,0
7333184,304.31,873,741,0
7333194,305.80,873,736,0
7333204,308.60,873,741,0
7333214,311.51,873,736,0
7333224,315.34,873,741,0
7333234,318.97,873,736,0
7333244,323.09,873,741,0
7333254,326.54,873,736,0
7333264,330.02,873,741,0
7333274,332.58,873,736,0
7333284,334.89,873,741,0
7333294,336.17,873,736,0
7333304,337.23,873,741,0
7333314,337.38,873,735,0
7333324,337.44,873,742,0
7333335,336.70,873,736,0
7333345,336.11,873,741,0
7333355,335.00,873,735,0
7333365,333.97,873,741,0
7333376,332.40,873,736,0
7333385,330.86,873,741,0
7333395,328.76,873,736,0
7333405,326.82,873,741,0
7333415,324.39,873,736,0
7333425,322.43,873,741,0
7333435,320.89,873,735,0
7333445,321.26,873,741,0
7333455,324.36,873,736,0
7333465,332.13,873,741,0
7333475,345.68,873,735,0
7333485,367.42,873,741,0
7333495,397.94,873,736,0
7333505,436.66,873,742,0
7333524,479.79,904,740,0
7333527,524.51,904,741,0
7333536,568.03,904,737,0
7333547,608.05,904,741,0
7333556,641.76,904,736,0
7333566,667.59,904,741,0
7333576,685.67,904,737,0
7333586,698.33,904,741,0
7333596,707.19,904,736,0
7333606,713.39,904,741,0
7333616,717.73,904,737,0
7333626,720.77,904,741,0
7333636,722.85,904,736,0
7333646,723.15,904,741,0
7333656,718.91,904,737,0
7333666,708.73,904,741,0
7333676,691.33,904,736,0
7333686,666.46,904,741,0
7333696,634.05,904,737,0
7333706,595.08,904,741,0
7333716,551.30,904,736,0
7333726,506.94,904,741,0
7333736,464.44,904,737,0
7333746,426.59,904,741,0
7333756,394.96,904,737,0
7333766,370.67,904,741,0
7333776,353.58,904,737,0
7333786,344.11,904,741,0
7333796,341.03,904,737,0
7333806,343.89,904,741,0
7333816,350.87,904,737,0
7333826,361.07,904,741,0
7333836,372.66,904,737,0
7333847,384.68,904,741,0
7333857,395.49,904,737,0
7333867,404.90,904,740,0
7333877,411.66,904,738,0
7333888,415.87,904,740,0
7333897,416.77,904,737,0
7333907,415.21,904,741,0
7333917,410.78,904,738,0
7333927,404.07,904,740,0
7333937,395.26,904,737,0
7333947,385.07,904,740,0
7333957,373.95,904,738,0
7333967,362.44,904,740,0
7333977,350.69,904,737,0
7333987,339.68,904,741,0
7333997,329.75,904,738,0
7334007,321.13,904,740,0
7334017,314.10,904,737,0
7334027,308.80,904,740,0
7334037,305.05,904,738,0
7334047,302.93,904,741,0
7334057,302.18,904,738,0
7334067,302.51,904,741,0
7334077,303.73,904,738,0
7334087,305.87,904,741,0
7334097,308.52,904,738,0
7334107,311.84,904,741,0
7334117,315.44,904,738,0
7334127,319.30,904,741,0
7334137,323.54,904,738,0
7334147,327.79,904,741,0
7334157,331.80,904,738,0
7334167,335.59,904,741,0
7334177,339.31,904,738,0
7334188,342.47,904,740,0
7334198,345.07,904,739,0
7334208,346.60,904,740,0
7334218,347.92,904,739,0
7334228,348.20,904,739,0
7334238,347.71,904,739,0
7334248,346.00,904,740,0
7334258,343.73,904,739,0
7334268,340.85,904,740,0
7334278,338.02,904,739,0
7334288,335.32,904,740,0
7334298,334.32,904,739,0
7334308,336.20,904,740,0
7334318,342.48,904,739,0
7334328,354.59,904,740,0
7334338,374.64,904,739,0
7334348,403.55,904,740,0
7334368,440.54,844,738,0
7334371,482.38,844,737,0
7334380,525.98,844,741,0
7334390,568.71,844,738,0
7334401,608.19,844,741,0
7334411,641.73,844,737,0
7334421,667.65,844,741,0
7334431,685.80,844,737,0
7334441,698.50,844,741,0
7334451,707.40,844,737,0
7334461,713.66,844,742,0
7334471,718.05,844,737,0
7334481,721.12,844,741,0
7334491,721.77,844,737,0
7334501,718.24,844,742,0
7334511,708.01,844,736,0
7334521,690.52,844,741,0
7334531,665.21,844,737,0
7334541,632.75,844,741,0
7334551,593.22,844,736,0
7334561,549.31,844,741,0
7334572,503.83,844,737,0
7334582,461.20,844,742,0
7334592,422.82,844,736,0
7334602,390.95,844,742,0
7334612,365.42,844,736,0
7334622,347.72,844,742,0
7334632,336.71,844,736,0
7334642,332.64,844,741,0
7334652,333.86,844,736,0
7334662,339.99,844,741,0
7334672,349.21,844,736,0
7334682,360.89,844,741,0
7334692,372.84,844,735,0
7334702,385.14,844,741,0
7334712,395.68,844,736,0
7334722,404.69,844,741,0
7334732,410.53,844,735,0
7334743,413.63,844,742,0
7334753,413.35,844,736,0
7334763,410.42,844,742,0
7334773,404.12,844,735,0
7334784,395.90,844,742,0
7334793,385.17,844,736,0
7334803,373.76,844,742,0
7334813,361.23,844,735,0
7334823,349.16,844,742,0
7334833,337.29,844,736,0
7334843,326.79,844,741,0
7334853,317.38,844,735,0
7334863,309.81,844,742,0
7334873,303.44,844,736,0
7334883,299.06,844,742,0
7334893,295.79,844,735,0
7334903,294.39,844,742,0
7334913,294.19,844,736,0
7334923,295.59,844,741,0
7334933,297.73,844,735,0
7334943,301.15,844,742,0
7334953,304.79,844,736,0
7334963,309.23,844,742,0
7334973,313.44,844,735,0
7334983,318.02,844,742,0
7334993,321.79,844,736,0
7335003,325.62,844,742,0
7335013,328.31,844,735,0
7335023,330.74,844,742,0
7335033,332.24,844,736,0
7335043,333.45,844,742,0
7335053,333.62,844,736,0
7335063,333.64,844,742,0
7335073,332.77,844,736,0
7335084,332.06,844,742,0
7335094,330.93,844,736,0
7335104,329.84,844,742,0
7335114,328.34,844,736,0
7335124,326.83,844,742,0
7335134,324.95,844,736,0
7335144,323.34,844,742,0
7335154,321.31,844,736,0
7335164,319.63,844,741,0
7335174,318.37,844,736,0
7335184,319.16,844,742,0
7335194,322.80,844,736,0
7335204,331.47,844,741,0
7335214,345.99,844,736,0
7335224,368.96,844,742,0
7335234,401.16,844,736,0
7335244,441.10,844,742,0
7335264,484.91,896,740,0
7335267,530.15,896,741,0
7335276,573.52,896,738,0
7335286,613.09,896,741,0
7335297,646.02,896,738,0
7335307,670.62,896,741,0
7335317,687.83,896,739,0
7335327,699.92,896,740,0
7335337,708.35,896,739,0
7335347,714.24,896,741,0
7335357,718.37,896,739,0
7335367,721.26,896,740,0
7335377,723.28,896,739,0
7335387,724.70,896,741,0
7335397,722.30,896,739,0
7335407,714.07,896,740,0
7335417,699.01,896,739,0
7335427,676.46,896,741,0
7335437,646.71,896,739,0
7335447,609.90,896,740,0
7335457,567.07,896,739,0
7335468,522.43,896,740,0
7335478,479.28,896,740,0
7335488,439.68,896,739,0
7335498,405.83,896,740,0
7335508,378.33,896,739,0
7335518,358.17,896,739,0
7335528,344.92,896,739,0
7335538,338.52,896,740,0
7335548,338.02,896,739,0
7335558,342.56,896,739,0
7335568,350.36,896,739,0
7335578,360.32,896,740,0
7335588,370.77,896,739,0
7335598,380.74,896,739,0
7335608,388.96,896,739,0
7335618,394.97,896,740,0
7335628,398.11,896,739,0
7335639,398.50,896,740,0
7335649,395.91,896,739,0
7335659,390.92,896,740,0
7335669,383.57,896,738,0
7335680,374.70,896,741,0
7335689,364.46,896,739,0
7335699,353.74,896,740,0
7335709,342.50,896,738,0
7335719,331.85,896,741,0
7335729,321.61,896,739,0
7335739,312.43,896,741,0
7335749,304.07,896,739,0
7335759,297.06,896,741,0
7335769,291.30,896,739,0
7335779,287.18,896,740,0
7335789,284.17,896,739,0
7335799,282.71,896,741,0
7335809,282.62,896,739,0
7335819,283.94,896,740,0
7335829,286.05,896,739,0
7335839,289.12,896,741,0
7335849,292.52,896,738,0
7335859,296.43,896,740,0
7335869,300.25,896,738,0
7335879,304.24,896,741,0
7335889,307.73,896,738,0
7335899,311.45,896,740,0
7335909,314.40,896,739,0
7335919,317.02,896,741,0
7335929,318.69,896,738,0
7335939,320.02,896,740,0
7335949,320.27,896,739,0
7335959,320.36,896,741,0
7335969,319.48,896,738,0
7335980,318.44,896,741,0
7335990,316.89,896,737,0
7336000,315.42,896,741,0
7336010,313.54,896,737,0
7336020,311.71,896,741,0
7336030,309.18,896,737,0
7336040,306.68,896,741,0
7336050,303.86,896,737,0
7336060,301.55,896,741,0
7336070,299.45,896,738,0
7336080,298.85,896,741,0
7336090,299.84,896,737,0
7336100,305.03,896,741,0
7336110,314.62,896,737,0
7336120,330.98,896,741,0
7336130,355.07,896,737,0
7336140,388.82,896,742,0
7336151,429.89,896,736,0
7336170,475.56,906,735,0
7336173,521.85,906,737,0
7336182,566.90,906,742,0
7336193,607.64,906,736,0
7336203,641.99,906,742,0
7336213,667.71,906,736,0
7336223,685.75,906,742,0
7336233,698.38,906,736,0
7336243,707.27,906,742,0
7336253,713.49,906,736,0
7336263,717.84,906,742,0
7336273,720.38,906,736,0
7336283,719.45,906,742,0
7336293,713.14,906,736,0
7336303,700.37,906,742,0
7336313,680.46,906,736,0
7336323,653.75,906,742,0
7336333,620.53,906,736,0
7336343,582.22,906,742,0
7336353,541.19,906,736,0
7336364,500.59,906,741,0
7336374,462.35,906,737,0
7336384,428.56,906,741,0
7336394,399.98,906,737,0
7336404,377.44,906,741,0
7336414,360.81,906,737,0
7336424,350.62,906,741,0
7336434,345.94,906,737,0
7336444,346.73,906,741,0
7336454,351.57,906,737,0
7336464,359.97,906,741,0
7336474,370.13,906,737,0
7336484,381.37,906,741,0
7336494,392.14,906,736,0
7336504,402.17,906,741,0
7336514,410.18,906,737,0
7336524,416.04,906,741,0
7336535,418.90,906,737,0
7336545,419.01,906,741,0
7336555,416.22,906,737,0
7336565,410.80,906,741,0
7336576,403.32,906,738,0
7336585,394.18,906,741,0
7336595,383.54,906,737,0
7336605,372.02,906,741,0
7336615,360.36,906,738,0
7336625,349.02,906,741,0
7336635,338.52,906,737,0
7336645,328.97,906,741,0
7336655,320.84,906,738,0
7336665,314.76,906,741,0
7336675,310.20,906,737,0
7336685,307.36,906,741,0
7336695,305.88,906,738,0
7336705,306.09,906,741,0
7336715,307.56,906,737,0
7336725,309.96,906,741,0
7336735,312.89,906,738,0
7336745,316.61,906,741,0
7336755,320.67,906,737,0
7336765,324.97,906,741,0
7336775,329.22,906,738,0
7336785,333.23,906,741,0
7336795,337.02,906,737,0
7336805,340.52,906,741,0
7336815,343.54,906,738,0
7336825,345.91,906,741,0
7336835,347.39,906,737,0
7336845,347.79,906,741,0
7336855,346.99,906,738,0
7336865,345.41,906,741,0
7336876,342.67,906,738,0
7336886,339.21,906,741,0
7336896,335.16,906,739,0
7336906,331.26,906,740,0
7336916,328.31,906,739,0
7336926,327.53,906,740,0
7336936,330.03,906,739,0
7336946,337.73,906,740,0
7336956,352.13,906,739,0
7336966,374.55,906,741,0
7336976,405.93,906,739,0
7336995,444.86,825,738,0
7336998,487.98,825,742,0
7337007,532.25,825,740,0
7337017,574.91,825,740,0
7337027,613.38,825,739,0
7337037,645.79,825,740,0
7337047,670.41,825,740,0
7337057,687.69,825,740,0
7337067,699.82,825,740,0
7337077,708.32,825,740,0
7337088,714.27,825,739,0
7337097,718.43,825,740,0
7337107,720.70,825,740,0
7337117,718.86,825,740,0
7337127,711.06,825,739,0
7337137,696.77,825,740,0
7337147,675.20,825,739,0
7337157,646.59,825,740,0
7337167,611.10,825,739,0
7337177,570.14,825,740,0
7337187,526.90,825,740,0
7337197,484.59,825,740,0
7337207,444.77,825,739,0
7337217,409.87,825,739,0
7337227,380.46,825,740,0
7337237,357.78,825,740,0
7337247,341.56,825,740,0
7337257,332.35,825,740,0
7337267,329.07,825,740,0
7337277,331.41,825,740,0
7337287,337.97,825,739,0
7337297,348.05,825,740,0
7337307,359.91,825,740,0
7337317,372.75,825,740,0
7337327,384.87,825,739,0
7337337,395.88,825,740,0
7337347,404.83,825,740,0
7337357,411.22,825,740,0
7337367,414.33,825,739,0
7337377,414.53,825,740,0
7337388,411.63,825,739,0
7337398,406.30,825,740,0
7337408,398.54,825,738,0
7337418,389.38,825,741,0
7337428,378.76,825,738,0
7337438,368.08,825,741,0
7337448,357.04,825,738,0
7337458,346.74,825,741,0
7337468,337.01,825,738,0
7337478,328.77,825,741,0
7337488,321.43,825,738,0
7337498,315.69,825,741,0
7337508,310.81,825,738,0
7337518,307.52,825,740,0
7337528,305.14,825,738,0
7337538,304.20,825,741,0
7337548,304.05,825,738,0
7337559,305.06,825,741,0
7337569,306.76,825,737,0
7337579,309.57,825,742,0
7337589,312.96,825,737,0
7337600,317.21,825,742,0
7337609,321.52,825,737,0
7337619,326.25,825,742,0
7337629,330.63,825,737,0
7337639,335.03,825,741,0
7337649,338.58,825,737,0
7337659,341.58,825,742,0
7337669,343.25,825,737,0
7337679,344.41,825,741,0
7337689,344.12,825,737,0
7337699,343.18,825,742,0
7337709,340.99,825,737,0
7337719,338.55,825,742,0
7337729,335.51,825,737,0
7337739,333.22,825,741,0
7337749,331.65,825,737,0
7337759,333.04,825,742,0
7337769,338.34,825,736,0
7337779,349.77,825,741,0
7337789,368.52,825,737,0
7337799,397.00,825,742,0
7337819,433.85,823,740,0
7337822,476.11,823,743,0
7337831,520.35,823,736,0
7337841,564.00,823,742,0
7337851,604.42,823,736,0
7337861,639.22,823,742,0
7337871,665.81,823,736,0
7337881,684.47,823,742,0
7337891,697.48,823,736,0
7337901,706.60,823,742,0
7337911,712.97,823,736,0
7337921,717.44,823,742,0
7337931,720.52,823,736,0
7337942,722.68,823,742,0
7337951,724.19,823,736,0
7337961,725.29,823,742,0
7337971,722.76,823,736,0
7337981,715.03,823,742,0
7337991,700.71,823,736,0
7338001,679.45,823,742,0
7338011,655.70,823,743,0
7338021,626.91,823,743,0
7338031,591.15,823,737,0
7338041,552.62,823,743,0
7338051,513.69,823,737,0
7338061,477.44,823,743,0
7338071,445.34,823,737,0
7338081,414.46,823,743,0
7338091,388.57,823,737,0
7338101,370.78,823,743,0
7338112,360.09,823,738,0
7338121,356.51,823,743,0
7338131,358.11,823,737,0
7338141,364.21,823,743,0
7338151,372.59,823,738,0
7338161,382.40,823,743,0
7338171,391.62,823,737,0
7338181,399.88,823,743,0
7338191,405.57,823,737,0
7338201,409.04,823,743,0
7338211,409.16,823,737,0
7338221,406.67,823,743,0
7338231,400.94,823,738,0
7338241,393.11,823,743,0
7338251,383.48,823,737,0
7338261,373.48,823,743,0
7338271,362.88,823,738,0
7338281,353.27,823,743,0
7338291,344.23,823,737,0
7338301,336.88,823,743,0
7338311,330.31,823,737,0
7338321,325.55,823,743,0
7338331,321.53,823,738,0
7338341,318.97,823,743,0
7338351,317.09,823,738,0
7338361,316.46,823,743,0
7338371,316.20,823,738,0
7338381,317.17,823,743,0
7338391,318.19,823,738,0
7338401,320.19,823,743,0
7338412,322.40,823,738,0
7338422,325.03,823,743,0
7338432,327.63,823,738,0
7338442,330.53,823,743,0
7338452,333.07,823,738,0
7338462,335.96,823,743,0
7338472,338.76,823,738,0
7338482,341.66,823,743,0
7338492,343.78,823,738,0
7338502,345.77,823,744,0
7338512,346.91,823,738,0
7338522,347.75,823,743,0
7338532,347.44,823,738,0
7338542,346.54,823,743,0
7338552,344.49,823,738,0
7338562,342.20,823,743,0
7338572,338.80,823,738,0
7338583,335.56,823,743,0
7338593,331.58,823,739,0
7338603,328.06,823,742,0
7338613,324.53,823,739,0
7338624,322.87,823,743,0
7338633,323.68,823,739,0
7338643,329.30,823,742,0
7338653,340.78,823,739,0
7338663,361.08,823,742,0
7338673,390.71,823,739,0
7338692,429.24,874,738,0
7338695,472.75,874,740,0
7338704,518.64,874,742,0
7338714,563.62,874,739,0
7338724,605.01,874,742,0
7338734,639.89,874,740,0
7338744,666.67,874,742,0
7338754,685.45,874,739,0
7338764,698.60,874,742,0
7338774,707.76,874,739,0
7338784,714.18,874,742,0
7338795,718.67,874,740,0
7338804,721.81,874,742,0
7338814,724.01,874,739,0
7338824,725.51,874,742,0
7338834,726.55,874,740,0
7338844,727.29,874,743,0
7338854,727.80,874,739,0
7338864,724.99,874,742,0
7338874,716.29,874,740,0
7338884,700.56,874,742,0
7338894,676.91,874,739,0
7338904,645.48,874,742,0
7338914,607.02,874,740,0
7338924,562.53,874,742,0
7338934,516.21,874,739,0
7338944,472.09,874,742,0
7338954,432.68,874,740,0
7338964,400.29,874,742,0
7338974,375.77,874,739,0
7338984,359.56,874,742,0
7338994,350.99,874,740,0
7339004,349.49,874,742,0
7339014,353.46,874,739,0
7339024,361.51,874,742,0
7339034,371.77,874,740,0
7339044,382.81,874,742,0
7339054,392.85,874,739,0
7339064,401.04,874,742,0
7339074,406.13,874,740,0
7339084,407.93,874,742,0
7339095,406.07,874,740,0
7339105,400.73,874,741,0
7339115,392.46,874,741,0
7339125,381.73,874,741,0
7339136,369.38,874,741,0
7339145,356.28,874,741,0
7339155,343.08,874,741,0
7339165,330.50,874,741,0
7339175,319.12,874,741,0
7339185,309.19,874,741,0
7339195,300.99,874,741,0
7339205,294.69,874,741,0
7339215,290.28,874,741,0
7339225,287.71,874,742,0
7339235,287.93,874,742,0
7339245,290.52,874,742,0
7339255,294.74,874,741,0
7339265,300.09,874,742,0
7339275,305.76,874,741,0
7339285,311.66,874,742,0
7339295,317.51,874,741,0
7339305,321.90,874,742,0
7339315,324.97,874,741,0
7339325,327.04,874,742,0
7339335,328.61,874,741,0
7339345,329.67,874,742,0
7339355,330.33,874,741,0
7339365,330.74,874,742,0
7339375,330.82,874,741,0
7339385,330.66,874,742,0
7339395,330.20,874,741,0
7339405,329.46,874,742,0
7339415,328.76,874,741,0
7339425,327.93,874,742,0
7339436,326.93,874,742,0
7339446,325.92,874,741,0
7339456,324.83,874,742,0
7339466,323.64,874,741,0
7339476,322.37,874,743,0
7339486,321.11,874,742,0
7339496,320.17,874,742,0
7339506,320.08,874,741,0
7339516,322.50,874,743,0
7339526,328.39,874,741,0
7339536,340.49,874,742,0
7339546,360.10,874,741,0
7339556,389.38,874,743,0
7339566,427.37,874,741,0
7339585,470.89,893,740,0
7339588,516.43,893,740,0
7339597,561.73,893,744,0
7339607,603.34,893,740,0
7339617,639.07,893,743,0
7339627,666.26,893,740,0
7339637,685.34,893,743,0
7339648,698.70,893,739,0
7339657,708.09,893,743,0
7339667,714.66,893,740,0
7339677,719.26,893,743,0
7339687,722.48,893,739,0
7339697,724.74,893,743,0
7339707,726.32,893,740,0
7339717,727.42,893,743,0
7339727,728.20,893,739,0
7339737,728.74,893,743,0
7339747,726.16,893,740,0
7339757,718.05,893,743,0
7339767,702.39,893,739,0
7339777,679.05,893,743,0
7339787,647.75,893,740,0
7339797,609.29,893,743,0
7339807,564.34,893,739,0
7339817,517.43,893,743,0
7339827,472.18,893,740,0
7339837,432.22,893,742,0
7339847,398.94,893,739,0
7339857,373.93,893,743,0
7339867,357.11,893,740,0
7339877,348.55,893,743,0
7339887,346.71,893,739,0
7339897,351.00,893,743,0
7339907,359.14,893,740,0
7339917,370.11,893,742,0
7339927,381.65,893,739,0
7339937,393.07,893,743,0
7339948,402.52,893,739,0
7339958,409.82,893,743,0
7339968,413.60,893,739,0
7339978,414.58,893,743,0
7339988,411.75,893,738,0
7339998,406.51,893,743,0
7340008,398.13,893,739,0
7340018,388.32,893,744,0
7340028,376.69,893,738,0
7340038,364.87,893,743,0
7340048,352.70,893,739,0
7340058,341.52,893,743,0
7340068,330.78,893,738,0
7340078,321.76,893,743,0
7340088,313.73,893,739,0
7340098,307.81,893,743,0
7340108,303.07,893,738,0
7340119,300.13,893,743,0
7340129,298.16,893,738,0
7340139,297.90,893,743,0
7340149,298.53,893,738,0
7340160,300.73,893,743,0
7340169,303.60,893,738,0
7340179,307.70,893,744,0
7340189,312.08,893,738,0
7340199,317.37,893,743,0
7340209,322.40,893,738,0
7340219,327.85,893,744,0
7340229,332.65,893,738,0
7340239,337.30,893,743,0
7340249,340.94,893,738,0
7340259,344.17,893,743,0
7340269,346.01,893,738,0
7340279,347.20,893,743,0
7340289,346.84,893,738,0
7340299,345.86,893,744,0
7340309,343.55,893,738,0
7340319,340.81,893,743,0
7340329,337.10,893,738,0
7340339,333.72,893,744,0
7340349,330.46,893,738,0
7340359,329.21,893,743,0
7340369,330.39,893,738,0
7340379,336.66,893,744,0
7340389,348.89,893,738,0
7340399,370.05,893,744,0
7340409,400.94,893,738,0
7340428,440.08,843,737,0
7340431,483.64,843,739,0
7340440,529.09,843,744,0
7340450,573.04,843,738,0
7340460,613.35,843,744,0
7340470,646.85,843,738,0
7340480,671.71,843,744,0
7340490,689.11,843,738,0
7340500,701.29,843,744,0
7340510,709.82,843,738,0
7340520,715.79,843,744,0
7340530,719.97,843,738,0
7340540,722.93,843,744,0
7340550,725.01,843,738,0
7340560,726.46,843,743,0
7340570,727.44,843,738,0
7340580,725.94,843,744,0
7340590,718.93,843,738,0
7340600,704.98,843,743,0
7340610,682.31,843,738,0
7340620,651.36,843,744,0
7340631,612.12,843,738,0
7340641,565.97,843,743,0
7340651,516.01,843,738,0
7340661,467.36,843,743,0
7340672,422.55,843,739,0
7340681,385.27,843,743,0
7340691,356.18,843,738,0
7340701,336.41,843,743,0
7340711,325.32,843,739,0
7340721,322.48,843,743,0
7340731,326.11,843,738,0
7340741,335.16,843,743,0
7340751,347.50,843,738,0
7340761,361.62,843,743,0
7340771,375.45,843,738,0
7340781,388.21,843,743,0
7340791,398.35,843,738,0
7340801,405.57,843,743,0
7340811,408.92,843,738,0
7340821,408.64,843,743,0
7340831,404.59,843,738,0
7340841,397.94,843,743,0
7340851,388.49,843,737,0
7340861,377.76,843,743,0
7340871,365.62,843,738,0
7340881,353.34,843,743,0
7340891,340.94,843,737,0
7340901,329.52,843,743,0
7340911,318.95,843,738,0
7340921,310.01,843,743,0
7340931,302.42,843,738,0
7340941,296.85,843,743,0
7340951,292.91,843,738,0
7340961,290.97,843,743,0
7340972,290.38,843,738,0
7340982,291.42,843,743,0
7340992,293.52,843,739,0
7341002,296.75,843,743,0
7341012,300.64,843,739,0
7341022,305.16,843,743,0
7341032,309.61,843,739,0
7341042,314.36,843,743,0
7341052,318.79,843,739,0
7341062,323.40,843,743,0
7341072,327.44,843,739,0
7341082,331.08,843,743,0
7341092,334.05,843,739,0
7341102,336.99,843,743,0
7341112,339.31,843,739,0
7341122,341.19,843,743,0
7341132,342.03,843,739,0
7341143,342.28,843,743,0
7341153,341.68,843,740,0
7341163,340.62,843,742,0
7341173,338.68,843,740,0
7341184,336.25,843,742,0
7341193,333.39,843,740,0
7341203,330.44,843,742,0
7341213,327.61,843,740,0
7341223,325.54,843,742,0
7341233,325.25,843,740,0
7341243,328.35,843,742,0
7341253,336.60,843,740,0
7341263,352.32,843,742,0
7341273,377.12,843,740,0
7341283,412.14,843,743,0
7341293,453.84,843,740,0
7341313,499.06,884,740,0
7341316,544.90,884,743,0
7341325,588.52,884,741,0
7341335,626.85,884,742,0
7341345,657.66,884,741,0
7341356,679.28,884,743,0
7341366,694.45,884,740,0
7341376,705.07,884,743,0
7341386,712.51,884,740,0
7341396,717.71,884,743,0
7341406,721.36,884,740,0
7341416,723.91,884,743,0
7341426,725.69,884,740,0
7341436,726.94,884,743,0
7341446,727.86,884,740,0
7341456,728.50,884,743,0
7341466,728.91,884,740,0
7341476,725.55,884,743,0
7341486,715.66,884,740,0
7341496,697.76,884,742,0
7341506,670.96,884,739,0
7341516,636.17,884,743,0
7341527,593.65,884,739,0
7341537,545.11,884,743,0
7341547,495.36,884,740,0
7341557,449.74,884,744,0
7341568,410.39,884,738,0
7341577,380.14,884,744,0
7341587,358.54,884,739,0
7341597,346.38,884,744,0
7341607,341.90,884,738,0
7341617,344.33,884,743,0
7341627,350.61,884,739,0
7341637,359.99,884,743,0
7341647,369.72,884,738,0
7341657,379.32,884,743,0
7341667,387.02,884,739,0
7341677,392.54,884,743,0
7341687,394.61,884,738,0
7341697,393.83,884,743,0
7341707,389.72,884,739,0
7341717,383.51,884,743,0
7341727,374.48,884,738,0
7341737,363.88,884,743,0
7341747,351.83,884,739,0
7341757,339.88,884,743,0
7341767,327.79,884,738,0
7341777,317.05,884,743,0
7341787,307.05,884,739,0
7341797,299.19,884,744,0
7341807,293.01,884,738,0
7341817,289.23,884,743,0
7341827,287.15,884,739,0
7341837,287.36,884,743,0
7341847,288.67,884,738,0
7341857,291.77,884,743,0
7341868,295.74,884,738,0
7341878,300.66,884,743,0
7341888,305.78,884,738,0
7341898,311.46,884,743,0
7341908,316.72,884,738,0
7341918,322.25,884,743,0
7341928,326.84,884,738,0
7341938,331.22,884,743,0
7341948,334.50,884,738,0
7341958,337.30,884,744,0
7341968,338.71,884,738,0
7341978,339.66,884,743,0
7341988,339.20,884,738,0
7341998,338.58,884,743,0
7342008,336.91,884,738,0
7342018,335.27,884,743,0
7342028,332.96,884,738,0
7342039,330.96,884,744,0
7342049,328.57,884,738,0
7342059,326.68,884,743,0
7342069,324.64,884,738,0
7342080,323.03,884,743,0
7342089,321.48,884,738,0
7342099,320.44,884,744,0
7342109,319.19,884,738,0
7342119,318.28,884,743,0
7342129,317.34,884,738,0
7342139,317.45,884,744,0
7342149,319.07,884,738,0
7342159,324.28,884,744,0
7342169,334.18,884,738,0
7342179,351.78,884,743,0
7342189,378.55,884,738,0
7342199,415.16,884,744,0
7342209,457.71,884,738,0
7342228,503.61,916,737,0
7342231,549.37,916,740,0
7342240,592.80,916,743,0
7342251,630.49,916,739,0
7342260,660.26,916,744,0
7342270,681.05,916,738,0
7342280,695.65,916,743,0
7342290,705.87,916,738,0
7342300,713.07,916,743,0
7342310,718.06,916,738,0
7342320,721.56,916,743,0
7342330,724.00,916,738,0
7342340,725.76,916,744,0
7342350,726.95,916,737,0
7342360,727.78,916,744,0
7342370,728.36,916,739,0
7342380,728.12,916,744,0
7342390,723.03,916,737,0
7342400,711.23,916,743,0
7342410,691.19,916,738,0
7342420,663.06,916,743,0
7342430,627.09,916,737,0
7342440,584.38,916,743,0
7342450,536.43,916,738,0
7342460,488.95,916,743,0
7342470,444.86,916,738,0
7342480,407.40,916,744,0
7342490,377.33,916,738,0
7342500,355.63,916,743,0
7342510,341.55,916,737,0
7342520,335.00,916,743,0
7342530,334.27,916,738,0
7342540,338.65,916,743,0
7342551,345.95,916,738,0
7342561,355.31,916,743,0
7342571,364.90,916,739,0
7342581,374.06,916,743,0
7342592,381.29,916,739,0
7342601,386.47,916,743,0
7342611,388.60,916,739,0
7342621,388.16,916,743,0
7342631,384.73,916,739,0
7342641,379.07,916,743,0
7342651,371.16,916,739,0
7342661,362.11,916,743,0
7342671,351.92,916,739,0
7342681,341.75,916,743,0
7342691,331.49,916,739,0
7342701,322.09,916,743,0
7342711,313.40,916,739,0
7342721,306.00,916,743,0
7342731,299.66,916,739,0
7342741,294.92,916,743,0
7342751,291.26,916,739,0
7342761,289.04,916,743,0
7342771,287.95,916,739,0
7342781,288.01,916,743,0
7342791,288.91,916,739,0
7342801,290.95,916,743,0
7342811,293.84,916,739,0
7342821,297.66,916,743,0
7342831,301.87,916,739,0
7342841,306.33,916,743,0
7342851,310.69,916,739,0
7342861,315.24,916,743,0
7342871,319.45,916,739,0
7342881,323.17,916,743,0
7342892,326.38,916,740,0
7342902,329.14,916,743,0
7342912,331.41,916,740,0
7342922,333.17,916,743,0
7342932,334.36,916,741,0
7342942,334.85,916,742,0
7342952,334.64,916,740,0
7342962,333.76,916,743,0
7342972,332.55,916,741,0
7342982,330.93,916,743,0
7342992,329.02,916,740,0
7343002,326.79,916,743,0
7343012,324.45,916,741,0
7343022,322.34,916,743,0
7343032,320.05,916,740,0
7343042,317.85,916,743,0
7343052,315.75,916,741,0
7343063,314.50,916,742,0
7343073,314.48,916,741,0
7343083,317.25,916,742,0
7343093,323.99,916,742,0
7343104,337.06,916,741,0
7343113,357.62,916,741,0
7343123,387.69,916,742,0
7343133,426.31,916,742,0
7343153,470.32,924,741,0
7343156,516.25,924,744,0
7343165,561.39,924,740,0
7343175,602.84,924,743,0
7343185,638.46,924,739,0
7343195,665.84,924,743,0
7343205,685.00,924,740,0
7343215,698.41,924,743,0
7343225,707.85,924,739,0
7343235,714.49,924,743,0
7343245,719.10,924,740,0
7343255,722.33,924,743,0
7343265,724.59,924,739,0
7343276,726.17,924,743,0
7343286,727.23,924,739,0
7343296,727.93,924,743,0
7343306,724.40,924,738,0
7343316,714.81,924,743,0
7343326,697.55,924,739,0
7343336,672.48,924,743,0
7343346,639.43,924,738,0
7343356,599.53,924,743,0
7343366,553.38,924,739,0
7343376,506.47,924,744,0
7343386,461.58,924,738,0
7343396,422.11,924,743,0
7343406,389.08,924,739,0
7343416,364.15,924,743,0
7343426,346.75,924,738,0
7343436,337.35,924,743,0
7343447,334.50,924,738,0
7343457,337.82,924,743,0
7343467,345.16,924,738,0
7343477,355.57,924,743,0
7343488,366.97,924,738,0
7343497,378.81,924,743,0
7343507,388.98,924,738,0
7343517,397.56,924,743,0
7343527,403.05,924,738,0
7343537,406.03,924,744,0
7343547,405.59,924,738,0
7343557,402.59,924,744,0
7343567,396.33,924,738,0
7343577,388.47,924,744,0
7343587,378.22,924,738,0
7343597,367.05,924,743,0
7343607,354.61,924,738,0
7343617,342.55,924,744,0
7343627,330.73,924,738,0
7343637,320.48,924,743,0
7343647,311.17,924,737,0
7343657,304.05,924,744,0
7343667,298.55,924,738,0
7343677,295.55,924,743,0
7343687,294.06,924,737,0
7343697,294.56,924,744,0
7343707,295.93,924,738,0
7343717,298.74,924,744,0
7343727,301.86,924,738,0
7343737,305.93,924,744,0
7343747,309.72,924,738,0
7343757,313.96,924,744,0
7343767,317.75,924,738,0
7343777,321.81,924,744,0
7343788,325.21,924,738,0
7343798,328.83,924,744,0
7343808,331.71,924,737,0
7343818,334.54,924,744,0
7343828,336.48,924,738,0
7343838,338.22,924,743,0
7343848,339.27,924,738,0
7343858,340.13,924,743,0
7343868,340.09,924,738,0
7343878,339.94,924,744,0
7343888,339.05,924,738,0
7343898,338.44,924,743,0
7343908,337.15,924,738,0
7343918,335.86,924,743,0
7343928,334.02,924,738,0
7343938,332.38,924,744,0
7343948,330.13,924,738,0
7343959,328.12,924,743,0
7343969,325.51,924,738,0
7343979,323.64,924,743,0
7343989,322.34,924,738,0
7344000,323.56,924,743,0
7344009,327.72,924,738,0
7344019,337.62,924,744,0
7344029,354.32,924,738,0
7344039,380.50,924,744,0
7344049,415.79,924,738,0
7344059,457.60,924,744,0
7344078,502.33,926,742,0
7344081,547.70,926,743,0
7344090,590.35,926,739,0
7344100,628.04,926,743,0
7344110,657.95,926,739,0
7344120,679.35,926,743,0
7344130,694.33,926,739,0
7344140,704.82,926,743,0
7344150,712.20,926,739,0
7344160,717.41,926,743,0
7344171,721.06,926,740,0
7344180,723.66,926,743,0
7344190,725.43,926,739,0
7344200,723.89,926,743,0
7344210,716.29,926,739,0
7344220,701.93,926,743,0
7344230,679.45,926,739,0
7344240,649.15,926,743,0
7344250,611.17,926,739,0
7344260,566.64,926,743,0
7344270,519.22,926,739,0
7344280,473.04,926,743,0
7344290,430.08,926,739,0
7344300,393.24,926,743,0
7344310,363.56,926,739,0
7344320,342.18,926,743,0
7344330,328.88,926,739,0
7344340,323.30,926,743,0
7344350,324.37,926,739,0
7344360,331.37,926,743,0
7344370,342.57,926,739,0
7344380,356.85,926,743,0
7344390,371.93,926,739,0
7344400,386.78,926,743,0
7344410,400.05,926,739,0
7344420,411.35,926,743,0
7344430,419.30,926,739,0
7344440,423.97,926,743,0
7344450,424.71,926,739,0
7344460,422.27,926,743,0
7344471,416.79,926,740,0
7344481,408.88,926,743,0
7344491,398.84,926,740,0
7344501,387.53,926,742,0
7344512,375.50,926,741,0
7344521,363.31,926,743,0
7344531,351.43,926,740,0
7344541,340.03,926,742,0
7344551,329.65,926,741,0
7344561,320.41,926,743,0
7344571,312.57,926,740,0
7344581,306.32,926,742,0
7344591,301.76,926,741,0
7344601,298.88,926,743,0
7344611,297.67,926,740,0
7344621,298.07,926,742,0
7344631,299.76,926,741,0
7344641,302.75,926,743,0
7344651,306.25,926,740,0
7344661,310.16,926,742,0
7344671,314.14,926,741,0
7344681,318.09,926,742,0
7344691,321.70,926,740,0
7344701,325.09,926,742,0
7344711,328.02,926,741,0
7344721,330.67,926,742,0
7344731,333.17,926,740,0
7344741,335.48,926,742,0
7344751,337.39,926,741,0
7344761,338.90,926,742,0
7344771,339.96,926,740,0
7344781,340.57,926,742,0
7344791,340.70,926,741,0
7344801,340.15,926,742,0
7344812,338.99,926,741,0
7344822,337.41,926,742,0
7344832,335.53,926,741,0
7344842,333.35,926,742,0
7344852,331.19,926,742,0
7344862,329.51,926,741,0
7344872,329.18,926,741,0
7344882,331.36,926,741,0
7344892,337.94,926,742,0
7344902,350.30,926,742,0
7344912,370.48,926,742,0
7344922,399.86,926,742,0
7344932,437.58,926,742,0
7344951,480.17,873,739,0
7344954,524.78,873,743,0
7344963,568.30,873,741,0
7344973,608.45,873,743,0
7344983,642.56,873,741,0
7344993,668.62,873,742,0
7345003,686.82,873,741,0
7345013,699.60,873,743,0
7345024,708.55,873,740,0
7345033,714.86,873,742,0
7345043,719.27,873,741,0
7345053,722.40,873,743,0
7345063,724.55,873,740,0
7345073,726.10,873,742,0
7345083,723.80,873,741,0
7345093,715.67,873,742,0
7345103,699.96,873,740,0
7345113,676.44,873,742,0
7345123,644.94,873,741,0
7345133,606.21,873,742,0
7345143,560.72,873,740,0
7345153,513.45,873,742,0
7345163,467.41,873,741,0
7345173,426.06,873,742,0
7345183,390.60,873,740,0
7345193,362.69,873,743,0
7345203,342.38,873,741,0
7345213,330.35,873,742,0
7345223,325.58,873,740,0
7345233,327.68,873,743,0
7345243,334.89,873,741,0
7345253,346.36,873,742,0
7345263,360.53,873,740,0
7345273,375.97,873,743,0
7345283,390.81,873,741,0
7345293,404.11,873,742,0
7345303,414.58,873,740,0
7345313,422.12,873,743,0
7345324,425.85,873,740,0
7345334,425.81,873,743,0
7345344,422.10,873,739,0
7345354,415.77,873,744,0
7345364,406.58,873,739,0
7345374,395.86,873,743,0
7345384,383.52,873,739,0
7345394,370.81,873,743,0
7345404,357.75,873,739,0
7345414,345.61,873,743,0
7345424,334.03,873,739,0
7345434,324.16,873,744,0
7345444,315.54,873,739,0
7345454,309.04,873,743,0
7345464,304.35,873,739,0
7345474,301.81,873,743,0
7345484,300.79,873,739,0
7345495,301.54,873,743,0
7345505,303.26,873,738,0
7345515,306.27,873,744,0
7345525,309.62,873,738,0
7345536,313.46,873,743,0
7345545,317.31,873,738,0
7345555,321.24,873,744,0
7345565,324.43,873,738,0
7345575,327.43,873,743,0
7345585,329.61,873,738,0
7345595,331.79,873,744,0
7345605,332.92,873,738,0
7345615,333.89,873,743,0
7345625,334.05,873,738,0
7345635,334.81,873,744,0
7345645,335.25,873,738,0
7345655,336.08,873,743,0
7345665,336.52,873,738,0
7345675,337.52,873,743,0
7345685,338.27,873,738,0
7345695,339.26,873,743,0
7345705,339.31,873,738,0
7345715,339.39,873,743,0
7345725,338.63,873,738,0
7345735,337.71,873,743,0
7345745,336.00,873,738,0
7345755,334.24,873,743,0
7345765,332.41,873,738,0
7345775,332.07,873,743,0
7345785,333.77,873,738,0
7345795,340.01,873,743,0
7345805,352.01,873,738,0
7345815,372.66,873,744,0
7345825,402.93,873,738,0
7345845,441.35,894,737,0
7345848,484.36,894,739,0
7345857,529.38,894,744,0
7345867,573.11,894,738,0
7345878,613.23,894,744,0
7345887,646.64,894,738,0
7345897,671.47,894,744,0
7345907,688.86,894,738,0
7345917,701.03,894,743,0
7345927,709.51,894,738,0
7345937,715.48,894,744,0
7345947,719.67,894,738,0
7345957,722.64,894,743,0
7345967,724.68,894,738,0
7345977,726.14,894,744,0
7345987,727.22,894,738,0
7345997,727.96,894,743,0
7346007,726.65,894,738,0
7346017,720.50,894,743,0
7346027,707.19,894,738,0
7346037,686.18,894,743,0
7346048,656.85,894,738,0
7346057,620.38,894,744,0
7346067,577.15,894,738,0
7346077,530.69,894,743,0
7346087,484.63,894,738,0
7346097,443.17,894,744,0
7346107,407.93,894,738,0
7346117,380.82,894,743,0
7346127,361.51,894,738,0
7346137,350.47,894,744,0
7346147,346.26,894,738,0
7346157,348.54,894,743,0
7346167,355.28,894,738,0
7346177,365.44,894,743,0
7346187,376.96,894,738,0
7346197,389.10,894,744,0
7346207,399.87,894,738,0
7346217,409.00,894,743,0
7346227,414.95,894,738,0
7346237,418.01,894,743,0
7346247,417.32,894,738,0
7346257,413.71,894,743,0
7346267,406.68,894,738,0
7346277,397.78,894,743,0
7346287,386.66,894,738,0
7346297,374.89,894,743,0
7346307,362.45,894,738,0
7346317,350.66,894,743,0
7346327,339.40,894,738,0
7346337,329.51,894,743,0
7346348,320.53,894,738,0
7346358,313.30,894,743,0
7346368,307.47,894,739,0
7346378,303.17,894,743,0
7346388,300.16,894,739,0
7346398,298.61,894,743,0
7346408,297.96,894,739,0
7346418,298.83,894,743,0
7346428,300.68,894,739,0
7346438,303.48,894,743,0
7346448,306.63,894,739,0
7346458,310.30,894,743,0
7346468,314.02,894,739,0
7346478,318.52,894,743,0
7346488,322.69,894,739,0
7346498,326.90,894,743,0
7346508,330.49,894,739,0
7346519,334.11,894,743,0
7346529,337.25,894,739,0
7346539,340.05,894,743,0
7346549,341.70,894,740,0
7346560,342.99,894,742,0
7346569,343.29,894,740,0
7346579,343.03,894,743,0
7346589,342.25,894,740,0
7346599,340.89,894,743,0
7346609,339.08,894,739,0
7346619,337.21,894,743,0
7346629,335.14,894,740,0
7346639,333.12,894,743,0
7346649,331.20,894,739,0
7346659,329.38,894,743,0
7346669,328.03,894,740,0
7346679,328.36,894,742,0
7346689,330.82,894,739,0
7346699,337.35,894,743,0
7346709,349.59,894,740,0
7346719,370.20,894,743,0
7346729,400.27,894,740,0
7346739,438.54,894,743,0
7346758,481.32,913,742,0
7346761,526.31,913,742,0
7346770,570.28,913,741,0
7346780,610.78,913,743,0
7346790,644.66,913,741,0
7346800,670.09,913,742,0
7346810,687.93,913,741,0
7346820,700.47,913,743,0
7346830,709.28,913,741,0
7346840,715.50,913,742,0
7346850,719.81,913,741,0
7346860,722.82,913,743,0
7346870,724.93,913,741,0
7346880,726.41,913,742,0
7346890,727.44,913,741,0
7346900,728.17,913,742,0
7346910,727.35,913,741,0
7346920,721.93,913,742,0
7346930,709.69,913,740,0
7346940,689.56,913,742,0
7346950,661.40,913,740,0
7346960,625.63,913,742,0
7346970,583.09,913,740,0
7346980,536.22,913,742,0
7346990,489.57,913,740,0
7347000,446.84,913,742,0
7347010,410.63,913,740,0
7347020,382.24,913,742,0
7347031,362.46,913,741,0
7347041,351.05,913,741,0
7347051,347.48,913,741,0
7347061,350.38,913,741,0
7347072,358.41,913,742,0
7347081,369.56,913,741,0
7347091,382.29,913,741,0
7347101,394.80,913,741,0
7347111,406.09,913,742,0
7347121,414.93,913,742,0
7347131,420.87,913,741,0
7347141,423.22,913,741,0
7347151,422.21,913,742,0
7347161,417.95,913,741,0
7347171,411.02,913,741,0
7347181,401.63,913,741,0
7347191,390.64,913,742,0
7347201,378.49,913,742,0
7347211,366.00,913,741,0
7347221,353.57,913,742,0
7347231,341.83,913,742,0
7347241,330.95,913,741,0
7347251,321.58,913,741,0
7347261,313.65,913,741,0
7347271,307.58,913,742,0
7347281,303.12,913,741,0
7347291,300.60,913,741,0
7347301,299.69,913,741,0
7347311,300.51,913,742,0
7347321,302.63,913,741,0
7347331,306.00,913,741,0
7347341,310.20,913,741,0
7347351,315.32,913,742,0
7347361,320.88,913,741,0
7347372,326.79,913,742,0
7347382,332.42,913,740,0
7347392,337.95,913,742,0
7347402,343.03,913,740,0
7347412,347.69,913,743,0
7347422,351.51,913,741,0
7347432,354.66,913,743,0
7347442,356.73,913,740,0
7347452,358.27,913,743,0
7347462,358.62,913,740,0
7347472,358.52,913,743,0
7347482,357.16,913,740,0
7347492,355.27,913,743,0
7347502,352.32,913,741,0
7347512,349.01,913,743,0
7347522,344.98,913,740,0
7347532,341.21,913,743,0
7347543,337.42,913,739,0
7347553,335.49,913,743,0
7347563,336.07,913,739,0
7347573,341.71,913,743,0
7347584,353.84,913,739,0
7347593,374.72,913,743,0
7347603,405.27,913,739,0
7347613,443.93,913,743,0
7347623,487.11,913,739,0
7347642,532.12,884,738,0
7347645,575.67,884,738,0
7347654,615.24,884,744,0
7347664,648.17,884,738,0
7347674,672.63,884,744,0
7347684,689.76,884,738,0
7347694,701.79,884,744,0
7347704,710.17,884,738,0
7347714,716.03,884,744,0
7347724,720.14,884,738,0
7347734,723.05,884,743,0
7347744,725.05,884,738,0
7347755,726.45,884,744,0
7347764,724.13,884,738,0
7347774,716.03,884,743,0
7347784,700.25,884,738,0
7347794,676.39,884,744,0
7347804,644.60,884,738,0
7347814,605.42,884,743,0
7347824,559.27,884,738,0
7347834,511.02,884,744,0
7347844,464.12,884,738,0
7347854,422.22,884,743,0
7347864,386.62,884,738,0
7347874,359.09,884,744,0
7347884,339.82,884,738,0
7347894,329.55,884,743,0
7347904,326.73,884,738,0
7347914,330.88,884,744,0
7347924,339.92,884,738,0
7347934,353.14,884,743,0
7347944,367.88,884,737,0
7347954,383.60,884,744,0
7347964,397.78,884,738,0
7347974,410.40,884,743,0
7347984,419.71,884,737,0
7347994,425.93,884,744,0
7348004,428.09,884,738,0
7348014,426.95,884,743,0
7348024,421.82,884,738,0
7348034,414.33,884,744,0
7348044,403.82,884,738,0
7348055,391.74,884,743,0
7348065,378.15,884,737,0
7348075,364.48,884,744,0
7348085,350.83,884,738,0
7348096,338.37,884,743,0
7348105,326.64,884,738,0
7348115,317.15,884,744,0
7348125,309.13,884,738,0
7348135,303.57,884,744,0
7348145,299.50,884,738,0
7348155,297.50,884,744,0
7348165,296.80,884,738,0
7348175,298.31,884,744,0
7348185,300.62,884,738,0
7348195,304.42,884,744,0
7348205,308.84,884,738,0
7348215,314.20,884,743,0
7348225,319.71,884,738,0
7348235,325.88,884,744,0
7348245,331.36,884,738,0
7348255,337.04,884,744,0
7348265,342.17,884,737,0
7348275,346.92,884,744,0
7348285,350.63,884,738,0
7348295,353.87,884,744,0
7348305,355.75,884,738,0
7348315,357.37,884,744,0
7348325,357.77,884,738,0
7348335,357.80,884,744,0
7348345,356.62,884,738,0
7348355,355.36,884,744,0
7348365,353.19,884,738,0
7348375,350.91,884,744,0
7348385,347.85,884,738,0
7348396,344.85,884,744,0
7348406,341.60,884,738,0
7348416,339.66,884,744,0
7348426,339.51,884,738,0
7348436,343.38,884,743,0
7348446,352.61,884,738,0
7348456,369.91,884,744,0
7348466,397.11,884,738,0
7348476,433.33,884,744,0
7348486,475.11,884,738,0
7348496,519.60,884,744,0
7348515,563.74,873,743,0
7348518,605.04,873,744,0
7348527,640.34,873,739,0
7348537,667.20,873,744,0
7348547,686.00,873,739,0
7348557,699.15,873,743,0
7348567,708.37,873,739,0
7348577,714.81,873,744,0
7348587,719.37,873,739,0
7348597,722.56,873,744,0
7348608,724.79,873,740,0
7348617,726.35,873,744,0
7348627,727.45,873,739,0
7348637,728.21,873,744,0
7348647,726.82,873,740,0
7348657,720.92,873,743,0
7348667,708.26,873,739,0
7348677,687.74,873,743,0
7348687,659.14,873,740,0
7348697,623.06,873,743,0
7348707,580.27,873,739,0
7348717,533.90,873,744,0
7348727,487.30,873,740,0
7348737,444.61,873,744,0
7348747,407.87,873,739,0
7348757,378.90,873,743,0
7348767,357.88,873,739,0
7348777,345.06,873,743,0
7348787,339.39,873,739,0
7348797,340.73,873,743,0
7348807,346.68,873,739,0
7348817,356.55,873,743,0
7348827,368.00,873,739,0
7348837,379.91,873,743,0
7348847,390.52,873,739,0
7348857,399.41,873,743,0
7348867,405.33,873,739,0
7348877,408.57,873,743,0
7348887,408.40,873,740,0
7348897,405.28,873,743,0
7348908,399.50,873,740,0
7348918,391.76,873,743,0
7348928,382.15,873,740,0
7348938,371.43,873,743,0
7348948,360.20,873,741,0
7348958,349.17,873,743,0
7348968,338.70,873,740,0
7348978,329.32,873,743,0
7348988,321.30,873,741,0
7348998,315.34,873,743,0
7349008,310.99,873,740,0
7349018,308.34,873,743,0
7349028,307.16,873,740,0
7349038,307.54,873,743,0
7349048,309.10,873,740,0
7349058,311.64,873,743,0
7349068,314.70,873,741,0
7349079,318.44,873,742,0
7349089,322.46,873,741,0
7349099,326.74,873,742,0
7349109,331.06,873,741,0
7349120,335.07,873,742,0
7349129,338.69,873,741,0
7349139,341.78,873,742,0
7349149,344.46,873,742,0
7349159,346.21,873,742,0
7349169,347.48,873,741,0
7349179,347.98,873,742,0
7349189,348.11,873,741,0
7349199,347.99,873,741,0
7349209,347.65,873,741,0
7349219,347.07,873,742,0
7349229,346.49,873,741,0
7349239,345.44,873,741,0
7349249,344.24,873,741,0
7349259,342.71,873,742,0
7349269,340.91,873,741,0
7349279,338.67,873,741,0
7349289,336.45,873,742,0
7349299,334.69,873,742,0
7349309,334.65,873,741,0
7349319,337.93,873,741,0
7349329,346.95,873,742,0
7349339,363.34,873,742,0
7349349,389.76,873,741,0
7349359,425.32,873,742,0
7349369,467.14,873,742,0
7349388,512.10,873,740,0
7349391,557.28,873,744,0
7349400,599.37,873,741,0
7349410,635.94,873,743,0
7349420,664.12,873,742,0
7349430,683.88,873,742,0
7349440,697.72,873,741,0
7349450,707.40,873,743,0
7349460,714.18,873,740,0
7349470,718.93,873,742,0
7349480,722.25,873,741,0
7349490,724.57,873,743,0
7349500,726.20,873,741,0
7349510,727.34,873,742,0
7349520,728.14,873,741,0
7349530,728.70,873,743,0
7349540,729.09,873,741,0
7349550,729.32,873,742,0
7349560,725.32,873,741,0
7349570,714.81,873,743,0
7349580,696.23,873,740,0
7349591,669.46,873,743,0
7349601,634.65,873,740,0
7349611,592.93,873,743,0
7349621,545.21,873,739,0
7349632,497.53,873,743,0
7349641,453.10,873,740,0
7349651,415.14,873,743,0
7349661,384.76,873,740,0
7349671,363.23,873,743,0
7349681,349.87,873,741,0
7349691,344.43,873,743,0
7349701,345.28,873,740,0
7349711,351.37,873,743,0
7349721,360.39,873,740,0
7349731,370.94,873,743,0
7349741,380.99,873,740,0
7349751,390.03,873,743,0
7349761,396.50,873,740,0
7349771,400.12,873,743,0
7349781,400.21,873,740,0
7349791,397.49,873,743,0
7349801,392.16,873,739,0
7349811,384.74,873,743,0
7349821,375.22,873,740,0
7349831,364.78,873,743,0
7349841,353.40,873,739,0
7349851,342.31,873,743,0
7349861,331.42,873,740,0
7349871,321.39,873,743,0
7349881,312.49,873,740,0
7349891,305.23,873,743,0
7349901,299.63,873,740,0
7349911,296.10,873,743,0
7349921,294.18,873,739,0
7349932,294.34,873,743,0
7349942,295.87,873,739,0
7349952,299.04,873,744,0
7349962,302.93,873,739,0
7349972,307.71,873,744,0
7349982,312.46,873,739,0
7349992,317.60,873,744,0
7350002,322.17,873,739,0
7350012,326.75,873,744,0
7350022,330.30,873,739,0
7350032,333.55,873,744,0
7350042,335.57,873,739,0
7350052,337.07,873,744,0
7350062,337.39,873,739,0
7350072,337.15,873,744,0
7350082,335.65,873,739,0
7350092,333.91,873,743,0
7350103,331.41,873,739,0
7350113,328.93,873,744,0
7350123,325.95,873,738,0
7350133,323.22,873,744,0
7350144,320.28,873,738,0
7350153,317.97,873,744,0
7350163,315.49,873,738,0
7350173,313.63,873,744,0
7350183,311.86,873,738,0
7350193,311.13,873,744,0
7350203,311.26,873,738,0
7350213,314.05,873,743,0
7350223,320.12,873,738,0
7350233,331.96,873,744,0
7350243,350.87,873,738,0
7350253,379.75,873,743,0
7350263,417.54,873,738,0
7350273,461.26,873,744,0
7350292,507.43,904,743,0
7350295,553.54,904,744,0
7350304,596.58,904,738,0
7350315,634.08,904,744,0
7350324,662.90,904,738,0
7350334,683.07,904,744,0
7350344,697.15,904,738,0
7350354,707.00,904,744,0
7350364,713.95,904,738,0
7350374,718.81,904,744,0
7350384,722.16,904,739,0
7350394,724.51,904,744,0
7350404,726.16,904,738,0
7350414,727.31,904,744,0
7350424,728.12,904,739,0
7350434,725.94,904,744,0
7350444,718.12,904,738,0
7350454,703.59,904,744,0
7350464,680.96,904,738,0
7350474,650.84,904,744,0
7350484,613.30,904,738,0
7350494,569.71,904,744,0
7350504,523.47,904,738,0
7350514,478.84,904,744,0
7350524,437.88,904,738,0
7350534,403.67,904,744,0
7350544,376.56,904,738,0
7350554,357.96,904,744,0
7350564,347.00,904,738,0
7350574,343.61,904,744,0
7350584,346.00,904,738,0
7350594,353.80,904,744,0
7350604,364.53,904,738,0
7350615,377.36,904,744,0
7350625,389.64,904,739,0
7350635,400.85,904,744,0
7350645,409.25,904,739,0
7350656,414.96,904,743,0
7350665,416.69,904,739,0
7350675,415.28,904,744,0
7350685,410.10,904,739,0
7350695,402.52,904,743,0
7350705,392.47,904,739,0
7350715,381.48,904,744,0
7350725,369.60,904,739,0
7350735,357.97,904,743,0
7350745,346.58,904,739,0
7350755,336.46,904,744,0
7350765,327.58,904,739,0
7350775,320.25,904,743,0
7350785,314.13,904,739,0
7350795,310.02,904,744,0
7350805,307.19,904,739,0
7350815,306.19,904,743,0
7350825,306.30,904,739,0
7350835,307.93,904,744,0
7350845,310.35,904,739,0
7350855,313.93,904,743,0
7350865,317.64,904,739,0
7350875,322.07,904,744,0
7350885,326.47,904,739,0
7350895,331.13,904,743,0
7350905,335.07,904,739,0
7350915,339.17,904,744,0
7350925,342.50,904,739,0
7350935,345.57,904,744,0
7350945,347.58,904,739,0
7350956,348.86,904,743,0
7350966,348.95,904,740,0
7350976,348.32,904,743,0
7350986,346.60,904,740,0
7350996,344.10,904,743,0
7351006,340.90,904,740,0
7351016,337.42,904,743,0
7351026,333.43,904,740,0
7351036,329.75,904,743,0
7351046,326.95,904,740,0
7351056,326.41,904,743,0
7351066,329.54,904,740,0
7351076,338.38,904,743,0
7351086,354.47,904,739,0
7351096,380.38,904,743,0
7351106,416.27,904,740,0
7351126,458.57,833,739,0
7351129,503.96,833,744,0
7351138,549.70,833,742,0
7351148,592.60,833,742,0
7351158,630.44,833,742,0
7351169,660.26,833,742,0
7351179,681.18,833,741,0
