Time,PPG,IBI,GSR,GSR_Event
7001445,422.09,803,769,0
7001455,419.10,803,771,0
7001465,418.22,803,770,0
7001475,422.01,803,771,0
7001485,428.65,803,770,0
7001495,439.47,803,771,0
7001505,451.76,803,770,0
7001516,470.99,803,771,0
7001526,489.29,803,770,0
7001545,505.06,663,770,0
7001548,517.30,663,773,0
7001558,525.31,663,772,0
7001567,526.42,663,772,0
7001577,521.83,663,772,0
7001587,511.04,663,773,0
7001597,496.67,663,772,0
7001607,478.68,663,772,0
7001617,457.99,663,772,0
7001627,436.01,663,773,0
7001637,416.46,663,772,0
7001647,399.78,663,772,0
7001657,387.89,663,772,0
7001667,379.69,663,772,0
7001677,376.74,663,772,0
7001687,377.81,663,772,0
7001697,383.78,663,772,0
7001707,393.53,663,772,0
7001717,408.11,663,772,0
7001728,426.29,663,773,0
7001737,448.66,663,772,0
7001747,473.58,663,773,0
7001757,501.00,663,772,0
7001767,528.90,663,773,0
7001777,556.83,663,772,0
7001787,581.91,663,773,0
7001797,604.09,663,773,0
7001807,621.25,663,773,0
7001817,633.78,663,772,0
7001827,640.36,663,773,0
7001837,642.35,663,772,0
7001847,639.03,663,773,0
7001857,632.81,663,773,0
7001867,622.79,663,773,0
7001877,610.94,663,772,0
7001887,597.20,663,773,0
7001897,583.26,663,772,0
7001907,568.65,663,773,0
7001917,555.17,663,772,0
7001927,542.00,663,773,0
7001937,530.35,663,772,0
7001947,519.70,663,773,0
7001957,510.83,663,772,0
7001967,503.00,663,773,0
7001977,497.21,663,772,0
7001987,492.35,663,773,0
7001997,489.59,663,772,0
7002007,488.04,663,772,0
7002017,488.46,663,772,0
7002028,489.82,663,773,0
7002038,493.04,663,772,0
7002048,496.80,663,773,0
7002058,501.62,663,772,0
7002068,506.19,663,773,0
7002078,511.19,663,772,0
7002088,515.59,663,773,0
7002098,519.36,663,772,0
7002108,521.69,663,774,0
7002118,522.98,663,772,0
7002128,522.73,663,773,0
7002138,521.10,663,772,0
7002148,517.94,663,773,0
7002158,513.67,663,772,0
7002168,508.41,663,773,0
7002178,502.72,663,772,0
7002188,496.80,663,773,0
7002199,491.03,663,771,0
7002209,485.67,663,773,0
7002219,480.58,663,771,0
7002229,475.99,663,773,0
7002240,471.62,663,771,0
7002249,467.58,663,773,0
7002259,463.46,663,771,0
7002269,459.55,663,773,0
7002279,455.27,663,771,0
7002289,451.33,663,773,0
7002299,447.38,663,771,0
7002309,444.48,663,773,0
7002319,442.02,663,771,0
7002329,440.60,663,773,0
7002339,439.78,663,771,0
7002349,440.40,663,773,0
7002359,441.48,663,771,0
7002369,443.65,663,773,0
7002379,445.86,663,771,0
7002389,448.43,663,773,0
7002399,450.23,663,771,0
7002409,451.96,663,773,0
7002419,452.57,663,771,0
7002429,452.74,663,773,0
7002439,451.45,663,771,0
7002449,449.81,663,773,0
7002459,447.47,663,771,0
7002469,445.91,663,773,0
7002479,444.78,663,771,0
7002489,446.05,663,773,0
7002499,450.06,663,771,0
7002509,458.83,663,773,0
7002519,472.47,663,771,0
7002529,492.51,663,773,0
7002540,518.24,663,771,0
7002550,548.99,663,773,0
7002560,581.69,663,771,0
7002579,614.70,1034,769,0
7002583,645.60,1034,772,0
7002593,673.15,1034,773,0
7002603,695.61,1034,771,0
7002613,712.69,1034,773,0
7002624,724.66,1034,772,0
7002633,733.07,1034,773,0
7002643,738.97,1034,771,0
7002653,743.13,1034,773,0
7002663,746.05,1034,772,0
7002673,748.09,1034,773,0
7002683,749.48,1034,771,0
7002693,750.49,1034,773,0
7002703,749.02,1034,771,0
7002713,745.45,1034,773,0
7002723,737.30,1034,771,0
7002733,725.34,1034,773,0
7002743,708.22,1034,772,0
7002753,687.46,1034,773,0
7002763,662.16,1034,771,0
7002773,636.01,1034,773,0
7002783,608.50,1034,772,0
7002793,583.79,1034,773,0
7002803,560.97,1034,772,0
7002813,542.98,1034,773,0
7002823,527.98,1034,771,0
7002833,518.17,1034,773,0
7002843,511.69,1034,772,0
7002853,509.77,1034,773,0
7002863,509.58,1034,772,0
7002873,512.32,1034,773,0
7002883,515.35,1034,772,0
7002893,520.30,1034,773,0
7002903,524.28,1034,772,0
7002913,528.70,1034,773,0
7002924,530.89,1034,772,0
7002934,533.02,1034,773,0
7002944,532.59,1034,772,0
7002954,531.30,1034,772,0
7002964,527.09,1034,773,0
7002974,522.22,1034,773,0
7002984,514.78,1034,772,0
7002994,507.18,1034,772,0
7003004,497.78,1034,773,0
7003014,488.93,1034,773,0
7003024,479.35,1034,772,0
7003034,470.55,1034,772,0
7003044,461.21,1034,773,0
7003054,453.05,1034,773,0
7003064,444.55,1034,772,0
7003074,437.14,1034,772,0
7003084,429.56,1034,773,0
7003095,423.22,1034,772,0
7003105,417.20,1034,773,0
7003115,412.72,1034,772,0
7003125,408.82,1034,773,0
7003136,406.73,1034,772,0
7003145,405.61,1034,773,0
7003155,406.33,1034,772,0
7003165,407.77,1034,773,0
7003175,410.46,1034,772,0
7003185,413.32,1034,773,0
7003195,416.82,1034,772,0
7003205,419.79,1034,773,0
7003215,422.51,1034,772,0
7003225,424.03,1034,773,0
7003235,424.96,1034,772,0
7003245,424.80,1034,773,0
7003255,424.26,1034,772,0
7003265,422.94,1034,773,0
7003275,422.27,1034,772,0
7003285,422.28,1034,773,0
7003295,424.68,1034,772,0
7003305,429.88,1034,773,0
7003315,439.68,1034,772,0
7003325,454.78,1034,773,0
7003335,476.92,1034,772,0
7003345,506.00,1034,773,0
7003355,539.81,1034,772,0
7003365,575.48,1034,773,0
7003375,611.17,1034,772,0
7003395,644.50,815,770,0
7003398,674.01,815,771,0
7003407,697.62,815,774,0
7003417,714.41,815,771,0
7003427,726.16,815,774,0
7003437,734.42,815,771,0
7003447,740.25,815,773,0
7003457,744.38,815,771,0
7003467,747.26,815,774,0
7003478,749.28,815,771,0
7003487,750.70,815,773,0
7003497,751.65,815,772,0
7003507,752.31,815,774,0
7003517,752.73,815,771,0
7003527,751.95,815,773,0
7003537,747.51,815,771,0
7003547,738.36,815,773,0
7003557,723.25,815,771,0
7003567,702.95,815,773,0
7003577,677.12,815,771,0
7003587,646.53,815,773,0
7003597,612.73,815,771,0
7003607,579.72,815,773,0
7003617,549.42,815,771,0
7003627,524.01,815,773,0
7003637,503.05,815,771,0
7003648,487.78,815,773,0
7003657,477.60,815,771,0
7003667,472.19,815,773,0
7003677,469.65,815,771,0
7003687,469.58,815,773,0
7003697,470.44,815,771,0
7003707,472.15,815,773,0
7003717,473.05,815,771,0
7003727,473.38,815,773,0
7003737,472.36,815,771,0
7003747,470.71,815,773,0
7003757,467.28,815,771,0
7003767,463.00,815,773,0
7003777,457.08,815,771,0
7003787,450.46,815,774,0
7003797,442.35,815,771,0
7003807,433.80,815,773,0
7003817,424.00,815,771,0
7003827,414.45,815,774,0
7003837,404.46,815,771,0
7003847,395.32,815,773,0
7003857,386.35,815,771,0
7003867,378.92,815,774,0
7003877,371.91,815,771,0
7003887,366.75,815,773,0
7003897,362.03,815,771,0
7003907,359.02,815,773,0
7003917,356.61,815,771,0
7003927,355.70,815,773,0
7003937,354.80,815,771,0
7003948,355.29,815,773,0
7003958,355.59,815,771,0
7003968,357.26,815,773,0
7003978,358.76,815,771,0
7003988,361.11,815,774,0
7003998,362.83,815,771,0
7004008,365.20,815,774,0
7004018,367.07,815,771,0
7004028,369.36,815,773,0
7004038,370.41,815,771,0
7004048,371.79,815,773,0
7004058,372.24,815,771,0
7004068,374.14,815,773,0
7004078,376.58,815,771,0
7004088,381.42,815,773,0
7004098,388.79,815,771,0
7004108,402.27,815,773,0
7004119,421.13,815,771,0
7004129,448.35,815,773,0
7004139,482.49,815,771,0
7004149,521.34,815,774,0
7004160,561.74,815,772,0
7004178,602.15,784,770,0
7004181,638.79,784,774,0
7004190,670.91,784,774,0
7004200,695.79,784,772,0
7004210,713.30,784,774,0
7004220,725.51,784,772,0
7004230,734.06,784,773,0
7004240,740.00,784,772,0
7004250,744.24,784,774,0
7004260,747.21,784,771,0
7004270,749.33,784,773,0
7004280,750.78,784,772,0
7004290,751.87,784,773,0
7004300,752.00,784,771,0
7004310,749.25,784,774,0
7004320,740.56,784,772,0
7004331,726.21,784,773,0
7004340,704.72,784,771,0
7004350,677.03,784,773,0
7004360,642.48,784,772,0
7004370,603.72,784,773,0
7004380,562.79,784,772,0
7004390,525.22,784,773,0
7004400,490.53,784,772,0
7004410,462.21,784,773,0
7004420,439.31,784,772,0
7004430,424.30,784,773,0
7004440,414.78,784,772,0
7004450,412.02,784,773,0
7004460,412.78,784,772,0
7004470,418.29,784,773,0
7004480,425.32,784,772,0
7004490,434.61,784,773,0
7004500,442.87,784,772,0
7004510,451.05,784,773,0
7004520,456.35,784,772,0
7004530,460.53,784,773,0
7004540,461.01,784,772,0
7004550,459.72,784,773,0
7004560,454.79,784,772,0
7004570,448.51,784,773,0
7004580,439.36,784,772,0
7004590,429.95,784,774,0
7004600,418.31,784,772,0
7004610,407.24,784,773,0
7004620,395.30,784,772,0
7004631,384.71,784,773,0
7004641,373.95,784,772,0
7004651,365.10,784,773,0
7004661,356.50,784,773,0
7004672,349.92,784,773,0
7004681,343.73,784,772,0
7004691,339.57,784,773,0
7004701,336.01,784,773,0
7004711,334.21,784,773,0
7004721,332.60,784,773,0
7004731,332.59,784,773,0
7004741,332.67,784,773,0
7004751,334.10,784,773,0
7004761,335.14,784,773,0
7004771,336.94,784,773,0
7004781,338.29,784,773,0
7004791,340.30,784,773,0
7004801,341.41,784,772,0
7004811,343.69,784,773,0
7004821,345.75,784,773,0
7004831,350.16,784,773,0
7004841,356.75,784,773,0
7004851,368.18,784,773,0
7004861,384.89,784,773,0
7004871,410.08,784,773,0
7004881,443.23,784,773,0
7004891,483.27,784,773,0
7004901,526.22,784,773,0
7004911,569.95,784,773,0
7004921,611.50,784,773,0
7004931,649.10,784,773,0
7004950,679.67,772,771,0
7004953,702.06,772,773,0
7004962,717.68,772,773,0
7004972,728.66,772,772,0
7004982,736.35,772,773,0
7004992,741.73,772,772,0
7005002,745.45,772,774,0
7005012,748.06,772,772,0
7005022,749.89,772,773,0
7005032,751.16,772,772,0
7005042,752.01,772,774,0
7005052,750.42,772,772,0
7005062,744.25,772,773,0
7005072,731.92,772,772,0
7005082,712.23,772,773,0
7005092,685.16,772,772,0
7005102,651.13,772,773,0
7005112,611.23,772,772,0
7005122,568.22,772,773,0
7005132,525.34,772,772,0
7005143,485.38,772,773,0
7005153,450.64,772,771,0
7005163,422.20,772,773,0
7005173,400.37,772,771,0
7005184,385.00,772,773,0
7005193,376.13,772,771,0
7005203,372.79,772,773,0
7005213,374.01,772,771,0
7005223,378.81,772,773,0
7005233,385.77,772,771,0
7005243,393.81,772,773,0
7005253,401.54,772,771,0
7005263,407.98,772,773,0
7005273,412.57,772,771,0
7005283,414.76,772,774,0
7005293,413.97,772,771,0
7005303,410.64,772,773,0
7005313,404.96,772,772,0
7005323,397.52,772,773,0
7005333,388.62,772,771,0
7005343,379.22,772,773,0
7005353,369.47,772,771,0
7005363,360.58,772,774,0
7005373,352.48,772,772,0
7005383,345.69,772,774,0
7005393,340.00,772,771,0
7005403,335.80,772,774,0
7005413,332.52,772,772,0
7005423,330.60,772,774,0
7005433,329.01,772,771,0
7005443,327.93,772,774,0
7005453,326.93,772,772,0
7005463,326.31,772,773,0
7005473,325.49,772,771,0
7005484,325.04,772,774,0
7005494,324.30,772,771,0
7005504,324.17,772,773,0
7005514,323.86,772,771,0
7005524,324.29,772,774,0
7005534,324.59,772,771,0
7005544,326.17,772,774,0
7005554,327.53,772,771,0
7005564,330.33,772,774,0
7005574,334.22,772,771,0
7005584,341.57,772,774,0
7005594,352.54,772,771,0
7005604,370.42,772,774,0
7005614,395.15,772,771,0
7005624,429.52,772,774,0
7005634,470.38,772,771,0
7005644,515.22,772,774,0
7005655,560.63,772,771,0
7005674,604.54,724,770,0
7005677,643.46,724,773,0
7005686,675.81,724,774,0
7005697,699.40,724,772,0
7005707,715.95,724,774,0
7005717,727.49,724,772,0
7005727,735.62,724,774,0
7005737,741.26,724,772,0
7005747,745.30,724,774,0
7005757,748.08,724,772,0
7005767,750.07,724,774,0
7005777,751.42,724,772,0
7005787,751.89,724,774,0
7005797,747.51,724,772,0
7005807,737.37,724,773,0
7005817,719.17,724,772,0
7005827,694.09,724,773,0
7005837,660.72,724,772,0
7005847,620.73,724,773,0
7005857,574.36,724,772,0
7005868,528.01,724,773,0
7005878,482.49,724,772,0
7005888,442.36,724,773,0
7005898,406.85,724,772,0
7005908,379.34,724,773,0
7005918,358.07,724,772,0
7005928,345.23,724,773,0
7005938,337.79,724,772,0
7005948,336.95,724,773,0
7005958,339.58,724,772,0
7005968,346.05,724,773,0
7005978,353.49,724,772,0
7005988,362.47,724,773,0
7005998,369.87,724,772,0
7006008,376.98,724,773,0
7006018,381.62,724,773,0
7006028,385.25,724,773,0
7006039,386.24,724,773,0
7006049,385.61,724,773,0
7006059,382.43,724,773,0
7006069,378.06,724,772,0
7006080,371.31,724,773,0
7006089,364.06,724,773,0
7006099,355.13,724,773,0
7006109,346.35,724,773,0
7006119,336.90,724,773,0
7006129,328.27,724,772,0
7006139,319.32,724,773,0
7006149,311.42,724,772,0
7006159,303.50,724,773,0
7006169,297.26,724,773,0
7006179,291.35,724,773,0
7006189,287.09,724,773,0
7006199,283.51,724,773,0
7006209,282.24,724,772,0
7006219,282.21,724,773,0
7006229,284.50,724,773,0
7006239,287.48,724,773,0
7006249,292.01,724,772,0
7006259,297.23,724,773,0
7006269,303.16,724,772,0
7006279,308.34,724,773,0
7006289,313.43,724,772,0
7006299,317.20,724,773,0
7006309,320.95,724,773,0
7006319,323.84,724,773,0
7006329,327.19,724,772,0
7006339,331.55,724,773,0
7006349,339.82,724,772,0
7006359,353.03,724,773,0
7006369,374.32,724,772,0
7006380,404.40,724,774,0
7006390,443.54,724,772,0
7006400,487.82,724,773,0
7006410,534.76,724,772,0
7006420,580.90,724,774,0
7006439,623.92,765,772,0
7006442,660.54,765,776,0
7006451,688.75,765,771,0
7006461,708.50,765,774,0
7006471,722.36,765,772,0
7006481,732.11,765,774,0
7006491,738.89,765,772,0
7006501,743.64,765,774,0
7006511,746.96,765,772,0
7006521,749.33,765,773,0
7006531,750.95,765,771,0
7006541,750.88,765,774,0
7006551,746.16,765,772,0
7006561,734.75,765,773,0
7006571,715.46,765,771,0
7006581,687.93,765,774,0
7006592,652.47,765,771,0
7006601,610.03,765,773,0
7006611,562.88,765,771,0
7006621,515.34,765,774,0
7006631,470.63,765,772,0
7006641,431.52,765,774,0
7006651,399.22,765,771,0
7006661,375.16,765,774,0
7006671,358.78,765,771,0
7006681,350.23,765,773,0
7006691,348.53,765,771,0
7006701,353.09,765,774,0
7006711,362.06,765,771,0
7006721,374.77,765,773,0
7006731,388.73,765,771,0
7006741,403.25,765,773,0
7006751,415.99,765,771,0
7006761,426.62,765,773,0
7006771,433.81,765,771,0
7006781,437.42,765,773,0
7006791,436.61,765,771,0
7006801,431.97,765,773,0
7006811,423.36,765,771,0
7006821,412.07,765,773,0
7006831,397.69,765,771,0
7006841,382.10,765,774,0
7006851,365.44,765,771,0
7006861,349.49,765,773,0
7006871,334.13,765,771,0
7006881,320.63,765,774,0
7006892,308.62,765,771,0
7006902,299.90,765,773,0
7006912,292.86,765,771,0
7006922,289.00,765,774,0
7006932,286.39,765,771,0
7006942,286.61,765,773,0
7006952,287.80,765,771,0
7006962,290.86,765,774,0
7006972,293.82,765,771,0
7006982,297.81,765,773,0
7006992,301.13,765,771,0
7007002,305.16,765,774,0
7007012,308.33,765,771,0
7007022,312.99,765,773,0
7007032,318.86,765,771,0
7007042,328.85,765,773,0
7007052,343.51,765,771,0
7007063,366.24,765,773,0
7007073,397.71,765,772,0
7007083,438.21,765,774,0
7007093,483.58,765,771,0
7007104,531.49,765,773,0
7007113,578.27,765,772,0
7007123,621.99,765,774,0
7007133,658.98,765,771,0
7007143,687.66,765,773,0
7007153,707.69,765,772,0
7007163,721.75,765,774,0
7007182,731.56,743,772,0
7007185,738.46,743,773,0
7007194,743.25,743,772,0
7007204,746.65,743,774,0
7007214,748.98,743,772,0
7007224,750.66,743,773,0
7007234,751.79,743,772,0
7007244,752.62,743,774,0
7007254,749.87,743,772,0
7007264,741.38,743,773,0
7007275,724.29,743,772,0
7007284,699.18,743,773,0
7007294,665.05,743,772,0
7007304,623.72,743,773,0
7007314,575.12,743,772,0
7007324,524.94,743,774,0
7007334,475.37,743,772,0
7007344,431.93,743,773,0
7007354,394.28,743,772,0
7007364,365.57,743,773,0
7007374,344.23,743,772,0
7007384,331.90,743,773,0
7007394,325.72,743,772,0
7007404,327.00,743,774,0
7007414,331.67,743,772,0
7007424,340.30,743,773,0
7007434,349.34,743,772,0
7007444,359.18,743,773,0
7007454,366.75,743,772,0
7007464,373.21,743,773,0
7007474,375.89,743,772,0
7007484,377.00,743,773,0
7007494,374.60,743,772,0
7007504,370.86,743,773,0
7007514,364.05,743,772,0
7007524,356.53,743,773,0
7007534,346.73,743,772,0
7007544,337.21,743,773,0
7007554,326.30,743,772,0
7007564,316.61,743,773,0
7007575,306.44,743,772,0
7007585,298.21,743,773,0
7007595,290.39,743,772,0
7007605,285.04,743,773,0
7007616,280.32,743,773,0
7007625,278.21,743,773,0
7007635,276.43,743,772,0
7007645,276.77,743,773,0
7007655,277.23,743,773,0
7007665,279.22,743,773,0
7007675,280.74,743,772,0
7007685,283.39,743,773,0
7007695,285.29,743,773,0
7007705,288.29,743,773,0
7007715,290.94,743,772,0
7007725,295.72,743,773,0
7007735,302.10,743,773,0
7007745,313.21,743,773,0
7007755,329.31,743,772,0
7007765,354.37,743,773,0
7007775,388.59,743,773,0
7007785,431.74,743,773,0
7007795,479.30,743,772,0
7007805,529.06,743,773,0
7007815,577.38,743,773,0
7007825,622.22,743,773,0
7007844,659.66,662,771,0
7007847,688.13,662,773,0
7007856,708.06,662,773,0
7007866,722.06,662,772,0
7007876,731.81,662,772,0
7007886,738.68,662,773,0
7007896,743.49,662,773,0
7007906,746.90,662,772,0
7007916,749.29,662,773,0
7007926,750.96,662,773,0
7007936,752.13,662,773,0
7007946,752.99,662,773,0
7007956,751.28,662,773,0
7007966,744.72,662,773,0
7007976,730.28,662,773,0
7007986,707.27,662,772,0
7007996,675.17,662,773,0
7008006,635.56,662,773,0
7008016,588.51,662,773,0
7008026,537.87,662,772,0
7008036,487.21,662,773,0
7008046,441.38,662,773,0
7008056,401.96,662,773,0
7008066,371.20,662,772,0
7008076,348.43,662,773,0
7008087,334.41,662,772,0
7008097,328.03,662,773,0
7008107,328.19,662,772,0
7008117,333.15,662,773,0
7008128,341.63,662,772,0
7008137,351.60,662,773,0
7008147,361.83,662,772,0
7008157,370.80,662,773,0
7008167,377.80,662,772,0
7008177,382.32,662,774,0
7008187,384.11,662,772,0
7008197,382.88,662,773,0
7008207,378.93,662,772,0
7008217,372.43,662,773,0
7008227,364.33,662,772,0
7008237,354.89,662,773,0
7008247,344.34,662,772,0
7008257,333.14,662,773,0
7008267,322.00,662,772,0
7008277,311.20,662,773,0
7008287,300.94,662,772,0
7008297,291.40,662,774,0
7008307,282.97,662,772,0
7008317,276.08,662,773,0
7008327,270.87,662,772,0
7008337,267.61,662,774,0
7008347,266.14,662,772,0
7008357,266.40,662,774,0
7008367,268.04,662,772,0
7008377,270.72,662,774,0
7008387,274.19,662,772,0
7008397,277.95,662,773,0
7008407,281.52,662,771,0
7008417,284.84,662,773,0
7008428,287.76,662,771,0
7008438,290.44,662,773,0
7008448,292.58,662,771,0
7008458,294.81,662,773,0
7008468,297.52,662,771,0
7008478,302.21,662,774,0
7008488,310.12,662,771,0
7008498,323.67,662,773,0
7008508,344.51,662,771,0
7008518,375.09,662,774,0
7008528,415.39,662,771,0
7008538,462.07,662,774,0
7008548,511.64,662,771,0
7008558,561.33,662,774,0
7008568,607.73,662,771,0
7008587,648.27,743,770,0
7008590,680.25,743,773,0
7008599,702.67,743,774,0
7008609,718.33,743,771,0
7008619,729.29,743,774,0
7008629,736.91,743,771,0
7008640,742.30,743,774,0
7008649,746.02,743,771,0
7008659,748.63,743,774,0
7008669,750.46,743,771,0
7008679,751.78,743,774,0
7008689,752.66,743,771,0
7008699,749.42,743,774,0
7008709,738.71,743,771,0
7008719,719.72,743,773,0
7008729,691.43,743,771,0
7008739,654.79,743,774,0
7008749,609.64,743,771,0
7008759,557.98,743,773,0
7008769,504.15,743,771,0
7008779,453.79,743,774,0
7008789,408.51,743,771,0
7008799,371.50,743,774,0
7008809,342.51,743,771,0
7008819,323.03,743,774,0
7008829,311.15,743,771,0
7008839,307.50,743,774,0
7008849,309.32,743,771,0
7008859,316.56,743,774,0
7008869,325.99,743,771,0
7008879,337.39,743,773,0
7008889,348.12,743,771,0
7008899,358.45,743,774,0
7008909,365.99,743,771,0
7008919,371.69,743,774,0
7008929,373.58,743,771,0
7008940,373.37,743,774,0
7008950,369.36,743,771,0
7008960,363.94,743,774,0
7008970,355.43,743,771,0
7008980,346.13,743,773,0
7008990,334.77,743,772,0
7009000,323.83,743,774,0
7009010,311.79,743,771,0
7009020,301.48,743,774,0
7009030,290.80,743,771,0
7009040,282.24,743,773,0
7009050,274.20,743,772,0
7009060,268.57,743,774,0
7009070,263.51,743,771,0
7009080,261.13,743,773,0
7009090,258.99,743,771,0
7009100,259.04,743,774,0
7009111,259.54,743,772,0
7009121,261.95,743,773,0
7009131,264.06,743,772,0
7009141,267.69,743,773,0
7009152,270.91,743,772,0
7009161,275.61,743,773,0
7009171,279.41,743,772,0
7009181,283.87,743,774,0
7009191,287.08,743,772,0
7009201,291.13,743,773,0
7009211,293.79,743,772,0
7009221,296.94,743,773,0
7009231,298.11,743,772,0
7009241,300.01,743,773,0
7009251,300.39,743,772,0
7009261,301.22,743,773,0
7009271,301.11,743,772,0
7009281,302.75,743,773,0
7009291,305.31,743,772,0
7009301,313.15,743,773,0
7009311,326.30,743,772,0
7009321,349.31,743,773,0
7009331,381.75,743,772,0
7009341,424.08,743,773,0
7009360,471.80,773,772,0
7009363,522.52,773,773,0
7009372,571.90,773,772,0
7009382,617.70,773,773,0
7009392,655.94,773,773,0
7009402,685.61,773,773,0
7009412,706.34,773,773,0
7009422,720.90,773,773,0
7009432,731.09,773,773,0
7009442,738.22,773,773,0
7009452,743.17,773,773,0
7009462,746.63,773,773,0
7009472,749.06,773,773,0
7009482,750.62,773,773,0
7009492,746.75,773,773,0
7009502,736.28,773,773,0
7009512,716.87,773,772,0
7009522,688.75,773,773,0
7009532,651.45,773,773,0
7009542,606.53,773,773,0
7009552,554.30,773,773,0
7009562,501.88,773,773,0
7009572,450.87,773,773,0
7009582,406.13,773,773,0
7009592,368.12,773,773,0
7009602,339.71,773,773,0
7009612,319.53,773,773,0
7009623,309.08,773,773,0
7009633,305.93,773,773,0
7009643,310.71,773,772,0
7009653,320.44,773,773,0
7009664,334.66,773,772,0
7009673,350.06,773,773,0
7009683,366.46,773,772,0
7009693,381.15,773,773,0
7009703,393.88,773,772,0
7009713,402.74,773,773,0
7009723,408.22,773,772,0
7009733,409.31,773,773,0
7009743,406.90,773,772,0
7009753,400.50,773,773,0
7009763,391.48,773,773,0
7009773,379.68,773,773,0
7009783,366.49,773,772,0
7009793,351.81,773,773,0
7009803,337.34,773,772,0
7009813,322.84,773,773,0
7009823,309.47,773,772,0
7009833,296.95,773,774,0
7009843,286.50,773,772,0
7009853,277.52,773,773,0
7009863,270.77,773,772,0
7009873,265.31,773,773,0
7009883,262.04,773,772,0
7009893,260.06,773,773,0
7009903,259.83,773,772,0
7009913,260.57,773,773,0
7009923,262.84,773,772,0
7009933,265.67,773,773,0
7009943,269.46,773,772,0
7009953,273.26,773,773,0
7009964,277.47,773,772,0
7009974,281.44,773,773,0
7009984,285.12,773,772,0
7009994,288.17,773,774,0
7010004,290.82,773,772,0
7010014,292.85,773,773,0
7010024,294.61,773,772,0
7010034,296.48,773,774,0
7010044,299.29,773,771,0
7010054,304.22,773,773,0
7010064,312.81,773,772,0
7010074,327.05,773,773,0
7010084,348.72,773,771,0
7010094,378.98,773,773,0
7010104,418.46,773,772,0
7010114,464.13,773,773,0
7010124,512.69,773,772,0
7010135,561.04,773,774,0
7010154,606.24,794,772,0
7010157,645.73,794,775,0
7010166,677.70,794,771,0
7010177,700.72,794,774,0
7010187,716.83,794,771,0
7010197,728.15,794,774,0
7010207,736.08,794,771,0
7010217,739.61,794,774,0
7010227,736.30,794,771,0
7010237,725.80,794,773,0
7010247,706.06,794,771,0
7010257,678.10,794,774,0
7010267,641.30,794,771,0
7010277,597.41,794,773,0
7010287,547.83,794,771,0
7010297,497.65,794,773,0
7010307,447.96,794,771,0
7010317,403.18,794,773,0
7010327,363.06,794,771,0
7010337,330.21,794,773,0
7010348,303.15,794,771,0
7010358,284.55,794,773,0
7010368,272.60,794,772,0
7010378,268.60,794,773,0
7010388,269.88,794,772,0
7010398,277.12,794,773,0
7010408,287.71,794,772,0
7010418,302.07,794,773,0
7010428,317.05,794,772,0
7010438,332.98,794,773,0
7010448,347.00,794,772,0
7010458,360.20,794,773,0
7010468,369.82,794,772,0
7010478,377.16,794,773,0
7010488,380.16,794,772,0
7010498,380.80,794,773,0
7010508,377.30,794,772,0
7010519,372.02,794,773,0
7010529,363.32,794,772,0
7010539,354.14,794,773,0
7010549,342.61,794,772,0
7010560,331.46,794,773,0
7010569,319.10,794,772,0
7010579,308.06,794,773,0
7010589,296.64,794,772,0
7010599,287.19,794,773,0
7010609,277.62,794,772,0
7010619,270.49,794,773,0
7010629,263.87,794,772,0
7010639,259.67,794,773,0
7010649,256.00,794,772,0
7010659,254.80,794,773,0
7010669,253.83,794,772,0
7010679,254.99,794,773,0
7010689,256.15,794,772,0
7010699,259.11,794,773,0
7010709,261.60,794,772,0
7010719,266.09,794,773,0
7010729,269.54,794,773,0
7010739,274.05,794,773,0
7010749,277.55,794,772,0
7010759,282.27,794,773,0
7010769,285.62,794,773,0
7010779,289.55,794,773,0
7010789,291.44,794,772,0
7010799,293.75,794,773,0
7010809,294.73,794,773,0
7010819,296.09,794,773,0
7010829,295.59,794,772,0
7010839,296.02,794,773,0
7010849,295.80,794,773,0
7010860,297.27,794,773,0
7010870,300.40,794,773,0
7010880,307.70,794,773,0
7010890,319.62,794,773,0
7010900,339.06,794,773,0
7010910,365.27,794,773,0
7010920,401.02,794,773,0
7010939,444.17,785,772,0
7010942,491.65,785,772,0
7010951,539.80,785,773,0
7010961,586.06,785,772,0
7010971,627.53,785,773,0
7010981,663.07,785,772,0
7010991,690.22,785,773,0
7011001,709.40,785,772,0
7011011,722.82,785,774,0
7011021,730.97,785,772,0
7011031,732.31,785,773,0
7011041,726.35,785,772,0
7011051,712.36,785,773,0
7011061,690.22,785,772,0
7011072,660.28,785,773,0
7011081,623.30,785,772,0
7011091,580.78,785,773,0
7011101,536.49,785,772,0
7011111,492.37,785,773,0
7011121,450.90,785,772,0
7011131,413.22,785,773,0
7011141,380.45,785,772,0
7011151,352.80,785,773,0
7011161,331.26,785,772,0
7011171,315.33,785,773,0
7011181,305.50,785,772,0
7011191,300.89,785,773,0
7011201,301.78,785,772,0
7011211,306.78,785,773,0
7011221,315.24,785,772,0
7011231,325.93,785,773,0
7011241,338.25,785,772,0
7011251,350.73,785,773,0
7011261,362.94,785,772,0
7011271,373.72,785,773,0
7011281,382.54,785,772,0
7011291,388.98,785,773,0
7011301,392.80,785,772,0
7011311,393.63,785,773,0
7011321,391.99,785,772,0
7011331,387.66,785,773,0
7011341,381.21,785,772,0
7011351,373.04,785,773,0
7011361,363.69,785,772,0
7011372,353.62,785,773,0
7011382,343.49,785,772,0
7011392,333.45,785,774,0
7011402,323.93,785,771,0
7011412,315.12,785,773,0
7011422,307.24,785,772,0
7011432,300.61,785,773,0
7011442,294.94,785,771,0
7011452,290.67,785,773,0
7011462,287.43,785,772,0
7011472,285.80,785,773,0
7011482,284.79,785,771,0
7011492,284.89,785,773,0
7011502,285.40,785,772,0
7011512,286.78,785,773,0
7011522,288.52,785,771,0
7011532,291.15,785,773,0
7011543,293.37,785,772,0
7011553,296.22,785,773,0
7011563,298.55,785,771,0
7011573,301.64,785,773,0
7011584,304.15,785,771,0
7011593,306.59,785,773,0
7011603,308.21,785,771,0
7011613,310.04,785,773,0
7011623,310.88,785,771,0
7011633,312.12,785,774,0
7011643,312.47,785,771,0
7011653,313.23,785,773,0
7011663,312.99,785,771,0
7011673,312.82,785,774,0
7011683,311.85,785,771,0
7011693,311.68,785,773,0
7011703,311.17,785,771,0
7011713,311.89,785,773,0
7011723,313.98,785,771,0
7011733,320.33,785,773,0
7011743,330.99,785,771,0
7011753,348.91,785,773,0
7011772,373.45,833,772,0
7011775,407.39,833,773,0
7011784,448.93,833,772,0
7011794,495.06,833,774,0
7011804,541.93,833,771,0
7011814,587.47,833,774,0
7011824,628.34,833,771,0
7011834,663.68,833,774,0
7011844,690.73,833,771,0
7011854,709.71,833,774,0
7011864,723.00,833,771,0
7011874,731.10,833,774,0
7011884,732.44,833,771,0
7011894,726.99,833,774,0
7011904,712.90,833,771,0
7011914,690.98,833,773,0
7011924,660.65,833,771,0
7011934,623.60,833,773,0
7011944,580.65,833,771,0
7011954,536.52,833,774,0
7011964,491.67,833,771,0
7011974,450.54,833,773,0
7011984,412.75,833,771,0
7011994,381.11,833,774,0
7012004,354.25,833,771,0
7012014,334.24,833,773,0
7012024,319.13,833,771,0
7012034,311.03,833,773,0
7012044,307.72,833,771,0
7012055,310.55,833,773,0
7012065,317.03,833,771,0
7012075,327.73,833,773,0
7012085,340.24,833,772,0
7012096,355.04,833,773,0
7012105,369.13,833,771,0
7012115,383.40,833,773,0
7012125,394.98,833,772,0
7012135,405.02,833,773,0
7012145,411.35,833,771,0
7012155,415.49,833,773,0
7012165,415.69,833,771,0
7012175,414.07,833,773,0
7012185,408.86,833,771,0
7012195,402.56,833,773,0
7012205,393.56,833,772,0
7012215,384.35,833,773,0
7012225,373.40,833,771,0
7012235,363.21,833,774,0
7012245,352.13,833,772,0
7012255,342.45,833,773,0
7012265,332.50,833,772,0
7012275,324.64,833,774,0
7012285,316.99,833,772,0
7012295,311.68,833,773,0
7012305,306.72,833,772,0
7012315,304.23,833,773,0
7012325,302.06,833,772,0
7012335,302.13,833,773,0
7012345,302.05,833,772,0
7012355,303.83,833,774,0
7012365,305.30,833,772,0
7012375,308.34,833,773,0
7012385,310.55,833,772,0
7012396,314.24,833,773,0
7012406,317.17,833,772,0
7012416,321.36,833,773,0
7012426,324.47,833,772,0
7012436,328.40,833,773,0
7012446,330.89,833,772,0
7012456,334.35,833,773,0
7012466,336.22,833,772,0
7012476,338.17,833,773,0
7012486,338.67,833,772,0
7012496,339.63,833,773,0
7012506,339.48,833,772,0
7012516,340.20,833,773,0
7012526,340.18,833,772,0
7012536,342.57,833,773,0
7012546,346.64,833,772,0
7012556,355.32,833,773,0
7012567,368.77,833,773,0
7012577,390.14,833,773,0
7012587,418.98,833,773,0
7012606,456.74,834,772,0
7012610,498.86,834,774,0
7012619,543.52,834,772,0
7012629,587.03,834,774,0
7012639,627.61,834,772,0
7012649,662.06,834,774,0
7012659,689.64,834,772,0
7012669,708.95,834,774,0
7012679,722.46,834,772,0
7012689,731.92,834,774,0
7012699,736.45,834,772,0
7012709,734.38,834,773,0
7012719,724.63,834,772,0
7012729,706.70,834,773,0
7012739,680.99,834,772,0
7012749,647.73,834,773,0
7012759,607.10,834,771,0
7012769,562.28,834,773,0
7012780,516.38,834,771,0
7012790,472.64,834,773,0
7012800,432.42,834,771,0
7012810,397.37,834,773,0
7012820,367.86,834,771,0
7012830,345.53,834,774,0
7012840,329.55,834,771,0
7012850,320.65,834,773,0
7012860,317.45,834,771,0
7012870,320.40,834,773,0
7012880,327.65,834,771,0
7012890,339.20,834,774,0
7012900,352.85,834,771,0
7012910,368.46,834,773,0
7012920,384.13,834,770,0
7012930,399.44,834,773,0
7012940,412.51,834,771,0
7012951,423.54,834,773,0
7012961,430.92,834,771,0
7012971,435.44,834,773,0
7012981,436.00,834,771,0
7012992,433.64,834,773,0
7013001,427.88,834,770,0
7013011,420.29,834,773,0
7013021,409.96,834,771,0
7013031,399.04,834,773,0
7013041,386.56,834,770,0
7013051,374.60,834,773,0
7013061,362.12,834,771,0
7013071,351.07,834,773,0
7013081,340.21,834,771,0
7013091,331.36,834,774,0
7013101,323.24,834,771,0
7013111,317.34,834,773,0
7013121,312.09,834,771,0
7013131,309.02,834,773,0
7013141,306.57,834,771,0
7013151,306.02,834,773,0
7013161,305.71,834,771,0
7013171,306.91,834,773,0
7013181,308.52,834,771,0
7013191,311.71,834,773,0
7013201,314.75,834,771,0
7013211,318.64,834,773,0
7013221,321.96,834,771,0
7013231,326.17,834,773,0
7013241,329.38,834,771,0
7013251,332.91,834,774,0
7013261,335.16,834,771,0
7013271,337.77,834,773,0
7013281,339.30,834,771,0
7013292,341.61,834,774,0
7013302,343.10,834,771,0
7013312,346.28,834,773,0
7013322,349.84,834,771,0
7013332,357.39,834,773,0
7013342,368.37,834,771,0
7013352,386.09,834,774,0
7013362,410.36,834,771,0
7013372,444.15,834,774,0
7013382,483.66,834,771,0
7013392,527.09,834,773,0
7013411,570.27,805,772,0
7013414,611.93,805,775,0
7013423,648.89,805,772,0
7013433,679.74,805,773,0
7013443,701.89,805,772,0
7013453,717.44,805,774,0
7013463,728.32,805,772,0
7013473,735.98,805,773,0
7013483,741.30,805,772,0
7013493,745.03,805,773,0
7013504,744.97,805,772,0
7013513,740.48,805,773,0
7013523,729.02,805,772,0
7013533,710.67,805,773,0
7013543,683.99,805,772,0
7013553,650.78,805,773,0
7013563,610.17,805,772,0
7013573,566.32,805,773,0
7013583,520.54,805,772,0
7013593,477.43,805,773,0
7013603,437.19,805,772,0
7013613,403.58,805,773,0
7013623,375.25,805,772,0
7013633,354.77,805,773,0
7013643,340.57,805,772,0
7013653,334.31,805,773,0
7013663,333.40,805,772,0
7013673,339.20,805,773,0
7013683,348.31,805,772,0
7013693,361.29,805,773,0
7013703,375.17,805,772,0
7013713,390.85,805,773,0
7013723,404.52,805,771,0
7013733,417.57,805,773,0
7013743,426.95,805,772,0
7013753,434.34,805,773,0
7013763,437.49,805,772,0
7013773,438.25,805,773,0
7013783,434.70,805,772,0
7013793,429.39,805,773,0
7013804,420.79,805,772,0
7013814,411.12,805,773,0
7013824,399.21,805,772,0
7013834,387.32,805,773,0
7013844,374.58,805,772,0
7013854,362.84,805,773,0
7013864,350.84,805,772,0
7013874,340.60,805,773,0
7013884,330.99,805,772,0
7013894,323.80,805,773,0
7013904,317.47,805,772,0
7013914,313.30,805,773,0
7013924,310.00,805,772,0
7013934,308.97,805,773,0
7013944,308.29,805,772,0
7013954,309.32,805,773,0
7013964,310.51,805,773,0
7013975,312.93,805,772,0
7013985,315.14,805,773,0
7013995,318.22,805,772,0
7014005,321.16,805,773,0
7014016,325.05,805,772,0
7014025,328.51,805,773,0
7014035,332.21,805,772,0
7014045,335.32,805,773,0
7014055,338.44,805,772,0
7014065,340.96,805,773,0
7014075,343.33,805,772,0
7014085,344.48,805,773,0
7014095,345.19,805,772,0
7014105,344.92,805,773,0
7014115,344.77,805,772,0
7014125,344.58,805,773,0
7014135,345.52,805,772,0
7014145,347.94,805,773,0
7014155,354.98,805,772,0
7014165,367.59,805,773,0
7014175,388.41,805,772,0
7014185,418.29,805,773,0
7014195,456.64,805,773,0
7014214,499.82,803,771,0
7014217,545.39,803,772,0
7014226,589.72,803,774,0
7014236,630.73,803,772,0
7014246,665.48,803,773,0
7014256,691.99,803,771,0
7014266,710.55,803,773,0
7014276,723.54,803,772,0
7014286,732.68,803,773,0
7014296,739.08,803,772,0
7014306,743.55,803,774,0
7014316,746.69,803,772,0
7014326,748.88,803,773,0
7014336,750.42,803,772,0
7014346,750.59,803,774,0
7014356,746.43,803,771,0
7014366,736.14,803,773,0
7014376,718.44,803,771,0
7014386,692.77,803,774,0
7014396,659.32,803,771,0
7014406,619.03,803,773,0
7014416,573.63,803,771,0
7014426,527.37,803,773,0
7014436,483.25,803,771,0
7014446,443.96,803,773,0
7014456,411.23,803,771,0
7014466,386.09,803,773,0
7014476,368.53,803,771,0
7014487,358.69,803,773,0
7014497,355.57,803,771,0
7014507,358.70,803,773,0
7014517,366.20,803,771,0
7014528,377.33,803,773,0
7014537,389.70,803,771,0
7014547,402.52,803,773,0
7014557,413.89,803,771,0
7014567,423.70,803,773,0
7014577,430.47,803,771,0
7014587,434.57,803,773,0
7014597,434.83,803,771,0
7014607,432.61,803,773,0
7014617,427.16,803,771,0
7014627,419.57,803,773,0
7014637,409.37,803,771,0
7014647,397.99,803,773,0
7014657,385.22,803,771,0
7014667,372.60,803,773,0
7014677,359.56,803,771,0
7014687,347.61,803,773,0
7014697,336.20,803,771,0
7014707,326.75,803,773,0
7014717,318.38,803,771,0
7014727,312.27,803,773,0
7014737,307.26,803,771,0
7014747,304.40,803,773,0
7014757,302.52,803,771,0
7014767,302.49,803,773,0
7014777,302.86,803,771,0
7014787,304.53,803,773,0
7014797,306.30,803,771,0
7014807,309.21,803,773,0
7014817,311.89,803,771,0
7014828,315.39,803,773,0
7014838,318.40,803,771,0
7014848,322.18,803,773,0
7014858,325.26,803,771,0
7014868,328.95,803,773,0
7014878,331.71,803,771,0
7014888,334.88,803,773,0
7014898,336.55,803,771,0
7014908,338.44,803,773,0
7014918,338.86,803,771,0
7014928,339.76,803,773,0
7014938,339.02,803,771,0
7014948,338.41,803,773,0
7014958,336.53,803,771,0
7014968,335.82,803,773,0
7014978,335.40,803,771,0
7014988,338.45,803,773,0
7014999,344.74,803,771,0
7015009,358.41,803,773,0
7015019,379.97,803,771,0
7015029,412.94,803,773,0
7015049,453.58,834,772,0
7015052,499.44,834,773,0
7015061,546.49,834,772,0
7015071,592.72,834,773,0
7015081,634.33,834,772,0
7015091,669.37,834,773,0
7015101,694.68,834,772,0
7015111,712.43,834,773,0
7015121,724.86,834,772,0
7015131,733.60,834,773,0
7015141,739.72,834,772,0
7015151,744.00,834,773,0
7015161,747.00,834,772,0
7015171,749.14,834,773,0
7015181,750.60,834,772,0
7015191,750.08,834,773,0
7015201,743.71,834,772,0
7015212,730.56,834,773,0
7015222,708.66,834,772,0
7015232,678.85,834,772,0
7015242,640.79,834,773,0
7015252,596.16,834,772,0
7015262,546.99,834,772,0
7015272,499.68,834,773,0
7015282,455.51,834,773,0
7015292,418.75,834,772,0
7015302,389.04,834,772,0
7015312,368.54,834,772,0
7015322,355.95,834,773,0
7015332,351.94,834,772,0
7015342,353.80,834,772,0
7015352,361.92,834,772,0
7015362,373.34,834,773,0
7015372,387.85,834,772,0
7015383,402.43,834,773,0
7015393,416.66,834,772,0
7015403,428.37,834,773,0
7015413,437.60,834,772,0
7015424,442.99,834,773,0
7015433,445.05,834,772,0
7015443,442.94,834,773,0
7015453,437.81,834,772,0
7015463,429.47,834,773,0
7015473,419.13,834,772,0
7015483,406.75,834,773,0
7015493,393.54,834,772,0
7015503,379.66,834,773,0
7015513,366.35,834,772,0
7015523,353.64,834,773,0
7015533,342.22,834,772,0
7015543,332.17,834,773,0
7015553,324.06,834,772,0
7015563,317.57,834,773,0
7015573,312.99,834,772,0
7015583,309.86,834,773,0
7015593,308.36,834,772,0
7015603,308.25,834,772,0
7015613,309.63,834,772,0
7015623,311.84,834,773,0
7015633,315.06,834,772,0
7015643,318.69,834,773,0
7015653,323.11,834,772,0
7015663,327.62,834,773,0
7015673,332.23,834,772,0
7015683,336.23,834,773,0
7015693,340.32,834,772,0
7015703,343.87,834,773,0
7015713,346.91,834,772,0
7015724,348.82,834,773,0
7015734,350.25,834,772,0
7015744,350.99,834,773,0
7015754,351.42,834,771,0
7015764,351.89,834,773,0
7015774,353.47,834,772,0
7015784,357.96,834,773,0
7015794,366.84,834,771,0
7015804,382.70,834,773,0
7015814,407.05,834,772,0
7015824,441.41,834,773,0
7015834,482.17,834,771,0
7015844,526.48,834,773,0
7015863,571.33,815,772,0
7015866,614.35,815,774,0
7015875,652.09,815,771,0
7015885,682.66,815,773,0
7015895,704.06,815,772,0
7015905,719.04,815,773,0
7015915,729.53,815,771,0
7015925,736.87,815,773,0
7015936,742.01,815,771,0
7015945,745.61,815,773,0
7015955,748.12,815,771,0
7015965,749.89,815,773,0
7015975,751.12,815,771,0
7015985,749.80,815,774,0
7015995,742.40,815,771,0
7016005,727.75,815,773,0
7016015,704.17,815,771,0
7016025,673.09,815,773,0
7016035,633.85,815,771,0
7016045,587.87,815,773,0
7016055,538.02,815,771,0
7016065,490.01,815,773,0
7016075,445.78,815,771,0
7016085,409.08,815,773,0
7016095,379.18,815,771,0
7016105,358.64,815,773,0
7016115,346.28,815,771,0
7016125,342.51,815,773,0
7016135,345.01,815,771,0
7016145,353.84,815,773,0
7016155,366.01,815,771,0
7016165,381.01,815,773,0
7016175,395.75,815,771,0
7016185,410.18,815,773,0
7016195,421.83,815,771,0
7016205,431.09,815,773,0
7016215,435.87,815,771,0
7016225,437.49,815,773,0
7016236,434.47,815,771,0
7016246,428.63,815,773,0
7016256,418.76,815,771,0
7016266,407.21,815,773,0
7016276,393.05,815,771,0
7016286,378.85,815,773,0
7016296,363.47,815,771,0
7016306,349.44,815,773,0
7016316,335.55,815,771,0
7016326,324.03,815,773,0
7016336,313.26,815,771,0
7016346,305.38,815,774,0
7016356,298.45,815,771,0
7016366,294.33,815,773,0
7016376,291.10,815,771,0
7016386,290.47,815,773,0
7016396,290.46,815,771,0
7016407,292.76,815,773,0
7016417,295.02,815,771,0
7016427,299.04,815,773,0
7016437,302.67,815,771,0
7016448,307.87,815,773,0
7016457,312.20,815,771,0
7016467,317.62,815,773,0
7016477,321.85,815,771,0
7016487,326.87,815,773,0
7016497,330.42,815,771,0
7016507,334.45,815,773,0
7016517,336.72,815,771,0
7016527,339.29,815,773,0
7016537,339.84,815,771,0
7016547,340.58,815,773,0
7016557,339.63,815,771,0
7016567,339.53,815,773,0
7016577,339.07,815,771,0
7016587,341.62,815,773,0
7016597,347.05,815,771,0
7016607,359.55,815,773,0
7016617,379.96,815,772,0
7016627,411.77,815,773,0
7016637,451.44,815,772,0
7016656,496.78,793,770,0
7016659,543.56,793,774,0
7016668,590.06,793,774,0
7016678,632.30,793,772,0
7016688,667.91,793,773,0
7016698,693.78,793,772,0
7016708,711.93,793,773,0
7016718,724.60,793,772,0
7016728,733.55,793,773,0
7016738,739.72,793,772,0
7016748,744.09,793,773,0
7016758,747.11,793,772,0
7016768,749.30,793,773,0
7016778,750.76,793,772,0
7016788,751.77,793,773,0
7016798,752.44,793,772,0
7016808,752.99,793,773,0
7016818,753.34,793,772,0
7016828,750.88,793,773,0
7016838,742.22,793,772,0
7016848,726.64,793,773,0
7016858,702.27,793,772,0
7016868,670.43,793,773,0
7016878,631.09,793,772,0
7016888,586.23,793,773,0
7016898,539.02,793,772,0
7016908,495.13,793,773,0
7016919,455.83,793,772,0
7016929,425.15,793,773,0
7016939,402.05,793,773,0
7016949,387.59,793,773,0
7016960,379.53,793,773,0
7016969,378.30,793,773,0
7016979,380.82,793,772,0
7016989,387.09,793,773,0
7016999,393.96,793,772,0
7017009,401.39,793,773,0
7017019,407.19,793,772,0
7017029,411.84,793,773,0
7017039,413.43,793,773,0
7017049,413.09,793,772,0
7017059,409.38,793,773,0
7017069,403.82,793,773,0
7017079,395.47,793,773,0
7017089,386.12,793,773,0
7017099,374.94,793,772,0
7017109,363.81,793,772,0
7017119,351.96,793,773,0
7017129,341.13,793,772,0
7017139,330.37,793,772,0
7017149,321.35,793,772,0
7017159,313.01,793,773,0
7017169,306.71,793,772,0
7017179,301.31,793,773,0
7017189,298.05,793,772,0
7017199,295.80,793,773,0
7017209,295.52,793,772,0
7017219,295.84,793,772,0
7017229,297.81,793,772,0
7017239,300.18,793,773,0
7017249,303.73,793,772,0
7017260,307.20,793,773,0
7017270,311.29,793,772,0
7017280,315.11,793,773,0
7017290,319.23,793,772,0
7017300,322.80,793,773,0
7017310,326.42,793,771,0
7017320,329.21,793,773,0
7017330,331.93,793,772,0
7017340,333.75,793,773,0
7017350,335.16,793,772,0
7017360,335.58,793,773,0
7017370,335.49,793,772,0
7017380,334.87,793,773,0
7017390,334.65,793,772,0
7017400,334.71,793,773,0
7017410,336.69,793,772,0
7017420,342.35,793,773,0
7017431,354.20,793,771,0
7017441,374.63,793,773,0
7017451,405.94,793,772,0
7017461,445.56,793,773,0
7017481,490.69,824,771,0
7017484,538.40,824,774,0
7017493,585.42,824,771,0
7017503,628.84,824,773,0
7017513,665.27,824,771,0
7017523,692.02,824,774,0
7017533,710.74,824,771,0
7017543,723.89,824,773,0
7017553,733.05,824,771,0
7017563,739.51,824,774,0
7017573,743.98,824,771,0
7017583,747.16,824,773,0
7017593,749.34,824,771,0
7017603,750.91,824,774,0
7017613,751.97,824,771,0
7017623,752.75,824,773,0
7017633,753.25,824,771,0
7017644,753.65,824,774,0
7017654,749.55,824,771,0
7017664,739.19,824,773,0
7017674,720.02,824,770,0
7017684,692.93,824,773,0
7017694,657.51,824,771,0
7017704,615.87,824,773,0
7017714,567.86,824,770,0
7017724,520.55,824,773,0
7017734,476.16,824,771,0
7017744,439.29,824,774,0
7017754,409.16,824,770,0
7017764,388.54,824,773,0
7017774,374.45,824,771,0
7017784,368.70,824,773,0
7017794,367.33,824,770,0
7017804,371.18,824,774,0
7017815,376.61,824,771,0
7017825,384.48,824,773,0
7017835,390.77,824,771,0
7017845,397.18,824,773,0
7017856,400.25,824,771,0
7017865,402.45,824,773,0
7017875,400.86,824,771,0
7017885,397.73,824,773,0
7017895,390.87,824,771,0
7017905,383.06,824,773,0
7017915,372.42,824,771,0
7017925,361.83,824,773,0
7017935,349.20,824,771,0
7017945,337.61,824,773,0
7017955,325.34,824,771,0
7017965,315.30,824,773,0
7017975,305.35,824,771,0
7017985,298.05,824,773,0
7017995,291.26,824,771,0
7018005,287.32,824,773,0
7018015,283.80,824,771,0
7018025,283.00,824,773,0
7018035,282.23,824,771,0
7018045,283.75,824,773,0
7018055,284.98,824,771,0
7018065,288.11,824,773,0
7018075,290.52,824,771,0
7018085,294.48,824,773,0
7018095,297.55,824,771,0
7018105,301.84,824,773,0
7018115,304.93,824,771,0
7018125,309.02,824,773,0
7018135,311.59,824,771,0
7018145,315.18,824,773,0
7018156,317.14,824,772,0
7018166,319.67,824,773,0
7018176,320.50,824,772,0
7018186,321.68,824,773,0
7018196,321.13,824,772,0
7018206,321.09,824,773,0
7018216,319.22,824,772,0
7018226,318.08,824,773,0
7018236,315.92,824,772,0
7018246,315.64,824,773,0
7018256,316.52,824,772,0
7018266,322.24,824,773,0
7018276,333.01,824,772,0
7018286,352.85,824,773,0
7018296,382.42,824,772,0
7018315,422.50,835,771,0
7018318,468.38,835,774,0
7018327,517.81,835,773,0
7018337,566.59,835,773,0
7018347,612.61,835,773,0
7018357,652.12,835,773,0
7018368,682.81,835,772,0
7018377,704.30,835,773,0
7018387,719.38,835,773,0
7018397,729.94,835,773,0
7018407,737.33,835,772,0
7018417,742.50,835,773,0
7018427,746.16,835,773,0
7018437,748.73,835,773,0
7018447,750.48,835,772,0
7018457,751.67,835,773,0
7018467,752.49,835,773,0
7018477,751.70,835,773,0
7018487,746.18,835,772,0
7018497,733.44,835,772,0
7018507,712.74,835,773,0
7018517,683.33,835,772,0
7018527,645.94,835,772,0
7018537,601.18,835,773,0
7018547,552.31,835,773,0
7018557,503.57,835,773,0
7018567,459.22,835,772,0
7018577,421.05,835,773,0
7018587,391.42,835,773,0
7018597,369.99,835,772,0
7018607,357.70,835,772,0
7018617,352.47,835,773,0
7018627,354.09,835,772,0
7018637,360.15,835,772,0
7018647,370.17,835,772,0
7018657,381.48,835,773,0
7018668,393.51,835,772,0
7018678,403.77,835,773,0
7018688,412.07,835,772,0
7018698,416.93,835,773,0
7018708,418.71,835,771,0
7018718,416.53,835,773,0
7018728,411.27,835,772,0
7018738,403.04,835,773,0
7018748,392.66,835,771,0
7018758,380.93,835,773,0
7018768,368.31,835,772,0
7018778,355.57,835,774,0
7018788,342.89,835,771,0
7018798,331.09,835,773,0
7018808,320.44,835,772,0
7018818,311.18,835,773,0
7018828,303.24,835,771,0
7018839,297.08,835,773,0
7018849,292.43,835,771,0
7018859,289.86,835,774,0
7018869,288.61,835,771,0
7018880,289.12,835,773,0
7018889,290.84,835,771,0
7018899,293.84,835,774,0
7018909,297.53,835,771,0
7018919,302.13,835,773,0
7018929,307.06,835,771,0
7018939,312.44,835,773,0
7018949,317.15,835,771,0
7018959,322.16,835,773,0
7018969,326.27,835,771,0
7018979,330.30,835,773,0
7018989,333.00,835,771,0
7018999,334.97,835,773,0
7019009,335.71,835,771,0
7019019,336.05,835,773,0
7019029,334.88,835,771,0
7019039,333.54,835,773,0
7019049,331.07,835,771,0
7019059,329.55,835,773,0
7019069,329.21,835,771,0
7019079,332.79,835,773,0
7019089,341.51,835,771,0
7019099,358.41,835,773,0
7019109,385.16,835,771,0
7019119,422.83,835,773,0
7019129,467.11,835,771,0
7019148,515.20,833,769,0
7019151,563.40,833,771,0
7019160,609.14,833,773,0
7019170,649.12,833,770,0
7019180,680.63,833,773,0
7019190,702.68,833,771,0
7019200,718.16,833,774,0
7019210,729.00,833,770,0
7019220,736.59,833,773,0
7019230,741.85,833,771,0
7019240,745.63,833,774,0
7019250,748.27,833,771,0
7019260,750.16,833,773,0
7019270,751.44,833,771,0
7019280,752.38,833,773,0
7019290,748.54,833,771,0
7019300,737.92,833,773,0
7019310,718.53,833,770,0
7019320,690.73,833,773,0
7019330,653.87,833,770,0
7019340,609.42,833,773,0
7019351,557.74,833,771,0
7019361,505.66,833,774,0
7019371,455.92,833,770,0
7019381,413.30,833,773,0
7019392,377.72,833,771,0
7019401,352.18,833,773,0
7019411,334.98,833,770,0
7019421,327.57,833,773,0
7019431,326.93,833,771,0
7019441,333.47,833,773,0
7019451,343.05,833,770,0
7019461,356.50,833,773,0
7019471,369.50,833,771,0
7019481,382.94,833,773,0
7019491,393.33,833,771,0
7019501,401.97,833,773,0
7019511,406.35,833,771,0
7019521,408.30,833,773,0
7019531,405.64,833,770,0
7019541,400.95,833,773,0
7019551,392.35,833,771,0
7019561,382.52,833,773,0
7019571,369.85,833,770,0
7019581,357.04,833,773,0
7019591,342.54,833,771,0
7019601,329.31,833,773,0
7019611,315.54,833,770,0
7019621,304.15,833,773,0
7019631,293.18,833,771,0
7019641,285.24,833,773,0
7019651,278.10,833,771,0
7019661,274.17,833,773,0
7019671,270.82,833,771,0
7019681,270.44,833,773,0
7019692,270.44,833,771,0
7019702,272.71,833,773,0
7019712,274.55,833,771,0
7019722,278.20,833,773,0
7019732,281.14,833,771,0
7019742,285.43,833,773,0
7019752,288.68,833,771,0
7019762,293.11,833,773,0
7019772,296.55,833,771,0
7019782,301.23,833,773,0
7019792,304.72,833,771,0
7019802,309.30,833,773,0
7019812,312.30,833,772,0
7019822,315.85,833,773,0
7019832,317.40,833,771,0
7019842,319.21,833,773,0
7019852,319.02,833,771,0
7019863,319.22,833,773,0
7019873,317.61,833,772,0
7019883,317.47,833,773,0
7019893,317.46,833,772,0
7019904,321.31,833,773,0
7019913,328.76,833,771,0
7019923,344.30,833,773,0
7019933,368.34,833,772,0
7019943,404.62,833,773,0
7019962,447.98,814,772,0
7019965,496.33,814,773,0
7019974,545.56,814,773,0
7019984,593.69,814,773,0
7019994,636.51,814,772,0
7020004,671.89,814,773,0
7020014,696.69,814,773,0
7020024,714.10,814,773,0
7020034,726.24,814,772,0
7020044,734.78,814,773,0
7020054,740.72,814,773,0
7020064,744.92,814,773,0
7020075,747.81,814,773,0
7020084,749.84,814,773,0
7020094,751.22,814,773,0
7020104,752.22,814,773,0
7020114,752.89,814,773,0
7020124,753.39,814,773,0
7020134,751.30,814,773,0
7020144,744.10,814,772,0
7020154,728.60,814,772,0
7020164,705.19,814,773,0
7020174,673.03,814,772,0
7020184,632.99,814,772,0
7020194,585.72,814,772,0
7020204,535.71,814,773,0
7020214,486.42,814,773,0
7020224,443.18,814,772,0
7020234,406.44,814,772,0
7020244,378.58,814,772,0
7020254,359.34,814,773,0
7020264,348.86,814,772,0
7020274,344.92,814,773,0
7020284,347.17,814,772,0
7020294,352.82,814,773,0
7020304,361.45,814,772,0
7020314,370.48,814,773,0
7020324,379.34,814,772,0
7020334,386.22,814,772,0
7020344,391.43,814,772,0
7020354,393.48,814,773,0
7020364,393.17,814,772,0
7020375,389.52,814,773,0
7020385,383.58,814,772,0
7020395,375.22,814,773,0
7020405,365.38,814,772,0
7020416,354.12,814,773,0
7020425,342.60,814,772,0
7020435,330.85,814,773,0
7020445,319.58,814,772,0
7020455,309.12,814,773,0
7020465,299.87,814,772,0
7020475,292.02,814,773,0
7020485,285.67,814,772,0
7020495,280.84,814,773,0
7020505,277.59,814,772,0
7020515,275.83,814,773,0
7020525,275.32,814,772,0
7020535,276.00,814,773,0
7020545,277.75,814,772,0
7020555,280.36,814,773,0
7020565,283.51,814,771,0
7020575,287.21,814,773,0
7020585,290.96,814,771,0
7020595,294.83,814,773,0
7020605,298.57,814,771,0
7020615,302.17,814,773,0
7020625,305.29,814,771,0
7020635,308.25,814,773,0
7020645,310.57,814,771,0
7020655,312.67,814,773,0
7020665,314.18,814,771,0
7020675,315.07,814,773,0
7020685,315.22,814,771,0
7020695,315.11,814,773,0
7020705,314.56,814,771,0
7020716,314.82,814,773,0
7020726,316.72,814,771,0
7020736,322.46,814,773,0
7020746,333.81,814,771,0
7020756,353.84,814,773,0
7020766,384.01,814,771,0
7020776,424.17,814,774,0
7020795,470.27,833,772,0
7020798,519.56,833,775,0
7020807,568.47,833,771,0
7020817,614.40,833,774,0
7020827,653.58,833,771,0
7020837,683.92,833,774,0
7020847,705.16,833,771,0
7020857,720.07,833,774,0
7020867,730.46,833,771,0
7020877,737.78,833,774,0
7020887,742.86,833,771,0
7020897,746.42,833,774,0
7020907,748.86,833,771,0
7020917,750.58,833,773,0
7020928,751.73,833,770,0
7020937,752.07,833,774,0
7020947,747.08,833,771,0
7020957,735.14,833,773,0
7020967,713.88,833,770,0
7020977,684.30,833,774,0
7020987,645.73,833,771,0
7020997,599.87,833,773,0
7021007,547.32,833,770,0
7021017,495.11,833,774,0
7021027,445.49,833,771,0
7021037,403.43,833,773,0
7021047,368.20,833,770,0
7021057,342.85,833,774,0
7021067,325.76,833,771,0
7021077,318.11,833,773,0
7021087,316.92,833,770,0
7021097,322.99,833,773,0
7021107,332.55,833,770,0
7021117,345.97,833,773,0
7021127,359.48,833,770,0
7021137,373.48,833,773,0
7021147,385.12,833,770,0
7021157,395.20,833,773,0
7021167,400.92,833,770,0
7021177,403.99,833,774,0
7021187,402.71,833,771,0
7021197,399.02,833,773,0
7021207,391.35,833,770,0
7021217,382.24,833,774,0
7021228,370.43,833,771,0
7021238,358.60,833,773,0
7021248,345.18,833,771,0
7021258,332.99,833,773,0
7021268,320.18,833,771,0
7021278,309.41,833,773,0
7021288,298.70,833,771,0
7021298,290.61,833,774,0
7021308,282.92,833,771,0
7021318,278.19,833,773,0
7021328,273.72,833,771,0
7021338,272.17,833,773,0
7021348,270.97,833,771,0
7021358,272.35,833,773,0
7021368,273.70,833,771,0
7021378,277.18,833,773,0
7021388,280.29,833,771,0
7021399,285.22,833,773,0
7021409,289.44,833,771,0
7021419,295.09,833,773,0
7021429,299.61,833,771,0
7021440,305.04,833,773,0
7021449,309.01,833,771,0
7021459,313.60,833,773,0
7021469,316.25,833,771,0
7021479,319.09,833,773,0
7021489,319.83,833,771,0
7021499,320.91,833,773,0
7021509,320.34,833,771,0
7021519,321.01,833,773,0
7021529,321.09,833,771,0
7021539,324.32,833,773,0
7021549,330.48,833,771,0
7021559,344.05,833,773,0
7021569,364.65,833,771,0
7021579,396.73,833,773,0
7021589,436.92,833,772,0
7021599,483.32,833,773,0
7021619,531.57,823,772,0
7021622,579.57,823,773,0
7021631,623.15,823,773,0
7021641,660.91,823,773,0
7021651,688.96,823,773,0
7021661,708.65,823,773,0
7021671,722.38,823,773,0
7021681,732.04,823,773,0
7021691,738.80,823,773,0
7021701,743.53,823,773,0
7021711,746.80,823,773,0
7021721,749.09,823,772,0
7021731,750.69,823,773,0
7021741,750.61,823,773,0
7021751,744.30,823,773,0
7021761,730.45,823,772,0
7021771,707.30,823,773,0
7021782,675.33,823,772,0
7021791,634.69,823,772,0
7021801,587.08,823,773,0
7021811,534.30,823,773,0
7021821,483.08,823,772,0
7021831,435.70,823,773,0
7021841,396.02,823,773,0
7021851,364.47,823,773,0
7021861,342.60,823,772,0
7021871,329.18,823,772,0
7021881,324.92,823,772,0
7021891,327.52,823,773,0
7021901,336.71,823,772,0
7021911,349.69,823,772,0
7021921,365.81,823,772,0
7021931,382.16,823,772,0
7021941,398.18,823,772,0
7021952,411.50,823,773,0
7021961,422.23,823,772,0
7021971,428.64,823,773,0
7021981,431.36,823,772,0
7021991,429.28,823,773,0
7022001,423.84,823,773,0
7022011,414.59,823,773,0
7022021,402.75,823,772,0
7022031,388.26,823,773,0
7022041,372.88,823,772,0
7022051,356.50,823,773,0
7022061,340.79,823,772,0
7022071,325.60,823,773,0
7022081,312.13,823,772,0
7022091,300.14,823,773,0
7022101,290.54,823,772,0
7022111,282.71,823,773,0
7022121,277.44,823,772,0
7022131,273.83,823,773,0
7022141,272.47,823,772,0
7022151,272.41,823,773,0
7022161,274.26,823,772,0
7022171,277.01,823,773,0
7022181,281.12,823,772,0
7022191,285.80,823,773,0
7022201,291.26,823,772,0
7022211,296.50,823,773,0
7022221,302.00,823,772,0
7022231,306.85,823,773,0
7022241,311.39,823,772,0
7022252,315.00,823,773,0
7022262,317.83,823,771,0
7022272,319.98,823,773,0
7022282,321.96,823,771,0
7022292,324.67,823,773,0
7022302,329.48,823,771,0
7022312,337.95,823,773,0
7022322,352.67,823,771,0
7022332,375.78,823,773,0
7022342,408.72,823,772,0
7022352,449.86,823,773,0
7022362,495.50,823,771,0
7022372,543.05,823,773,0
7022382,589.58,823,772,0
7022401,631.79,783,770,0
7022404,667.04,783,771,0
7022413,693.30,783,774,0
7022423,711.68,783,771,0
7022433,724.55,783,773,0
7022443,733.51,783,771,0
7022453,739.79,783,774,0
7022464,744.18,783,771,0
7022473,747.25,783,773,0
7022483,749.36,783,771,0
7022493,750.88,783,774,0
7022503,751.95,783,771,0
7022513,750.68,783,773,0
7022523,743.45,783,771,0
7022533,728.70,783,773,0
7022543,704.53,783,770,0
7022553,672.19,783,773,0
7022563,631.20,783,771,0
7022573,583.18,783,773,0
7022583,530.76,783,771,0
7022593,479.70,783,773,0
7022603,433.03,783,771,0
7022613,394.54,783,773,0
7022623,363.73,783,771,0
7022633,342.56,783,773,0
7022643,329.79,783,771,0
7022653,325.95,783,773,0
7022663,328.28,783,771,0
7022673,336.25,783,773,0
7022683,347.15,783,771,0
7022693,360.56,783,773,0
7022703,373.85,783,771,0
7022713,386.84,783,773,0
7022723,397.22,783,771,0
7022733,405.64,783,773,0
7022743,410.07,783,771,0
7022753,411.59,783,773,0
7022764,408.84,783,771,0
7022774,403.58,783,773,0
7022784,394.58,783,770,0
7022794,384.03,783,773,0
7022804,371.08,783,771,0
7022814,358.03,783,773,0
7022824,343.92,783,770,0
7022834,331.09,783,773,0
7022844,318.16,783,771,0
7022854,307.48,783,774,0
7022864,297.40,783,771,0
7022874,290.29,783,773,0
7022884,283.82,783,771,0
7022894,280.02,783,773,0
7022904,276.75,783,770,0
7022914,276.23,783,773,0
7022924,276.03,783,771,0
7022935,278.21,783,773,0
7022945,280.12,783,770,0
7022955,284.45,783,773,0
7022965,288.43,783,771,0
7022976,294.30,783,773,0
7022985,299.01,783,771,0
7022995,304.75,783,773,0
7023005,309.07,783,771,0
7023015,313.85,783,773,0
7023025,316.46,783,771,0
7023035,319.41,783,773,0
7023045,320.36,783,771,0
7023055,322.18,783,773,0
7023065,323.20,783,770,0
7023075,326.78,783,773,0
7023085,332.68,783,771,0
7023095,345.20,783,773,0
7023105,364.17,783,770,0
7023115,394.03,783,773,0
7023125,432.72,783,771,0
7023135,478.02,783,773,0
7023145,525.54,783,771,0
7023164,573.47,763,769,0
7023167,617.55,763,774,0
7023176,656.35,763,773,0
7023186,685.81,763,772,0
7023196,706.53,763,773,0
7023206,720.98,763,771,0
7023216,731.15,763,773,0
7023226,738.17,763,772,0
7023236,743.14,763,773,0
7023246,746.57,763,771,0
7023256,749.01,763,773,0
7023266,750.64,763,772,0
7023276,751.82,763,773,0
7023286,752.60,763,771,0
7023296,752.59,763,773,0
7023306,747.06,763,772,0
7023316,734.87,763,773,0
7023326,713.95,763,771,0
7023336,685.29,763,773,0
7023346,647.96,763,772,0
7023356,604.22,763,773,0
7023366,554.44,763,771,0
7023376,506.09,763,773,0
7023386,460.46,763,772,0
7023396,422.18,763,773,0
7023406,390.20,763,771,0
7023416,367.51,763,773,0
7023426,351.84,763,771,0
7023436,344.78,763,773,0
7023447,343.00,763,772,0
7023457,347.29,763,773,0
7023467,354.23,763,772,0
7023477,364.19,763,773,0
7023488,373.99,763,772,0
7023497,383.85,763,773,0
7023507,391.09,763,772,0
7023517,396.72,763,773,0
7023527,398.69,763,772,0
7023537,398.40,763,773,0
7023547,394.29,763,772,0
7023557,388.21,763,773,0
7023567,379.10,763,772,0
7023577,369.38,763,773,0
7023587,357.66,763,772,0
7023597,346.14,763,773,0
7023607,333.67,763,772,0
7023617,322.71,763,773,0
7023627,311.91,763,772,0
7023637,303.24,763,773,0
7023647,295.07,763,772,0
7023657,289.18,763,773,0
7023667,284.07,763,772,0
7023677,281.39,763,773,0
7023687,279.43,763,772,0
7023697,279.64,763,773,0
7023707,280.35,763,772,0
7023717,282.90,763,773,0
7023727,285.76,763,772,0
7023737,290.03,763,773,0
7023747,293.97,763,772,0
7023757,298.90,763,773,0
7023767,303.05,763,772,0
7023777,307.62,763,773,0
7023788,311.03,763,773,0
7023798,314.37,763,772,0
7023808,316.53,763,773,0
7023818,318.94,763,772,0
7023828,319.94,763,773,0
7023838,321.03,763,772,0
7023848,321.67,763,773,0
7023858,323.91,763,772,0
7023868,328.82,763,773,0
7023878,338.73,763,772,0
7023888,354.84,763,773,0
7023898,380.73,763,772,0
7023908,417.24,763,773,0
7023918,461.10,763,772,0
7023928,508.64,763,773,0
7023947,556.92,783,772,0
7023950,603.01,783,773,0
7023959,644.24,783,772,0
7023969,677.34,783,773,0
7023979,700.51,783,771,0
7023989,716.73,783,773,0
7024000,728.12,783,771,0
7024009,736.14,783,773,0
7024019,741.76,783,771,0
7024029,745.69,783,774,0
7024039,748.44,783,771,0
7024049,750.41,783,773,0
7024059,751.74,783,771,0
7024069,751.82,783,774,0
7024079,747.20,783,771,0
7024089,735.96,783,773,0
7024099,716.47,783,771,0
7024109,688.43,783,773,0
7024119,651.83,783,771,0
7024129,608.25,783,774,0
7024139,559.02,783,771,0
7024149,509.17,783,773,0
7024159,461.72,783,771,0
7024169,420.15,783,773,0
7024179,385.86,783,771,0
7024189,360.10,783,773,0
7024199,342.07,783,771,0
7024209,332.28,783,773,0
7024219,329.37,783,771,0
7024229,332.69,783,773,0
7024239,340.49,783,771,0
7024249,351.27,783,773,0
7024259,363.15,783,771,0
7024269,375.15,783,773,0
7024279,385.30,783,771,0
7024289,393.66,783,773,0
7024300,398.56,783,771,0
7024310,400.15,783,773,0
7024320,397.79,783,771,0
7024330,392.75,783,773,0
7024340,384.34,783,770,0
7024350,374.34,783,774,0
7024360,361.98,783,771,0
7024370,349.86,783,773,0
7024380,336.57,783,770,0
7024390,324.10,783,774,0
7024400,311.60,783,771,0
7024410,300.79,783,773,0
7024420,290.57,783,771,0
7024430,282.34,783,774,0
7024440,274.52,783,771,0
7024450,269.14,783,773,0
7024460,264.98,783,771,0
7024471,263.23,783,774,0
7024481,262.18,783,771,0
7024491,263.28,783,773,0
7024501,264.82,783,770,0
7024512,268.22,783,774,0
7024521,271.71,783,771,0
7024531,276.55,783,773,0
7024541,280.67,783,770,0
7024551,286.09,783,773,0
7024561,290.43,783,771,0
7024571,295.49,783,773,0
7024581,298.90,783,770,0
7024591,302.57,783,774,0
7024601,304.37,783,771,0
7024611,306.32,783,773,0
7024621,306.48,783,770,0
7024631,307.28,783,774,0
7024641,307.49,783,771,0
7024651,310.56,783,773,0
7024661,316.26,783,770,0
7024671,328.53,783,773,0
7024681,347.66,783,771,0
7024691,377.03,783,773,0
7024701,415.94,783,770,0
7024711,462.03,783,773,0
7024721,510.83,783,771,0
7024740,560.08,793,769,0
7024743,605.96,793,772,0
7024752,646.51,793,773,0
7024762,678.63,793,771,0
7024772,701.46,793,774,0
7024782,717.39,793,771,0
7024792,728.59,793,773,0
7024802,736.38,793,771,0
7024812,741.84,793,773,0
7024822,745.62,793,771,0
7024832,748.30,793,773,0
7024842,748.64,793,771,0
7024852,744.81,793,773,0
7024862,734.06,793,771,0
7024872,715.74,793,773,0
7024882,688.09,793,771,0
7024892,652.58,793,773,0
7024902,608.86,793,771,0
7024912,560.52,793,773,0
7024922,509.88,793,771,0
7024932,462.39,793,773,0
7024942,419.07,793,771,0
7024952,384.25,793,773,0
7024962,356.49,793,771,0
7024972,338.86,793,773,0
7024983,328.53,793,771,0
7024993,327.04,793,773,0
7025003,330.93,793,771,0
7025013,341.02,793,773,0
7025024,353.40,793,772,0
7025033,368.67,793,773,0
7025043,382.48,793,772,0
7025053,396.18,793,773,0
7025063,406.03,793,772,0
7025073,413.48,793,773,0
7025083,415.95,793,772,0
7025093,415.28,793,773,0
7025103,409.79,793,772,0
7025113,401.97,793,773,0
7025123,390.28,793,772,0
7025133,377.85,793,773,0
7025143,363.33,793,772,0
7025153,349.64,793,773,0
7025163,335.18,793,772,0
7025173,322.70,793,773,0
7025183,310.40,793,772,0
7025193,300.90,793,773,0
7025203,292.01,793,772,0
7025213,285.88,793,773,0
7025223,280.34,793,772,0
7025233,278.01,793,773,0
7025243,276.29,793,772,0
7025253,277.32,793,773,0
7025263,278.68,793,772,0
7025273,282.51,793,773,0
7025283,286.73,793,772,0
7025293,292.94,793,773,0
7025303,298.78,793,772,0
7025313,305.79,793,773,0
7025324,311.73,793,772,0
7025334,318.02,793,773,0
7025344,322.77,793,772,0
7025354,327.04,793,773,0
7025364,329.34,793,773,0
7025374,331.34,793,773,0
7025384,332.01,793,772,0
7025394,333.76,793,773,0
7025404,336.53,793,773,0
7025414,343.19,793,773,0
7025424,354.49,793,772,0
7025434,374.14,793,773,0
7025444,402.47,793,773,0
7025454,440.56,793,773,0
7025464,484.11,793,772,0
7025474,530.62,793,773,0
7025484,576.59,793,773,0
7025504,620.00,764,771,0
7025507,657.11,764,775,0
7025516,686.35,764,772,0
7025526,706.82,764,774,0
7025537,721.19,764,771,0
7025547,731.24,764,774,0
7025557,738.29,764,771,0
7025567,743.21,764,774,0
7025577,746.66,764,771,0
7025587,749.12,764,773,0
7025597,749.30,764,771,0
7025607,744.88,764,774,0
7025617,733.47,764,771,0
7025627,714.77,764,773,0
7025637,687.59,764,771,0
7025647,652.61,764,773,0
7025657,609.96,764,771,0
7025667,562.78,764,773,0
7025677,514.29,764,771,0
7025687,468.60,764,773,0
7025697,426.98,764,771,0
7025708,392.49,764,773,0
7025718,364.87,764,770,0
7025728,345.75,764,773,0
7025738,333.44,764,770,0
7025748,328.68,764,773,0
7025758,329.29,764,770,0
7025768,335.20,764,773,0
7025778,343.71,764,770,0
7025788,354.77,764,773,0
7025798,365.51,764,770,0
7025808,376.29,764,773,0
7025818,384.56,764,771,0
7025828,391.20,764,773,0
7025838,394.14,764,771,0
7025848,394.49,764,773,0
7025858,390.65,764,771,0
7025868,384.89,764,773,0
7025879,375.58,764,770,0
7025889,365.08,764,773,0
7025899,352.20,764,771,0
7025909,339.67,764,773,0
7025920,326.35,764,770,0
7025929,314.89,764,773,0
7025939,303.35,764,771,0
7025949,294.50,764,773,0
7025959,286.25,764,770,0
7025969,280.90,764,773,0
7025979,276.18,764,770,0
7025989,274.19,764,773,0
7025999,272.59,764,770,0
7026009,273.49,764,773,0
7026019,274.54,764,771,0
7026029,277.72,764,773,0
7026039,280.59,764,771,0
7026049,285.08,764,773,0
7026059,288.79,764,770,0
7026069,293.65,764,773,0
7026079,297.06,764,770,0
7026089,300.98,764,773,0
7026099,303.04,764,770,0
7026109,305.47,764,773,0
7026119,306.02,764,770,0
7026129,307.21,764,773,0
7026139,307.19,764,771,0
7026149,308.76,764,773,0
7026159,310.81,764,770,0
7026169,317.29,764,773,0
7026179,327.53,764,770,0
7026189,345.97,764,773,0
7026199,372.25,764,771,0
7026209,409.76,764,773,0
7026220,453.93,764,771,0
7026230,502.51,764,773,0
7026240,551.13,764,771,0
7026259,598.19,755,770,0
7026263,639.66,755,772,0
7026271,673.96,755,773,0
7026281,698.15,755,772,0
7026291,715.12,755,773,0
7026301,726.95,755,772,0
7026311,735.28,755,773,0
7026321,741.07,755,772,0
7026331,745.12,755,773,0
7026341,747.91,755,772,0
7026351,747.72,755,773,0
7026361,741.08,755,772,0
7026371,727.85,755,773,0
7026381,705.78,755,772,0
7026391,676.15,755,773,0
7026401,638.18,755,772,0
7026411,593.29,755,773,0
7026421,543.71,755,772,0
7026432,494.81,755,773,0
7026441,447.29,755,772,0
7026451,405.72,755,773,0
7026461,369.20,755,772,0
7026471,340.56,755,773,0
7026481,318.49,755,772,0
7026491,304.76,755,773,0
7026501,297.16,755,772,0
7026511,296.68,755,773,0
7026521,300.25,755,772,0
7026531,308.57,755,773,0
7026541,318.39,755,772,0
7026551,330.23,755,773,0
7026561,340.96,755,771,0
7026571,351.69,755,773,0
7026581,359.62,755,772,0
7026591,366.38,755,773,0
7026601,369.65,755,772,0
7026611,371.00,755,773,0
7026621,368.64,755,772,0
7026631,364.64,755,773,0
7026641,357.76,755,772,0
7026651,350.16,755,773,0
7026661,340.17,755,771,0
7026671,330.22,755,773,0
7026681,319.57,755,772,0
7026691,310.31,755,773,0
7026701,301.00,755,772,0
7026711,293.46,755,773,0
7026721,286.38,755,772,0
7026732,281.77,755,773,0
7026742,277.98,755,772,0
7026752,276.36,755,772,0
7026762,275.44,755,773,0
7026772,276.50,755,772,0
7026782,277.90,755,772,0
7026792,280.88,755,772,0
7026802,283.83,755,773,0
7026812,287.91,755,772,0
7026822,291.50,755,772,0
7026832,295.33,755,773,0
7026842,298.40,755,773,0
7026852,301.28,755,772,0
7026862,302.87,755,772,0
7026872,304.32,755,773,0
7026882,304.74,755,773,0
7026892,305.29,755,772,0
7026903,306.15,755,773,0
7026913,308.84,755,772,0
7026923,314.63,755,773,0
7026933,325.63,755,771,0
7026944,342.88,755,773,0
7026953,368.08,755,772,0
7026963,401.91,755,773,0
7026973,444.02,755,772,0
7026983,490.64,755,773,0
7026993,538.58,755,772,0
7027012,584.82,753,770,0
7027015,626.79,753,770,0
7027024,662.38,753,773,0
7027034,689.99,753,771,0
7027044,709.37,753,773,0
7027054,722.97,753,771,0
7027064,732.45,753,773,0
7027074,737.84,753,771,0
7027084,737.46,753,773,0
7027094,729.78,753,771,0
7027104,714.55,753,773,0
7027115,690.73,753,771,0
7027124,659.35,753,773,0
7027134,620.46,753,771,0
7027144,576.26,753,773,0
7027154,529.51,753,771,0
7027164,483.93,753,773,0
7027174,440.71,753,771,0
7027184,402.44,753,773,0
7027194,368.88,753,771,0
7027204,341.53,753,773,0
7027214,320.03,753,771,0
7027224,305.32,753,773,0
7027234,296.27,753,771,0
7027244,293.02,753,773,0
7027254,294.34,753,771,0
7027264,300.41,753,773,0
7027274,309.37,753,771,0
7027284,321.26,753,773,0
7027294,334.17,753,771,0
7027304,347.75,753,773,0
7027314,360.29,753,771,0
7027324,371.82,753,773,0
7027334,380.49,753,771,0
7027344,386.68,753,773,0
7027354,388.96,753,770,0
7027364,388.50,753,773,0
7027374,384.75,753,771,0
7027384,379.04,753,773,0
7027394,370.76,753,770,0
7027404,361.70,753,773,0
7027415,351.46,753,771,0
7027425,341.81,753,773,0
7027435,331.97,753,770,0
7027445,323.36,753,773,0
7027456,315.24,753,771,0
7027465,309.00,753,773,0
7027475,303.34,753,770,0
7027485,299.90,753,773,0
7027495,296.97,753,770,0
7027505,296.25,753,773,0
7027515,295.83,753,770,0
7027525,297.30,753,773,0
7027535,298.84,753,771,0
7027545,302.23,753,773,0
7027555,305.42,753,770,0
7027565,310.05,753,773,0
7027575,313.81,753,770,0
7027585,318.88,753,774,0
7027595,322.81,753,770,0
7027605,327.37,753,773,0
7027615,330.34,753,770,0
7027625,333.54,753,773,0
7027635,335.05,753,770,0
7027645,336.88,753,773,0
7027655,337.00,753,770,0
7027665,337.99,753,773,0
7027675,338.29,753,770,0
7027685,340.73,753,773,0
7027695,344.71,753,770,0
7027705,354.10,753,773,0
7027715,368.13,753,770,0
7027725,390.37,753,774,0
7027735,420.05,753,771,0
7027745,458.56,753,773,0
7027765,501.38,753,772,0
7027768,546.52,753,773,0
7027777,589.82,753,771,0
7027787,630.25,753,773,0
7027798,664.33,753,771,0
7027807,691.32,753,774,0
7027817,710.16,753,771,0
7027827,723.44,753,773,0
7027837,731.54,753,771,0
7027847,734.68,753,773,0
7027857,730.36,753,771,0
7027867,719.02,753,773,0
7027877,699.00,753,771,0
7027887,671.74,753,773,0
7027897,636.59,753,771,0
7027907,596.34,753,773,0
7027917,551.84,753,771,0
7027927,508.05,753,773,0
7027937,464.83,753,771,0
7027947,426.35,753,773,0
7027957,391.28,753,771,0
7027968,362.78,753,773,0
7027977,338.67,753,771,0
7027987,321.46,753,773,0
7027997,308.98,753,771,0
7028007,303.84,753,773,0
7028017,302.60,753,771,0
7028027,306.97,753,773,0
7028037,313.75,753,771,0
7028047,324.49,753,774,0
7028057,335.83,753,771,0
7028067,348.91,753,773,0
7028077,360.08,753,771,0
7028087,371.20,753,773,0
7028097,379.37,753,771,0
7028107,386.11,753,773,0
7028117,389.04,753,771,0
7028127,390.14,753,773,0
7028137,387.48,753,771,0
7028147,383.65,753,773,0
7028157,376.73,753,771,0
7028167,369.35,753,773,0
7028177,359.82,753,772,0
7028187,351.00,753,773,0
7028197,341.06,753,771,0
7028207,332.56,753,773,0
7028217,323.52,753,772,0
7028227,316.63,753,773,0
7028237,309.63,753,771,0
7028247,304.81,753,773,0
7028257,300.03,753,771,0
7028268,297.40,753,773,0
7028278,294.88,753,772,0
7028288,294.32,753,772,0
7028298,293.67,753,772,0
7028308,294.92,753,773,0
7028318,296.02,753,772,0
7028328,298.76,753,772,0
7028338,301.19,753,772,0
7028348,304.86,753,773,0
7028358,307.94,753,772,0
7028368,311.99,753,772,0
7028378,315.12,753,772,0
7028388,319.07,753,773,0
7028398,321.66,753,772,0
7028408,324.46,753,772,0
7028418,325.87,753,772,0
7028428,327.24,753,773,0
7028439,327.08,753,772,0
7028449,326.76,753,772,0
7028459,325.07,753,773,0
7028469,324.32,753,772,0
7028480,324.14,753,773,0
7028489,327.18,753,772,0
7028499,333.56,753,773,0
7028509,345.86,753,772,0
7028519,365.36,753,773,0
7028529,393.79,753,772,0
7028539,430.71,753,773,0
7028558,474.09,793,771,0
7028561,519.96,793,773,0
7028570,566.09,793,772,0
7028580,609.43,793,773,0
7028590,647.57,793,772,0
7028600,678.47,793,773,0
7028610,701.17,793,772,0
7028620,717.06,793,773,0
7028630,728.15,793,772,0
7028640,735.77,793,773,0
7028651,737.90,793,771,0
7028660,733.34,793,773,0
7028670,721.15,793,772,0
7028680,700.62,793,773,0
7028690,671.81,793,771,0
7028700,635.31,793,773,0
7028710,591.84,793,772,0
7028720,545.31,793,773,0
7028730,498.24,793,771,0
7028740,453.43,793,773,0
7028750,413.10,793,772,0
7028760,378.65,793,773,0
7028770,350.52,793,771,0
7028780,329.58,793,773,0
7028790,315.73,793,772,0
7028800,308.95,793,773,0
7028810,308.41,793,771,0
7028820,313.34,793,774,0
7028830,322.71,793,772,0
7028840,335.14,793,773,0
7028850,349.07,793,771,0
7028860,363.62,793,773,0
7028870,378.05,793,772,0
7028880,391.15,793,773,0
7028890,401.60,793,771,0
7028900,409.09,793,773,0
7028910,413.65,793,772,0
7028920,415.08,793,773,0
7028930,413.09,793,771,0
7028940,407.88,793,773,0
7028951,399.77,793,771,0
7028961,390.24,793,773,0
7028971,378.68,793,771,0
7028981,366.43,793,774,0
7028992,353.06,793,771,0
7029001,340.10,793,773,0
7029011,327.17,793,771,0
7029021,315.38,793,773,0
7029031,304.12,793,771,0
7029041,294.91,793,773,0
7029051,287.05,793,771,0
7029061,282.02,793,773,0
7029071,278.63,793,771,0
7029081,277.88,793,773,0
7029091,278.78,793,771,0
7029101,282.06,793,773,0
7029111,286.58,793,771,0
7029121,292.54,793,773,0
7029131,298.33,793,771,0
7029141,304.66,793,773,0
7029151,310.08,793,770,0
7029161,315.63,793,773,0
7029171,319.85,793,771,0
7029181,323.88,793,773,0
7029191,326.57,793,771,0
7029201,329.49,793,773,0
7029211,331.40,793,771,0
7029221,333.42,793,773,0
7029231,334.28,793,771,0
7029241,335.65,793,773,0
7029251,336.96,793,771,0
7029261,340.23,793,773,0
7029271,345.47,793,771,0
7029281,355.53,793,773,0
7029292,370.84,793,770,0
7029302,394.59,793,773,0
7029312,426.34,793,771,0
7029322,465.71,793,773,0
7029332,509.00,793,771,0
7029351,553.83,793,769,0
7029354,596.82,793,772,0
7029363,636.43,793,774,0
7029373,669.39,793,771,0
7029383,694.77,793,773,0
7029393,712.54,793,771,0
7029403,724.98,793,774,0
7029413,733.68,793,771,0
7029423,738.41,793,773,0
7029433,736.01,793,771,0
7029443,726.37,793,773,0
7029453,707.57,793,770,0
7029463,681.13,793,773,0
7029473,645.86,793,770,0
7029483,603.39,793,773,0
7029493,554.80,793,771,0
7029504,506.05,793,773,0
7029513,458.12,793,771,0
7029523,415.27,793,773,0
7029533,376.49,793,771,0
7029543,345.14,793,773,0
7029553,319.51,793,771,0
7029563,302.13,793,773,0
7029573,290.48,793,771,0
7029583,286.22,793,773,0
7029593,286.63,793,771,0
7029603,293.12,793,773,0
7029613,302.51,793,771,0
7029623,316.16,793,773,0
7029633,330.51,793,770,0
7029643,346.94,793,773,0
7029653,362.00,793,770,0
7029663,377.05,793,773,0
7029673,388.86,793,771,0
7029683,399.10,793,773,0
7029693,405.07,793,771,0
7029703,408.65,793,773,0
7029713,407.47,793,771,0
7029723,403.99,793,773,0
7029733,396.36,793,771,0
7029743,387.30,793,773,0
7029753,375.29,793,771,0
7029763,363.63,793,773,0
7029773,350.67,793,771,0
7029783,339.54,793,773,0
7029793,328.19,793,771,0
7029804,319.69,793,773,0
7029814,311.47,793,771,0
7029824,306.10,793,773,0
7029834,300.88,793,771,0
7029844,298.43,793,773,0
7029854,296.03,793,771,0
7029864,296.11,793,773,0
7029874,295.90,793,771,0
7029884,298.03,793,773,0
7029894,299.91,793,771,0
7029904,303.58,793,773,0
7029914,306.79,793,771,0
7029924,311.10,793,773,0
7029934,314.45,793,771,0
7029944,318.69,793,773,0
7029954,321.40,793,771,0
7029964,324.96,793,773,0
7029975,327.03,793,772,0
7029985,329.42,793,773,0
7029995,330.97,793,772,0
7030005,333.42,793,773,0
7030016,335.35,793,772,0
7030025,338.85,793,773,0
7030035,342.62,793,771,0
7030045,350.06,793,773,0
7030055,360.67,793,772,0
7030065,377.53,793,773,0
7030075,400.21,793,772,0
7030085,431.69,793,773,0
7030095,470.10,793,772,0
7030105,513.01,793,773,0
7030124,556.59,773,771,0
7030127,599.23,773,772,0
7030136,637.65,773,773,0
7030146,670.75,773,773,0
7030156,695.64,773,772,0
7030166,713.11,773,772,0
7030176,725.33,773,773,0
7030187,733.93,773,772,0
7030196,739.95,773,772,0
7030206,742.20,773,773,0
7030216,738.11,773,773,0
7030226,726.63,773,772,0
7030236,706.99,773,772,0
7030246,679.22,773,772,0
7030256,643.07,773,773,0
7030266,599.50,773,772,0
7030276,551.14,773,772,0
7030286,502.71,773,773,0
7030296,456.21,773,773,0
7030306,414.02,773,772,0
7030316,377.07,773,772,0
7030326,347.48,773,773,0
7030336,325.13,773,773,0
7030346,310.78,773,772,0
7030356,303.39,773,773,0
7030366,303.27,773,773,0
7030376,308.98,773,773,0
7030386,320.08,773,772,0
7030396,334.72,773,773,0
7030406,351.73,773,773,0
7030416,368.95,773,773,0
7030426,385.60,773,772,0
7030436,399.99,773,773,0
7030446,412.21,773,773,0
7030456,420.54,773,773,0
7030466,424.97,773,772,0
7030476,425.28,773,773,0
7030487,422.24,773,772,0
7030497,415.82,773,773,0
7030507,406.88,773,771,0
7030517,395.56,773,773,0
7030528,383.09,773,771,0
7030537,370.12,773,773,0
7030547,357.31,773,771,0
7030557,345.22,773,773,0
7030567,334.14,773,771,0
7030577,324.58,773,773,0
7030587,316.61,773,771,0
7030597,310.73,773,773,0
7030607,306.44,773,771,0
7030617,303.95,773,773,0
7030627,302.76,773,771,0
7030637,303.05,773,773,0
7030647,304.15,773,771,0
7030657,306.16,773,773,0
7030667,308.56,773,771,0
7030677,311.56,773,773,0
7030687,314.52,773,771,0
7030697,317.88,773,773,0
7030707,321.26,773,771,0
7030717,325.59,773,773,0
7030727,331.20,773,771,0
7030737,339.93,773,773,0
7030747,352.68,773,771,0
7030757,371.93,773,773,0
7030767,398.91,773,771,0
7030777,435.32,773,773,0
7030787,477.65,773,771,0
7030797,523.14,773,773,0
7030807,568.53,773,771,0
7030817,611.74,773,773,0
7030828,649.92,773,771,0
7030838,680.93,773,773,0
7030857,702.76,733,771,0
7030860,718.09,733,772,0
7030870,728.78,733,770,0
7030879,736.30,733,773,0
7030889,741.53,733,770,0
7030899,745.18,733,773,0
7030909,747.06,733,771,0
7030919,745.41,733,773,0
7030929,737.27,733,770,0
7030939,721.81,733,773,0
7030949,697.61,733,770,0
7030959,665.62,733,773,0
7030969,625.32,733,770,0
7030979,579.20,733,773,0
7030989,529.47,733,771,0
7030999,481.71,733,773,0
7031009,437.14,733,770,0
7031019,399.77,733,773,0
7031029,368.98,733,770,0
7031040,347.56,733,773,0
7031049,333.46,733,770,0
7031059,328.35,733,773,0
7031069,329.32,733,770,0
7031079,336.98,733,773,0
7031089,347.83,733,770,0
7031099,362.41,733,773,0
7031109,377.29,733,770,0
7031119,393.36,733,773,0
7031129,407.39,733,770,0
7031139,420.30,733,773,0
7031149,429.90,733,770,0
7031159,437.60,733,773,0
7031169,441.36,733,770,0
7031179,442.88,733,774,0
7031189,440.09,733,770,0
7031199,435.52,733,773,0
7031209,427.39,733,770,0
7031219,418.49,733,774,0
7031229,407.20,733,770,0
7031239,396.04,733,773,0
7031249,383.47,733,770,0
7031259,372.36,733,774,0
7031269,360.68,733,770,0
7031279,351.13,733,773,0
7031289,341.62,733,770,0
7031299,334.58,733,773,0
7031309,328.15,733,770,0
7031319,324.29,733,773,0
7031329,320.82,733,770,0
7031340,319.89,733,773,0
7031350,319.32,733,770,0
7031360,320.98,733,773,0
7031370,322.62,733,771,0
7031380,326.12,733,773,0
7031390,329.64,733,770,0
7031400,335.58,733,773,0
7031410,342.47,733,771,0
7031420,353.65,733,773,0
7031430,368.15,733,770,0
7031440,389.96,733,773,0
7031450,418.52,733,771,0
7031460,455.78,733,773,0
7031470,497.37,733,771,0
7031480,541.66,733,773,0
7031490,584.79,733,771,0
7031500,625.74,733,773,0
7031511,660.79,733,771,0
7031521,688.84,733,773,0
7031531,708.47,733,771,0
7031541,722.22,733,773,0
7031561,731.84,703,772,0
7031564,738.61,703,771,0
7031573,743.32,703,772,0
7031583,746.61,703,773,0
7031593,748.87,703,773,0
7031603,750.49,703,773,0
7031613,751.63,703,772,0
7031623,752.04,703,773,0
7031633,747.61,703,773,0
7031643,737.14,703,773,0
7031653,718.76,703,772,0
7031663,692.35,703,772,0
7031673,657.78,703,773,0
7031683,616.71,703,773,0
7031693,569.91,703,772,0
7031703,523.35,703,772,0
7031713,479.40,703,773,0
7031724,441.44,703,772,0
7031734,410.58,703,773,0
7031744,388.33,703,771,0
7031754,373.79,703,773,0
7031764,367.30,703,771,0
7031774,367.21,703,773,0
7031784,372.72,703,771,0
7031794,381.72,703,773,0
7031804,393.12,703,771,0
7031814,404.70,703,773,0
7031824,415.80,703,772,0
7031834,424.69,703,773,0
7031844,431.08,703,771,0
7031854,434.19,703,773,0
7031864,434.09,703,772,0
7031874,430.72,703,773,0
7031884,424.72,703,772,0
7031895,416.06,703,773,0
7031905,405.67,703,771,0
7031915,393.98,703,773,0
7031925,381.43,703,771,0
7031936,369.13,703,773,0
7031945,357.13,703,771,0
7031955,346.17,703,773,0
7031965,336.22,703,771,0
7031975,328.09,703,773,0
7031985,321.55,703,771,0
7031995,317.06,703,773,0
7032005,314.00,703,771,0
7032015,312.97,703,773,0
7032025,313.24,703,771,0
7032035,315.01,703,774,0
7032045,317.45,703,771,0
7032055,320.66,703,773,0
7032065,324.02,703,771,0
7032075,327.61,703,773,0
7032085,330.60,703,771,0
7032095,333.55,703,773,0
7032105,335.96,703,770,0
7032115,339.10,703,774,0
7032125,342.97,703,771,0
7032135,349.71,703,773,0
7032145,360.21,703,770,0
7032155,376.95,703,774,0
7032165,401.35,703,771,0
7032175,435.57,703,774,0
7032185,475.99,703,770,0
7032195,520.22,703,774,0
7032205,564.85,703,771,0
7032215,607.93,703,773,0
7032225,646.52,703,771,0
7032236,678.34,703,774,0
7032255,701.12,695,772,0
7032258,717.11,695,776,0
7032267,728.31,695,770,0
7032278,736.19,695,774,0
7032287,741.66,695,770,0
7032297,745.53,695,773,0
7032307,748.20,695,770,0
7032317,750.11,695,774,0
7032327,751.41,695,770,0
7032337,752.36,695,773,0
7032347,749.38,695,770,0
7032357,740.78,695,774,0
7032367,724.26,695,770,0
7032377,699.75,695,773,0
7032387,666.40,695,770,0
7032397,625.78,695,774,0
7032407,577.93,695,770,0
7032417,528.45,695,773,0
7032427,479.63,695,770,0
7032437,435.98,695,773,0
7032448,398.32,695,770,0
7032457,369.59,695,773,0
7032467,348.24,695,770,0
7032477,335.74,695,773,0
7032487,329.73,695,770,0
7032497,330.93,695,773,0
7032507,336.39,695,770,0
7032517,346.39,695,773,0
7032527,357.76,695,770,0
7032537,370.90,695,773,0
7032547,382.72,695,770,0
7032557,394.16,695,773,0
7032567,402.38,695,770,0
7032577,408.95,695,773,0
7032587,411.32,695,770,0
7032597,411.36,695,773,0
7032607,407.26,695,770,0
7032617,401.31,695,773,0
7032627,392.13,695,770,0
7032637,382.28,695,773,0
7032647,370.45,695,770,0
7032657,359.17,695,773,0
7032667,347.12,695,770,0
7032677,336.54,695,773,0
7032687,326.18,695,770,0
7032697,318.03,695,773,0
7032707,310.52,695,770,0
7032717,305.05,695,773,0
7032727,299.68,695,770,0
7032737,296.09,695,773,0
7032748,292.63,695,770,0
7032758,291.03,695,773,0
7032768,289.35,695,770,0
7032778,289.50,695,773,0
7032788,289.74,695,771,0
7032798,291.92,695,773,0
7032808,294.00,695,771,0
7032818,297.81,695,773,0
7032828,301.21,695,771,0
7032838,305.91,695,773,0
7032848,309.66,695,771,0
7032858,314.01,695,773,0
7032868,317.18,695,771,0
7032878,320.77,695,773,0
7032888,322.72,695,771,0
7032898,324.86,695,773,0
7032908,325.38,695,771,0
7032919,326.46,695,773,0
7032929,327.40,695,771,0
7032939,331.09,695,773,0
7032949,337.71,695,772,0
7032960,350.69,695,772,0
7032969,370.11,695,771,0
7032979,399.35,695,773,0
7032989,437.47,695,772,0
7032999,481.82,695,773,0
7033018,528.33,763,772,0
7033021,574.73,763,772,0
7033030,617.63,763,772,0
7033040,655.37,763,773,0
7033050,684.96,763,772,0
7033060,705.84,763,773,0
7033070,720.42,763,772,0
7033080,730.66,763,773,0
7033090,737.79,763,772,0
7033100,742.78,763,773,0
7033110,746.28,763,772,0
7033120,748.72,763,773,0
7033131,747.05,763,773,0
7033140,740.09,763,773,0
7033150,725.92,763,772,0
7033160,704.34,763,773,0
7033170,674.93,763,773,0
7033180,638.78,763,773,0
7033190,595.77,763,772,0
7033200,550.67,763,772,0
7033210,505.51,763,773,0
7033220,464.04,763,773,0
7033230,427.22,763,772,0
7033240,397.32,763,773,0
7033250,373.70,763,773,0
7033260,357.97,763,773,0
7033270,348.64,763,772,0
7033280,345.96,763,772,0
7033290,348.16,763,773,0
7033300,355.10,763,772,0
7033310,364.20,763,772,0
7033320,374.94,763,773,0
7033330,385.16,763,772,0
7033340,394.84,763,772,0
7033350,402.60,763,772,0
7033360,408.33,763,773,0
7033370,410.68,763,772,0
7033380,410.39,763,772,0
7033390,407.40,763,773,0
7033400,402.48,763,773,0
7033410,395.05,763,772,0
7033420,386.04,763,772,0
7033431,375.44,763,773,0
7033441,364.46,763,772,0
7033451,353.23,763,773,0
7033461,342.23,763,771,0
7033472,331.57,763,773,0
7033481,322.27,763,772,0
7033491,314.09,763,773,0
7033501,307.59,763,772,0
7033511,302.79,763,773,0
7033521,299.64,763,772,0
7033531,298.03,763,773,0
7033541,297.68,763,772,0
7033551,298.80,763,773,0
7033561,300.92,763,772,0
7033571,303.94,763,773,0
7033581,307.43,763,772,0
7033591,311.42,763,773,0
7033601,315.66,763,772,0
7033611,319.88,763,773,0
7033621,323.51,763,772,0
7033631,326.83,763,773,0
7033641,329.37,763,771,0
7033651,331.27,763,773,0
7033661,332.52,763,772,0
7033671,332.88,763,773,0
7033681,332.66,763,771,0
7033691,332.20,763,773,0
7033701,332.01,763,772,0
7033711,333.17,763,773,0
7033721,336.50,763,771,0
7033731,343.29,763,773,0
7033741,355.21,763,771,0
7033751,373.96,763,773,0
7033761,400.16,763,771,0
7033772,434.14,763,773,0
7033782,474.68,763,771,0
7033801,518.62,783,769,0
7033804,562.88,783,772,0
7033814,604.96,783,773,0
7033823,642.43,783,770,0
7033833,673.84,783,773,0
7033843,697.97,783,770,0
7033853,714.91,783,773,0
7033863,726.72,783,771,0
7033873,733.36,783,774,0
7033883,733.47,783,770,0
7033893,727.03,783,773,0
7033903,713.31,783,771,0
7033913,692.60,783,773,0
7033923,664.39,783,770,0
7033933,630.03,783,773,0
7033943,591.28,783,771,0
7033953,551.72,783,773,0
7033963,512.04,783,771,0
7033973,475.04,783,773,0
7033984,440.91,783,771,0
7033993,412.40,783,773,0
7034003,388.15,783,771,0
7034013,369.89,783,773,0
7034023,356.34,783,770,0
7034033,348.95,783,773,0
7034043,345.84,783,771,0
7034053,347.94,783,773,0
7034063,352.72,783,770,0
7034073,360.73,783,773,0
7034083,369.60,783,770,0
7034093,379.62,783,773,0
7034103,388.30,783,770,0
7034113,396.31,783,773,0
7034123,401.62,783,771,0
7034133,405.08,783,773,0
7034143,405.40,783,770,0
7034153,403.61,783,773,0
7034163,398.80,783,770,0
7034173,393.03,783,773,0
7034183,385.01,783,770,0
7034193,377.08,783,773,0
7034203,368.14,783,771,0
7034213,360.13,783,773,0
7034223,352.03,783,770,0
7034233,345.72,783,773,0
7034243,339.59,783,770,0
7034253,335.34,783,773,0
7034263,330.95,783,770,0
7034273,328.10,783,773,0
7034284,324.98,783,770,0
7034294,323.23,783,773,0
7034304,320.76,783,770,0
7034314,319.29,783,773,0
7034324,317.32,783,770,0
7034334,316.41,783,773,0
7034344,315.04,783,770,0
7034354,314.86,783,773,0
7034364,314.00,783,770,0
7034374,314.77,783,773,0
7034384,315.01,783,770,0
7034394,316.64,783,773,0
7034404,317.86,783,770,0
7034414,320.60,783,773,0
7034424,322.69,783,770,0
7034434,325.87,783,773,0
7034444,327.88,783,770,0
7034455,330.92,783,773,0
7034465,332.57,783,770,0
7034475,334.93,783,773,0
7034485,335.42,783,771,0
7034496,336.24,783,773,0
7034505,335.44,783,770,0
7034515,335.18,783,773,0
7034525,333.88,783,771,0
7034535,334.17,783,773,0
7034545,334.89,783,770,0
7034555,339.30,783,773,0
7034565,347.09,783,771,0
7034575,361.59,783,773,0
7034585,381.86,783,770,0
7034604,410.79,803,770,0
7034607,446.85,803,773,0
7034616,488.94,803,773,0
7034626,532.93,803,771,0
7034636,576.84,803,773,0
7034646,617.34,803,772,0
7034656,653.54,803,773,0
7034667,682.52,803,772,0
7034676,704.14,803,774,0
7034686,719.22,803,772,0
7034696,729.83,803,773,0
7034706,736.39,803,772,0
7034716,739.28,803,773,0
7034726,736.45,803,772,0
7034736,728.30,803,773,0
7034746,713.64,803,772,0
7034756,693.56,803,773,0
7034766,667.34,803,771,0
7034776,636.81,803,773,0
7034786,602.45,803,772,0
7034796,568.42,803,773,0
7034806,534.48,803,772,0
7034816,503.73,803,773,0
7034826,475.10,803,772,0
7034836,450.98,803,773,0
7034846,430.37,803,772,0
7034856,415.05,803,773,0
7034866,403.16,803,772,0
7034876,396.38,803,773,0
7034886,392.50,803,772,0
7034896,392.91,803,773,0
7034906,395.29,803,772,0
7034916,400.48,803,773,0
7034926,406.16,803,772,0
7034936,413.06,803,773,0
7034946,418.87,803,772,0
7034956,424.48,803,773,0
7034967,427.72,803,772,0
7034977,429.69,803,773,0
7034987,428.97,803,772,0
7034997,426.71,803,773,0
7035008,422.08,803,773,0
7035017,416.40,803,773,0
7035027,408.99,803,773,0
7035037,401.15,803,772,0
7035047,392.11,803,773,0
7035057,383.29,803,773,0
7035067,373.82,803,772,0
7035077,364.96,803,772,0
7035087,356.06,803,773,0
7035097,348.24,803,773,0
7035107,340.80,803,772,0
7035117,334.94,803,772,0
7035127,329.52,803,773,0
7035137,325.76,803,773,0
7035147,322.40,803,772,0
7035157,320.48,803,772,0
7035167,318.92,803,773,0
7035177,318.69,803,772,0
7035187,318.61,803,772,0
7035197,319.71,803,772,0
7035207,320.83,803,773,0
7035217,322.77,803,772,0
7035227,324.51,803,772,0
7035237,326.88,803,772,0
7035247,328.93,803,773,0
7035257,331.44,803,772,0
7035267,333.32,803,772,0
7035277,327.74,803,728,0
7035287,309.39,803,731,0
7035297,282.32,803,723,0
7035308,248.62,803,752,0
7035318,228.12,803,759,0
7035328,222.86,803,752,0
7035338,226.93,803,756,0
7035348,245.33,803,756,0
7035358,279.52,803,755,0
7035368,332.16,803,769,0
7035378,401.11,803,769,0
7035388,464.04,803,771,0
7035398,507.83,803,766,0
7035417,540.06,813,768,0
7035420,560.96,813,770,0
7035429,575.16,813,771,0
7035439,576.44,813,768,0
7035449,566.96,813,771,0
7035459,551.59,813,769,0
7035469,542.58,813,771,0
7035479,540.14,813,769,0
7035489,547.38,813,771,0
7035499,563.38,813,769,0
7035509,586.80,813,770,0
7035520,613.64,813,768,0
7035529,641.22,813,771,0
7035548,667.47,0,773,0
7035551,690.51,0,776,0
7035560,708.96,0,772,0
7035570,722.43,0,775,0
7035580,731.94,0,772,0
7035590,737.66,0,774,0
7035600,737.89,0,772,0
7035610,732.65,0,774,0
7035620,721.19,0,772,0
7035630,704.03,0,774,0
7035640,680.53,0,771,0
7035650,651.75,0,774,0
7035660,618.65,0,771,0
7035670,584.94,0,774,0
7035680,550.72,0,771,0
7035691,518.96,0,775,0
7035700,489.19,0,771,0
7035710,463.67,0,774,0
7035720,441.61,0,771,0
7035730,424.84,0,774,0
7035740,412.20,0,771,0
7035750,405.20,0,774,0
7035760,401.75,0,771,0
7035770,402.99,0,774,0
7035780,406.80,0,771,0
7035790,413.76,0,774,0
7035800,420.78,0,771,0
7035810,428.43,0,774,0
7035820,434.30,0,772,0
7035830,439.14,0,774,0
7035840,440.94,0,771,0
7035850,440.87,0,774,0
7035860,437.18,0,771,0
7035870,432.16,0,774,0
7035880,424.18,0,771,0
7035890,415.34,0,774,0
7035900,404.57,0,771,0
7035910,393.90,0,775,0
7035920,382.31,0,771,0
7035930,371.89,0,774,0
7035940,361.38,0,771,0
7035950,352.57,0,775,0
7035960,344.13,0,771,0
7035970,337.62,0,774,0
7035980,331.56,0,771,0
7035991,327.49,0,775,0
7036001,323.49,0,771,0
7036011,321.11,0,774,0
7036021,318.76,0,771,0
7036032,317.89,0,775,0
7036041,316.77,0,771,0
7036051,316.97,0,774,0
7036061,316.55,0,771,0
7036071,317.71,0,774,0
7036081,318.31,0,771,0
7036091,320.23,0,774,0
7036101,321.58,0,771,0
7036111,324.15,0,774,0
7036121,325.95,0,771,0
7036131,328.75,0,774,0
7036141,330.58,0,771,0
7036151,333.06,0,775,0
7036161,334.24,0,771,0
7036171,335.97,0,774,0
7036181,336.45,0,771,0
7036191,337.34,0,774,0
7036201,336.86,0,771,0
7036211,336.51,0,774,0
7036221,334.77,0,771,0
7036231,333.47,0,775,0
7036241,330.76,0,771,0
7036251,328.47,0,775,0
7036261,325.12,0,771,0
7036271,322.60,0,774,0
7036281,319.29,0,772,0
7036291,317.14,0,774,0
7036301,314.53,0,771,0
7036311,313.77,0,774,0
7036321,313.84,0,771,0
7036332,317.57,0,774,0
7036342,324.47,0,772,0
7036352,337.70,0,774,0
7036362,356.99,0,772,0
7036372,385.37,0,774,0
7036391,421.30,843,773,0
7036394,464.45,843,776,0
7036403,510.43,843,773,0
7036413,557.14,843,774,0
7036423,601.07,843,773,0
7036433,640.65,843,775,0
7036443,672.98,843,773,0
7036453,697.80,843,774,0
7036463,715.22,843,773,0
7036473,727.45,843,775,0
7036483,736.02,843,773,0
7036493,742.01,843,774,0
7036503,746.21,843,773,0
7036513,749.15,843,774,0
7036523,747.95,843,773,0
7036533,741.79,843,774,0
7036544,729.00,843,773,0
7036553,710.14,843,774,0
7036563,684.47,843,773,0
7036573,652.70,843,774,0
7036583,615.08,843,773,0
7036593,576.35,843,774,0
7036603,537.76,843,773,0
7036613,502.65,843,774,0
7036623,471.08,843,773,0
7036633,445.04,843,774,0
7036643,423.99,843,773,0
7036653,409.03,843,774,0
7036663,398.57,843,773,0
7036673,393.68,843,774,0
7036683,392.11,843,773,0
7036693,394.13,843,774,0
7036703,397.95,843,773,0
7036713,404.05,843,774,0
7036723,410.25,843,773,0
7036733,417.25,843,774,0
7036743,422.87,843,773,0
7036753,428.31,843,774,0
7036763,431.82,843,773,0
7036773,434.40,843,774,0
7036783,434.58,843,773,0
7036793,433.63,843,774,0
7036803,430.32,843,773,0
7036813,426.19,843,774,0
7036823,420.31,843,773,0
7036833,413.91,843,774,0
7036844,406.35,843,774,0
7036854,398.79,843,774,0
7036864,390.71,843,774,0
7036874,382.95,843,774,0
7036884,374.65,843,774,0
7036894,366.87,843,774,0
7036904,358.98,843,774,0
7036914,352.00,843,774,0
7036924,345.27,843,774,0
7036934,339.45,843,774,0
7036944,334.08,843,774,0
7036954,329.90,843,774,0
7036964,326.25,843,774,0
7036974,324.12,843,774,0
7036984,322.19,843,774,0
7036994,321.28,843,774,0
7037004,320.81,843,774,0
7037015,321.21,843,773,0
7037025,322.09,843,774,0
7037035,323.39,843,773,0
7037045,324.52,843,775,0
7037056,325.90,843,772,0
7037065,327.35,843,774,0
7037075,328.74,843,773,0
7037085,330.19,843,775,0
7037095,331.08,843,772,0
7037105,332.04,843,775,0
7037115,332.93,843,773,0
7037125,333.64,843,775,0
7037135,333.74,843,772,0
7037145,333.52,843,775,0
7037155,332.98,843,773,0
7037165,332.34,843,775,0
7037175,331.17,843,772,0
7037185,329.45,843,775,0
7037195,327.43,843,773,0
7037205,325.41,843,775,0
7037215,323.06,843,772,0
7037225,320.73,843,775,0
7037235,318.71,843,773,0
7037245,318.03,843,775,0
7037255,319.52,843,772,0
7037265,325.06,843,775,0
7037275,335.76,843,773,0
7037285,353.66,843,775,0
7037304,379.73,913,773,0
7037307,415.90,913,775,0
7037316,459.09,913,773,0
7037326,506.16,913,775,0
7037336,553.60,913,772,0
7037346,599.02,913,775,0
7037356,639.73,913,772,0
7037366,673.58,913,775,0
7037376,698.26,913,772,0
7037386,715.58,913,775,0
7037396,727.67,913,771,0
7037406,736.12,913,775,0
7037416,742.04,913,772,0
7037426,746.19,913,775,0
7037436,747.42,913,771,0
7037446,744.42,913,775,0
7037456,735.04,913,772,0
7037466,718.74,913,775,0
7037476,694.60,913,771,0
7037486,663.65,913,775,0
7037496,625.74,913,772,0
7037506,583.69,913,775,0
7037516,539.51,913,771,0
7037527,497.23,913,775,0
7037537,457.82,913,771,0
7037547,424.06,913,775,0
7037557,395.33,913,771,0
7037568,373.59,913,775,0
7037577,357.72,913,771,0
7037587,348.85,913,775,0
7037597,345.17,913,771,0
7037607,347.43,913,775,0
7037617,353.22,913,771,0
7037627,362.88,913,775,0
7037637,373.67,913,771,0
7037647,386.07,913,775,0
7037657,397.71,913,771,0
7037667,408.55,913,775,0
7037677,416.44,913,771,0
7037687,422.44,913,775,0
7037697,424.75,913,771,0
7037707,424.78,913,775,0
7037717,420.99,913,771,0
7037727,415.34,913,775,0
7037737,406.84,913,771,0
7037747,397.54,913,775,0
7037757,386.49,913,771,0
7037767,375.50,913,775,0
7037777,363.74,913,771,0
7037787,353.10,913,775,0
7037797,342.19,913,771,0
7037807,333.22,913,775,0
7037817,324.84,913,771,0
7037827,318.41,913,775,0
7037837,312.50,913,771,0
7037847,308.71,913,775,0
7037857,305.33,913,771,0
7037868,303.86,913,775,0
7037878,302.61,913,771,0
7037888,303.07,913,775,0
7037898,303.65,913,771,0
7037908,306.20,913,775,0
7037918,308.54,913,771,0
7037928,312.62,913,775,0
7037938,316.16,913,771,0
7037948,320.66,913,775,0
7037958,324.15,913,771,0
7037968,328.17,913,775,0
7037978,330.74,913,772,0
7037988,333.51,913,775,0
7037998,334.52,913,771,0
7038008,335.61,913,775,0
7038018,335.21,913,772,0
7038028,334.93,913,775,0
7038039,333.24,913,772,0
7038049,331.80,913,775,0
7038059,329.29,913,772,0
7038069,327.40,913,775,0
7038080,324.84,913,773,0
7038089,323.04,913,775,0
7038099,320.72,913,773,0
7038109,319.69,913,775,0
7038119,318.97,913,773,0
7038129,320.91,913,775,0
7038139,324.75,913,772,0
7038149,333.39,913,775,0
7038159,347.08,913,773,0
7038169,368.70,913,775,0
7038179,397.93,913,773,0
7038198,436.74,894,771,0
7038201,480.57,894,776,0
7038210,527.33,894,775,0
7038220,573.26,894,773,0
7038230,616.42,894,775,0
7038240,653.88,894,774,0
7038251,684.39,894,774,0
7038260,705.87,894,773,0
7038270,720.91,894,775,0
7038280,731.44,894,774,0
7038290,738.81,894,774,0
7038300,743.96,894,773,0
7038310,746.76,894,775,0
7038320,744.56,894,774,0
7038330,736.25,894,774,0
7038340,720.49,894,773,0
7038350,697.41,894,775,0
7038360,666.22,894,774,0
7038370,627.84,894,774,0
7038380,583.36,894,773,0
7038390,537.48,894,775,0
7038400,491.82,894,774,0
7038410,449.62,894,774,0
7038420,411.68,894,774,0
7038430,380.57,894,775,0
7038440,356.19,894,774,0
7038450,339.37,894,774,0
7038460,329.19,894,774,0
7038470,326.35,894,775,0
7038480,329.16,894,774,0
7038490,337.51,894,774,0
7038500,349.66,894,774,0
7038510,364.85,894,775,0
7038520,380.66,894,774,0
7038530,397.09,894,774,0
7038540,411.98,894,774,0
7038551,425.70,894,775,0
7038561,436.16,894,774,0
7038571,443.44,894,774,0
7038581,446.69,894,775,0
7038592,447.21,894,774,0
7038601,443.59,894,774,0
7038611,437.37,894,774,0
7038621,427.45,894,775,0
7038631,415.48,894,774,0
7038641,401.54,894,774,0
7038651,386.76,894,774,0
7038661,371.15,894,775,0
7038671,356.02,894,774,0
7038681,341.27,894,774,0
7038691,328.46,894,774,0
7038701,317.48,894,775,0
7038711,308.76,894,774,0
7038721,302.15,894,775,0
7038731,298.16,894,775,0
7038741,296.10,894,775,0
7038751,296.33,894,774,0
7038761,297.99,894,775,0
7038771,301.33,894,774,0
7038781,305.60,894,775,0
7038791,311.17,894,774,0
7038801,316.99,894,775,0
7038811,323.76,894,774,0
7038821,330.09,894,775,0
7038831,336.11,894,774,0
7038841,341.09,894,775,0
7038851,345.43,894,775,0
7038861,348.39,894,775,0
7038871,350.33,894,774,0
7038881,350.49,894,775,0
7038892,349.78,894,774,0
7038902,348.31,894,775,0
7038912,346.59,894,774,0
7038922,345.60,894,775,0
7038932,346.19,894,773,0
7038942,350.33,894,775,0
7038952,359.83,894,773,0
7038962,376.30,894,775,0
7038972,401.45,894,773,0
7038982,435.82,894,775,0
7038992,476.80,894,774,0
7039002,521.56,894,775,0
7039022,566.73,823,774,0
7039025,609.71,823,776,0
7039034,648.03,823,773,0
7039044,679.31,823,776,0
7039054,702.40,823,772,0
7039064,718.57,823,776,0
7039074,729.88,823,773,0
7039084,737.85,823,776,0
7039094,743.38,823,772,0
7039105,747.29,823,776,0
7039115,747.16,823,773,0
7039125,741.28,823,775,0
7039135,727.40,823,772,0
7039145,705.38,823,775,0
7039155,674.75,823,772,0
7039165,636.43,823,775,0
7039175,590.23,823,772,0
7039185,540.83,823,775,0
7039195,490.40,823,772,0
7039205,443.69,823,776,0
7039215,401.18,823,772,0
7039225,365.90,823,775,0
7039235,337.17,823,772,0
7039245,317.54,823,776,0
7039255,304.95,823,772,0
7039265,301.32,823,775,0
7039276,303.92,823,772,0
7039286,313.59,823,775,0
7039296,327.13,823,772,0
7039306,345.09,823,775,0
7039316,363.58,823,773,0
7039326,383.50,823,775,0
7039336,401.01,823,772,0
7039346,416.95,823,775,0
7039356,428.79,823,773,0
7039366,437.77,823,775,0
7039376,441.91,823,773,0
7039386,443.22,823,775,0
7039396,439.73,823,773,0
7039406,434.19,823,775,0
7039416,424.92,823,773,0
7039426,414.66,823,775,0
7039436,401.78,823,773,0
7039447,388.73,823,775,0
7039457,374.32,823,773,0
7039467,361.16,823,775,0
7039477,347.69,823,774,0
7039488,336.47,823,775,0
7039497,325.66,823,773,0
7039507,317.62,823,775,0
7039517,310.53,823,774,0
7039527,306.22,823,775,0
7039537,302.64,823,773,0
7039547,301.50,823,775,0
7039557,300.97,823,774,0
7039567,302.52,823,775,0
7039577,304.16,823,773,0
7039587,307.50,823,775,0
7039597,310.69,823,774,0
7039607,315.37,823,775,0
7039617,319.80,823,773,0
7039627,325.26,823,775,0
7039637,329.64,823,774,0
7039647,334.51,823,775,0
7039657,338.04,823,774,0
7039667,342.01,823,775,0
7039677,345.10,823,774,0
7039687,349.95,823,775,0
7039697,356.10,823,774,0
7039707,367.12,823,775,0
7039717,382.99,823,774,0
7039727,407.50,823,775,0
7039737,440.44,823,774,0
7039747,480.59,823,775,0
7039757,523.70,823,774,0
7039767,568.10,823,775,0
7039777,610.29,823,774,0
7039797,648.77,776,773,0
7039800,680.08,776,776,0
7039809,703.07,776,775,0
7039819,719.17,776,775,0
7039830,730.43,776,774,0
7039839,738.32,776,775,0
7039849,743.88,776,775,0
7039859,747.73,776,775,0
7039869,750.38,776,774,0
7039879,752.20,776,775,0
7039889,753.47,776,775,0
7039899,750.80,776,775,0
7039909,741.82,776,774,0
7039919,724.94,776,775,0
7039929,699.80,776,774,0
7039939,666.09,776,775,0
7039949,624.62,776,774,0
7039959,576.13,776,775,0
7039969,525.78,776,775,0
7039979,477.12,776,775,0
7039989,433.50,776,774,0
7040000,396.62,776,775,0
7040009,368.58,776,775,0
7040019,349.12,776,775,0
7040029,338.54,776,774,0
7040039,336.06,776,775,0
7040049,340.80,776,774,0
7040059,350.93,776,775,0
7040069,365.35,776,774,0
7040079,381.45,776,775,0
7040089,398.46,776,774,0
7040099,414.30,776,775,0
7040109,428.06,776,774,0
7040119,438.37,776,775,0
7040129,445.16,776,775,0
7040139,447.42,776,775,0
7040149,445.88,776,774,0
7040159,440.13,776,775,0
7040169,431.31,776,774,0
7040179,419.26,776,775,0
7040189,405.29,776,774,0
7040199,389.82,776,775,0
7040209,373.80,776,774,0
7040219,357.75,776,775,0
7040229,342.74,776,774,0
7040239,329.02,776,775,0
7040249,317.18,776,774,0
7040259,307.23,776,775,0
7040269,299.57,776,774,0
7040279,294.00,776,775,0
7040289,290.79,776,774,0
7040300,289.39,776,775,0
7040310,289.62,776,773,0
7040320,291.36,776,775,0
7040330,294.47,776,773,0
7040340,298.44,776,775,0
7040350,303.11,776,773,0
7040360,307.92,776,775,0
7040370,312.61,776,773,0
7040380,317.27,776,775,0
7040390,321.43,776,773,0
7040400,325.16,776,775,0
7040410,328.11,776,773,0
7040420,331.46,776,775,0
7040430,335.53,776,773,0
7040440,342.27,776,775,0
7040450,352.69,776,773,0
7040460,369.62,776,775,0
7040471,394.77,776,773,0
7040481,430.28,776,775,0
7040491,472.20,776,773,0
7040501,517.95,776,776,0
7040512,564.29,776,773,0
7040521,608.95,776,775,0
7040531,648.56,776,773,0
7040550,680.88,753,771,0
7040553,703.54,753,773,0
7040562,719.45,753,775,0
7040572,730.55,753,773,0
7040582,738.35,753,775,0
7040592,743.78,753,772,0
7040602,747.61,753,775,0
7040612,750.26,753,773,0
7040622,752.15,753,775,0
7040632,753.44,753,772,0
7040642,754.38,753,775,0
7040652,754.99,753,773,0
7040662,752.72,753,775,0
7040672,743.76,753,772,0
7040683,727.33,753,775,0
7040692,701.95,753,772,0
7040702,668.62,753,775,0
7040712,627.03,753,772,0
7040722,579.28,753,775,0
7040732,528.54,753,772,0
7040742,480.94,753,775,0
7040752,437.93,753,772,0
7040762,403.23,753,775,0
7040772,376.25,753,772,0
7040782,359.07,753,775,0
7040792,349.45,753,772,0
7040802,348.20,753,775,0
7040812,352.26,753,772,0
7040822,361.69,753,775,0
7040832,373.19,753,772,0
7040842,386.72,753,775,0
7040852,399.02,753,772,0
7040862,410.58,753,775,0
7040872,418.68,753,772,0
7040882,424.48,753,775,0
7040892,425.83,753,772,0
7040902,424.47,753,775,0
7040912,418.93,753,772,0
7040922,411.71,753,775,0
7040932,401.29,753,772,0
7040942,390.23,753,776,0
7040952,376.92,753,772,0
7040962,363.87,753,775,0
7040972,349.90,753,772,0
7040983,337.37,753,775,0
7040993,324.62,753,772,0
7041003,314.23,753,775,0
7041013,304.56,753,772,0
7041024,297.88,753,775,0
7041033,292.56,753,772,0
7041043,290.33,753,775,0
7041053,289.29,753,772,0
7041063,290.83,753,775,0
7041073,292.68,753,773,0
7041083,296.21,753,775,0
7041093,299.36,753,773,0
7041103,303.79,753,775,0
7041113,307.24,753,772,0
7041123,311.54,753,775,0
7041133,314.81,753,772,0
7041143,318.64,753,775,0
7041153,321.32,753,773,0
7041163,324.91,753,775,0
7041173,327.94,753,772,0
7041183,332.97,753,775,0
7041193,339.19,753,773,0
7041203,350.06,753,775,0
7041213,366.16,753,772,0
7041223,391.65,753,775,0
7041233,426.77,753,773,0
7041243,468.97,753,775,0
7041253,514.45,753,773,0
7041263,561.33,753,776,0
7041273,606.10,753,773,0
7041283,646.79,753,775,0
7041302,679.51,752,774,0
7041305,702.63,752,775,0
7041314,718.81,752,774,0
7041324,730.18,752,775,0
7041334,738.10,752,773,0
7041344,743.68,752,775,0
7041354,747.59,752,774,0
7041364,750.37,752,775,0
7041374,752.32,752,774,0
7041384,753.68,752,775,0
7041394,754.63,752,774,0
7041404,755.34,752,775,0
7041414,755.84,752,773,0
7041424,756.19,752,775,0
7041434,752.62,752,774,0
7041444,743.17,752,775,0
7041454,725.64,752,773,0
7041464,700.25,752,775,0
7041474,666.23,752,774,0
7041484,625.27,752,775,0
7041495,577.75,752,774,0
7041505,529.61,752,775,0
7041515,483.70,752,774,0
7041525,444.27,752,775,0
7041536,411.79,752,775,0
7041545,388.58,752,775,0
7041555,373.02,752,774,0
7041565,365.86,752,775,0
7041575,364.49,752,775,0
7041585,368.63,752,775,0
7041595,375.30,752,774,0
7041605,383.95,752,775,0
7041615,392.11,752,774,0
7041625,399.75,752,775,0
7041635,404.62,752,774,0
7041645,407.35,752,775,0
7041655,406.56,752,775,0
7041665,403.35,752,775,0
7041675,396.77,752,774,0
7041685,388.23,752,775,0
7041695,377.19,752,775,0
7041705,365.30,752,774,0
7041715,352.14,752,775,0
7041725,339.28,752,775,0
7041735,325.96,752,775,0
7041745,313.97,752,774,0
7041755,302.54,752,775,0
7041765,293.33,752,775,0
7041775,285.35,752,775,0
7041785,279.63,752,774,0
7041795,275.24,752,774,0
7041805,273.67,752,775,0
7041815,273.60,752,775,0
7041825,275.90,752,774,0
7041836,279.19,752,775,0
7041846,284.15,752,774,0
7041856,289.80,752,775,0
7041866,296.33,752,774,0
7041876,302.83,752,775,0
7041886,309.48,752,774,0
7041896,315.34,752,775,0
7041906,320.51,752,774,0
7041916,324.90,752,775,0
7041926,328.44,752,774,0
7041936,330.58,752,775,0
7041946,331.74,752,774,0
7041956,332.29,752,775,0
7041966,333.36,752,774,0
7041976,335.91,752,775,0
7041986,342.02,752,774,0
7041996,354.06,752,775,0
7042007,375.25,752,774,0
7042017,407.41,752,775,0
7042027,448.00,752,773,0
7042037,493.77,752,775,0
7042048,542.05,752,773,0
7042066,589.39,764,772,0
7042069,632.78,764,772,0
7042078,668.93,764,776,0
7042088,695.26,764,772,0
7042098,713.74,764,775,0
7042108,726.63,764,773,0
7042118,735.66,764,776,0
7042128,741.97,764,773,0
7042138,746.44,764,775,0
7042148,749.52,764,772,0
7042158,751.68,764,776,0
7042168,753.19,764,773,0
7042178,754.29,764,775,0
7042188,755.02,764,773,0
7042198,755.53,764,776,0
7042208,755.88,764,773,0
7042219,756.18,764,775,0
7042228,752.82,764,773,0
7042238,743.58,764,775,0
7042248,726.30,764,772,0
7042258,701.01,764,775,0
7042268,667.79,764,772,0
7042278,627.87,764,776,0
7042288,581.75,764,772,0
7042298,534.98,764,775,0
7042308,490.55,764,772,0
7042318,452.45,764,775,0
7042328,421.07,764,772,0
7042338,397.87,764,775,0
7042348,381.45,764,772,0
7042358,372.23,764,775,0
7042368,367.87,764,772,0
7042378,368.26,764,775,0
7042388,370.75,764,772,0
7042398,375.15,764,775,0
7042408,378.96,764,772,0
7042418,382.66,764,775,0
7042428,384.48,764,772,0
7042438,384.93,764,775,0
7042448,382.60,764,772,0
7042458,378.73,764,775,0
7042468,372.30,764,772,0
7042478,364.92,764,775,0
7042488,355.60,764,772,0
7042498,346.21,764,775,0
7042508,335.65,764,772,0
7042519,325.81,764,775,0
7042529,315.54,764,772,0
7042539,307.19,764,775,0
7042549,299.03,764,772,0
7042560,293.07,764,775,0
7042569,287.52,764,772,0
7042579,284.53,764,775,0
7042589,282.27,764,772,0
7042599,282.83,764,775,0
7042609,283.53,764,772,0
7042619,286.28,764,775,0
7042629,288.94,764,772,0
7042639,293.24,764,775,0
7042649,297.37,764,772,0
7042659,302.66,764,775,0
7042669,306.70,764,772,0
7042679,311.59,764,775,0
7042689,315.40,764,772,0
7042699,319.57,764,775,0
7042709,322.14,764,772,0
7042719,324.63,764,775,0
7042729,325.51,764,772,0
7042739,326.94,764,775,0
7042749,326.66,764,772,0
7042759,326.50,764,775,0
7042769,324.81,764,772,0
7042779,323.67,764,775,0
7042789,320.98,764,772,0
7042799,318.37,764,775,0
7042809,313.85,764,772,0
7042819,310.12,764,775,0
7042829,306.06,764,772,0
7042839,304.93,764,775,0
7042849,306.75,764,773,0
7042860,315.57,764,775,0
7042870,332.28,764,773,0
7042880,361.60,764,775,0
7042890,401.75,764,773,0
7042910,449.82,843,772,0
7042913,501.35,843,775,0
7042922,553.57,843,775,0
7042932,602.51,843,774,0
7042942,645.90,843,775,0
7042952,679.23,843,774,0
7042962,702.61,843,775,0
7042972,718.97,843,774,0
7042982,730.46,843,775,0
7042992,738.51,843,774,0
7043002,744.14,843,775,0
7043012,748.04,843,774,0
7043022,750.82,843,775,0
7043032,752.76,843,774,0
7043042,754.12,843,775,0
7043052,755.02,843,774,0
7043062,755.66,843,775,0
7043073,756.10,843,775,0
7043083,756.46,843,775,0
7043093,756.66,843,775,0
7043103,756.81,843,775,0
7043113,752.28,843,775,0
7043123,741.82,843,775,0
7043133,723.15,843,775,0
7043143,696.28,843,774,0
7043153,661.56,843,775,0
7043163,620.51,843,774,0
7043173,573.77,843,775,0
7043183,527.64,843,774,0
7043193,484.55,843,775,0
7043203,448.04,843,774,0
7043213,418.54,843,775,0
7043223,396.87,843,774,0
7043233,381.73,843,775,0
7043244,372.94,843,774,0
7043254,368.59,843,776,0
7043264,367.47,843,773,0
7043274,368.01,843,775,0
7043284,369.42,843,773,0
7043294,370.11,843,775,0
7043304,369.52,843,773,0
7043314,366.75,843,775,0
7043324,361.68,843,773,0
7043334,354.28,843,775,0
7043344,344.94,843,774,0
7043354,334.11,843,775,0
7043364,322.34,843,773,0
7043374,310.36,843,775,0
7043384,298.98,843,774,0
7043394,288.79,843,775,0
7043404,280.19,843,773,0
7043415,273.54,843,775,0
7043425,268.79,843,773,0
7043435,266.32,843,775,0
7043445,265.50,843,773,0
7043456,266.51,843,775,0
7043465,268.67,843,773,0
7043475,271.90,843,775,0
7043485,275.44,843,773,0
7043495,279.81,843,775,0
7043505,283.94,843,773,0
7043515,288.07,843,775,0
7043525,291.31,843,773,0
7043535,294.47,843,775,0
7043545,297.16,843,773,0
7043555,299.73,843,775,0
7043565,301.27,843,773,0
7043575,302.81,843,775,0
7043585,304.07,843,773,0
7043595,305.68,843,775,0
7043605,306.59,843,772,0
7043615,307.44,843,775,0
7043625,307.74,843,774,0
7043635,308.24,843,775,0
7043645,308.13,843,774,0
7043655,308.00,843,775,0
7043665,307.19,843,774,0
7043675,306.79,843,775,0
7043685,305.70,843,773,0
7043695,304.89,843,775,0
7043705,303.89,843,773,0
7043715,304.31,843,775,0
7043725,306.96,843,773,0
7043735,314.60,843,775,0
7043745,328.65,843,773,0
7043756,352.88,843,775,0
7043766,388.40,843,773,0
7043785,432.85,876,771,0
7043788,482.31,876,773,0
7043798,533.82,876,775,0
7043807,583.72,876,773,0
7043817,629.23,876,775,0
7043827,666.58,876,773,0
7043837,693.70,876,775,0
7043847,712.69,876,772,0
7043857,725.98,876,775,0
7043867,735.29,876,773,0
7043877,741.80,876,775,0
7043887,746.36,876,772,0
7043897,749.55,876,775,0
7043907,751.79,876,773,0
7043917,753.35,876,776,0
7043927,754.45,876,772,0
7043937,755.21,876,775,0
7043947,755.71,876,773,0
7043957,752.49,876,775,0
7043968,742.23,876,772,0
7043977,724.50,876,775,0
7043987,697.91,876,772,0
7043997,663.69,876,775,0
7044007,621.91,876,772,0
7044017,574.80,876,775,0
7044027,526.39,876,772,0
7044037,482.56,876,775,0
7044047,444.16,876,772,0
7044057,414.71,876,775,0
7044067,392.94,876,772,0
7044077,380.44,876,775,0
7044087,374.44,876,772,0
7044097,375.34,876,775,0
7044107,379.61,876,772,0
7044117,387.35,876,775,0
7044127,395.09,876,772,0
7044137,403.16,876,775,0
7044147,408.60,876,772,0
7044157,412.28,876,775,0
7044167,411.94,876,772,0
7044177,409.13,876,775,0
7044187,402.32,876,772,0
7044197,393.61,876,775,0
7044207,381.77,876,772,0
7044217,369.07,876,775,0
7044227,354.48,876,772,0
7044237,340.49,876,775,0
7044247,325.90,876,772,0
7044257,313.03,876,775,0
7044268,300.51,876,772,0
7044278,290.58,876,775,0
7044288,281.71,876,773,0
7044298,275.84,876,775,0
7044308,271.17,876,773,0
7044318,269.58,876,775,0
7044328,268.98,876,773,0
7044338,271.13,876,775,0
7044348,273.83,876,773,0
7044358,278.64,876,775,0
7044368,283.46,876,773,0
7044378,289.75,876,775,0
7044388,295.35,876,773,0
7044398,301.76,876,775,0
7044408,306.76,876,773,0
7044418,311.93,876,775,0
7044428,315.30,876,773,0
7044439,318.38,876,775,0
7044449,319.38,876,774,0
7044459,319.87,876,775,0
7044469,318.23,876,774,0
7044480,316.19,876,775,0
7044489,312.49,876,774,0
7044499,309.39,876,774,0
7044509,306.10,876,773,0
7044519,305.47,876,775,0
7044529,307.64,876,774,0
7044539,316.58,876,774,0
7044549,333.33,876,773,0
7044559,361.86,876,775,0
7044569,401.25,876,774,0
7044579,448.40,876,775,0
7044598,499.07,813,773,0
7044601,550.95,813,774,0
7044610,599.82,813,774,0
7044620,643.25,813,775,0
7044630,677.20,813,774,0
7044640,701.05,813,774,0
7044651,717.75,813,775,0
7044660,729.48,813,775,0
7044670,737.70,813,774,0
7044680,743.44,813,774,0
7044690,747.47,813,775,0
7044700,750.33,813,775,0
7044710,752.33,813,774,0
7044720,753.73,813,774,0
7044730,754.71,813,775,0
7044740,755.40,813,775,0
7044750,752.62,813,774,0
7044760,743.78,813,774,0
7044770,726.40,813,775,0
7044780,700.48,813,774,0
7044790,665.67,813,774,0
7044800,623.08,813,774,0
7044810,573.60,813,775,0
7044820,522.16,813,774,0
7044830,473.04,813,774,0
7044840,430.00,813,775,0
7044850,394.13,813,775,0
7044860,367.05,813,774,0
7044870,348.65,813,775,0
7044880,338.55,813,774,0
7044890,334.83,813,775,0
7044900,336.30,813,774,0
7044910,341.39,813,774,0
7044920,349.33,813,774,0
7044930,357.76,813,775,0
7044940,365.46,813,774,0
7044951,371.28,813,775,0
7044961,375.10,813,774,0
7044971,376.01,813,775,0
7044981,373.95,813,773,0
7044992,368.56,813,775,0
7045001,360.90,813,773,0
7045011,351.20,813,775,0
7045021,340.12,813,773,0
7045031,328.39,813,775,0
7045041,316.61,813,773,0
7045051,305.50,813,775,0
7045061,295.19,813,773,0
7045071,286.14,813,775,0
7045081,278.42,813,773,0
7045091,272.30,813,775,0
7045101,267.45,813,773,0
7045111,263.97,813,775,0
7045121,261.58,813,773,0
7045131,260.59,813,775,0
7045141,260.59,813,773,0
7045151,261.70,813,775,0
7045161,263.50,813,772,0
7045171,266.39,813,775,0
7045181,269.96,813,773,0
7045191,274.26,813,775,0
7045201,278.72,813,772,0
7045211,283.52,813,775,0
7045221,288.12,813,773,0
7045231,292.80,813,775,0
7045241,296.63,813,772,0
7045251,300.04,813,775,0
7045261,302.56,813,773,0
7045271,304.36,813,775,0
7045281,304.81,813,772,0
7045292,304.48,813,775,0
7045302,302.75,813,772,0
7045312,300.55,813,775,0
7045322,297.13,813,772,0
7045332,293.58,813,775,0
7045342,289.68,813,772,0
7045352,287.07,813,775,0
7045362,286.07,813,772,0
7045372,289.52,813,775,0
7045382,298.36,813,772,0
7045392,315.87,813,775,0
7045402,343.59,813,772,0
7045422,383.83,823,771,0
7045425,431.84,823,772,0
7045434,484.47,823,775,0
7045444,537.60,823,772,0
7045454,588.68,823,775,0
7045464,634.07,823,772,0
7045474,670.91,823,775,0
7045484,696.65,823,772,0
7045494,714.67,823,775,0
7045505,727.28,823,772,0
7045515,736.16,823,775,0
7045525,742.32,823,772,0
7045535,746.64,823,775,0
7045545,749.66,823,773,0
7045555,751.86,823,775,0
7045565,753.36,823,772,0
7045575,754.41,823,775,0
7045585,755.14,823,773,0
7045595,755.74,823,775,0
7045605,754.41,823,773,0
7045615,748.80,823,775,0
7045625,735.32,823,773,0
7045635,714.01,823,775,0
7045645,683.66,823,772,0
7045655,645.53,823,775,0
7045665,599.52,823,773,0
7045676,549.56,823,775,0
7045686,498.52,823,773,0
7045696,452.21,823,775,0
7045706,411.30,823,773,0
7045716,378.90,823,775,0
7045726,353.86,823,773,0
7045736,337.70,823,775,0
7045746,328.02,823,773,0
7045756,325.23,823,775,0
7045766,326.40,823,773,0
7045776,331.38,823,775,0
7045786,337.22,823,773,0
7045796,344.23,823,775,0
7045806,349.82,823,773,0
7045816,354.67,823,775,0
7045826,356.78,823,773,0
7045836,357.36,823,775,0
7045847,354.98,823,774,0
7045857,351.35,823,775,0
7045867,345.07,823,774,0
7045877,337.72,823,775,0
7045888,328.55,823,774,0
7045897,319.34,823,775,0
7045907,309.12,823,774,0
7045917,299.57,823,775,0
7045927,289.67,823,774,0
7045937,281.20,823,775,0
7045947,273.47,823,774,0
7045957,267.54,823,775,0
7045967,262.62,823,774,0
7045977,259.86,823,775,0
7045987,258.23,823,774,0
7045997,258.59,823,775,0
7046007,259.74,823,774,0
7046017,262.52,823,775,0
7046027,265.66,823,774,0
7046037,269.79,823,775,0
7046047,273.71,823,774,0
7046057,278.13,823,775,0
7046067,282.07,823,774,0
7046077,286.51,823,775,0
7046087,290.34,823,774,0
7046097,294.53,823,774,0
7046107,297.84,823,774,0
7046117,301.14,823,775,0
7046127,303.46,823,774,0
7046137,305.51,823,774,0
7046147,306.34,823,774,0
7046157,306.75,823,775,0
7046167,305.76,823,774,0
7046177,304.37,823,774,0
7046188,301.95,823,775,0
7046198,299.30,823,774,0
7046208,296.13,823,775,0
7046218,293.22,823,773,0
7046228,291.18,823,775,0
7046238,291.77,823,774,0
7046248,296.21,823,775,0
7046258,306.95,823,773,0
7046268,325.99,823,775,0
7046278,355.39,823,774,0
7046297,396.16,876,772,0
7046300,444.11,876,772,0
7046309,495.72,876,775,0
7046319,547.79,876,774,0
7046329,597.01,876,775,0
7046339,640.29,876,773,0
7046349,675.09,876,775,0
7046359,699.58,876,773,0
7046369,716.76,876,775,0
7046379,728.75,876,773,0
7046389,737.14,876,775,0
7046400,743.01,876,773,0
7046409,747.16,876,775,0
7046419,750.03,876,773,0
7046429,752.03,876,775,0
7046439,753.44,876,773,0
7046449,754.46,876,775,0
7046459,752.40,876,773,0
7046469,744.61,876,775,0
7046479,729.00,876,773,0
7046489,705.21,876,775,0
7046499,673.01,876,773,0
7046509,633.02,876,775,0
7046519,585.78,876,773,0
7046529,535.53,876,775,0
7046539,486.09,876,773,0
7046549,441.15,876,775,0
7046559,402.15,876,773,0
7046569,370.90,876,775,0
7046579,347.45,876,773,0
7046589,332.31,876,775,0
7046599,324.33,876,773,0
7046609,323.16,876,775,0
7046619,326.88,876,773,0
7046629,334.63,876,775,0
7046639,344.26,876,773,0
7046649,355.02,876,775,0
7046659,365.13,876,773,0
7046669,374.05,876,775,0
7046679,380.25,876,773,0
7046689,384.03,876,775,0
7046700,384.45,876,772,0
7046710,382.13,876,776,0
7046720,376.43,876,772,0
7046730,368.67,876,775,0
7046740,358.49,876,772,0
7046750,347.41,876,775,0
7046760,334.99,876,772,0
7046770,322.86,876,775,0
7046780,310.52,876,772,0
7046790,299.65,876,775,0
7046800,289.38,876,772,0
7046810,281.21,876,775,0
7046820,273.95,876,772,0
7046830,268.99,876,775,0
7046840,265.01,876,772,0
7046850,263.25,876,775,0
7046860,262.23,876,772,0
7046871,263.10,876,775,0
7046881,264.36,876,772,0
7046891,267.34,876,775,0
7046901,270.32,876,772,0
7046912,274.64,876,775,0
7046921,278.60,876,772,0
7046931,283.52,876,775,0
7046941,287.74,876,772,0
7046951,292.66,876,775,0
7046961,296.45,876,772,0
7046971,300.68,876,775,0
7046981,303.69,876,772,0
7046991,307.04,876,775,0
7047001,309.00,876,772,0
7047011,311.10,876,775,0
7047021,311.58,876,772,0
7047031,312.18,876,775,0
7047041,311.27,876,772,0
7047051,310.59,876,775,0
7047061,308.61,876,772,0
7047071,307.10,876,775,0
7047081,304.46,876,772,0
7047091,302.78,876,775,0
7047101,300.57,876,772,0
7047111,300.14,876,775,0
7047121,300.79,876,772,0
7047131,305.35,876,775,0
7047141,314.07,876,772,0
7047151,330.68,876,775,0
7047161,355.55,876,772,0
7047171,391.51,876,775,0
7047190,435.42,893,774,0
7047193,484.45,893,776,0
7047202,534.67,893,773,0
7047212,583.76,893,775,0
7047222,627.89,893,772,0
7047232,664.95,893,775,0
7047242,692.35,893,773,0
7047252,711.57,893,775,0
7047262,724.99,893,772,0
7047272,734.42,893,775,0
7047282,740.98,893,773,0
7047292,745.61,893,775,0
7047302,748.86,893,772,0
7047312,751.17,893,775,0
7047322,752.75,893,773,0
7047332,751.24,893,775,0
7047342,743.58,893,772,0
7047352,728.84,893,775,0
7047362,705.18,893,773,0
7047372,673.63,893,775,0
7047383,633.63,893,773,0
7047393,586.90,893,775,0
7047403,536.48,893,774,0
7047413,487.40,893,775,0
7047424,441.33,893,774,0
7047433,402.19,893,775,0
7047443,369.56,893,774,0
7047453,345.87,893,775,0
7047463,329.66,893,774,0
7047473,321.84,893,775,0
7047483,320.13,893,773,0
7047493,324.85,893,775,0
7047503,333.16,893,774,0
7047513,344.99,893,775,0
7047523,357.25,893,773,0
7047533,369.94,893,775,0
7047543,380.59,893,774,0
7047553,389.76,893,775,0
7047563,395.36,893,773,0
7047573,398.29,893,775,0
7047583,397.18,893,774,0
7047593,393.48,893,775,0
7047603,386.31,893,773,0
7047613,377.47,893,775,0
7047623,366.15,893,774,0
7047633,354.23,893,775,0
7047643,341.18,893,773,0
7047653,328.82,893,775,0
7047663,316.49,893,774,0
7047673,305.80,893,775,0
7047683,295.70,893,773,0
7047693,287.86,893,775,0
7047703,281.05,893,774,0
7047713,276.62,893,775,0
7047724,273.26,893,774,0
7047734,272.07,893,775,0
7047744,271.66,893,774,0
7047754,273.09,893,775,0
7047764,275.04,893,774,0
7047774,278.45,893,775,0
7047784,281.96,893,775,0
7047794,286.43,893,775,0
7047804,290.80,893,774,0
7047814,295.87,893,775,0
7047824,300.50,893,774,0
7047834,305.28,893,775,0
7047844,309.39,893,774,0
7047854,313.65,893,775,0
7047864,316.97,893,774,0
7047874,320.06,893,775,0
7047884,322.19,893,774,0
7047895,324.23,893,774,0
7047905,325.49,893,775,0
7047915,326.46,893,774,0
7047925,326.49,893,775,0
7047936,326.17,893,774,0
7047945,325.09,893,775,0
7047955,323.86,893,774,0
7047965,321.85,893,775,0
7047975,319.49,893,774,0
7047985,316.95,893,775,0
7047995,315.29,893,774,0
7048005,315.67,893,775,0
7048015,319.72,893,774,0
7048025,328.84,893,775,0
7048035,345.56,893,774,0
7048045,371.84,893,775,0
7048055,408.83,893,774,0
7048074,453.28,884,773,0
7048077,501.71,884,774,0
7048086,550.87,884,775,0
7048096,597.92,884,773,0
7048107,639.86,884,775,0
7048116,674.10,884,773,0
7048126,698.80,884,775,0
7048136,716.09,884,773,0
7048146,728.23,884,775,0
7048156,736.78,884,773,0
7048166,742.76,884,775,0
7048176,746.95,884,773,0
7048186,749.45,884,775,0
7048196,747.34,884,773,0
7048206,738.54,884,775,0
7048216,721.32,884,773,0
7048226,695.47,884,775,0
7048236,661.08,884,773,0
7048246,618.76,884,775,0
7048256,569.33,884,773,0
7048266,517.63,884,775,0
7048276,466.83,884,773,0
7048286,420.59,884,775,0
7048296,380.43,884,773,0
7048306,347.90,884,775,0
7048316,323.25,884,772,0
7048326,307.49,884,775,0
7048336,299.63,884,773,0
7048346,299.87,884,775,0
7048356,306.29,884,772,0
7048366,318.03,884,775,0
7048376,333.07,884,772,0
7048386,350.53,884,775,0
7048396,368.12,884,772,0
7048407,385.09,884,775,0
7048417,399.34,884,772,0
7048427,410.81,884,775,0
7048437,418.19,884,772,0
7048448,421.95,884,775,0
7048457,421.15,884,772,0
7048467,416.95,884,775,0
7048477,408.74,884,772,0
7048487,398.36,884,775,0
7048497,385.39,884,772,0
7048507,371.65,884,775,0
7048517,356.54,884,772,0
7048527,342.19,884,775,0
7048537,327.78,884,772,0
7048547,315.12,884,775,0
7048557,303.21,884,772,0
7048567,293.72,884,775,0
7048577,285.66,884,772,0
7048587,280.28,884,776,0
7048597,276.04,884,772,0
7048607,274.31,884,775,0
7048617,273.57,884,772,0
7048627,274.99,884,775,0
7048637,276.75,884,772,0
7048647,280.04,884,775,0
7048657,283.37,884,772,0
7048667,287.84,884,775,0
7048677,291.96,884,772,0
7048687,296.99,884,775,0
7048697,301.19,884,772,0
7048707,305.98,884,775,0
7048717,309.63,884,772,0
7048727,313.60,884,775,0
7048737,316.33,884,772,0
7048748,319.23,884,775,0
7048758,320.66,884,772,0
7048768,322.18,884,775,0
7048778,322.17,884,772,0
7048788,322.25,884,775,0
7048798,321.14,884,772,0
7048808,320.37,884,775,0
7048818,318.67,884,772,0
7048828,318.09,884,775,0
7048838,317.80,884,772,0
7048848,320.73,884,775,0
7048858,326.60,884,772,0
7048868,338.76,884,775,0
7048878,357.35,884,772,0
7048888,385.79,884,775,0
7048907,423.44,833,774,0
7048910,468.09,833,775,0
7048919,515.46,833,773,0
7048929,563.45,833,775,0
7048939,608.23,833,773,0
7048949,648.28,833,775,0
7048960,680.16,833,773,0
7048969,703.09,833,775,0
7048979,719.09,833,773,0
7048989,730.33,833,775,0
7048999,738.16,833,773,0
7049009,743.69,833,775,0
7049019,747.51,833,773,0
7049029,750.23,833,776,0
7049039,748.49,833,773,0
7049049,741.31,833,775,0
7049059,726.30,833,773,0
7049069,703.63,833,775,0
7049079,672.50,833,773,0
7049089,634.46,833,775,0
7049099,589.24,833,773,0
7049109,542.37,833,775,0
7049119,495.24,833,773,0
7049129,452.53,833,775,0
7049139,414.53,833,773,0
7049149,384.15,833,775,0
7049159,360.15,833,773,0
7049169,344.59,833,775,0
7049179,335.41,833,773,0
7049189,333.92,833,775,0
7049199,337.46,833,773,0
7049209,346.75,833,775,0
7049219,358.65,833,773,0
7049229,373.59,833,775,0
7049239,388.28,833,773,0
7049249,403.54,833,775,0
7049260,416.28,833,773,0
7049270,427.38,833,775,0
7049280,434.59,833,774,0
7049290,439.04,833,775,0
7049300,438.95,833,774,0
7049310,436.35,833,775,0
7049320,429.43,833,774,0
7049330,420.77,833,775,0
7049340,408.93,833,774,0
7049350,396.05,833,775,0
7049360,381.55,833,774,0
7049370,367.71,833,775,0
7049380,353.14,833,774,0
7049390,340.20,833,775,0
7049400,327.28,833,774,0
7049410,316.53,833,775,0
7049420,306.77,833,774,0
7049431,299.47,833,775,0
7049441,293.28,833,775,0
7049451,289.77,833,775,0
7049461,287.52,833,774,0
7049472,287.75,833,774,0
7049481,289.11,833,774,0
7049491,292.38,833,775,0
7049501,296.17,833,775,0
7049511,301.09,833,774,0
7049521,306.03,833,775,0
7049531,311.47,833,775,0
7049541,316.30,833,774,0
7049551,321.18,833,774,0
7049561,325.03,833,775,0
7049571,328.75,833,775,0
7049581,331.39,833,775,0
7049591,333.85,833,774,0
7049601,334.96,833,775,0
7049611,335.75,833,775,0
7049621,335.22,833,775,0
7049631,334.21,833,774,0
7049641,332.13,833,775,0
7049651,329.91,833,775,0
7049661,327.02,833,775,0
7049671,325.34,833,774,0
