Time,PPG,IBI,GSR,GSR_Event
349100,303.54,572,790,0
349110,278.99,572,795,0
349120,261.30,572,790,0
349130,250.36,572,795,0
349140,245.80,572,790,0
349150,246.72,572,795,0
349160,252.20,572,790,0
349170,261.53,572,794,0
349180,274.10,572,790,0
349190,288.04,572,795,0
349200,302.08,572,790,0
349210,315.13,572,795,0
349220,326.53,572,790,0
349230,335.76,572,795,0
349240,342.52,572,790,0
349250,346.69,572,794,0
349260,348.41,572,790,0
349271,347.86,572,795,0
349281,345.37,572,790,0
349291,341.36,572,795,0
349301,336.15,572,791,0
349312,330.15,572,795,0
349321,323.80,572,790,0
349331,317.39,572,794,0
349341,311.32,572,791,0
349351,305.91,572,795,0
349361,301.82,572,790,0
349371,299.86,572,794,0
349381,301.23,572,791,0
349391,307.29,572,795,0
349401,319.42,572,790,0
349411,339.14,572,795,0
349421,367.77,572,791,0
349431,405.72,572,795,0
349441,451.83,572,790,0
349451,502.07,572,795,0
349461,552.96,572,790,0
349480,601.70,602,791,0
349484,645.68,602,794,0
349492,682.63,602,795,0
349502,711.07,602,792,0
349512,731.02,602,795,0
349522,745.03,602,792,0
349532,754.88,602,795,0
349542,761.81,602,792,0
349552,766.67,602,795,0
349562,770.07,602,792,0
349572,772.45,602,795,0
349582,774.07,602,791,0
349592,771.65,602,795,0
349602,762.71,602,792,0
349612,745.74,602,795,0
349622,719.55,602,792,0
349632,683.73,602,795,0
349642,638.51,602,792,0
349652,584.53,602,795,0
349662,526.55,602,792,0
349672,468.40,602,795,0
349682,413.30,602,792,0
349692,363.92,602,795,0
349702,322.20,602,792,0
349712,289.27,602,795,0
349722,265.75,602,792,0
349732,251.21,602,795,0
349742,245.10,602,792,0
349752,246.14,602,794,0
349762,253.17,602,792,0
349772,264.56,602,795,0
349783,278.84,602,792,0
349793,294.36,602,795,0
349803,309.94,602,793,0
349813,324.40,602,795,0
349824,337.01,602,794,0
349833,347.03,602,795,0
349843,354.35,602,793,0
349853,358.70,602,795,0
349863,360.42,602,793,0
349873,359.61,602,795,0
349883,356.77,602,793,0
349893,352.30,602,795,0
349903,346.68,602,793,0
349913,340.22,602,795,0
349923,333.47,602,793,0
349933,326.73,602,795,0
349943,320.89,602,793,0
349953,316.73,602,795,0
349963,315.69,602,793,0
349973,319.30,602,794,0
349983,329.50,602,793,0
349993,347.86,602,795,0
350003,375.50,602,793,0
350013,412.85,602,795,0
350023,458.50,602,794,0
350033,508.36,602,795,0
350043,559.04,602,793,0
350062,607.24,582,793,0
350065,650.33,582,794,0
350074,686.36,582,794,0
350084,713.81,582,794,0
350094,733.06,582,794,0
350104,746.55,582,794,0
350114,755.98,582,794,0
350124,762.59,582,794,0
350134,767.21,582,794,0
350144,770.45,582,795,0
350154,770.36,582,794,0
350164,764.46,582,795,0
350174,751.04,582,795,0
350184,728.74,582,794,0
350194,696.76,582,794,0
350204,655.09,582,795,0
350214,604.32,582,794,0
350224,547.70,582,794,0
350234,488.94,582,794,0
350244,431.58,582,794,0
350254,378.52,582,795,0
350264,332.33,582,794,0
350274,294.52,582,794,0
350284,265.99,582,795,0
350295,246.92,582,793,0
350305,237.30,582,795,0
350315,235.97,582,793,0
350325,241.85,582,795,0
350336,253.17,582,793,0
350345,268.37,582,795,0
350355,285.58,582,793,0
350365,303.40,582,795,0
350375,320.30,582,792,0
350385,335.46,582,795,0
350395,347.97,582,793,0
350405,357.58,582,795,0
350415,363.96,582,793,0
350425,367.36,582,795,0
350435,367.77,582,793,0
350445,365.78,582,795,0
350455,361.56,582,793,0
350465,355.82,582,795,0
350475,348.76,582,793,0
350485,341.03,582,795,0
350495,332.88,582,792,0
350505,325.29,582,795,0
350515,318.86,582,792,0
350525,315.30,582,795,0
350535,316.02,582,792,0
350545,323.30,582,795,0
350555,338.43,582,793,0
350565,363.33,582,795,0
350575,398.50,582,792,0
350585,443.31,582,795,0
350595,493.32,582,793,0
350605,544.99,582,795,0
350615,594.79,582,793,0
350625,640.24,582,795,0
350645,678.66,583,794,0
350648,708.42,583,794,0
350657,729.25,583,791,0
350667,743.87,583,795,0
350678,754.11,583,790,0
350687,761.28,583,795,0
350697,766.29,583,791,0
350707,769.33,583,795,0
350717,767.52,583,790,0
350727,759.14,583,795,0
350737,742.29,583,791,0
350747,715.93,583,795,0
350757,679.61,583,790,0
350767,633.79,583,795,0
350777,579.34,583,791,0
350787,520.56,583,795,0
350797,460.69,583,790,0
350807,403.36,583,795,0
350817,351.18,583,791,0
350827,306.34,583,795,0
350837,269.89,583,790,0
350848,242.80,583,795,0
350857,225.03,583,790,0
350867,216.32,583,795,0
350877,215.62,583,790,0
350887,221.82,583,795,0
350897,233.23,583,791,0
350907,248.38,583,795,0
350917,265.58,583,790,0
350927,283.58,583,795,0
350937,300.89,583,791,0
350947,316.61,583,795,0
350957,329.88,583,791,0
350967,340.33,583,795,0
350977,347.56,583,790,0
350987,351.72,583,795,0
350997,352.88,583,790,0
351007,351.54,583,795,0
351017,347.99,583,789,0
351027,342.85,583,795,0
351037,336.51,583,790,0
351047,329.59,583,795,0
351057,322.64,583,789,0
351067,316.66,583,795,0
351077,312.73,583,789,0
351087,312.51,583,795,0
351097,317.72,583,789,0
351107,329.97,583,795,0
351117,350.81,583,789,0
351127,381.30,583,795,0
351137,421.49,583,789,0
351148,468.92,583,795,0
351158,519.60,583,788,0
351168,570.03,583,795,0
351178,617.42,583,789,0
351198,659.21,552,788,0
351201,693.39,552,791,0
351210,718.77,552,795,0
351220,736.54,552,791,0
351230,748.98,552,795,0
351240,757.69,552,790,0
351250,763.78,552,795,0
351260,766.97,552,790,0
351270,764.88,552,795,0
351280,756.00,552,790,0
351290,738.77,552,794,0
351300,712.23,552,791,0
351310,675.86,552,795,0
351320,629.92,552,790,0
351330,575.73,552,795,0
351340,516.97,552,791,0
351350,456.55,552,795,0
351361,397.67,552,791,0
351371,342.83,552,795,0
351381,294.28,552,792,0
351391,253.31,552,795,0
351401,221.20,552,792,0
351411,198.34,552,795,0
351421,184.82,552,792,0
351431,179.99,552,795,0
351441,183.08,552,793,0
351451,192.48,552,795,0
351461,206.91,552,792,0
351471,224.59,552,795,0
351481,244.17,552,793,0
351491,263.92,552,794,0
351501,282.76,552,792,0
351511,299.50,552,795,0
351521,313.75,552,793,0
351532,324.80,552,795,0
351542,332.66,552,793,0
351552,337.22,552,795,0
351562,339.00,552,794,0
351572,338.01,552,794,0
351582,334.88,552,793,0
351592,329.82,552,795,0
351602,323.53,552,794,0
351612,316.38,552,794,0
351622,309.41,552,793,0
351632,303.50,552,795,0
351642,300.31,552,794,0
351652,301.29,552,794,0
351662,308.19,552,793,0
351672,322.53,552,795,0
351682,345.90,552,794,0
351692,378.80,552,794,0
351703,421.12,552,794,0
351713,469.98,552,794,0
351723,521.50,552,795,0
351733,572.35,552,794,0
351744,619.73,552,795,0
351753,661.13,552,794,0
351763,694.82,552,795,0
351782,719.73,585,794,0
351785,737.17,585,795,0
351794,749.37,585,793,0
351804,757.96,585,795,0
351814,763.97,585,793,0
351824,765.95,585,795,0
351834,762.15,585,794,0
351844,751.09,585,795,0
351854,731.48,585,793,0
351864,702.75,585,794,0
351874,664.81,585,793,0
351884,617.81,585,795,0
351894,564.17,585,793,0
351904,506.99,585,795,0
351915,449.05,585,792,0
351924,393.23,585,795,0
351934,341.44,585,795,0
351944,295.32,585,795,0
351954,256.09,585,792,0
351964,224.95,585,795,0
351974,202.04,585,793,0
351984,187.54,585,795,0
351994,180.78,585,793,0
352004,181.14,585,795,0
352014,187.44,585,793,0
352024,198.63,585,795,0
352034,213.22,585,792,0
352044,230.17,585,795,0
352054,247.95,585,793,0
352064,265.71,585,795,0
352074,282.42,585,793,0
352084,297.55,585,795,0
352094,310.37,585,793,0
352104,320.76,585,795,0
352114,328.55,585,793,0
352124,333.95,585,795,0
352134,336.93,585,793,0
352144,337.89,585,794,0
352154,336.85,585,793,0
352164,334.41,585,795,0
352174,330.73,585,793,0
352184,326.44,585,795,0
352194,322.15,585,793,0
352204,319.15,585,795,0
352215,318.63,585,792,0
352225,322.56,585,795,0
352235,332.42,585,792,0
352245,350.08,585,795,0
352256,376.50,585,791,0
352265,411.96,585,795,0
352275,455.90,585,792,0
352285,504.53,585,795,0
352295,554.22,585,791,0
352305,601.98,585,795,0
352315,645.10,585,792,0
352334,681.63,552,791,0
352337,710.41,552,791,0
352346,730.69,552,795,0
352356,744.88,552,791,0
352366,754.82,552,795,0
352376,761.77,552,794,0
352386,766.60,552,795,0
352396,768.90,552,791,0
352406,766.40,552,795,0
352416,757.03,552,791,0
352427,739.40,552,795,0
352436,712.93,552,791,0
352446,677.21,552,795,0
352456,632.19,552,791,0
352466,579.29,552,795,0
352476,522.03,552,791,0
352486,463.78,552,794,0
352496,407.19,552,791,0
352506,354.37,552,795,0
352516,307.08,552,791,0
352526,266.85,552,795,0
352536,234.45,552,790,0
352546,210.36,552,794,0
352556,194.35,552,791,0
352566,186.19,552,795,0
352576,184.93,552,791,0
352586,189.75,552,795,0
352596,199.26,552,791,0
352606,212.29,552,795,0
352616,227.42,552,789,0
352626,243.67,552,795,0
352636,259.79,552,789,0
352646,275.11,552,795,0
352656,288.71,552,789,0
352666,300.32,552,794,0
352676,309.53,552,789,0
352686,316.27,552,795,0
352696,320.35,552,793,0
352706,322.08,552,795,0
352716,321.54,552,790,0
352727,319.11,552,795,0
352737,315.01,552,789,0
352747,309.78,552,795,0
352757,303.97,552,789,0
352768,298.67,552,795,0
352777,294.91,552,789,0
352787,294.25,552,795,0
352797,298.42,552,789,0
352807,309.22,552,795,0
352817,327.88,552,790,0
352827,355.69,552,795,0
352837,393.03,552,790,0
352847,439.35,552,795,0
352857,490.37,552,792,0
352867,542.46,552,795,0
352886,592.34,552,795,0
352889,637.75,552,795,0
352898,676.40,552,792,0
352908,706.75,552,795,0
352918,728.04,552,791,0
352928,742.98,552,795,0
352939,753.45,552,791,0
352948,760.81,552,795,0
352958,765.97,552,790,0
352968,769.58,552,794,0
352978,768.98,552,790,0
352988,762.21,552,795,0
352998,747.36,552,790,0
353008,723.21,552,795,0
353018,689.16,552,791,0
353028,645.44,552,794,0
353038,592.30,552,790,0
353048,533.49,552,795,0
353058,472.36,552,791,0
353068,412.34,552,795,0
353078,356.14,552,790,0
353088,305.95,552,795,0
353098,263.07,552,791,0
353108,228.68,552,795,0
353118,203.36,552,790,0
353128,187.22,552,795,0
353138,179.91,552,791,0
353148,180.67,552,795,0
353158,188.31,552,790,0
353168,201.63,552,795,0
353178,219.18,552,791,0
353188,239.49,552,795,0
353198,260.98,552,790,0
353208,282.33,552,795,0
353218,302.46,552,791,0
353228,320.58,552,795,0
353239,335.92,552,791,0
353249,347.99,552,795,0
353259,356.73,552,792,0
353269,362.13,552,795,0
353280,364.40,552,792,0
353289,363.90,552,795,0
353299,361.06,552,791,0
353309,356.67,552,795,0
353319,351.84,552,792,0
353329,347.69,552,795,0
353339,345.94,552,792,0
353349,348.31,552,795,0
353359,356.83,552,792,0
353369,372.87,552,795,0
353379,397.77,552,792,0
353389,432.08,552,795,0
353399,474.53,552,792,0
353409,521.25,552,795,0
353419,568.92,552,792,0
353429,614.42,552,795,0
353439,655.52,552,792,0
353449,690.04,552,795,0
353459,716.42,552,792,0
353469,734.90,552,795,0
353479,747.83,552,792,0
353489,756.88,552,795,0
353508,763.22,622,795,0
353511,767.65,622,795,0
353520,770.76,622,793,0
353530,772.93,622,795,0
353540,771.32,622,793,0
353550,763.25,622,795,0
353560,746.81,622,793,0
353570,720.76,622,795,0
353580,685.14,622,792,0
353590,639.88,622,795,0
353600,585.70,622,793,0
353610,526.61,622,795,0
353620,466.94,622,794,0
353630,410.26,622,795,0
353640,359.35,622,795,0
353650,315.92,622,795,0
353660,281.44,622,795,0
353670,256.45,622,794,0
353680,241.06,622,795,0
353690,234.61,622,795,0
353700,236.01,622,794,0
353710,243.94,622,794,0
353720,256.69,622,794,0
353730,272.72,622,795,0
353740,290.46,622,795,0
353751,308.41,622,795,0
353761,325.13,622,795,0
353771,339.58,622,795,0
353781,350.98,622,795,0
353792,358.87,622,794,0
353801,362.98,622,795,0
353811,363.37,622,794,0
353821,360.39,622,795,0
353831,354.57,622,794,0
353841,346.69,622,794,0
353851,337.52,622,794,0
353861,328.41,622,794,0
353871,320.74,622,795,0
353881,316.23,622,794,0
353891,316.98,622,795,0
353901,325.08,622,795,0
353911,342.42,622,794,0
353921,370.06,622,794,0
353931,408.49,622,795,0
353941,455.36,622,795,0
353951,506.63,622,795,0
353961,558.56,622,794,0
353971,607.81,622,794,0
353981,651.49,622,795,0
354000,687.73,492,794,0
354003,714.81,492,794,0
354012,733.77,492,794,0
354022,747.04,492,795,0
354032,756.33,492,794,0
354042,762.83,492,794,0
354052,767.38,492,795,0
354062,770.57,492,795,0
354072,772.80,492,794,0
354082,774.36,492,795,0
354092,773.48,492,795,0
354102,766.31,492,795,0
354112,750.06,492,794,0
354122,723.00,492,795,0
354132,684.47,492,794,0
354142,634.87,492,795,0
354152,574.87,492,794,0
354162,507.66,492,795,0
354172,438.85,492,794,0
354182,373.11,492,795,0
354192,314.02,492,794,0
354202,264.00,492,795,0
354212,224.23,492,794,0
354222,195.27,492,794,0
354232,176.93,492,794,0
354242,168.34,492,795,0
354252,168.15,492,794,0
354263,174.84,492,794,0
354273,186.71,492,794,0
354283,202.14,492,794,0
354293,219.59,492,794,0
354304,237.75,492,795,0
354313,255.48,492,794,0
354323,271.92,492,795,0
354333,286.35,492,794,0
354343,298.29,492,795,0
354353,307.46,492,794,0
354363,313.83,492,795,0
354373,317.36,492,794,0
354383,318.36,492,795,0
354393,317.18,492,794,0
354403,314.60,492,794,0
354413,311.63,492,794,0
354423,309.82,492,794,0
354433,310.73,492,793,0
354443,316.55,492,794,0
354453,329.07,492,794,0
354463,350.14,492,794,0
354473,380.70,492,794,0
354483,420.69,492,795,0
354493,467.84,492,794,0
354503,518.46,492,795,0
354513,568.93,492,794,0
354523,616.35,492,795,0
354542,658.08,542,794,0
354545,692.25,542,795,0
354554,717.93,542,793,0
354564,735.95,542,794,0
354574,748.57,542,793,0
354584,757.40,542,794,0
354594,763.58,542,794,0
354604,765.98,542,794,0
354614,762.08,542,793,0
354624,750.02,542,794,0
354634,728.33,542,793,0
354644,696.38,542,794,0
354654,654.23,542,794,0
354664,602.00,542,795,0
354674,542.13,542,793,0
354684,478.58,542,795,0
354694,414.85,542,794,0
354704,354.04,542,794,0
354714,298.35,542,793,0
354724,249.48,542,794,0
354734,208.70,542,794,0
354744,177.04,542,795,0
354754,154.78,542,793,0
354764,141.82,542,795,0
354775,137.46,542,793,0
354785,140.88,542,794,0
354795,150.69,542,794,0
354805,165.65,542,795,0
354816,184.14,542,794,0
354825,204.67,542,795,0
354835,225.64,542,794,0
354845,245.98,542,794,0
354855,264.46,542,794,0
354865,280.43,542,794,0
354875,293.20,542,793,0
354885,302.61,542,794,0
354895,308.52,542,793,0
354905,311.27,542,795,0
354915,310.98,542,794,0
354925,308.24,542,795,0
354935,303.50,542,794,0
354945,297.65,542,795,0
354955,291.54,542,794,0
354965,286.66,542,795,0
354975,284.36,542,793,0
354985,286.66,542,795,0
354995,294.99,542,793,0
355005,311.15,542,795,0
355015,336.18,542,793,0
355025,370.62,542,795,0
355035,413.42,542,793,0
355045,462.97,542,795,0
355055,515.05,542,793,0
355065,566.46,542,794,0
355075,614.15,542,793,0
355094,655.94,552,793,0
355097,690.15,552,794,0
355106,716.38,552,795,0
355116,734.74,552,794,0
355126,746.13,552,795,0
355136,750.03,552,794,0
355146,746.04,552,795,0
355156,733.43,552,794,0
355166,712.17,552,795,0
355176,681.95,552,794,0
355186,642.79,552,795,0
355196,596.18,552,793,0
355206,545.09,552,795,0
355216,491.66,552,794,0
355226,438.28,552,794,0
355236,386.51,552,793,0
355246,338.40,552,794,0
355256,295.25,552,793,0
355266,258.53,552,795,0
355276,228.67,552,793,0
355287,206.40,552,795,0
355297,191.79,552,794,0
355307,184.83,552,795,0
355317,184.71,552,794,0
355328,190.75,552,795,0
355337,201.58,552,794,0
355347,216.15,552,795,0
355357,232.95,552,794,0
355367,250.79,552,794,0
355377,268.30,552,794,0
355387,284.62,552,795,0
355397,298.88,552,794,0
355407,310.74,552,795,0
355417,319.78,552,794,0
355427,326.02,552,795,0
355437,329.40,552,794,0
355447,330.22,552,795,0
355457,328.78,552,794,0
355467,325.63,552,795,0
355477,321.33,552,794,0
355487,317.03,552,795,0
355497,314.02,552,794,0
355507,313.89,552,795,0
355517,318.38,552,794,0
355527,329.32,552,795,0
355537,348.21,552,794,0
355547,375.79,552,795,0
355557,412.02,552,794,0
355567,456.16,552,795,0
355577,504.75,552,794,0
355587,554.29,552,795,0
355606,601.60,512,795,0
355609,644.19,512,796,0
355618,680.39,512,794,0
355628,709.07,512,795,0
355638,729.67,512,794,0
355648,744.12,512,795,0
355658,752.49,512,795,0
355668,753.88,512,795,0
355678,747.75,512,794,0
355688,733.38,512,795,0
355698,710.12,512,794,0
355708,677.73,512,795,0
355718,636.50,512,794,0
355728,588.52,512,795,0
355738,536.46,512,794,0
355748,482.67,512,795,0
355758,429.62,512,794,0
355768,379.51,512,795,0
355778,334.01,512,794,0
355788,294.32,512,795,0
355799,261.40,512,794,0
355809,235.99,512,795,0
355819,218.21,512,794,0
355829,207.78,512,795,0
355840,204.16,512,795,0
355849,206.47,512,795,0
355859,213.70,512,795,0
355869,224.67,512,795,0
355879,238.10,512,794,0
355889,252.77,512,795,0
355899,267.50,512,794,0
355909,281.40,512,795,0
355919,293.88,512,795,0
355929,304.38,512,795,0
355939,312.53,512,794,0
355949,318.20,512,795,0
355959,321.44,512,794,0
355969,322.47,512,795,0
355979,321.38,512,794,0
355989,318.65,512,795,0
355999,314.73,512,795,0
356009,310.57,512,794,0
356019,307.27,512,795,0
356029,306.37,512,795,0
356039,309.56,512,794,0
356049,318.78,512,794,0
356059,335.30,512,795,0
356069,360.54,512,795,0
356079,395.09,512,795,0
356089,438.74,512,795,0
356099,487.76,512,794,0
356109,538.53,512,795,0
356119,587.79,512,795,0
356139,633.11,532,794,0
356142,672.20,532,795,0
356151,703.34,532,795,0
356161,725.61,532,795,0
356171,741.24,532,794,0
356182,752.18,532,795,0
356191,759.84,532,794,0
356201,765.16,532,795,0
356211,767.60,532,794,0
356221,764.68,532,795,0
356231,754.62,532,794,0
356241,735.83,532,795,0
356251,707.42,532,794,0
356261,669.11,532,795,0
356271,621.34,532,795,0
356281,565.86,532,795,0
356291,506.55,532,794,0
356301,446.73,532,795,0
356311,389.55,532,794,0
356321,337.57,532,795,0
356331,292.66,532,794,0
356341,255.86,532,795,0
356352,227.87,532,794,0
356361,208.88,532,795,0
356371,198.42,532,794,0
356381,195.76,532,795,0
356391,199.78,532,794,0
356401,209.02,532,795,0
356411,222.04,532,794,0
356421,237.50,532,795,0
356431,253.98,532,794,0
356441,270.40,532,795,0
356451,285.66,532,794,0
356461,299.01,532,795,0
356471,310.02,532,794,0
356481,318.41,532,795,0
356491,324.03,532,794,0
356501,327.11,532,795,0
356511,327.72,532,794,0
356521,326.35,532,794,0
356531,323.59,532,794,0
356541,320.37,532,795,0
356551,317.86,532,794,0
356561,317.77,532,795,0
356571,321.61,532,794,0
356581,331.46,532,795,0
356591,349.06,532,794,0
356601,375.92,532,795,0
356611,412.15,532,794,0
356621,456.85,532,795,0
356631,505.88,532,794,0
356641,556.02,532,795,0
356652,604.10,532,794,0
356671,647.40,533,793,0
356674,683.62,533,795,0
356683,711.63,533,795,0
356694,731.29,533,793,0
356703,745.04,533,795,0
356713,754.67,533,794,0
356723,761.41,533,795,0
356733,766.13,533,794,0
356743,769.44,533,795,0
356753,770.51,533,794,0
356763,766.07,533,795,0
356773,753.62,533,793,0
356783,731.92,533,795,0
356793,699.93,533,794,0
356803,657.48,533,795,0
356813,604.79,533,793,0
356823,544.25,533,795,0
356833,480.41,533,793,0
356843,417.50,533,795,0
356853,358.46,533,793,0
356864,306.12,533,794,0
356873,262.20,533,793,0
356883,228.03,533,795,0
356893,203.68,533,794,0
356903,189.20,533,794,0
356913,183.66,533,794,0
356923,186.03,533,795,0
356933,194.68,533,793,0
356943,208.19,533,795,0
356953,224.72,533,794,0
356963,242.76,533,795,0
356973,260.79,533,793,0
356983,277.95,533,795,0
356993,293.14,533,794,0
357003,305.91,533,795,0
357013,315.75,533,793,0
357023,322.68,533,795,0
357033,326.68,533,793,0
357043,328.15,533,795,0
357053,327.33,533,794,0
357063,325.17,533,795,0
357073,322.64,533,793,0
357083,321.12,533,795,0
357093,322.28,533,793,0
357103,328.33,533,795,0
357113,341.13,533,793,0
357123,362.30,533,795,0
357133,392.98,533,794,0
357143,433.66,533,795,0
357153,480.86,533,793,0
357164,530.96,533,795,0
357174,580.56,533,794,0
357184,626.72,533,795,0
357194,667.09,533,793,0
357214,699.63,542,793,0
357217,722.97,542,794,0
357226,739.31,542,795,0
357236,750.79,542,794,0
357246,758.78,542,795,0
357256,764.37,542,794,0
357266,768.33,542,795,0
357276,770.25,542,794,0
357286,766.70,542,795,0
357296,755.56,542,794,0
357306,734.95,542,795,0
357316,703.81,542,793,0
357326,661.91,542,795,0
357336,609.78,542,793,0
357346,549.12,542,795,0
357356,484.75,542,794,0
357366,420.58,542,795,0
357377,360.19,542,794,0
357387,306.48,542,795,0
357397,261.25,542,794,0
357407,225.56,542,795,0
357417,199.89,542,794,0
357427,183.98,542,795,0
357437,177.04,542,794,0
357447,177.97,542,795,0
357457,185.35,542,794,0
357467,197.50,542,795,0
357477,212.78,542,794,0
357487,229.69,542,795,0
357497,247.01,542,794,0
357507,263.64,542,795,0
357517,278.62,542,793,0
357527,291.29,542,795,0
357537,301.36,542,794,0
357548,308.62,542,795,0
357558,313.02,542,794,0
357568,314.77,542,795,0
357578,314.24,542,794,0
357588,312.03,542,795,0
357598,308.93,542,794,0
357608,306.21,542,795,0
357618,305.46,542,795,0
357628,308.58,542,795,0
357638,317.28,542,794,0
357648,333.44,542,795,0
357658,358.68,542,795,0
357668,393.83,542,794,0
357678,438.32,542,794,0
357688,488.11,542,795,0
357698,539.55,542,794,0
357708,589.61,542,795,0
357719,635.42,542,795,0
357738,674.51,525,794,0
357740,705.21,525,795,0
357750,726.92,525,794,0
357761,742.11,525,794,0
357771,752.75,525,794,0
357781,760.20,525,795,0
357791,765.45,525,794,0
357801,768.40,525,795,0
357811,766.31,525,794,0
357821,756.79,525,795,0
357831,737.99,525,793,0
357841,708.94,525,794,0
357851,669.49,525,794,0
357861,619.75,525,795,0
357871,561.03,525,794,0
357881,497.51,525,794,0
357891,433.28,525,794,0
357901,371.91,525,795,0
357911,315.97,525,793,0
357921,267.33,525,795,0
357932,227.38,525,793,0
357942,197.01,525,795,0
357952,176.26,525,794,0
357962,164.70,525,795,0
357972,161.45,525,794,0
357982,165.34,525,795,0
357992,174.84,525,793,0
358002,188.60,525,795,0
358012,205.01,525,793,0
358022,222.75,525,795,0
358032,240.52,525,793,0
358042,257.47,525,795,0
358052,272.80,525,794,0
358062,286.14,525,795,0
358072,297.03,525,794,0
358082,305.46,525,795,0
358092,311.37,525,793,0
358103,314.99,525,795,0
358113,316.58,525,793,0
358123,316.79,525,795,0
358133,316.29,525,794,0
358144,316.42,525,795,0
358153,318.31,525,793,0
358163,323.83,525,795,0
358173,334.68,525,794,0
358183,352.52,525,795,0
358193,378.12,525,793,0
358203,412.11,525,795,0
358213,453.91,525,794,0
358223,500.82,525,795,0
358233,549.22,525,793,0
358243,596.08,525,795,0
358253,638.79,525,793,0
358273,675.66,534,793,0
358275,705.21,534,795,0
358285,726.79,534,795,0
358295,741.89,534,794,0
358305,752.47,534,795,0
358316,757.94,534,794,0
358326,756.97,534,795,0
358336,748.24,534,794,0
358346,730.85,534,795,0
358356,704.15,534,794,0
358366,668.41,534,795,0
358376,623.63,534,794,0
358386,572.18,534,795,0
358396,517.01,534,794,0
358406,461.25,534,795,0
358416,407.18,534,794,0
358426,356.90,534,795,0
358436,311.63,534,794,0
358446,272.70,534,795,0
358456,240.82,534,794,0
358466,216.40,534,794,0
358476,199.09,534,794,0
358487,188.65,534,795,0
358497,184.38,534,794,0
358507,185.47,534,795,0
358517,190.81,534,794,0
358528,199.44,534,794,0
358537,210.15,534,794,0
358547,222.06,534,795,0
358557,234.22,534,794,0
358567,245.85,534,795,0
358577,256.35,534,794,0
358587,265.33,534,795,0
358597,272.48,534,794,0
358607,277.78,534,795,0
358617,281.14,534,794,0
358627,282.77,534,795,0
358637,282.75,534,794,0
358647,281.29,534,795,0
358657,278.67,534,794,0
358667,275.38,534,795,0
358677,272.05,534,794,0
358687,269.64,534,795,0
358697,269.32,534,794,0
358707,272.48,534,795,0
358717,280.74,534,794,0
358727,295.64,534,795,0
358737,318.46,534,794,0
358747,349.57,534,795,0
358757,388.87,534,794,0
358767,435.49,534,795,0
358777,486.65,534,794,0
358796,538.57,524,794,0
358799,588.15,524,795,0
358808,632.85,524,795,0
358818,671.12,524,795,0
358828,701.82,524,795,0
358838,724.37,524,795,0
358848,740.16,524,795,0
358858,749.28,524,795,0
358868,751.04,524,795,0
358878,745.11,524,795,0
358888,730.89,524,795,0
358898,707.95,524,795,0
358908,676.17,524,795,0
358918,635.92,524,794,0
358928,589.44,524,794,0
358938,539.42,524,795,0
358948,487.83,524,795,0
358958,437.05,524,795,0
358968,388.99,524,795,0
358978,345.19,524,795,0
358988,306.56,524,794,0
358999,274.08,524,795,0
359009,248.17,524,794,0
359019,229.18,524,795,0
359029,216.61,524,794,0
359040,210.13,524,795,0
359049,208.93,524,794,0
359059,212.17,524,795,0
359069,218.80,524,794,0
359079,227.99,524,795,0
359089,238.58,524,794,0
359099,249.85,524,795,0
359109,260.95,524,795,0
359119,271.42,524,795,0
359129,280.77,524,795,0
359139,288.68,524,795,0
359149,294.82,524,794,0
359159,299.29,524,795,0
359169,302.03,524,794,0
359179,303.18,524,795,0
359189,302.78,524,795,0
359199,301.13,524,795,0
359209,298.52,524,794,0
359219,295.54,524,795,0
359229,292.76,524,794,0
359239,291.20,524,795,0
359249,291.91,524,794,0
359259,296.18,524,795,0
359269,305.43,524,794,0
359279,321.03,524,795,0
359289,343.91,524,794,0
359299,374.28,524,795,0
359309,411.87,524,794,0
359319,455.79,524,795,0
359329,503.81,524,795,0
359349,552.42,553,794,0
359352,598.71,553,794,0
359361,640.46,553,795,0
359371,676.28,553,794,0
359382,705.16,553,795,0
359391,726.29,553,795,0
359401,738.67,553,795,0
359411,742.58,553,795,0
359421,738.04,553,795,0
359431,725.08,553,794,0
359441,703.59,553,795,0
359451,673.50,553,794,0
359461,635.50,553,795,0
359471,592.02,553,794,0
359481,545.26,553,795,0
359491,497.18,553,794,0
359501,449.64,553,795,0
359511,404.41,553,794,0
359521,363.01,553,795,0
359531,326.49,553,794,0
359541,295.53,553,795,0
359552,270.60,553,794,0
359561,252.04,553,795,0
359571,239.60,553,794,0
359581,232.99,553,795,0
359591,231.49,553,794,0
359601,234.39,553,795,0
359611,240.70,553,794,0
359621,249.62,553,795,0
359631,260.10,553,794,0
359641,271.39,553,795,0
359651,282.54,553,795,0
359661,293.05,553,795,0
359671,302.34,553,795,0
359681,310.16,553,795,0
359691,316.24,553,795,0
359701,320.63,553,795,0
359711,323.27,553,794,0
359721,324.39,553,795,0
359731,324.10,553,794,0
359741,322.74,553,795,0
359751,320.42,553,794,0
359761,317.55,553,795,0
359771,314.47,553,794,0
359781,311.84,553,795,0
359791,310.43,553,794,0
359801,311.42,553,795,0
359811,315.84,553,794,0
359821,325.31,553,795,0
359831,341.12,553,794,0
359841,364.44,553,795,0
359852,395.77,553,794,0
359862,435.01,553,795,0
359872,480.52,553,794,0
359891,528.84,542,793,0
359895,576.76,542,794,0
359903,621.61,542,795,0
359913,661.20,542,794,0
359923,693.97,542,795,0
359933,718.92,542,794,0
359943,736.39,542,795,0
359953,748.61,542,794,0
359963,757.13,542,795,0
359973,760.56,542,794,0
359983,757.91,542,795,0
359993,747.86,542,794,0
360003,729.69,542,795,0
360013,702.91,542,794,0
360023,667.92,542,795,0
360033,624.83,542,794,0
360043,576.84,542,795,0
360053,526.40,542,794,0
360064,476.48,542,794,0
360073,429.28,542,794,0
360083,386.72,542,795,0
360093,349.74,542,794,0
360103,319.43,542,795,0
360113,296.03,542,794,0
360123,279.82,542,795,0
360133,270.27,542,794,0
360143,266.85,542,795,0
360153,268.48,542,794,0
360163,274.25,542,795,0
360173,283.00,542,794,0
360183,293.89,542,795,0
360193,305.62,542,794,0
360203,317.48,542,795,0
360213,328.56,542,794,0
360223,338.47,542,795,0
360233,346.55,542,794,0
360243,352.73,542,795,0
360253,356.71,542,794,0
360263,358.73,542,795,0
360273,358.68,542,794,0
360283,357.02,542,795,0
360293,354.01,542,794,0
360303,350.50,542,795,0
360313,347.18,542,794,0
360323,345.32,542,795,0
360333,346.30,542,794,0
360343,351.99,542,795,0
360353,363.95,542,794,0
360364,383.85,542,795,0
360374,412.53,542,794,0
360384,450.30,542,795,0
360394,494.39,542,794,0
360404,541.38,542,795,0
360414,588.06,542,794,0
360433,631.76,542,793,0
360436,670.06,542,794,0
360445,701.20,542,795,0
360455,723.94,542,795,0
360465,739.86,542,795,0
360475,751.00,542,795,0
360485,758.80,542,795,0
360495,764.26,542,795,0
360505,768.08,542,795,0
360515,768.79,542,795,0
360525,763.92,542,795,0
360535,751.86,542,795,0
360545,731.33,542,795,0
360555,701.70,542,795,0
360565,663.09,542,795,0
360576,615.92,542,795,0
360585,563.32,542,795,0
360595,509.14,542,794,0
360605,456.55,542,795,0
360615,408.30,542,795,0
360625,366.51,542,795,0
360635,332.29,542,794,0
360645,306.40,542,795,0
360655,288.54,542,794,0
360665,278.26,542,795,0
360675,274.71,542,795,0
360685,276.86,542,795,0
360695,283.37,542,794,0
360705,293.03,542,795,0
360715,304.46,542,794,0
360725,316.67,542,795,0
360735,328.64,542,794,0
360745,339.68,542,795,0
360755,349.12,542,794,0
360765,356.58,542,795,0
360775,361.89,542,794,0
360785,365.10,542,795,0
360795,366.22,542,794,0
360805,365.64,542,795,0
360815,363.61,542,794,0
360825,361.07,542,795,0
360835,359.03,542,794,0
360845,359.07,542,795,0
360855,362.90,542,794,0
360865,372.70,542,795,0
360876,390.36,542,795,0
360886,417.64,542,795,0
360896,455.03,542,794,0
360906,498.91,542,795,0
360916,545.87,542,795,0
360926,592.83,542,795,0
360936,636.81,542,794,0
360946,675.23,542,795,0
360966,705.84,532,794,0
360969,727.32,532,794,0
360978,742.31,532,794,0
360988,752.80,532,794,0
360998,760.19,532,795,0
361008,765.36,532,794,0
361018,768.98,532,795,0
361028,771.52,532,795,0
361038,773.29,532,795,0
361048,774.53,532,795,0
361058,775.36,532,795,0
361068,773.15,532,794,0
361078,764.28,532,795,0
361089,746.24,532,794,0
361099,717.79,532,794,0
361109,678.56,532,794,0
361119,629.10,532,795,0
361129,570.44,532,794,0
361139,506.97,532,795,0
361149,443.98,532,794,0
361159,385.70,532,795,0
361169,335.05,532,794,0
361179,293.89,532,795,0
361189,262.98,532,794,0
361199,242.37,532,795,0
361209,231.12,532,794,0
361219,228.04,532,795,0
361229,231.67,532,794,0
361239,240.43,532,795,0
361249,252.56,532,794,0
361260,266.57,532,795,0
361270,281.02,532,794,0
361280,294.85,532,795,0
361290,307.20,532,794,0
361300,317.51,532,794,0
361310,325.33,532,794,0
361320,330.72,532,795,0
361330,333.76,532,794,0
361340,335.25,532,795,0
361350,336.11,532,794,0
361360,338.22,532,795,0
361370,343.51,532,794,0
361380,354.42,532,795,0
361390,372.76,532,794,0
361400,400.61,532,795,0
361410,438.91,532,794,0
361420,484.15,532,795,0
361431,532.75,532,794,0
361441,581.55,532,795,0
361451,627.42,532,794,0
361461,667.88,532,795,0
361472,700.53,532,794,0
361481,723.64,532,795,0
361491,739.86,532,794,0
361510,751.22,545,793,0
361513,759.12,545,794,0
361522,764.66,545,795,0
361532,768.58,545,794,0
361542,771.32,545,795,0
361552,773.24,545,794,0
361562,774.58,545,795,0
361572,773.55,545,794,0
361582,765.88,545,795,0
361592,748.39,545,794,0
361602,719.86,545,795,0
361612,679.32,545,793,0
361622,626.94,545,794,0
361632,563.40,545,794,0
361643,492.18,545,795,0
361652,419.35,545,794,0
361662,350.08,545,795,0
361672,287.40,545,793,0
361682,234.22,545,795,0
361692,191.90,545,793,0
361702,161.24,545,794,0
361712,141.84,545,793,0
361722,132.85,545,795,0
361732,132.72,545,793,0
361742,140.05,545,795,0
361752,152.85,545,793,0
361762,169.56,545,795,0
361772,188.25,545,793,0
361782,207.55,545,795,0
361792,226.07,545,793,0
361802,243.02,545,795,0
361812,257.50,545,794,0
361822,269.26,545,795,0
361832,277.88,545,793,0
361842,283.71,545,795,0
361852,286.84,545,794,0
361862,288.13,545,795,0
361872,288.52,545,793,0
361882,289.73,545,795,0
361892,293.50,545,793,0
361902,301.96,545,795,0
361912,317.02,545,794,0
361922,340.76,545,795,0
361932,374.21,545,794,0
361943,417.74,545,795,0
361953,467.66,545,794,0
361963,520.26,545,795,0
361973,572.21,545,794,0
361984,620.58,545,795,0
361993,662.62,545,794,0
362003,696.42,545,795,0
362022,720.72,512,794,0
362025,737.78,512,794,0
362034,749.67,512,794,0
362044,758.00,512,795,0
362054,763.83,512,794,0
362064,764.52,512,795,0
362074,758.02,512,794,0
362084,742.46,512,795,0
362094,716.48,512,794,0
362104,679.56,512,795,0
362114,631.95,512,794,0
362124,574.02,512,795,0
362134,509.90,512,794,0
362144,443.37,512,795,0
362155,377.99,512,794,0
362164,316.96,512,795,0
362174,262.55,512,794,0
362184,216.10,512,795,0
362194,178.78,512,794,0
362204,151.12,512,795,0
362214,132.91,512,794,0
362224,123.77,512,794,0
362234,122.55,512,794,0
362244,128.04,512,795,0
362254,138.83,512,794,0
362264,153.50,512,795,0
362274,170.66,512,794,0
362284,189.02,512,795,0
362294,207.27,512,794,0
362304,224.55,512,795,0
362314,240.15,512,794,0
362324,253.57,512,795,0
362334,264.37,512,794,0
362344,272.49,512,795,0
362354,277.95,512,794,0
362364,281.01,512,795,0
362374,281.95,512,794,0
362384,281.45,512,795,0
362394,280.46,512,794,0
362404,280.36,512,795,0
362414,282.57,512,794,0
362424,289.04,512,795,0
362434,301.63,512,794,0
362444,322.14,512,795,0
362455,351.58,512,795,0
362465,390.32,512,795,0
362475,437.45,512,795,0
362485,489.22,512,795,0
362496,541.87,512,795,0
362505,592.26,512,795,0
362524,637.66,502,794,0
362527,676.12,502,795,0
362536,706.25,502,795,0
362546,727.56,502,795,0
362556,742.52,502,795,0
362566,752.65,502,795,0
362576,756.48,502,795,0
362586,752.95,502,795,0
362596,740.80,502,795,0
362606,719.17,502,794,0
362616,687.79,502,794,0
362626,646.84,502,795,0
362636,596.92,502,794,0
362646,541.40,502,794,0
362656,483.16,502,795,0
362667,425.22,502,794,0
362676,370.21,502,795,0
362686,320.05,502,795,0
362696,276.06,502,795,0
362706,239.53,502,795,0
362716,211.08,502,795,0
362726,190.92,502,795,0
362736,178.77,502,795,0
362746,174.00,502,795,0
362756,175.71,502,795,0
362766,182.83,502,794,0
362776,194.06,502,795,0
362786,208.23,502,795,0
362796,224.06,502,794,0
362806,240.41,502,795,0
362816,256.23,502,795,0
362826,270.82,502,795,0
362836,283.56,502,795,0
362846,294.06,502,795,0
362856,302.10,502,794,0
362866,307.69,502,795,0
362876,310.91,502,795,0
362886,312.14,502,795,0
362896,311.80,502,795,0
362906,310.70,502,795,0
362916,310.06,502,795,0
362926,311.24,502,795,0
362936,316.14,502,795,0
362946,326.73,502,795,0
362956,344.77,502,795,0
362967,371.75,502,794,0
362977,408.34,502,795,0
362987,453.32,502,794,0
362997,502.90,502,795,0
363008,553.50,502,794,0
363017,602.04,502,795,0
363036,645.83,512,794,0
363039,682.65,512,794,0
363048,710.95,512,794,0
363058,730.77,512,795,0
363068,744.64,512,794,0
363078,754.35,512,795,0
363088,761.14,512,794,0
363098,765.90,512,795,0
363108,767.56,512,794,0
363118,763.49,512,795,0
363128,751.60,512,794,0
363138,730.93,512,795,0
363148,700.61,512,794,0
363158,660.44,512,795,0
363168,610.77,512,794,0
363179,554.01,512,795,0
363188,494.48,512,794,0
363198,435.83,512,795,0
363208,380.60,512,794,0
363218,331.39,512,795,0
363228,289.79,512,795,0
363238,256.89,512,795,0
363248,233.10,512,794,0
363258,218.11,512,795,0
363268,211.22,512,794,0
363278,211.58,512,795,0
363288,217.84,512,794,0
363298,228.73,512,794,0
363308,242.65,512,794,0
363318,258.36,512,795,0
363328,274.45,512,794,0
363338,290.04,512,795,0
363348,304.13,512,794,0
363358,316.13,512,795,0
363368,325.52,512,794,0
363378,332.27,512,795,0
363388,336.21,512,794,0
363398,337.78,512,795,0
363408,337.33,512,794,0
363418,335.90,512,794,0
363428,334.60,512,794,0
363438,335.07,512,795,0
363448,339.12,512,794,0
363458,348.98,512,795,0
363468,366.60,512,794,0
363479,393.68,512,795,0
363489,430.85,512,794,0
363499,475.42,512,795,0
363509,523.85,512,794,0
363520,572.88,512,795,0
363529,619.42,512,794,0
363539,660.73,512,795,0
363549,694.54,512,794,0
363569,719.28,532,793,0
363572,736.60,532,794,0
363581,748.72,532,795,0
363591,757.20,532,794,0
363601,763.18,532,795,0
363611,767.37,532,794,0
363621,770.30,532,795,0
363631,772.36,532,794,0
363641,773.79,532,795,0
363651,771.37,532,794,0
363661,761.91,532,795,0
363671,743.17,532,794,0
363681,714.10,532,795,0
363692,674.39,532,793,0
363702,624.51,532,795,0
363712,565.35,532,793,0
363722,501.73,532,795,0
363732,438.51,532,793,0
363742,379.73,532,795,0
363752,328.04,532,794,0
363762,285.43,532,795,0
363772,252.68,532,794,0
363782,229.98,532,795,0
363792,216.70,532,793,0
363802,211.90,532,795,0
363812,214.16,532,793,0
363822,222.04,532,795,0
363832,233.81,532,793,0
363842,248.06,532,795,0
363852,263.34,532,793,0
363863,278.54,532,795,0
363873,292.65,532,794,0
363883,304.97,532,795,0
363893,314.92,532,794,0
363904,322.36,532,795,0
363913,327.09,532,794,0
363923,329.42,532,795,0
363933,329.85,532,794,0
363943,329.43,532,795,0
363953,329.38,532,794,0
363963,331.71,532,795,0
363973,338.40,532,794,0
363983,351.74,532,795,0
363993,373.20,532,794,0
364003,404.17,532,795,0
364013,444.92,532,794,0
364023,491.74,532,795,0
364033,541.02,532,794,0
364043,589.57,532,795,0
364053,634.40,532,794,0
364063,673.37,532,795,0
364073,704.46,532,794,0
364092,726.35,524,793,0
364095,741.71,524,795,0
364104,752.51,524,795,0
364114,760.03,524,794,0
364124,765.25,524,795,0
364134,768.95,524,794,0
364144,771.49,524,795,0
364154,771.43,524,795,0
364164,765.77,524,795,0
364174,751.91,524,794,0
364184,728.20,524,795,0
364194,693.77,524,794,0
364204,648.75,524,795,0
364214,593.54,524,794,0
364224,530.89,524,795,0
364234,465.22,524,794,0
364244,400.87,524,795,0
364254,341.21,524,794,0
364264,288.82,524,795,0
364274,245.16,524,794,0
364284,211.30,524,794,0
364294,187.38,524,794,0
364304,173.08,524,795,0
364314,167.53,524,794,0
364324,169.47,524,795,0
364334,177.34,524,794,0
364344,189.58,524,795,0
364354,204.58,524,794,0
364364,220.95,524,795,0
364375,237.46,524,794,0
364385,253.05,524,795,0
364395,266.92,524,795,0
364405,278.65,524,795,0
364416,287.84,524,795,0
364425,294.44,524,795,0
364435,298.47,524,794,0
364445,300.08,524,795,0
364455,299.80,524,794,0
364465,298.49,524,795,0
364475,297.23,524,795,0
364485,297.50,524,795,0
364495,301.12,524,795,0
364505,309.74,524,795,0
364515,325.16,524,794,0
364525,348.73,524,795,0
364535,381.17,524,794,0
364545,422.00,524,795,0
364555,469.57,524,795,0
364565,519.84,524,795,0
364575,569.78,524,794,0
364585,616.43,524,795,0
364595,657.49,524,794,0
364614,691.24,522,794,0
364616,717.05,522,795,0
364626,735.12,522,794,0
364636,747.77,522,795,0
364646,755.64,522,794,0
364656,757.33,522,795,0
364666,751.49,522,794,0
364676,737.37,522,795,0
364686,714.07,522,795,0
364696,681.35,522,795,0
364706,639.12,522,795,0
364716,588.90,522,795,0
364726,533.77,522,795,0
364736,476.71,522,795,0
364746,419.97,522,794,0
364756,366.02,522,795,0
364766,316.69,522,794,0
364776,273.49,522,795,0
364786,237.13,522,794,0
364796,208.29,522,795,0
364806,187.12,522,794,0
364816,173.50,522,795,0
364826,166.75,522,794,0
364836,166.10,522,795,0
364846,170.48,522,794,0
364856,178.87,522,794,0
364866,190.09,522,795,0
364876,203.18,522,795,0
364887,217.05,522,794,0
364897,230.97,522,795,0
364907,244.05,522,794,0
364917,255.78,522,795,0
364928,265.70,522,794,0
364937,273.63,522,795,0
364947,279.31,522,794,0
364957,282.86,522,795,0
364967,284.23,522,794,0
364977,283.95,522,795,0
364987,282.42,522,794,0
364997,280.58,522,795,0
365007,279.38,522,794,0
365017,280.16,522,795,0
365027,284.40,522,795,0
365037,293.84,522,795,0
365047,309.66,522,794,0
365057,332.73,522,795,0
365067,363.33,522,794,0
365077,401.16,522,795,0
365087,445.04,522,794,0
365097,492.98,522,795,0
365107,541.80,522,795,0
365126,588.58,512,794,0
365129,631.26,512,794,0
365138,668.17,512,795,0
365148,697.17,512,794,0
365158,716.71,512,795,0
365168,725.84,512,794,0
365178,724.99,512,795,0
365188,714.83,512,794,0
365198,695.64,512,795,0
365208,667.55,512,794,0
365218,632.07,512,795,0
365228,591.16,512,794,0
365238,546.63,512,795,0
365248,500.15,512,794,0
365258,453.35,512,795,0
365268,407.77,512,794,0
365278,365.24,512,795,0
365288,326.86,512,794,0
365298,293.43,512,795,0
365308,265.66,512,794,0
365318,244.03,512,795,0
365328,228.55,512,794,0
365338,219.17,512,795,0
365348,215.13,512,794,0
365358,215.87,512,795,0
365368,220.45,512,794,0
365378,228.07,512,795,0
365388,237.74,512,794,0
365399,248.70,512,794,0
365409,259.98,512,794,0
365419,271.00,512,795,0
365429,281.11,512,794,0
365440,289.95,512,795,0
365449,297.12,512,794,0
365459,302.61,512,795,0
365469,306.20,512,794,0
365479,308.11,512,795,0
365489,308.38,512,794,0
365499,307.54,512,795,0
365509,306.13,512,794,0
365519,305.19,512,795,0
365529,305.61,512,794,0
365539,308.98,512,795,0
365549,316.70,512,794,0
365559,330.33,512,795,0
365569,350.42,512,794,0
365579,377.72,512,795,0
365589,412.01,512,794,0
365599,452.55,512,795,0
365609,497.47,512,793,0
365619,543.96,512,795,0
365638,588.97,512,794,0
365641,630.64,512,795,0
365650,667.05,512,794,0
365660,696.86,512,795,0
365670,718.20,512,794,0
365680,730.10,512,795,0
365690,732.60,512,793,0
365700,726.46,512,795,0
365710,711.75,512,794,0
365720,688.68,512,795,0
365730,657.71,512,794,0
365740,620.81,512,795,0
365750,579.55,512,794,0
365760,535.80,512,794,0
365770,490.95,512,793,0
365780,446.82,512,794,0
365790,404.96,512,793,0
365800,366.70,512,795,0
365810,332.80,512,793,0
365820,304.23,512,795,0
365830,281.36,512,793,0
365840,264.50,512,795,0
365850,253.42,512,793,0
365860,247.81,512,795,0
365870,246.97,512,793,0
365880,250.23,512,795,0
365890,256.63,512,793,0
365900,265.44,512,795,0
365911,275.73,512,793,0
365921,286.69,512,795,0
365931,297.50,512,793,0
365941,307.64,512,795,0
365952,316.53,512,794,0
365961,324.00,512,795,0
365971,329.61,512,793,0
365981,333.37,512,795,0
365991,335.28,512,794,0
366001,335.54,512,795,0
366011,334.47,512,793,0
366021,332.75,512,795,0
366031,331.07,512,794,0
366041,330.66,512,795,0
366051,332.82,512,793,0
366061,339.26,512,795,0
366071,351.40,512,794,0
366081,370.35,512,795,0
366091,396.90,512,793,0
366101,431.35,512,795,0
366111,472.98,512,794,0
366121,518.72,512,795,0
366131,565.13,512,794,0
366150,609.53,512,793,0
366153,649.83,512,794,0
366162,684.25,512,795,0
366172,711.52,512,794,0
366182,731.16,512,795,0
366192,744.91,512,794,0
366202,754.54,512,795,0
366212,761.28,512,794,0
366222,763.94,512,795,0
366232,760.87,512,794,0
366242,750.84,512,795,0
366252,733.10,512,793,0
366262,707.06,512,795,0
366272,672.50,512,794,0
366282,629.70,512,795,0
366292,581.24,512,794,0
366302,530.34,512,795,0
366312,479.54,512,794,0
366322,430.95,512,795,0
366332,386.52,512,794,0
366342,347.84,512,795,0
366352,315.74,512,794,0
366362,290.79,512,795,0
366372,272.85,512,794,0
366382,261.67,512,795,0
366392,256.58,512,793,0
366402,256.79,512,795,0
366412,261.18,512,794,0
366423,268.76,512,795,0
366433,278.34,512,794,0
366443,288.96,512,795,0
366453,299.73,512,794,0
366464,310.01,512,794,0
366473,319.13,512,794,0
366483,326.77,512,795,0
366493,332.49,512,794,0
366503,336.29,512,795,0
366513,338.13,512,794,0
366523,338.31,512,795,0
366533,337.10,512,794,0
366543,335.27,512,795,0
366553,333.60,512,794,0
366563,333.55,512,795,0
366573,336.60,512,794,0
366583,344.43,512,795,0
366593,358.19,512,794,0
366603,379.30,512,795,0
366613,408.44,512,794,0
366623,445.64,512,795,0
366633,489.29,512,794,0
366643,535.75,512,795,0
366653,581.85,512,794,0
366663,625.31,512,795,0
366683,663.83,532,794,0
366686,695.77,532,794,0
366695,720.14,532,795,0
366705,737.20,532,795,0
366715,749.14,532,795,0
366725,757.50,532,795,0
366735,763.35,532,795,0
366745,765.47,532,794,0
366755,761.90,532,795,0
366765,751.43,532,795,0
366775,732.87,532,795,0
366785,705.48,532,794,0
366795,669.12,532,795,0
366806,623.96,532,794,0
366815,572.71,532,795,0
366825,518.63,532,795,0
366835,464.40,532,795,0
366845,412.59,532,794,0
366855,365.49,532,794,0
366865,324.54,532,794,0
366875,290.91,532,795,0
366885,264.92,532,794,0
366895,246.73,532,795,0
366905,235.93,532,795,0
366915,231.92,532,794,0
366925,233.61,532,795,0
366935,239.90,532,795,0
366945,249.49,532,794,0
366955,261.26,532,795,0
366965,274.08,532,795,0
366976,286.96,532,795,0
366985,299.01,532,795,0
366995,309.72,532,795,0
367005,318.63,532,794,0
367015,325.56,532,795,0
367025,330.32,532,794,0
367035,332.97,532,795,0
367045,333.62,532,795,0
367055,332.58,532,795,0
367065,330.26,532,795,0
367075,327.53,532,795,0
367085,325.31,532,794,0
367095,325.00,532,795,0
367105,327.96,532,794,0
367115,335.86,532,794,0
367125,350.13,532,794,0
367135,371.90,532,795,0
367145,401.50,532,794,0
367155,438.42,532,795,0
367165,481.50,532,794,0
367175,527.85,532,795,0
367185,574.18,532,794,0
367195,617.84,532,795,0
367214,656.67,532,795,0
367217,689.26,532,795,0
367226,714.98,532,794,0
367236,733.59,532,795,0
367246,746.01,532,794,0
367256,752.01,532,795,0
367266,750.98,532,794,0
367276,742.71,532,795,0
367286,726.60,532,794,0
367296,702.33,532,795,0
367306,669.79,532,794,0
367316,629.78,532,795,0
367326,584.80,532,794,0
367336,537.21,532,795,0
367346,488.67,532,794,0
367356,441.37,532,795,0
367366,396.99,532,794,0
367376,356.96,532,795,0
367386,322.26,532,794,0
367396,293.42,532,795,0
367406,270.75,532,794,0
367416,254.50,532,795,0
367426,244.28,532,794,0
367436,239.61,532,795,0
367447,239.73,532,794,0
367457,243.92,532,795,0
367467,251.15,532,794,0
367477,260.62,532,795,0
367488,271.27,532,793,0
367497,282.33,532,795,0
367507,292.99,532,793,0
367517,302.85,532,795,0
367527,311.25,532,793,0
367537,318.12,532,795,0
367547,323.10,532,794,0
367557,326.33,532,795,0
367567,327.77,532,794,0
367577,327.71,532,795,0
367587,326.25,532,794,0
367597,323.95,532,795,0
367607,321.31,532,794,0
367617,319.33,532,795,0
367627,318.97,532,794,0
367637,321.72,532,795,0
367647,328.79,532,793,0
367657,341.54,532,795,0
367667,360.62,532,794,0
367677,386.62,532,795,0
367687,419.26,532,794,0
367697,457.71,532,795,0
367707,500.06,532,794,0
367717,544.35,532,795,0
367736,587.70,522,795,0
367739,628.08,522,796,0
367748,663.67,522,794,0
367758,692.57,522,795,0
367768,713.14,522,793,0
367778,724.71,522,795,0
367788,727.03,522,794,0
367798,720.59,522,795,0
367808,705.76,522,793,0
367818,682.82,522,795,0
367828,652.87,522,794,0
367838,617.68,522,795,0
367848,578.56,522,794,0
367858,536.91,522,794,0
367868,494.16,522,794,0
367878,452.03,522,795,0
367888,411.69,522,794,0
367898,374.41,522,794,0
367908,340.77,522,794,0
367918,311.79,522,795,0
367928,287.81,522,794,0
367938,269.22,522,795,0
367948,255.78,522,794,0
367959,247.45,522,795,0
367969,243.67,522,793,0
367979,244.03,522,795,0
367989,247.62,522,793,0
368000,253.82,522,795,0
368009,261.72,522,793,0
368019,270.63,522,795,0
368029,279.74,522,793,0
368039,288.60,522,795,0
368049,296.61,522,793,0
368059,303.54,522,795,0
368069,309.04,522,793,0
368079,313.05,522,795,0
368089,315.57,522,793,0
368099,316.64,522,795,0
368109,316.28,522,793,0
368119,314.78,522,795,0
368129,312.36,522,793,0
368139,309.64,522,795,0
368149,307.35,522,793,0
368159,306.47,522,795,0
368169,308.17,522,793,0
368179,313.65,522,795,0
368189,324.04,522,793,0
368199,340.49,522,795,0
368209,363.48,522,793,0
368219,392.82,522,795,0
368229,427.81,522,794,0
368239,467.29,522,795,0
368249,509.55,522,794,0
368268,552.45,532,793,0
368271,593.59,532,795,0
368280,630.87,532,795,0
368290,662.49,532,793,0
368300,687.03,532,795,0
368310,703.18,532,794,0
368320,710.54,532,795,0
368330,708.96,532,794,0
368340,698.86,532,795,0
368350,680.99,532,794,0
368360,656.39,532,795,0
368370,626.06,532,793,0
368380,591.41,532,795,0
368390,553.92,532,793,0
368400,515.03,532,795,0
368410,475.98,532,794,0
368420,437.88,532,795,0
368430,401.88,532,793,0
368440,369.00,532,795,0
368450,339.94,532,793,0
368460,315.15,532,795,0
368471,294.87,532,794,0
368481,279.40,532,795,0
368491,268.56,532,793,0
368501,262.05,532,795,0
368512,259.38,532,794,0
368521,260.08,532,795,0
368531,263.36,532,794,0
368541,268.65,532,795,0
368551,275.14,532,794,0
368561,282.21,532,795,0
368571,289.31,532,794,0
368581,295.94,532,795,0
368591,301.75,532,794,0
368601,306.54,532,795,0
368611,310.02,532,794,0
368621,312.20,532,795,0
368631,313.08,532,794,0
368641,312.80,532,795,0
368651,311.49,532,794,0
368661,309.33,532,795,0
368671,306.70,532,794,0
368681,304.22,532,795,0
368691,302.61,532,794,0
368701,302.94,532,795,0
368711,306.30,532,794,0
368721,314.05,532,795,0
368731,327.11,532,794,0
368741,346.36,532,795,0
368751,372.27,532,794,0
368761,404.76,532,795,0
368771,442.63,532,794,0
368781,484.66,532,795,0
368800,528.82,532,794,0
368803,572.93,532,795,0
368812,614.48,532,794,0
368822,651.66,532,795,0
368832,682.79,532,794,0
368842,706.73,532,795,0
368852,722.24,532,794,0
368862,728.94,532,795,0
368872,726.94,532,794,0
368882,716.76,532,795,0
368892,698.66,532,795,0
368902,673.56,532,795,0
368912,642.58,532,794,0
368922,607.18,532,795,0
368932,568.60,532,794,0
368942,528.56,532,795,0
368952,488.49,532,794,0
368962,449.73,532,795,0
368972,413.25,532,795,0
368983,380.18,532,795,0
368993,351.28,532,794,0
369003,327.20,532,794,0
369013,308.02,532,795,0
369024,293.87,532,794,0
369033,284.53,532,794,0
369043,279.61,532,795,0
369053,278.53,532,795,0
369063,280.56,532,794,0
369073,284.97,532,794,0
369083,291.07,532,795,0
369093,298.08,532,795,0
369103,305.34,532,794,0
369113,312.35,532,794,0
369123,318.67,532,795,0
369133,324.00,532,795,0
369143,328.11,532,795,0
369153,330.95,532,795,0
369163,332.47,532,795,0
369173,332.80,532,795,0
369183,331.96,532,795,0
369193,330.21,532,795,0
369203,327.88,532,795,0
369213,325.39,532,795,0
369223,323.47,532,795,0
369233,323.16,532,795,0
369243,325.55,532,795,0
369253,332.12,532,794,0
369263,344.17,532,795,0
369273,362.89,532,795,0
369283,388.81,532,795,0
369293,421.99,532,795,0
369303,461.85,532,795,0
369313,506.64,532,795,0
369324,552.86,532,795,0
369343,597.65,543,794,0
369346,638.64,543,795,0
369355,674.32,543,795,0
369366,703.49,543,794,0
369375,725.55,543,795,0
369385,740.98,543,794,0
369395,751.79,543,795,0
369405,757.08,543,794,0
369415,756.41,543,795,0
369425,748.96,543,794,0
369435,734.14,543,795,0
369445,711.51,543,793,0
369455,681.23,543,795,0
369465,643.41,543,794,0
369475,600.77,543,795,0
369485,555.41,543,794,0
369495,509.73,543,795,0
369505,465.67,543,794,0
369515,425.05,543,795,0
369525,388.91,543,793,0
369536,358.42,543,795,0
369545,334.08,543,794,0
369555,316.10,543,795,0
369565,304.28,543,794,0
369575,298.28,543,795,0
369585,297.21,543,794,0
369595,300.36,543,795,0
369605,306.55,543,794,0
369615,314.92,543,795,0
369625,324.37,543,794,0
369635,334.12,543,795,0
369645,343.38,543,794,0
369655,351.80,543,795,0
369665,358.84,543,794,0
369675,364.42,543,795,0
369685,368.28,543,794,0
369695,370.60,543,795,0
369705,371.27,543,794,0
369715,370.59,543,795,0
369725,368.74,543,794,0
369735,366.38,543,795,0
369745,364.29,543,794,0
369755,363.69,543,795,0
369765,365.97,543,794,0
369775,372.88,543,795,0
369785,385.94,543,794,0
369795,406.32,543,795,0
369805,434.64,543,794,0
369815,470.87,543,795,0
369825,512.83,543,794,0
369836,557.11,543,795,0
369846,600.75,543,794,0
369856,641.19,543,795,0
369875,676.62,532,794,0
369879,705.53,532,794,0
369887,726.97,532,794,0
369897,741.98,532,795,0
369907,752.49,532,793,0
369917,759.84,532,795,0
369927,764.99,532,794,0
369937,766.45,532,795,0
369947,762.37,532,794,0
369957,751.42,532,795,0
369967,732.91,532,794,0
369977,706.32,532,795,0
369987,671.51,532,793,0
369997,628.80,532,795,0
370007,581.07,532,794,0
370017,531.51,532,795,0
370027,482.67,532,793,0
370037,436.70,532,795,0
370048,395.35,532,793,0
370057,360.06,532,795,0
370067,331.54,532,793,0
370077,309.99,532,795,0
370087,295.25,532,793,0
370097,286.95,532,795,0
370107,284.18,532,793,0
370117,286.14,532,795,0
370127,291.67,532,793,0
370137,299.78,532,795,0
370147,309.36,532,793,0
370157,319.54,532,795,0
370167,329.49,532,793,0
370177,338.64,532,795,0
370187,346.42,532,794,0
370197,352.64,532,795,0
370207,356.95,532,793,0
370217,359.45,532,795,0
370227,360.17,532,794,0
370237,359.43,532,795,0
370247,357.55,532,793,0
370257,355.33,532,795,0
370267,353.60,532,793,0
370277,353.98,532,795,0
370287,357.97,532,794,0
370297,367.41,532,794,0
370307,383.48,532,794,0
370317,407.68,532,795,0
370327,440.31,532,793,0
370337,480.93,532,795,0
370348,525.74,532,794,0
370358,571.54,532,795,0
370368,615.44,532,794,0
370378,655.33,532,795,0
370398,689.09,522,795,0
370401,715.46,522,795,0
370410,733.92,522,794,0
370420,746.85,522,795,0
370430,755.89,522,794,0
370440,762.23,522,795,0
370450,766.66,522,794,0
370460,769.76,522,795,0
370470,770.35,522,794,0
370480,766.26,522,795,0
370490,755.47,522,794,0
370500,736.68,522,795,0
370510,709.18,522,794,0
370520,673.12,522,795,0
370530,628.69,522,794,0
370540,578.12,522,795,0
370550,524.82,522,794,0
370561,472.20,522,795,0
370571,422.90,522,794,0
370581,379.04,522,794,0
370591,341.70,522,794,0
370601,311.83,522,795,0
370611,289.64,522,794,0
370621,274.83,522,795,0
370631,266.74,522,794,0
370641,264.55,522,795,0
370651,267.00,522,794,0
370661,273.00,522,795,0
370671,281.36,522,794,0
370681,291.06,522,795,0
370691,301.24,522,794,0
370701,311.11,522,795,0
370711,319.99,522,794,0
370721,327.58,522,794,0
370732,333.49,522,794,0
370742,337.63,522,795,0
370752,339.97,522,795,0
370762,340.62,522,794,0
370772,340.09,522,794,0
370782,339.12,522,794,0
370792,338.87,522,795,0
370802,340.88,522,795,0
370812,346.83,522,795,0
370822,358.15,522,794,0
370832,376.54,522,795,0
370842,402.90,522,795,0
370852,437.52,522,795,0
370862,479.41,522,795,0
370872,525.10,522,795,0
370882,571.31,522,794,0
370892,615.53,522,795,0
370903,655.32,522,795,0
370913,688.86,522,794,0
370932,715.09,535,794,0
370934,733.75,535,795,0
370945,746.81,535,794,0
370955,755.95,535,796,0
370965,762.35,535,794,0
370975,764.56,535,795,0
370985,760.88,535,793,0
370995,750.29,535,795,0
371005,731.73,535,794,0
371015,704.77,535,794,0
371025,669.14,535,793,0
371035,625.34,535,795,0
371045,575.99,535,794,0
371055,524.10,535,795,0
371065,471.82,535,793,0
371075,421.78,535,795,0
371085,375.69,535,794,0
371095,335.11,535,795,0
371105,300.71,535,793,0
371116,273.24,535,795,0
371126,252.85,535,793,0
371136,239.48,535,795,0
371146,232.27,535,793,0
371156,230.56,535,795,0
371166,233.30,535,793,0
371176,239.51,535,795,0
371186,247.97,535,793,0
371196,257.75,535,795,0
371206,267.86,535,793,0
371216,277.76,535,795,0
371226,286.74,535,793,0
371236,294.49,535,795,0
371246,300.60,535,793,0
371256,305.05,535,795,0
371266,307.69,535,793,0
371276,308.68,535,795,0
371287,308.05,535,793,0
371297,306.24,535,795,0
371307,303.72,535,793,0
371317,301.62,535,795,0
371328,301.01,535,793,0
371337,303.36,535,795,0
371347,310.24,535,793,0
371357,323.28,535,794,0
371367,343.60,535,794,0
371377,371.62,535,795,0
371387,407.09,535,793,0
371397,449.23,535,795,0
371407,496.22,535,794,0
371417,544.50,535,795,0
371427,590.98,535,793,0
371446,633.33,514,792,0
371449,670.09,514,794,0
371458,700.19,514,795,0
371468,723.15,514,793,0
371478,737.59,514,795,0
371488,743.84,514,793,0
371499,742.05,514,795,0
371508,732.26,514,793,0
371518,714.35,514,795,0
371528,688.10,514,793,0
371538,653.70,514,795,0
371548,613.21,514,793,0
371558,568.66,514,795,0
371568,521.88,514,794,0
371578,474.60,514,795,0
371588,428.56,514,793,0
371598,385.45,514,795,0
371608,346.36,514,793,0
371618,312.18,514,795,0
371628,283.50,514,793,0
371638,260.85,514,795,0
371648,244.14,514,794,0
371658,233.21,514,795,0
371668,227.53,514,794,0
371678,226.52,514,795,0
371688,229.32,514,794,0
371698,235.31,514,795,0
371708,243.44,514,793,0
371718,253.04,514,795,0
371728,263.14,514,793,0
371738,273.21,514,795,0
371748,282.62,514,793,0
371758,291.05,514,795,0
371768,297.98,514,793,0
371778,303.34,514,795,0
371788,306.97,514,793,0
371799,308.99,514,795,0
371809,309.42,514,794,0
371819,308.61,514,795,0
371829,306.88,514,793,0
371840,305.16,514,795,0
371849,304.30,514,794,0
371859,305.71,514,795,0
371869,310.77,514,794,0
371879,320.95,514,795,0
371889,337.08,514,794,0
371899,360.11,514,795,0
371909,390.04,514,794,0
371919,426.33,514,795,0
371929,467.24,514,793,0
371939,510.93,514,795,0
371949,554.92,514,794,0
371969,597.12,522,793,0
371972,634.75,522,795,0
371981,665.86,522,795,0
371991,688.70,522,795,0
372001,702.55,522,794,0
372012,706.80,522,795,0
372022,701.59,522,794,0
372032,687.35,522,795,0
372042,665.22,522,795,0
372052,636.35,522,795,0
372062,602.43,522,795,0
372072,564.89,522,795,0
372082,525.19,522,794,0
372092,484.89,522,795,0
372102,445.50,522,794,0
372112,408.19,522,795,0
372122,373.98,522,795,0
372132,343.55,522,795,0
372142,317.59,522,795,0
372152,296.54,522,795,0
372162,280.48,522,795,0
372172,269.28,522,795,0
372183,262.64,522,794,0
372193,260.13,522,795,0
372203,261.08,522,794,0
372213,264.83,522,795,0
372224,270.58,522,794,0
372233,277.69,522,795,0
372243,285.41,522,794,0
372253,293.26,522,795,0
372263,300.64,522,794,0
372273,307.30,522,795,0
372283,312.87,522,794,0
372293,317.24,522,795,0
372303,320.17,522,794,0
372313,321.75,522,795,0
372323,321.99,522,794,0
372333,321.22,522,795,0
372343,319.74,522,794,0
372353,318.28,522,795,0
372363,317.77,522,794,0
372373,319.55,522,795,0
372383,324.87,522,794,0
372393,335.11,522,795,0
372403,351.02,522,794,0
372413,373.39,522,795,0
372423,402.28,522,794,0
372433,437.08,522,795,0
372443,476.19,522,795,0
372453,517.79,522,795,0
372463,559.59,522,795,0
372483,599.62,514,793,0
372486,635.39,514,794,0
372495,665.06,514,795,0
372505,687.07,514,794,0
372515,700.72,514,795,0
372525,705.69,514,794,0
372535,702.05,514,795,0
372545,690.12,514,793,0
372555,670.89,514,795,0
372566,645.25,514,793,0
372575,614.83,514,795,0
372585,580.68,514,794,0
372595,544.09,514,795,0
372605,506.31,514,794,0
372615,468.93,514,795,0
372625,432.99,514,794,0
372635,399.70,514,795,0
372645,369.49,514,793,0
372655,343.41,514,795,0
372665,321.73,514,794,0
372675,304.84,514,795,0
372685,292.50,514,793,0
372695,284.68,514,795,0
372705,280.83,514,794,0
372715,280.54,514,795,0
372725,282.95,514,794,0
372736,287.55,514,795,0
372745,293.47,514,794,0
372755,300.27,514,795,0
372765,307.22,514,793,0
372775,314.01,514,795,0
372785,320.14,514,794,0
372795,325.50,514,795,0
372805,329.76,514,793,0
372815,333.00,514,795,0
372825,334.93,514,793,0
372835,335.81,514,795,0
372845,335.57,514,793,0
372855,334.80,514,795,0
372865,333.91,514,794,0
372875,333.90,514,795,0
372885,335.73,514,793,0
372895,340.87,514,795,0
372905,350.46,514,793,0
372915,365.58,514,795,0
372925,386.92,514,793,0
372935,414.89,514,795,0
372945,448.95,514,793,0
372955,487.97,514,795,0
372965,530.06,514,794,0
372975,572.73,514,795,0
372995,613.61,512,794,0
372998,650.71,512,797,0
373007,682.60,512,794,0
373017,708.05,512,795,0
373027,725.69,512,793,0
373037,735.04,512,795,0
373047,736.19,512,793,0
373057,729.57,512,795,0
373067,715.30,512,793,0
373078,693.57,512,795,0
373087,665.24,512,793,0
373097,631.87,512,795,0
373107,594.62,512,793,0
373117,555.14,512,795,0
373127,514.94,512,793,0
373137,475.53,512,795,0
373147,438.04,512,793,0
373157,403.49,512,795,0
373167,372.70,512,793,0
373177,346.47,512,795,0
373187,325.12,512,793,0
373197,308.80,512,795,0
373207,297.33,512,793,0
373217,290.54,512,795,0
373227,287.81,512,794,0
373237,288.68,512,795,0
373248,292.25,512,793,0
373257,297.87,512,795,0
373267,304.64,512,793,0
373277,312.08,512,795,0
373287,319.47,512,793,0
373297,326.48,512,795,0
373307,332.51,512,793,0
373317,337.46,512,795,0
373327,341.05,512,794,0
373337,343.35,512,795,0
373347,344.19,512,793,0
373357,343.79,512,795,0
373367,342.22,512,794,0
373377,339.97,512,795,0
373387,337.62,512,793,0
373397,336.19,512,795,0
373407,336.78,512,794,0
373417,340.87,512,795,0
373427,349.48,512,794,0
373437,363.99,512,796,0
373447,385.25,512,793,0
373457,413.55,512,795,0
373467,448.14,512,793,0
373477,488.04,512,795,0
373487,531.32,512,793,0
373497,575.06,512,795,0
373516,616.62,522,795,0
373519,654.02,522,795,0
373528,685.90,522,794,0
373538,711.77,522,795,0
373548,730.87,522,793,0
373558,742.14,522,795,0
373568,745.95,522,793,0
373578,742.45,522,795,0
373588,731.56,522,794,0
373598,713.43,522,795,0
373608,687.89,522,793,0
373618,655.52,522,795,0
373628,618.08,522,794,0
373638,577.51,522,795,0
373648,535.36,522,793,0
373658,493.21,522,795,0
373668,452.13,522,794,0
373678,413.69,522,795,0
373688,378.81,522,794,0
373698,348.31,522,795,0
373708,322.50,522,794,0
373719,301.87,522,795,0
373729,286.39,522,794,0
373739,276.07,522,795,0
373749,270.35,522,794,0
373760,268.75,522,795,0
373769,270.54,522,794,0
373779,275.00,522,795,0
373789,281.30,522,794,0
373799,288.80,522,795,0
373809,296.74,522,794,0
373819,304.58,522,795,0
373829,311.78,522,794,0
373839,317.97,522,795,0
373849,322.95,522,794,0
373859,326.57,522,795,0
373869,328.67,522,794,0
373879,329.28,522,795,0
373889,328.55,522,794,0
373899,326.80,522,795,0
373909,324.42,522,794,0
373919,322.15,522,795,0
373929,320.95,522,794,0
373939,321.91,522,795,0
373949,326.39,522,794,0
373959,335.83,522,795,0
373969,351.40,522,794,0
373979,373.69,522,795,0
373989,402.88,522,794,0
373999,438.53,522,795,0
374009,479.64,522,795,0
374019,524.24,522,795,0
374029,569.08,522,794,0
374048,611.57,532,793,0
374051,649.97,532,795,0
374060,682.89,532,795,0
374070,709.54,532,794,0
374080,728.71,532,795,0
374090,739.55,532,795,0
374100,742.47,532,795,0
374110,737.92,532,794,0
374120,725.86,532,795,0
374130,706.23,532,795,0
374140,679.03,532,795,0
374150,645.59,532,794,0
374160,607.49,532,794,0
374170,566.45,532,794,0
374180,523.80,532,794,0
374190,481.31,532,794,0
374200,440.37,532,795,0
374210,402.33,532,794,0
374220,367.99,532,795,0
374231,338.21,532,795,0
374241,313.54,532,794,0
374251,294.40,532,795,0
374261,280.56,532,794,0
374272,271.91,532,795,0
374281,267.86,532,794,0
374291,267.86,532,794,0
374301,271.16,532,795,0
374311,277.03,532,795,0
374321,284.60,532,795,0
374331,293.17,532,794,0
374341,301.99,532,795,0
374351,310.61,532,795,0
374361,318.52,532,794,0
374371,325.44,532,795,0
374381,331.01,532,795,0
374391,335.12,532,795,0
374401,337.78,532,795,0
374411,339.05,532,794,0
374421,338.91,532,794,0
374431,337.69,532,795,0
374441,335.81,532,794,0
374451,334.03,532,794,0
374461,333.33,532,794,0
374471,334.99,532,795,0
374481,340.31,532,794,0
374491,350.50,532,795,0
374501,366.68,532,795,0
374511,389.66,532,795,0
374521,419.42,532,794,0
374531,455.08,532,795,0
374541,495.30,532,795,0
374551,538.24,532,795,0
374571,581.24,522,794,0
374574,621.84,522,797,0
374583,658.06,522,794,0
374593,688.51,522,795,0
374603,711.67,522,794,0
374614,726.39,522,795,0
374623,732.18,522,794,0
374633,729.56,522,795,0
374643,718.72,522,794,0
374653,700.03,522,795,0
374663,674.09,522,794,0
374673,642.35,522,795,0
374683,606.12,522,794,0
374693,566.78,522,795,0
374703,526.00,522,794,0
374713,485.42,522,795,0
374723,446.29,522,794,0
374733,409.78,522,795,0
374743,376.80,522,794,0
374753,348.32,522,795,0
374763,324.82,522,794,0
374773,306.53,522,795,0
374784,293.47,522,794,0
374793,285.45,522,795,0
374803,281.93,522,794,0
374813,282.42,522,795,0
374823,286.15,522,794,0
374833,292.41,522,795,0
374843,300.34,522,794,0
374853,309.28,522,795,0
374863,318.50,522,794,0
374873,327.52,522,795,0
374883,335.76,522,794,0
374893,342.99,522,795,0
374903,348.82,522,794,0
374913,353.25,522,795,0
374923,356.13,522,794,0
374933,357.59,522,795,0
374943,357.63,522,794,0
374953,356.63,522,795,0
374963,354.85,522,794,0
374973,353.23,522,795,0
374983,352.64,522,794,0
374993,354.42,522,795,0
375003,359.70,522,794,0
375013,370.07,522,795,0
375023,386.68,522,794,0
375033,410.48,522,795,0
375043,441.19,522,794,0
375053,478.33,522,795,0
375063,520.19,522,794,0
375073,563.76,522,795,0
375093,606.13,523,794,0
375096,645.09,523,795,0
375105,678.84,523,794,0
375115,706.57,523,795,0
375126,727.66,523,793,0
375135,742.46,523,795,0
375145,750.68,523,794,0
375155,752.23,523,795,0
375165,746.72,523,793,0
375175,734.16,523,795,0
375185,714.18,523,793,0
375195,686.70,523,795,0
375205,651.82,523,793,0
375215,612.19,523,795,0
375225,569.57,523,793,0
375235,526.03,523,795,0
375245,482.86,523,793,0
375255,441.89,523,795,0
375265,404.34,523,793,0
375275,371.36,523,795,0
375285,343.48,523,793,0
375296,321.40,523,795,0
375305,305.03,523,793,0
375315,294.48,523,795,0
375325,289.11,523,793,0
375335,288.48,523,795,0
375345,291.55,523,793,0
375355,297.55,523,795,0
375365,305.40,523,793,0
375375,314.45,523,795,0
375385,323.70,523,794,0
375395,332.58,523,795,0
375405,340.46,523,793,0
375415,347.09,523,795,0
375425,352.12,523,794,0
375435,355.56,523,795,0
375445,357.19,523,793,0
375455,357.26,523,795,0
375465,355.90,523,793,0
375475,353.57,523,795,0
375485,350.79,523,793,0
375495,348.54,523,795,0
375505,347.95,523,793,0
375515,350.45,523,795,0
375525,357.43,523,794,0
375535,370.59,523,795,0
375545,391.02,523,793,0
375555,419.22,523,795,0
375565,455.02,523,793,0
375575,497.19,523,795,0
375585,542.22,523,794,0
375596,587.15,523,795,0
375615,629.28,522,794,0
375618,666.52,522,795,0
375627,697.57,522,794,0
375638,721.44,522,795,0
375647,738.15,522,794,0
375657,749.85,522,795,0
375667,758.04,522,794,0
375677,763.77,522,795,0
375687,765.90,522,794,0
375697,762.71,522,795,0
375707,752.64,522,794,0
375717,734.71,522,795,0
375727,708.52,522,794,0
375737,673.91,522,795,0
375747,630.91,522,794,0
375757,581.95,522,795,0
375767,530.15,522,794,0
375777,478.42,522,794,0
375787,429.01,522,794,0
375797,383.71,522,795,0
375808,343.98,522,794,0
375817,310.94,522,795,0
375827,285.03,522,793,0
375837,266.38,522,795,0
375847,254.69,522,794,0
375857,249.43,522,795,0
375867,249.64,522,794,0
375877,254.38,522,794,0
375887,262.58,522,794,0
375897,273.21,522,795,0
375907,285.06,522,794,0
375917,297.30,522,795,0
375927,309.08,522,794,0
375937,319.86,522,795,0
375947,329.07,522,794,0
375957,336.42,522,795,0
375967,341.65,522,794,0
375977,344.84,522,795,0
375987,346.00,522,794,0
375997,345.57,522,795,0
376007,344.03,522,794,0
376017,342.44,522,795,0
376027,341.83,522,794,0
376037,343.90,522,795,0
376047,350.23,522,794,0
376057,362.50,522,795,0
376067,381.68,522,794,0
376077,408.73,522,795,0
376087,443.53,522,795,0
376097,485.50,522,795,0
376108,530.91,522,795,0
376118,576.58,522,795,0
376128,619.78,522,795,0
376147,658.63,532,794,0
376151,691.35,532,795,0
376159,716.96,532,795,0
376169,734.97,532,794,0
376179,747.58,532,795,0
376189,756.41,532,795,0
376199,761.08,532,795,0
376209,760.20,532,794,0
376219,752.38,532,795,0
376229,736.71,532,794,0
376239,712.76,532,795,0
376249,680.26,532,793,0
376259,639.08,532,795,0
376269,591.10,532,795,0
376279,539.34,532,795,0
376289,486.48,532,795,0
376299,434.87,532,795,0
376309,386.26,532,795,0
376320,342.30,532,795,0
376329,304.37,532,795,0
376339,273.31,532,795,0
376349,249.31,532,795,0
376359,232.50,532,795,0
376369,222.41,532,795,0
376379,218.51,532,795,0
376389,219.94,532,795,0
376399,225.79,532,795,0
376409,234.81,532,795,0
376419,246.05,532,794,0
376429,258.38,532,795,0
376439,271.04,532,795,0
376449,283.11,532,795,0
376459,294.01,532,795,0
376469,303.22,532,795,0
376479,310.48,532,795,0
376489,315.57,532,795,0
376499,318.61,532,795,0
376509,319.58,532,795,0
376519,318.85,532,795,0
376529,316.75,532,795,0
376539,314.04,532,795,0
376549,311.76,532,795,0
376559,311.27,532,795,0
376569,314.11,532,795,0
376579,321.79,532,795,0
376589,335.87,532,795,0
376599,357.76,532,795,0
376609,387.96,532,795,0
376620,426.25,532,794,0
376630,471.39,532,795,0
376640,519.70,532,794,0
376650,568.09,532,795,0
376670,613.75,522,794,0
376673,654.32,522,795,0
376682,688.26,522,791,0
376692,714.66,522,795,0
376702,733.37,522,790,0
376712,745.30,522,795,0
376722,750.05,522,791,0
376732,747.16,522,795,0
376742,736.02,522,790,0
376752,716.60,522,795,0
376762,688.47,522,791,0
376772,651.78,522,795,0
376782,607.83,522,790,0
376792,559.54,522,795,0
376802,509.02,522,791,0
376812,458.61,522,795,0
376822,409.79,522,790,0
376833,364.51,522,795,0
376843,323.98,522,790,0
376853,289.36,522,795,0
376863,260.92,522,790,0
376873,239.26,522,795,0
376883,224.18,522,790,0
376893,215.51,522,794,0
376903,212.57,522,790,0
376913,214.67,522,795,0
376923,220.77,522,790,0
376933,229.97,522,795,0
376943,241.12,522,789,0
376953,253.47,522,795,0
376963,266.10,522,790,0
376973,278.33,522,795,0
376983,289.54,522,790,0
376993,299.41,522,795,0
377004,307.51,522,789,0
377014,313.79,522,795,0
377024,318.18,522,789,0
377034,320.70,522,795,0
377044,321.60,522,789,0
377054,321.25,522,795,0
377064,320.36,522,789,0
377074,320.12,522,795,0
377084,321.93,522,789,0
377094,327.09,522,795,0
377104,337.31,522,789,0
377114,354.02,522,795,0
377124,378.23,522,789,0
377134,409.87,522,795,0
377144,448.35,522,790,0
377154,492.26,522,795,0
377164,538.64,522,789,0
377175,584.35,522,795,0
377194,626.76,525,795,0
377197,663.94,525,794,0
377206,694.95,525,791,0
377217,717.93,525,795,0
377227,731.37,525,792,0
377237,735.29,525,795,0
377247,730.14,525,792,0
377257,715.87,525,795,0
377267,692.94,525,792,0
377277,661.29,525,795,0
377287,622.46,525,792,0
377297,578.22,525,795,0
377307,531.05,525,791,0
377317,482.61,525,795,0
377327,434.98,525,792,0
377337,389.35,525,795,0
377347,347.46,525,791,0
377357,310.25,525,795,0
377367,278.93,525,792,0
377377,253.62,525,795,0
377388,234.92,525,793,0
377398,222.65,525,794,0
377408,216.75,525,793,0
377418,216.44,525,794,0
377428,221.24,525,794,0
377438,229.91,525,795,0
377448,241.72,525,793,0
377458,255.43,525,794,0
377468,270.35,525,794,0
377478,285.20,525,795,0
377488,299.45,525,793,0
377498,312.22,525,794,0
377508,323.30,525,794,0
377518,332.12,525,794,0
377528,338.73,525,793,0
377538,342.75,525,795,0
377548,344.71,525,794,0
377559,344.76,525,794,0
377569,343.93,525,794,0
377579,343.09,525,793,0
377589,343.92,525,795,0
377600,347.85,525,793,0
377609,356.59,525,794,0
377619,371.37,525,794,0
377629,393.55,525,795,0
377639,423.08,525,793,0
377649,459.49,525,794,0
377659,501.17,525,794,0
377669,545.43,525,795,0
377679,589.27,525,793,0
377698,630.29,504,793,0
377701,666.38,504,791,0
377710,696.43,504,795,0
377720,718.98,504,792,0
377730,732.87,504,795,0
377740,737.84,504,793,0
377750,734.29,504,795,0
377760,722.24,504,792,0
377771,701.86,504,795,0
377780,673.27,504,792,0
377790,637.79,504,795,0
377800,596.84,504,792,0
377810,552.62,504,795,0
377820,506.92,504,793,0
377830,461.68,504,794,0
377840,418.24,504,792,0
377850,378.05,504,795,0
377860,342.08,504,793,0
377870,311.54,504,793,0
377880,286.78,504,793,0
377890,268.07,504,795,0
377900,255.19,504,794,0
377910,248.15,504,794,0
377920,246.31,504,794,0
377930,249.13,504,795,0
377940,255.60,504,794,0
377950,264.94,504,795,0
377960,276.23,504,794,0
377970,288.76,504,795,0
377980,301.56,504,794,0
377990,313.95,504,795,0
378000,325.19,504,795,0
378010,334.99,504,795,0
378020,342.97,504,794,0
378030,348.98,504,795,0
378040,352.93,504,795,0
378050,355.01,504,795,0
378060,355.52,504,794,0
378071,355.28,504,795,0
378081,355.15,504,794,0
378091,356.65,504,794,0
378101,361.25,504,794,0
378112,370.82,504,795,0
378121,386.56,504,795,0
378131,409.88,504,795,0
378141,441.20,504,794,0
378151,480.27,504,795,0
378161,523.82,504,795,0
378171,568.70,504,795,0
378181,611.99,504,794,0
378201,651.68,502,793,0
378204,685.68,502,794,0
378213,712.69,502,795,0
378223,731.98,502,794,0
378233,745.49,502,795,0
378243,754.94,502,794,0
378253,761.56,502,795,0
378263,766.19,502,794,0
378273,766.39,502,795,0
378284,760.32,502,794,0
378294,746.64,502,795,0
378304,724.37,502,794,0
378314,693.23,502,795,0
378324,653.13,502,794,0
378334,604.75,502,795,0
378344,551.73,502,793,0
378354,497.29,502,795,0
378364,444.19,502,791,0
378374,394.85,502,795,0
378384,350.92,502,790,0
378394,313.83,502,795,0
378404,284.10,502,793,0
378414,262.12,502,795,0
378424,247.77,502,793,0
378434,240.64,502,795,0
378444,239.93,502,794,0
378455,244.80,502,795,0
378465,253.99,502,793,0
378475,266.33,502,795,0
378485,280.68,502,794,0
378496,295.99,502,795,0
378505,311.16,502,794,0
378515,325.43,502,795,0
378525,338.03,502,794,0
378535,348.61,502,795,0
378545,356.87,502,794,0
378555,362.74,502,795,0
378565,366.20,502,794,0
378575,367.77,502,795,0
378585,368.10,502,794,0
378595,368.32,502,795,0
378605,369.98,502,794,0
378615,374.83,502,795,0
378625,384.48,502,794,0
378635,400.92,502,795,0
378645,425.46,502,794,0
378655,458.88,502,795,0
378665,499.24,502,794,0
378675,543.10,502,795,0
378685,587.43,502,794,0
378695,629.77,502,795,0
378705,667.60,502,794,0
378724,698.96,524,793,0
378726,722.42,524,795,0
378736,738.83,524,795,0
378746,750.33,524,794,0
378756,758.37,524,795,0
378766,764.00,524,794,0
378776,767.99,524,795,0
378786,770.78,524,794,0
378796,772.69,524,795,0
378806,771.11,524,794,0
378816,763.32,524,795,0
378826,747.32,524,794,0
378836,721.90,524,795,0
378846,686.79,524,794,0
378856,642.11,524,795,0
378866,588.42,524,794,0
378876,529.62,524,795,0
378886,469.95,524,794,0
378896,412.96,524,794,0
378906,361.42,524,794,0
378916,317.06,524,794,0
378926,281.09,524,794,0
378936,254.23,524,795,0
378946,236.51,524,794,0
378956,227.40,524,795,0
378967,225.99,524,795,0
378977,231.14,524,795,0
378987,241.42,524,795,0
378997,255.53,524,795,0
379008,271.87,524,795,0
379017,289.18,524,795,0
379027,306.18,524,795,0
379037,321.94,524,795,0
379047,335.67,524,795,0
379057,346.87,524,795,0
379067,355.27,524,794,0
379077,360.84,524,795,0
379087,363.68,524,795,0
379097,364.07,524,794,0
379107,362.64,524,795,0
379117,360.39,524,795,0
379127,358.73,524,795,0
379137,359.15,524,795,0
379147,363.56,524,795,0
379157,373.90,524,795,0
379167,391.97,524,795,0
379177,418.89,524,794,0
379187,454.71,524,795,0
379197,497.14,524,795,0
379207,542.83,524,795,0
379217,588.61,524,795,0
379227,631.71,524,795,0
379237,669.68,524,795,0
379256,700.64,532,794,0
379259,723.67,532,794,0
379268,739.84,532,795,0
379278,751.16,532,795,0
379288,759.08,532,795,0
379298,764.63,532,794,0
379308,768.47,532,795,0
379318,771.16,532,794,0
379328,769.18,532,795,0
379338,760.08,532,794,0
379348,742.23,532,795,0
379358,714.86,532,794,0
379368,677.40,532,794,0
379378,629.92,532,794,0
379388,573.03,532,795,0
379398,511.65,532,794,0
379408,449.66,532,795,0
379418,390.23,532,794,0
379428,335.78,532,795,0
379438,288.31,532,794,0
379448,249.31,532,795,0
379458,219.34,532,794,0
379468,198.45,532,795,0
379479,186.32,532,794,0
379489,182.32,532,794,0
379499,185.27,532,794,0
379509,193.97,532,795,0
379520,206.97,532,794,0
379529,222.92,532,795,0
379539,240.39,532,794,0
379549,258.27,532,795,0
379559,275.38,532,794,0
379569,290.99,532,795,0
379579,304.41,532,794,0
379589,315.34,532,795,0
379599,323.55,532,794,0
379609,329.13,532,795,0
379619,332.01,532,794,0
379629,332.60,532,795,0
379639,331.14,532,794,0
379649,328.31,532,795,0
379659,324.92,532,794,0
379669,322.20,532,795,0
379679,321.50,532,794,0
379689,324.65,532,795,0
379699,332.98,532,794,0
379709,348.29,532,795,0
379719,371.69,532,794,0
379729,403.71,532,795,0
379739,443.57,532,794,0
379749,489.43,532,795,0
379759,537.47,532,794,0
379769,584.81,532,795,0
379788,628.71,532,794,0
379791,667.07,532,795,0
379800,698.29,532,794,0
379810,721.95,532,795,0
379820,738.51,532,794,0
379830,750.10,532,795,0
379840,757.18,532,794,0
379850,758.37,532,795,0
379860,752.35,532,794,0
379870,738.53,532,795,0
379880,716.08,532,794,0
379890,684.69,532,795,0
379900,644.20,532,794,0
379910,596.22,532,795,0
379920,543.61,532,794,0
379930,489.13,532,795,0
379940,434.79,532,794,0
379950,383.00,532,795,0
379960,335.34,532,794,0
379970,293.45,532,795,0
379980,257.92,532,794,0
379991,229.61,532,795,0
380001,208.73,532,794,0
380011,195.22,532,795,0
380021,188.47,532,794,0
380032,188.03,532,795,0
380041,192.56,532,794,0
380051,201.22,532,795,0
380061,212.73,532,794,0
380071,226.10,532,795,0
380081,240.17,532,794,0
380091,254.17,532,795,0
380101,267.11,532,794,0
380111,278.73,532,795,0
380121,288.46,532,794,0
380131,296.12,532,795,0
380141,301.48,532,794,0
380151,304.77,532,795,0
380161,305.95,532,794,0
380171,305.45,532,795,0
380181,303.47,532,793,0
380191,300.59,532,795,0
380201,297.37,532,794,0
380211,294.86,532,795,0
380221,294.13,532,793,0
380231,296.70,532,795,0
380241,303.99,532,794,0
380251,317.28,532,795,0
380261,337.60,532,794,0
380271,365.62,532,795,0
380281,401.05,532,794,0
380291,442.78,532,795,0
380301,489.00,532,794,0
380311,536.87,532,795,0
380331,583.45,542,795,0
380334,626.39,542,794,0
380343,663.77,542,794,0
380353,693.93,542,795,0
380363,715.21,542,794,0
380374,726.50,542,795,0
380383,728.06,542,793,0
380393,720.42,542,795,0
380403,703.79,542,794,0
380413,678.53,542,795,0
380423,645.75,542,793,0
380433,607.21,542,795,0
380443,564.68,542,794,0
380453,519.73,542,795,0
380463,474.21,542,793,0
380473,429.75,542,795,0
380483,387.57,542,794,0
380493,348.70,542,794,0
380503,314.07,542,794,0
380513,284.48,542,795,0
380523,260.38,542,794,0
380533,241.92,542,795,0
380544,229.09,542,794,0
380553,221.73,542,795,0
380563,219.28,542,794,0
380573,221.21,542,795,0
380583,226.68,542,794,0
380593,234.87,542,795,0
380603,244.90,542,794,0
380613,256.03,542,795,0
380623,267.46,542,794,0
380633,278.64,542,795,0
380643,288.95,542,794,0
380653,298.09,542,795,0
380663,305.69,542,794,0
380673,311.70,542,795,0
380683,315.90,542,794,0
380693,318.46,542,795,0
380703,319.44,542,794,0
380713,319.13,542,795,0
380723,317.81,542,794,0
380733,316.15,542,795,0
380743,314.82,542,794,0
380753,315.00,542,795,0
380763,317.74,542,794,0
380773,324.59,542,795,0
380783,336.84,542,794,0
380793,355.70,542,795,0
380803,381.51,542,794,0
380813,414.36,542,795,0
380823,453.33,542,794,0
380833,497.12,542,795,0
380853,542.90,523,794,0
380856,587.67,523,794,0
380865,629.00,523,795,0
380875,665.38,523,795,0
380886,694.97,523,794,0
380895,716.11,523,795,0
380905,727.60,523,794,0
380915,729.52,523,794,0
380925,722.38,523,795,0
380935,706.88,523,795,0
380945,683.13,523,794,0
380955,652.11,523,795,0
380965,615.39,523,794,0
380975,574.99,523,795,0
380985,532.56,523,795,0
380995,489.84,523,795,0
381005,447.97,523,794,0
381015,408.55,523,795,0
381025,372.69,523,794,0
381035,341.28,523,795,0
381045,314.80,523,794,0
381056,293.73,523,795,0
381065,278.17,523,794,0
381075,268.05,523,794,0
381085,262.93,523,794,0
381095,262.40,523,795,0
381105,265.66,523,794,0
381115,271.98,523,795,0
381125,280.56,523,795,0
381135,290.63,523,795,0
381145,301.37,523,794,0
381155,312.15,523,795,0
381165,322.30,523,794,0
381175,331.43,523,795,0
381185,339.18,523,794,0
381195,345.30,523,795,0
381205,349.67,523,794,0
381215,352.30,523,794,0
381225,353.24,523,795,0
381235,352.65,523,795,0
381245,350.96,523,794,0
381255,348.74,523,795,0
381265,346.93,523,794,0
381275,346.65,523,795,0
381285,349.33,523,795,0
381295,356.47,523,795,0
381305,369.57,523,795,0
381315,389.46,523,795,0
381325,416.71,523,795,0
381335,451.08,523,795,0
381345,491.60,523,795,0
381356,535.52,523,794,0
381366,579.68,523,795,0
381385,621.43,532,795,0
381388,658.97,532,795,0
381398,690.74,532,794,0
381407,715.89,532,795,0
381417,733.32,532,794,0
381427,742.78,532,795,0
381437,744.35,532,794,0
381447,738.29,532,795,0
381457,724.40,532,794,0
381467,702.59,532,795,0
381477,672.89,532,794,0
381487,636.71,532,795,0
381497,595.87,532,794,0
381507,552.58,532,794,0
381517,508.39,532,794,0
381527,465.24,532,795,0
381537,424.63,532,794,0
381547,387.88,532,795,0
381557,355.60,532,794,0
381568,328.72,532,795,0
381577,307.42,532,794,0
381587,291.91,532,795,0
381597,281.91,532,794,0
381607,277.14,532,795,0
381617,276.84,532,794,0
381627,280.44,532,795,0
381637,287.00,532,794,0
381647,295.83,532,795,0
381657,305.95,532,794,0
381667,316.64,532,795,0
381677,327.03,532,794,0
381687,336.79,532,795,0
381697,345.34,532,794,0
381707,352.44,532,795,0
381717,357.79,532,794,0
381727,361.37,532,795,0
381737,363.10,532,794,0
381747,363.33,532,795,0
381757,362.16,532,794,0
381767,360.31,532,795,0
381777,358.55,532,794,0
381787,358.04,532,795,0
381797,360.26,532,794,0
381807,366.91,532,795,0
381817,379.58,532,794,0
381827,399.55,532,795,0
381837,427.58,532,794,0
381847,463.97,532,795,0
381857,506.32,532,794,0
381868,551.27,532,795,0
381878,595.80,532,794,0
381897,637.30,512,793,0
381900,673.81,512,794,0
381910,703.65,512,795,0
381919,725.66,512,794,0
381929,741.06,512,795,0
381939,751.84,512,794,0
381949,759.39,512,795,0
381959,764.67,512,794,0
381969,768.37,512,795,0
381979,768.73,512,793,0
381989,763.54,512,795,0
381999,751.34,512,794,0
382009,730.92,512,795,0
382019,701.59,512,794,0
382029,663.35,512,795,0
382039,616.75,512,794,0
382049,564.67,512,795,0
382059,510.55,512,794,0
382069,457.29,512,795,0
382080,407.36,512,794,0
382089,362.98,512,795,0
382099,325.40,512,793,0
382109,295.37,512,795,0
382119,273.23,512,794,0
382129,258.89,512,795,0
382139,251.76,512,794,0
382149,251.28,512,795,0
382159,256.21,512,794,0
382169,265.49,512,795,0
382179,277.73,512,794,0
382189,291.82,512,795,0
382199,306.58,512,794,0
382209,321.10,512,795,0
382219,334.40,512,794,0
382229,345.98,512,795,0
382239,355.24,512,793,0
382249,362.11,512,795,0
382259,366.32,512,794,0
382269,368.20,512,795,0
382279,367.97,512,794,0
382289,366.43,512,795,0
382299,364.42,512,794,0
382309,363.48,512,795,0
382319,365.18,512,793,0
382329,371.55,512,795,0
382339,383.99,512,794,0
382349,404.26,512,795,0
382359,433.24,512,794,0
382369,471.23,512,795,0
382380,514.57,512,794,0
382390,560.00,512,795,0
382400,604.49,512,794,0
382410,645.78,512,795,0
382420,681.51,512,794,0
382439,709.98,542,793,0
382442,730.09,542,794,0
382451,744.16,542,795,0
382461,754.01,542,794,0
382471,760.91,542,795,0
382481,765.74,542,794,0
382491,769.12,542,795,0
382501,770.28,542,794,0
382511,766.73,542,795,0
382521,756.01,542,794,0
382531,736.59,542,795,0
382541,707.53,542,794,0
382551,668.93,542,794,0
382561,620.86,542,794,0
382571,565.19,542,795,0
382581,505.65,542,794,0
382592,446.14,542,795,0
382601,389.78,542,794,0
382611,339.11,542,795,0
382621,295.45,542,794,0
382631,260.13,542,795,0
382641,233.56,542,794,0
382651,215.86,542,795,0
382661,206.43,542,794,0
382671,204.50,542,794,0
382681,208.68,542,794,0
382691,217.82,542,794,0
382701,230.47,542,794,0
382711,245.46,542,795,0
382721,261.35,542,794,0
382731,277.23,542,795,0
382741,291.95,542,794,0
382751,305.08,542,795,0
382761,315.94,542,794,0
382771,324.32,542,795,0
382781,329.96,542,794,0
382791,333.10,542,795,0
382801,333.80,542,794,0
382811,332.62,542,795,0
382821,329.99,542,794,0
382831,326.95,542,795,0
382841,324.65,542,794,0
382851,324.63,542,795,0
382861,328.47,542,794,0
382871,338.14,542,795,0
382881,355.07,542,794,0
382892,380.59,542,795,0
382902,414.96,542,794,0
382912,457.66,542,795,0
382922,505.12,542,794,0
382932,553.94,542,795,0
382942,600.97,542,794,0
382961,643.75,522,794,0
382964,680.17,522,795,0
382973,708.92,522,795,0
382983,729.34,522,794,0
382993,743.64,522,795,0
383003,753.65,522,795,0
383013,758.98,522,795,0
383023,758.47,522,795,0
383033,750.75,522,795,0
383043,734.71,522,794,0
383053,709.72,522,795,0
383063,675.86,522,795,0
383073,633.09,522,795,0
383083,583.39,522,795,0
383093,529.53,522,794,0
383104,474.34,522,795,0
383113,420.54,522,795,0
383123,370.15,522,794,0
383133,324.50,522,795,0
383143,284.92,522,795,0
383153,252.29,522,795,0
383163,227.00,522,794,0
383173,209.17,522,795,0
383183,198.41,522,795,0
383193,194.17,522,795,0
383203,195.62,522,794,0
383213,201.91,522,795,0
383223,211.96,522,794,0
383233,224.66,522,795,0
383243,238.99,522,794,0
383253,253.95,522,795,0
383263,268.67,522,795,0
383273,282.39,522,795,0
383283,294.53,522,794,0
383293,304.74,522,795,0
383303,312.84,522,794,0
383313,318.63,522,794,0
383323,322.21,522,794,0
383333,323.78,522,795,0
383343,323.59,522,794,0
383353,322.00,522,795,0
383363,319.55,522,795,0
383373,317.03,522,795,0
383383,315.52,522,794,0
383393,316.35,522,795,0
383404,321.00,522,794,0
383414,331.07,522,795,0
383424,347.94,522,795,0
383434,372.38,522,794,0
383444,404.58,522,795,0
383454,443.58,522,794,0
383464,487.89,522,795,0
383474,534.72,522,795,0
383494,580.88,532,794,0
383497,623.77,532,794,0
383506,661.47,532,795,0
383516,692.31,532,794,0
383526,714.55,532,795,0
383536,726.98,532,794,0
383546,729.65,532,795,0
383556,723.02,532,794,0
383566,707.46,532,795,0
383576,683.41,532,794,0
383586,651.57,532,795,0
383596,613.69,532,794,0
383606,571.48,532,795,0
383617,526.68,532,794,0
383627,481.26,532,795,0
383637,436.65,532,793,0
383647,394.29,532,795,0
383657,355.33,532,793,0
383667,320.99,532,795,0
383677,291.85,532,793,0
383687,268.58,532,795,0
383697,251.18,532,794,0
383707,239.68,532,794,0
383717,233.56,532,793,0
383727,232.45,532,795,0
383737,235.49,532,794,0
383747,242.03,532,795,0
383757,251.02,532,793,0
383767,261.73,532,794,0
383777,273.29,532,794,0
383788,285.08,532,795,0
383798,296.24,532,793,0
383808,306.50,532,795,0
383818,315.26,532,794,0
383828,322.43,532,795,0
383838,327.74,532,793,0
383848,331.29,532,795,0
383858,333.00,532,794,0
383868,333.17,532,795,0
383878,331.88,532,793,0
383888,329.77,532,795,0
383898,327.35,532,793,0
383908,325.71,532,795,0
383918,325.75,532,793,0
383928,329.08,532,795,0
383938,336.94,532,793,0
383948,350.76,532,795,0
383959,371.40,532,793,0
383969,399.48,532,795,0
383979,434.35,532,794,0
383989,475.09,532,795,0
384000,519.63,532,794,0
384018,564.96,525,793,0
384021,608.21,525,795,0
384030,647.36,525,795,0
384040,680.81,525,794,0
384050,706.63,525,795,0
384060,723.19,525,794,0
384070,729.91,525,795,0
384080,727.28,525,794,0
384090,716.05,525,795,0
384100,696.36,525,793,0
384110,668.53,525,795,0
384120,634.13,525,794,0
384130,595.22,525,795,0
384140,553.37,525,793,0
384150,510.40,525,795,0
384160,467.59,525,794,0
384171,426.44,525,795,0
384180,388.17,525,794,0
384190,353.79,525,795,0
384200,323.85,525,794,0
384210,299.00,525,795,0
384220,279.41,525,793,0
384230,265.27,525,795,0
384240,256.45,525,794,0
384250,252.59,525,795,0
384260,253.05,525,794,0
384270,257.28,525,795,0
384280,264.48,525,794,0
384290,274.02,525,795,0
384300,284.86,525,794,0
384310,296.26,525,795,0
384320,307.45,525,794,0
384330,317.99,525,795,0
384340,327.29,525,794,0
384350,335.05,525,795,0
384360,340.90,525,794,0
384370,344.96,525,795,0
384380,347.16,525,794,0
384390,347.67,525,795,0
384400,346.65,525,794,0
384410,344.53,525,795,0
384420,341.88,525,794,0
384430,339.60,525,795,0
384440,338.78,525,794,0
384450,340.90,525,795,0
384460,347.40,525,794,0
384471,359.75,525,795,0
384481,379.16,525,794,0
384491,406.28,525,795,0
384501,441.04,525,794,0
384512,482.68,525,795,0
384521,527.91,525,794,0
384540,573.58,522,794,0
384543,617.03,522,795,0
384552,656.07,522,794,0
384562,689.05,522,795,0
384572,715.05,522,795,0
384582,733.63,522,795,0
384592,746.64,522,795,0
384602,754.76,522,795,0
384612,757.11,522,794,0
384622,752.70,522,794,0
384632,740.79,522,795,0
384642,721.10,522,794,0
384652,693.34,522,795,0
384662,657.49,522,794,0
384672,614.79,522,795,0
384683,567.84,522,795,0
384692,519.29,522,795,0
384702,471.29,522,794,0
384712,425.43,522,795,0
384722,383.34,522,794,0
384732,346.34,522,795,0
384742,315.25,522,795,0
384752,290.58,522,794,0
384762,272.40,522,794,0
384772,260.58,522,794,0
384782,254.79,522,795,0
384792,254.34,522,794,0
384802,258.48,522,795,0
384812,266.22,522,795,0
384822,276.61,522,794,0
384832,288.64,522,794,0
384842,301.48,522,794,0
384852,314.24,522,794,0
384862,326.21,522,795,0
384872,336.77,522,794,0
384882,345.67,522,794,0
384892,352.58,522,794,0
384902,357.38,522,795,0
384912,359.97,522,794,0
384922,360.58,522,795,0
384932,359.42,522,794,0
384942,356.89,522,795,0
384952,353.54,522,795,0
384962,350.29,522,794,0
384972,348.23,522,794,0
384983,348.93,522,795,0
384993,353.84,522,794,0
385003,364.64,522,795,0
385013,382.67,522,794,0
385024,408.91,522,795,0
385033,443.22,522,794,0
385043,484.94,522,795,0
385053,530.30,522,794,0
385063,576.20,522,795,0
385082,619.85,542,794,0
385085,658.98,542,797,0
385094,691.77,542,794,0
385104,717.34,542,795,0
385114,735.24,542,794,0
385124,747.77,542,795,0
385134,756.54,542,794,0
385144,762.68,542,795,0
385154,766.42,542,794,0
385164,765.56,542,795,0
385174,758.24,542,794,0
385184,743.12,542,795,0
385195,719.30,542,794,0
385204,686.77,542,795,0
385214,645.39,542,794,0
385224,596.16,542,795,0
385234,542.46,542,794,0
385244,487.72,542,795,0
385254,434.62,542,794,0
385264,385.62,542,794,0
385274,342.06,542,794,0
385284,305.49,542,795,0
385294,276.54,542,794,0
385304,255.76,542,795,0
385314,242.76,542,794,0
385324,237.05,542,795,0
385334,237.72,542,794,0
385344,243.76,542,795,0
385354,253.86,542,794,0
385364,266.97,542,795,0
385374,281.68,542,794,0
385384,296.99,542,795,0
385394,311.87,542,794,0
385404,325.58,542,795,0
385414,337.45,542,794,0
385424,347.17,542,795,0
385434,354.36,542,794,0
385444,359.05,542,795,0
385454,361.27,542,794,0
385464,361.31,542,795,0
385474,359.42,542,794,0
385484,356.38,542,795,0
385495,352.97,542,794,0
385505,350.66,542,795,0
385515,350.98,542,794,0
385525,355.87,542,795,0
385536,367.14,542,794,0
385545,386.25,542,795,0
385555,414.38,542,793,0
385565,451.98,542,795,0
385575,495.96,542,794,0
385585,542.86,542,795,0
385595,589.40,542,794,0
385605,632.86,542,795,0
385625,671.09,542,794,0
385628,702.09,542,795,0
385637,724.56,542,793,0
385647,740.30,542,795,0
385657,751.31,542,794,0
385667,759.01,542,795,0
385677,764.41,542,794,0
385687,768.19,542,795,0
385697,770.83,542,794,0
385708,770.11,542,795,0
385718,763.18,542,794,0
385728,748.04,542,795,0
385738,723.43,542,794,0
385748,689.01,542,795,0
385758,645.17,542,794,0
385768,592.40,542,794,0
385778,534.21,542,794,0
385788,475.00,542,795,0
385798,418.39,542,794,0
385808,367.31,542,795,0
385818,323.63,542,794,0
385828,288.47,542,795,0
385838,262.45,542,794,0
385848,245.64,542,795,0
385858,237.56,542,794,0
385868,237.35,542,795,0
385879,243.67,542,794,0
385889,255.17,542,795,0
385899,270.21,542,794,0
385909,287.42,542,795,0
385920,305.46,542,794,0
385929,323.07,542,795,0
385939,339.16,542,794,0
385949,353.04,542,794,0
385959,364.17,542,794,0
385969,372.39,542,795,0
385979,377.55,542,794,0
385989,379.87,542,794,0
385999,379.91,542,794,0
386009,378.65,542,795,0
386019,377.47,542,794,0
386029,378.19,542,795,0
386039,382.76,542,795,0
386049,393.07,542,795,0
386059,410.97,542,794,0
386069,437.72,542,795,0
386079,473.63,542,795,0
386089,515.44,542,795,0
386099,559.80,542,794,0
386109,603.74,542,795,0
386119,644.79,542,794,0
386129,680.55,542,795,0
386139,709.19,542,794,0
386158,729.57,534,793,0
386161,743.89,534,794,0
386170,753.91,534,795,0
386180,760.92,534,794,0
386190,765.87,534,794,0
386200,768.23,534,794,0
386210,765.29,534,795,0
386220,755.39,534,795,0
386230,736.93,534,794,0
386240,709.01,534,794,0
386250,671.29,534,794,0
386260,624.02,534,794,0
386270,569.16,534,795,0
386280,510.65,534,794,0
386290,451.61,534,795,0
386300,395.20,534,794,0
386310,343.93,534,794,0
386320,299.55,534,794,0
386330,263.21,534,795,0
386340,235.33,534,794,0
386350,216.08,534,795,0
386360,205.13,534,795,0
386370,201.70,534,795,0
386380,204.79,534,795,0
386391,213.17,534,795,0
386401,225.55,534,795,0
386411,240.55,534,794,0
386421,256.93,534,794,0
386432,273.41,534,795,0
386441,288.97,534,795,0
386451,302.78,534,794,0
386461,314.25,534,794,0
386471,322.96,534,794,0
386481,328.88,534,795,0
386491,332.09,534,794,0
386501,333.05,534,795,0
386511,332.43,534,794,0
386521,331.28,534,795,0
386531,330.98,534,794,0
386541,333.26,534,795,0
386551,339.87,534,795,0
386561,352.42,534,795,0
386571,372.48,534,795,0
386581,401.01,534,795,0
386591,438.08,534,795,0
386601,482.11,534,795,0
386611,529.35,534,794,0
386621,576.56,534,794,0
386631,621.18,534,795,0
386641,660.81,534,795,0
386660,693.65,502,794,0
386662,718.70,502,795,0
386672,736.23,502,794,0
386682,748.51,502,795,0
386692,756.37,502,794,0
386702,758.36,502,795,0
386712,753.11,502,794,0
386722,739.62,502,795,0
386732,717.40,502,794,0
386742,686.13,502,795,0
386752,645.63,502,794,0
386762,596.97,502,795,0
386772,543.15,502,794,0
386782,487.35,502,795,0
386792,431.92,502,794,0
386802,378.75,502,795,0
386812,329.63,502,794,0
386822,286.15,502,795,0
386832,249.21,502,794,0
386842,219.66,502,795,0
386852,197.48,502,794,0
386862,182.72,502,795,0
386872,175.00,502,794,0
386882,173.85,502,795,0
386892,178.26,502,794,0
386903,187.40,502,795,0
386913,199.92,502,794,0
386923,214.82,502,795,0
386933,230.90,502,793,0
386944,247.22,502,795,0
386953,262.71,502,793,0
386963,276.77,502,795,0
386973,288.71,502,794,0
386983,298.40,502,795,0
386993,305.48,502,794,0
387003,310.18,502,795,0
387013,312.52,502,794,0
387023,313.14,502,795,0
387033,312.58,502,794,0
387043,312.02,502,795,0
387053,312.62,502,793,0
387063,316.07,502,795,0
387073,323.68,502,793,0
387083,337.19,502,795,0
387093,357.70,502,794,0
387103,386.04,502,795,0
387113,421.85,502,794,0
387123,464.03,502,795,0
387133,510.35,502,793,0
387143,557.60,502,795,0
387153,602.85,502,793,0
387172,643.82,512,793,0
387175,678.76,512,794,0
387184,706.82,512,795,0
387194,726.24,512,793,0
387204,736.37,512,795,0
387214,737.63,512,793,0
387224,730.20,512,795,0
387234,714.03,512,793,0
387244,689.46,512,795,0
387254,656.49,512,794,0
387264,617.00,512,795,0
387274,572.64,512,793,0
387284,525.44,512,795,0
387294,477.22,512,793,0
387304,429.75,512,795,0
387314,384.10,512,793,0
387324,341.68,512,795,0
387334,303.55,512,793,0
387344,270.56,512,795,0
387354,243.18,512,793,0
387364,221.74,512,795,0
387374,206.13,512,793,0
387384,196.41,512,795,0
387394,192.04,512,793,0
387404,192.54,512,795,0
387415,197.14,512,793,0
387425,205.07,512,795,0
387435,215.33,512,793,0
387445,227.28,512,795,0
387456,239.84,512,793,0
387465,252.49,512,795,0
387475,264.34,512,793,0
387485,274.99,512,795,0
387495,284.00,512,794,0
387505,291.24,512,795,0
387515,296.48,512,793,0
387525,299.85,512,795,0
387535,301.31,512,794,0
387545,301.39,512,795,0
387555,300.50,512,794,0
387565,299.54,512,795,0
387575,299.38,512,794,0
387585,301.32,512,795,0
387595,306.67,512,793,0
387605,316.92,512,795,0
387615,333.10,512,793,0
387625,356.13,512,795,0
387635,385.79,512,794,0
387645,421.73,512,795,0
387655,462.56,512,794,0
387665,506.58,512,795,0
387684,551.15,512,794,0
387687,593.79,512,795,0
387696,631.91,512,794,0
387706,663.61,512,795,0
387716,687.08,512,794,0
387726,701.33,512,795,0
387736,705.69,512,794,0
387746,700.42,512,795,0
387756,686.28,512,794,0
387766,664.26,512,795,0
387776,635.51,512,794,0
387786,601.45,512,795,0
387796,563.48,512,794,0
387806,523.35,512,795,0
387816,482.40,512,794,0
387826,441.82,512,795,0
387836,402.75,512,794,0
387846,366.39,512,795,0
387856,333.53,512,794,0
387866,304.92,512,795,0
387876,280.73,512,794,0
387886,261.35,512,795,0
387896,246.80,512,794,0
387906,237.05,512,795,0
387916,231.63,512,794,0
387927,230.24,512,795,0
387937,232.27,512,794,0
387947,237.20,512,795,0
387957,244.26,512,795,0
387968,252.79,512,795,0
387977,262.07,512,794,0
387987,271.52,512,795,0
387997,280.54,512,794,0
388007,288.78,512,795,0
388017,295.87,512,794,0
388027,301.70,512,795,0
388037,306.03,512,795,0
388047,308.94,512,795,0
388057,310.45,512,794,0
388067,310.83,512,795,0
388077,310.24,512,794,0
388087,309.10,512,795,0
388097,307.91,512,794,0
388107,307.68,512,795,0
388117,309.36,512,794,0
388127,314.27,512,795,0
388137,323.70,512,795,0
388147,338.66,512,795,0
388157,360.06,512,795,0
388167,388.37,512,795,0
388177,423.19,512,795,0
388187,463.38,512,795,0
388197,507.19,512,795,0
388216,552.22,532,794,0
388219,595.87,532,795,0
388228,635.85,532,795,0
388238,670.40,532,795,0
388248,697.58,532,795,0
388258,716.18,532,795,0
388268,725.59,532,795,0
388278,725.76,532,795,0
388288,717.30,532,794,0
388298,700.67,532,795,0
388308,676.38,532,794,0
388318,645.97,532,794,0
388328,610.88,532,795,0
388338,572.39,532,795,0
388348,532.03,532,795,0
388358,491.39,532,795,0
388368,451.72,532,794,0
388378,414.22,532,795,0
388388,379.78,532,795,0
388398,349.33,532,795,0
388408,323.56,532,794,0
388418,302.91,532,795,0
388428,287.46,532,794,0
388439,277.25,532,794,0
388449,271.99,532,794,0
388459,271.18,532,795,0
388469,274.13,532,794,0
388480,280.17,532,795,0
388489,288.44,532,794,0
388499,298.25,532,795,0
388509,308.85,532,794,0
388519,319.56,532,795,0
388529,329.85,532,794,0
388539,339.24,532,795,0
388549,347.31,532,794,0
388559,353.95,532,795,0
388569,358.80,532,794,0
388579,361.91,532,795,0
388589,363.26,532,794,0
388599,363.14,532,795,0
388609,361.94,532,794,0
388619,360.46,532,795,0
388629,359.51,532,794,0
388639,360.47,532,795,0
388649,364.74,532,794,0
388659,373.73,532,794,0
388669,388.86,532,794,0
388679,411.23,532,795,0
388689,441.16,532,794,0
388699,478.23,532,795,0
388709,520.24,532,794,0
388719,563.97,532,795,0
388739,606.79,522,795,0
388742,646.28,522,795,0
388751,680.53,522,794,0
388761,708.23,522,795,0
388771,728.86,522,794,0
388781,743.30,522,795,0
388791,753.41,522,794,0
388801,760.49,522,795,0
388811,763.08,522,794,0
388822,759.80,522,795,0
388831,749.79,522,794,0
388841,732.20,522,795,0
388851,706.47,522,794,0
388861,672.55,522,795,0
388871,630.86,522,794,0
388881,584.27,522,795,0
388891,535.42,522,794,0
388901,486.61,522,795,0
388911,440.01,522,794,0
388921,397.54,522,795,0
388931,360.43,522,793,0
388941,329.57,522,795,0
388951,305.32,522,794,0
388961,288.04,522,795,0
388971,277.31,522,793,0
388981,272.72,522,795,0
388992,273.40,522,793,0
389001,278.51,522,795,0
389011,286.84,522,793,0
389021,297.56,522,795,0
389031,309.44,522,794,0
389041,321.73,522,795,0
389051,333.47,522,793,0
389061,344.17,522,795,0
389071,353.25,522,794,0
389081,360.50,522,795,0
389091,365.62,522,793,0
389101,368.78,522,795,0
389111,369.92,522,794,0
389121,369.60,522,795,0
389131,368.22,522,794,0
389141,366.74,522,795,0
389151,366.22,522,794,0
389161,368.25,522,795,0
389171,374.13,522,794,0
389181,385.75,522,795,0
389191,404.43,522,794,0
389201,431.30,522,795,0
389211,466.18,522,794,0
389221,507.27,522,795,0
389231,551.12,522,794,0
389241,595.05,522,795,0
389251,636.35,522,794,0
389270,672.80,532,793,0
389273,702.56,532,794,0
389282,724.89,532,795,0
389292,740.53,532,794,0
389302,751.47,532,795,0
389312,759.13,532,794,0
389322,764.49,532,795,0
389332,768.24,532,794,0
389342,770.87,532,795,0
389352,769.32,532,794,0
389362,761.34,532,795,0
389372,745.21,532,794,0
389382,720.38,532,795,0
389392,686.28,532,794,0
389402,643.04,532,795,0
389412,591.13,532,794,0
389422,535.03,532,795,0
389432,478.19,532,793,0
389442,423.84,532,795,0
389452,373.91,532,794,0
389463,330.48,532,795,0
389473,294.64,532,793,0
389483,267.19,532,795,0
389493,247.93,532,794,0
389504,236.72,532,795,0
389513,232.56,532,794,0
389523,234.67,532,795,0
389533,241.71,532,794,0
389543,252.60,532,795,0
389553,265.79,532,793,0
389563,280.30,532,795,0
389573,294.95,532,794,0
389583,309.06,532,795,0
389593,321.69,532,794,0
389603,332.45,532,795,0
389613,340.89,532,794,0
389623,347.01,532,795,0
389633,350.61,532,794,0
389643,352.01,532,795,0
389653,351.49,532,794,0
389663,349.84,532,795,0
389673,347.83,532,794,0
389683,346.68,532,795,0
389693,347.85,532,794,0
389703,353.12,532,795,0
389713,364.02,532,794,0
389723,381.84,532,795,0
389733,407.43,532,794,0
389743,441.07,532,795,0
389753,482.11,532,794,0
389763,527.08,532,795,0
389773,572.70,532,794,0
389783,616.24,532,795,0
389803,655.60,532,794,0
389806,688.98,532,796,0
389815,715.17,532,795,0
389825,733.72,532,795,0
389835,746.70,532,795,0
389846,755.41,532,795,0
389855,758.80,532,795,0
389865,755.56,532,795,0
389875,744.63,532,794,0
389885,725.33,532,795,0
389895,697.55,532,794,0
389905,661.12,532,794,0
389915,616.60,532,795,0
389925,566.58,532,795,0
389935,514.08,532,794,0
389945,461.51,532,795,0
389955,410.91,532,794,0
389965,363.71,532,795,0
389975,321.37,532,794,0
389985,284.96,532,794,0
389995,255.19,532,795,0
390005,232.12,532,795,0
390016,215.80,532,794,0
390025,205.96,532,794,0
390035,202.03,532,794,0
390045,203.22,532,795,0
390055,208.64,532,795,0
390065,217.23,532,795,0
390075,228.01,532,795,0
390085,240.05,532,794,0
390095,252.50,532,795,0
390105,264.65,532,794,0
390115,275.94,532,795,0
390125,285.86,532,795,0
390135,294.22,532,794,0
390145,300.88,532,795,0
390155,305.72,532,795,0
390165,308.72,532,795,0
390175,310.04,532,794,0
390185,309.82,532,794,0
390195,308.41,532,794,0
390205,306.23,532,795,0
390215,303.93,532,794,0
390225,302.41,532,795,0
390235,302.76,532,794,0
390245,306.30,532,794,0
390255,314.48,532,795,0
390265,328.65,532,795,0
390275,349.54,532,794,0
390285,377.67,532,794,0
390295,412.87,532,795,0
390305,454.18,532,795,0
390316,499.81,532,795,0
390335,546.75,533,794,0
390338,592.00,533,797,0
390347,633.53,533,794,0
390358,669.63,533,795,0
390367,698.28,533,794,0
390377,717.87,533,795,0
390387,727.38,533,794,0
390397,727.22,533,795,0
390407,718.20,533,794,0
390417,700.61,533,795,0
390427,674.63,533,794,0
390437,641.70,533,795,0
390447,603.64,533,794,0
390457,562.22,533,795,0
390467,519.00,533,794,0
390477,475.37,533,795,0
390487,432.87,533,794,0
390497,392.84,533,795,0
390507,356.07,533,794,0
390517,323.35,533,795,0
390528,295.26,533,794,0
390537,272.34,533,795,0
390547,254.71,533,794,0
390557,242.32,533,795,0
390567,234.90,533,794,0
390577,232.14,533,795,0
390587,233.39,533,794,0
390597,238.11,533,795,0
390607,245.54,533,794,0
390617,254.89,533,795,0
390627,265.34,533,794,0
390637,276.29,533,795,0
390647,287.05,533,794,0
390657,297.19,533,795,0
390667,306.18,533,794,0
390677,313.75,533,795,0
390687,319.61,533,794,0
390697,323.80,533,795,0
390707,326.26,533,794,0
390717,327.21,533,795,0
390727,326.80,533,794,0
390737,325.62,533,795,0
390747,324.19,533,794,0
390757,323.62,533,795,0
390767,324.93,533,794,0
390777,329.58,533,795,0
390787,338.54,533,794,0
390797,353.08,533,795,0
390807,373.92,533,794,0
390817,401.42,533,795,0
390828,434.94,533,794,0
390838,473.40,533,795,0
390848,514.72,533,794,0
390867,557.02,532,793,0
390871,597.60,532,793,0
390879,634.19,532,795,0
390889,664.52,532,794,0
390899,687.03,532,795,0
390909,700.44,532,794,0
390919,704.72,532,795,0
390929,699.75,532,794,0
390939,686.24,532,795,0
390949,664.78,532,794,0
390959,636.95,532,795,0
390969,603.96,532,794,0
390979,567.46,532,795,0
390989,528.45,532,794,0
390999,488.67,532,795,0
391009,449.30,532,793,0
391019,411.71,532,795,0
391029,376.61,532,794,0
391040,345.10,532,795,0
391049,317.81,532,793,0
391059,295.45,532,795,0
391069,278.00,532,793,0
391079,265.75,532,794,0
391089,258.32,532,794,0
391099,255.57,532,795,0
391109,256.77,532,793,0
391119,261.34,532,795,0
391129,268.31,532,794,0
391139,277.04,532,795,0
391149,286.63,532,794,0
391159,296.60,532,794,0
391169,306.15,532,793,0
391179,314.89,532,794,0
391189,322.29,532,794,0
391199,328.29,532,795,0
391209,332.62,532,794,0
391219,335.39,532,795,0
391229,336.52,532,793,0
391239,336.32,532,795,0
391249,334.98,532,793,0
391259,333.10,532,795,0
391269,331.14,532,794,0
391279,330.20,532,795,0
391289,331.25,532,794,0
391299,335.63,532,795,0
391309,344.53,532,793,0
391319,359.33,532,795,0
391329,380.83,532,794,0
391340,409.60,532,795,0
391350,445.12,532,794,0
391360,486.40,532,795,0
391370,530.98,532,794,0
391390,575.81,522,793,0
391393,618.21,522,795,0
391402,656.25,522,795,0
391412,688.45,522,794,0
391422,714.07,522,795,0
391432,732.61,522,794,0
391442,743.52,522,795,0
391452,746.97,522,794,0
391462,742.91,522,795,0
391472,731.41,522,794,0
391482,712.30,522,795,0
391492,685.42,522,794,0
391502,651.31,522,795,0
391512,612.09,522,794,0
391522,569.72,522,795,0
391532,525.96,522,794,0
391542,482.26,522,795,0
391553,440.22,522,794,0
391563,401.33,522,795,0
391573,366.56,522,794,0
391583,336.56,522,794,0
391593,311.96,522,794,0
391603,293.08,522,795,0
391613,279.90,522,794,0
391623,272.17,522,794,0
391633,269.38,522,795,0
391643,270.81,522,794,0
391653,275.66,522,795,0
391663,283.14,522,795,0
391673,292.44,522,795,0
391683,302.72,522,795,0
391693,313.22,522,794,0
391703,323.35,522,795,0
391713,332.68,522,794,0
391724,340.83,522,795,0
391734,347.44,522,795,0
391744,352.24,522,795,0
391754,355.25,522,795,0
391764,356.46,522,794,0
391774,356.11,522,795,0
391784,354.45,522,795,0
391794,352.00,522,795,0
391804,349.56,522,794,0
391814,348.23,522,795,0
391824,349.23,522,794,0
391834,354.09,522,795,0
391844,364.22,522,794,0
391854,380.87,522,795,0
391864,405.12,522,794,0
391874,437.49,522,795,0
391884,477.63,522,795,0
391895,522.05,522,795,0
391905,567.59,522,794,0
391924,611.52,535,794,0
391927,651.65,535,794,0
391937,686.00,535,795,0
391947,713.13,535,794,0
391957,732.29,535,795,0
391967,745.70,535,794,0
391977,755.09,535,795,0
391987,761.66,535,794,0
391997,766.26,535,795,0
392007,769.10,535,794,0
392017,767.57,535,795,0
392027,759.98,535,794,0
392037,744.82,535,794,0
392047,721.04,535,794,0
392057,688.42,535,795,0
392067,647.23,535,794,0
392077,598.39,535,795,0
392087,545.60,535,794,0
392097,491.89,535,795,0
392108,440.07,535,794,0
392118,392.65,535,795,0
392128,351.14,535,794,0
392138,316.55,535,795,0
392148,289.43,535,793,0
392158,270.02,535,795,0
392168,257.88,535,794,0
392178,252.60,535,795,0
392188,253.11,535,794,0
392198,258.43,535,795,0
392208,267.26,535,794,0
392218,278.58,535,795,0
392228,291.14,535,794,0
392238,304.17,535,795,0
392248,316.63,535,794,0
392258,328.01,535,795,0
392268,337.74,535,794,0
392279,345.62,535,795,0
392289,351.22,535,794,0
392299,354.71,535,795,0
392309,356.00,535,794,0
392320,355.48,535,795,0
392329,353.45,535,794,0
392339,350.70,535,795,0
392349,348.05,535,794,0
392359,347.05,535,795,0
392369,348.96,535,794,0
392379,355.70,535,795,0
392389,368.91,535,794,0
392399,390.19,535,795,0
392409,420.01,535,794,0
392419,458.70,535,795,0
392429,503.02,535,789,0
392439,549.77,535,795,0
392449,595.83,535,791,0
392459,638.52,535,794,0
392478,675.48,554,794,0
392481,705.34,554,795,0
392491,726.83,554,794,0
392500,741.88,554,795,0
392510,752.42,554,792,0
392520,759.79,554,795,0
392530,764.96,554,792,0
392540,768.57,554,795,0
392550,771.10,554,791,0
392560,770.21,554,795,0
392570,763.38,554,792,0
392580,748.95,554,795,0
392590,725.69,554,791,0
392600,692.96,554,795,0
392610,650.84,554,792,0
392620,600.02,554,795,0
392630,543.95,554,791,0
392640,486.50,554,795,0
392650,430.85,554,792,0
392660,379.64,554,795,0
392670,335.05,554,791,0
392680,298.22,554,795,0
392690,269.74,554,792,0
392700,249.72,554,794,0
392710,237.76,554,793,0
392720,233.03,554,795,0
392730,234.61,554,794,0
392740,241.37,554,795,0
392750,251.97,554,794,0
392760,265.18,554,795,0
392770,279.83,554,794,0
392780,294.96,554,794,0
392791,309.59,554,794,0
392801,323.04,554,795,0
392811,334.64,554,793,0
392821,344.05,554,795,0
392832,350.89,554,795,0
392841,355.25,554,795,0
392851,357.23,554,795,0
392861,357.38,554,795,0
392871,356.45,554,794,0
392881,355.33,554,795,0
392891,355.70,554,792,0
392901,359.35,554,794,0
392911,368.16,554,794,0
392921,383.75,554,795,0
392931,407.66,554,794,0
392941,440.59,554,794,0
392951,481.47,554,795,0
392961,526.59,554,794,0
392971,572.78,554,794,0
392981,617.12,554,795,0
392991,657.28,554,795,0
393011,691.06,532,794,0
393013,716.88,532,795,0
393023,734.96,532,794,0
393033,747.61,532,795,0
393043,756.47,532,794,0
393053,762.67,532,795,0
393063,767.01,532,794,0
393073,770.05,532,795,0
393083,768.88,532,794,0
393093,761.42,532,795,0
393103,745.78,532,794,0
393113,720.82,532,795,0
393123,686.07,532,794,0
393133,641.95,532,795,0
393143,588.86,532,794,0
393153,531.05,532,795,0
393163,472.06,532,794,0
393174,415.47,532,794,0
393183,363.99,532,794,0
393193,319.68,532,794,0
393203,283.47,532,794,0
393213,256.25,532,795,0
393223,237.87,532,794,0
393233,228.05,532,795,0
393243,225.81,532,794,0
393253,230.11,532,795,0
393263,239.38,532,794,0
393273,252.33,532,795,0
393283,267.53,532,794,0
393293,283.92,532,795,0
393303,300.14,532,795,0
393313,315.40,532,795,0
393323,328.78,532,794,0
393333,340.03,532,795,0
393344,348.68,532,794,0
393353,354.73,532,795,0
393363,358.07,532,794,0
393373,359.16,532,795,0
393383,358.43,532,794,0
393393,356.89,532,795,0
393403,355.68,532,794,0
393413,356.63,532,795,0
393423,361.37,532,794,0
393433,371.72,532,795,0
393443,389.37,532,794,0
393453,415.70,532,795,0
393463,451.06,532,794,0
393473,493.34,532,795,0
393483,538.88,532,794,0
393493,584.65,532,795,0
393503,628.04,532,794,0
393513,666.60,532,795,0
393532,698.30,522,795,0
393535,721.96,522,795,0
393544,738.51,522,794,0
393554,750.10,522,795,0
393564,758.21,522,794,0
393574,763.89,522,795,0
393584,766.62,522,793,0
393594,764.08,522,795,0
393604,754.63,522,794,0
393614,736.87,522,795,0
393624,709.86,522,794,0
393634,673.35,522,795,0
393644,627.64,522,794,0
393654,574.48,522,795,0
393664,517.34,522,793,0
393674,459.29,522,795,0
393684,403.23,522,794,0
393694,351.69,522,795,0
393704,306.27,522,794,0
393714,268.13,522,795,0
393724,238.01,522,793,0
393734,216.28,522,795,0
393744,202.69,522,794,0
393754,196.79,522,795,0
393764,197.49,522,793,0
393774,203.86,522,795,0
393784,214.44,522,794,0
393794,228.11,522,795,0
393804,243.59,522,794,0
393815,259.79,522,795,0
393825,275.49,522,794,0
393835,290.05,522,795,0
393845,302.72,522,794,0
393856,313.22,522,795,0
393865,321.12,522,794,0
393875,326.44,522,795,0
393885,329.10,522,794,0
393895,329.58,522,795,0
393905,328.46,522,794,0
393915,326.61,522,795,0
393925,325.18,522,794,0
393935,325.90,522,795,0
393945,330.26,522,794,0
393955,340.38,522,795,0
393965,357.84,522,794,0
393975,383.86,522,795,0
393985,418.53,522,794,0
393995,461.44,522,795,0
394005,508.80,522,794,0
394015,557.41,522,795,0
394025,604.13,522,794,0
394035,646.44,522,795,0
394054,682.18,522,794,0
394057,710.45,522,795,0
394066,730.46,522,794,0
394076,744.46,522,795,0
394086,754.27,522,794,0
394096,759.24,522,795,0
394106,757.80,522,794,0
394116,748.99,522,795,0
394126,731.68,522,794,0
394136,705.37,522,795,0
394146,669.78,522,793,0
394156,625.31,522,795,0
394166,574.18,522,793,0
394176,519.52,522,795,0
394186,463.74,522,794,0
394196,409.47,522,795,0
394206,358.80,522,794,0
394216,313.48,522,795,0
394226,274.33,522,794,0
394236,242.35,522,795,0
394246,217.86,522,793,0
394256,201.01,522,795,0
394266,191.37,522,794,0
394276,188.34,522,795,0
394286,190.94,522,794,0
394296,198.29,522,795,0
394306,209.17,522,794,0
394316,222.62,522,795,0
394327,237.43,522,794,0
394337,252.73,522,795,0
394347,267.51,522,794,0
394357,281.16,522,795,0
394368,292.98,522,794,0
394377,302.76,522,795,0
394387,310.12,522,794,0
394397,315.05,522,795,0
394407,317.52,522,794,0
394417,317.84,522,795,0
394427,316.26,522,794,0
394437,313.39,522,795,0
394447,310.02,522,794,0
394457,307.31,522,795,0
394467,306.66,522,794,0
394477,309.81,522,795,0
394487,318.35,522,794,0
394497,333.67,522,795,0
394507,357.04,522,794,0
394517,389.00,522,795,0
394527,429.12,522,794,0
394537,475.80,522,795,0
394547,525.10,522,794,0
394557,573.76,522,795,0
394576,619.30,522,794,0
394579,659.45,522,795,0
394588,692.57,522,794,0
394598,717.90,522,795,0
394608,735.63,522,794,0
394618,746.97,522,795,0
394628,751.61,522,794,0
394638,748.90,522,795,0
394648,738.21,522,795,0
394658,719.12,522,795,0
394668,691.61,522,794,0
394678,655.73,522,795,0
394688,612.61,522,794,0
394698,564.64,522,795,0
394708,514.18,522,795,0
394718,463.60,522,795,0
394728,414.69,522,794,0
394738,368.84,522,794,0
394748,327.36,522,794,0
394758,291.34,522,795,0
394768,261.45,522,794,0
394778,238.04,522,795,0
394788,220.93,522,795,0
394798,210.02,522,794,0
394808,204.83,522,794,0
394818,204.71,522,795,0
394828,208.87,522,794,0
394839,216.41,522,795,0
394849,226.40,522,795,0
394859,237.94,522,795,0
394869,250.17,522,795,0
394880,262.29,522,794,0
394889,273.60,522,795,0
394899,283.62,522,794,0
394909,291.96,522,795,0
394919,298.49,522,794,0
394929,303.23,522,795,0
394939,306.20,522,795,0
394949,307.64,522,794,0
394959,307.66,522,794,0
394969,306.61,522,794,0
394979,304.93,522,795,0
394989,303.32,522,794,0
394999,302.71,522,794,0
395009,304.21,522,795,0
395019,309.25,522,794,0
395029,319.50,522,794,0
395039,336.37,522,794,0
395049,361.07,522,795,0
395059,393.75,522,794,0
395069,434.02,522,795,0
395079,480.52,522,795,0
395089,529.48,522,794,0
395108,577.68,532,794,0
395111,622.52,532,795,0
395120,661.75,532,794,0
395130,694.18,532,795,0
395140,719.03,532,794,0
395150,736.42,532,795,0
395160,747.31,532,794,0
395170,751.24,532,794,0
395180,747.87,532,794,0
395190,736.59,532,795,0
395200,716.92,532,794,0
395210,688.66,532,794,0
395220,651.86,532,794,0
395230,608.40,532,795,0
395240,560.67,532,794,0
395250,510.80,532,795,0
395260,460.97,532,794,0
395270,413.37,532,795,0
395280,369.50,532,794,0
395290,330.78,532,795,0
395300,297.84,532,794,0
395310,271.41,532,795,0
395320,251.74,532,794,0
395330,238.88,532,794,0
395340,232.27,532,794,0
395351,231.46,532,795,0
395361,235.44,532,794,0
395371,243.36,532,795,0
395381,254.18,532,794,0
395392,266.94,532,795,0
395401,280.55,532,794,0
395411,294.22,532,795,0
395421,307.14,532,794,0
395431,318.89,532,795,0
395441,328.86,532,794,0
395451,337.00,532,795,0
395461,342.96,532,794,0
395471,346.96,532,795,0
395481,349.03,532,794,0
395491,349.49,532,795,0
395501,348.66,532,794,0
395511,347.39,532,795,0
395521,346.42,532,794,0
395531,347.28,532,795,0
395541,351.26,532,794,0
395551,360.10,532,795,0
395561,375.24,532,793,0
395571,397.67,532,795,0
395581,427.85,532,794,0
395591,465.78,532,795,0
395601,509.09,532,793,0
395611,554.45,532,795,0
395621,598.84,532,794,0
395640,639.82,532,793,0
395643,675.62,532,794,0
395652,704.79,532,795,0
395662,726.45,532,793,0
395672,741.62,532,795,0
395682,752.23,532,793,0
395692,757.95,532,795,0
395702,757.58,532,794,0
395712,750.12,532,795,0
395722,734.74,532,793,0
395732,711.03,532,795,0
395742,679.01,532,793,0
395752,638.81,532,795,0
395762,592.41,532,794,0
395772,542.66,532,795,0
395782,492.06,532,793,0
395792,442.88,532,795,0
395802,396.85,532,793,0
395812,355.24,532,795,0
395822,319.12,532,793,0
395832,289.43,532,795,0
395842,266.37,532,793,0
395852,250.06,532,795,0
395863,240.14,532,793,0
395873,236.20,532,795,0
395883,237.43,532,793,0
395893,243.08,532,795,0
395904,252.02,532,793,0
395913,263.33,532,795,0
395923,275.91,532,793,0
395933,288.97,532,795,0
395943,301.66,532,793,0
395953,313.46,532,795,0
395963,323.70,532,794,0
395973,332.19,532,795,0
395983,338.65,532,793,0
395993,343.12,532,795,0
396003,345.57,532,793,0
396013,346.34,532,795,0
396023,345.73,532,794,0
396033,344.52,532,795,0
396043,343.59,532,793,0
396053,344.36,532,795,0
396063,348.24,532,794,0
396073,357.17,532,795,0
396083,372.24,532,794,0
396093,395.06,532,795,0
396103,426.15,532,793,0
396113,465.49,532,795,0
396123,509.96,532,793,0
396133,556.26,532,795,0
396143,601.31,532,793,0
396163,642.96,522,793,0
396166,678.93,522,793,0
396175,707.75,522,795,0
396185,728.53,522,794,0
396195,743.07,522,795,0
396205,753.25,522,794,0
396215,760.37,522,795,0
396225,765.36,522,793,0
396235,765.64,522,795,0
396246,759.36,522,794,0
396255,745.54,522,795,0
396265,723.18,522,794,0
396275,691.88,522,795,0
396285,651.63,522,794,0
396295,603.10,522,794,0
396305,550.10,522,794,0
396315,495.81,522,795,0
396325,442.60,522,794,0
396335,392.96,522,795,0
396345,348.62,522,794,0
396355,310.89,522,795,0
396365,280.24,522,794,0
396375,257.11,522,795,0
396385,241.39,522,794,0
396395,232.74,522,795,0
396405,230.38,522,794,0
396416,233.48,522,795,0
396425,240.88,522,793,0
396435,251.54,522,795,0
396445,264.37,522,794,0
396455,278.36,522,795,0
396465,292.48,522,794,0
396475,305.92,522,795,0
396485,317.94,522,794,0
396495,328.16,522,795,0
396505,336.26,522,794,0
396515,342.05,522,795,0
396525,345.51,522,794,0
396535,346.81,522,795,0
396545,346.27,522,793,0
396555,344.47,522,795,0
396565,342.23,522,794,0
396575,340.70,522,795,0
396585,341.31,522,794,0
396595,345.59,522,795,0
396605,355.23,522,794,0
396615,371.87,522,795,0
396625,396.68,522,794,0
396635,429.82,522,795,0
396645,470.85,522,794,0
396655,516.32,522,795,0
396665,563.07,522,794,0
396675,608.22,522,795,0
396694,649.21,532,794,0
396697,684.03,532,794,0
396706,711.62,532,794,0
396716,731.24,532,794,0
396726,744.97,532,794,0
396736,754.58,532,795,0
396746,761.30,532,794,0
396756,764.17,532,794,0
396766,761.68,532,795,0
396776,752.30,532,794,0
396786,734.90,532,795,0
396796,708.78,532,794,0
396806,674.09,532,794,0
396816,630.78,532,795,0
396826,581.09,532,794,0
396836,527.79,532,794,0
396846,473.85,532,794,0
396856,421.70,532,794,0
396866,373.32,532,794,0
396876,329.89,532,794,0
396887,292.73,532,794,0
396897,262.51,532,794,0
396907,239.64,532,795,0
396917,223.85,532,794,0
396928,214.94,532,795,0
396937,212.13,532,794,0
396947,214.53,532,794,0
396957,221.14,532,794,0
396967,230.96,532,795,0
396977,242.76,532,794,0
396987,255.64,532,795,0
396997,268.61,532,794,0
397007,281.07,532,795,0
397017,292.40,532,794,0
397027,302.27,532,795,0
397037,310.29,532,794,0
397047,316.54,532,795,0
397057,320.97,532,794,0
397067,323.68,532,794,0
397077,324.76,532,794,0
397087,324.57,532,795,0
397097,323.46,532,794,0
397107,322.21,532,795,0
397117,321.67,532,794,0
397127,323.27,532,795,0
397137,328.50,532,794,0
397147,338.90,532,795,0
397157,355.98,532,794,0
397167,381.06,532,795,0
397177,414.56,532,794,0
397187,455.88,532,795,0
397197,502.20,532,794,0
397207,550.05,532,795,0
397227,596.62,532,794,0
397230,639.34,532,797,0
397239,676.05,532,794,0
397249,705.39,532,795,0
397259,726.87,532,794,0
397270,741.91,532,795,0
397279,752.44,532,794,0
397289,758.44,532,795,0
397299,758.43,532,794,0
397309,751.27,532,795,0
397319,736.24,532,794,0
397329,712.72,532,795,0
397339,680.41,532,794,0
397349,639.48,532,795,0
397359,591.81,532,794,0
397369,540.44,532,795,0
397379,487.98,532,794,0
397389,436.64,532,795,0
397399,388.45,532,794,0
397409,345.16,532,795,0
397419,307.78,532,794,0
397429,277.08,532,795,0
397440,253.35,532,794,0
397449,236.70,532,795,0
397459,226.76,532,794,0
397469,223.06,532,795,0
397479,224.72,532,794,0
397489,230.80,532,795,0
397499,240.25,532,794,0
397509,252.13,532,795,0
397519,265.42,532,794,0
397529,279.31,532,795,0
397539,292.76,532,794,0
397549,305.26,532,795,0
397559,316.28,532,794,0
397569,325.58,532,795,0
397579,332.87,532,794,0
397589,338.13,532,795,0
397599,341.27,532,794,0
397609,342.60,532,795,0
397619,342.25,532,794,0
397629,340.80,532,795,0
397639,338.85,532,794,0
397649,337.56,532,795,0
397659,338.08,532,794,0
397669,342.09,532,795,0
397679,351.06,532,794,0
397689,366.64,532,795,0
397699,389.42,532,794,0
397709,419.89,532,795,0
397719,457.43,532,794,0
397729,500.80,532,795,0
397740,546.42,532,794,0
397750,591.29,532,795,0
397769,632.78,543,795,0
397772,669.31,543,794,0
397782,699.48,543,794,0
397791,722.05,543,795,0
397801,735.28,543,794,0
397811,739.74,543,795,0
397821,735.53,543,794,0
397831,723.07,543,795,0
397841,702.26,543,794,0
397851,673.21,543,795,0
397861,636.72,543,794,0
397871,595.19,543,795,0
397881,550.39,543,794,0
397891,504.33,543,795,0
397901,458.29,543,794,0
397911,414.06,543,795,0
397921,372.86,543,794,0
397931,335.91,543,794,0
397941,303.67,543,794,0
397952,277.02,543,795,0
397961,256.19,543,794,0
397971,241.35,543,795,0
397981,232.07,543,793,0
397991,228.06,543,795,0
398001,228.47,543,793,0
398011,232.79,543,795,0
398021,239.97,543,793,0
398031,249.28,543,795,0
398041,259.78,543,794,0
398051,270.82,543,795,0
398061,281.63,543,794,0
398071,291.85,543,795,0
398081,300.90,543,794,0
398091,308.60,543,795,0
398101,314.63,543,794,0
398111,319.03,543,795,0
398121,321.68,543,794,0
398131,322.80,543,795,0
398141,322.43,543,793,0
398151,320.93,543,795,0
398161,318.68,543,794,0
398171,316.51,543,795,0
398181,315.24,543,793,0
398191,316.20,543,795,0
398201,320.68,543,794,0
398211,330.03,543,795,0
398221,345.45,543,794,0
398231,367.99,543,795,0
398241,397.86,543,794,0
398252,434.72,543,795,0
398262,477.19,543,794,0
398272,522.99,543,795,0
398291,569.02,522,794,0
398295,612.69,522,795,0
398303,651.74,522,794,0
398313,684.86,522,794,0
398323,710.14,522,794,0
398333,726.17,522,794,0
398343,732.63,522,794,0
398353,730.26,522,795,0
398363,719.30,522,794,0
398373,700.09,522,795,0
398383,673.02,522,794,0
398393,639.46,522,795,0
398403,601.14,522,794,0
398413,559.69,522,794,0
398423,516.80,522,794,0
398433,474.05,522,795,0
398443,432.72,522,794,0
398453,393.76,522,795,0
398464,358.13,522,794,0
398473,326.68,522,795,0
398483,299.86,522,794,0
398493,277.96,522,795,0
398503,261.17,522,794,0
398513,249.38,522,794,0
398523,242.32,522,794,0
398533,239.61,522,794,0
398543,240.63,522,794,0
398553,244.77,522,795,0
398563,251.27,522,794,0
398573,259.41,522,795,0
398583,268.50,522,794,0
398593,277.95,522,795,0
398603,287.14,522,795,0
398613,295.63,522,794,0
398623,303.11,522,794,0
398633,309.33,522,795,0
398643,314.16,522,794,0
398653,317.58,522,794,0
398663,319.64,522,794,0
398673,320.35,522,794,0
398683,319.94,522,794,0
398693,318.50,522,794,0
398703,316.47,522,794,0
398713,314.31,522,794,0
398723,312.72,522,794,0
398733,312.59,522,795,0
398743,315.20,522,794,0
398753,321.70,522,794,0
398764,333.44,522,794,0
398774,351.44,522,794,0
398784,376.38,522,795,0
398794,408.28,522,794,0
398804,446.38,522,795,0
398814,489.00,522,794,0
398833,534.21,542,794,0
398836,579.02,542,794,0
398845,620.97,542,795,0
398855,658.14,542,794,0
398865,688.82,542,795,0
398875,711.29,542,794,0
398885,724.83,542,795,0
398895,729.08,542,794,0
398905,724.73,542,795,0
398915,712.21,542,794,0
398925,691.92,542,795,0
398935,664.86,542,794,0
398945,632.63,542,795,0
398955,596.57,542,793,0
398965,558.08,542,795,0
398976,518.50,542,794,0
398985,479.35,542,795,0
398995,441.57,542,793,0
399005,406.09,542,795,0
399015,373.53,542,794,0
399025,344.70,542,795,0
399035,319.93,542,794,0
399045,299.73,542,795,0
399055,283.91,542,794,0
399065,272.49,542,795,0
399075,265.14,542,794,0
399085,261.72,542,795,0
399095,261.59,542,794,0
399105,264.28,542,795,0
399115,269.04,542,794,0
399125,275.41,542,795,0
399135,282.79,542,794,0
399145,290.70,542,795,0
399155,298.46,542,794,0
399165,305.69,542,795,0
399175,312.00,542,794,0
399185,317.27,542,795,0
399195,321.22,542,794,0
399205,323.85,542,795,0
399215,325.05,542,794,0
399225,325.04,542,795,0
399235,323.91,542,794,0
399245,321.92,542,795,0
399255,319.20,542,794,0
399265,316.36,542,795,0
399276,314.02,542,794,0
399286,313.20,542,795,0
399296,314.98,542,794,0
399306,320.82,542,795,0
