Time,PPG,IBI,GSR,GSR_Event
914375,726.46,904,775,0
914385,713.81,904,777,0
914395,696.60,904,775,0
914405,675.59,904,776,0
914415,651.24,904,775,0
914425,624.00,904,776,0
914435,594.43,904,775,0
914445,564.04,904,777,0
914455,533.13,904,775,0
914465,501.85,904,776,0
914476,470.78,904,775,0
914486,440.80,904,776,0
914496,412.70,904,776,0
914506,387.21,904,776,0
914516,364.99,904,776,0
914526,346.61,904,776,0
914536,332.37,904,775,0
914546,322.31,904,776,0
914556,316.22,904,776,0
914566,313.71,904,776,0
914576,314.10,904,775,0
914586,316.77,904,776,0
914596,320.95,904,776,0
914606,326.02,904,776,0
914616,331.29,904,775,0
914626,336.26,904,776,0
914636,340.51,904,776,0
914647,343.96,904,776,0
914657,346.28,904,776,0
914667,347.61,904,776,0
914677,347.86,904,776,0
914688,347.26,904,776,0
914697,345.94,904,776,0
914707,344.11,904,776,0
914717,341.85,904,776,0
914727,339.37,904,776,0
914737,336.81,904,776,0
914747,334.30,904,776,0
914757,331.94,904,776,0
914767,329.77,904,776,0
914777,327.83,904,776,0
914787,326.12,904,776,0
914797,324.67,904,776,0
914807,323.40,904,776,0
914817,322.42,904,776,0
914827,321.65,904,776,0
914837,321.07,904,776,0
914847,320.62,904,776,0
914857,320.35,904,776,0
914867,320.20,904,776,0
914877,320.10,904,776,0
914887,320.07,904,776,0
914897,320.09,904,776,0
914907,320.15,904,776,0
914917,320.32,904,776,0
914927,320.44,904,776,0
914937,320.65,904,776,0
914947,320.97,904,776,0
914957,321.28,904,776,0
914967,321.58,904,776,0
914977,322.01,904,776,0
914988,322.48,904,776,0
914998,323.02,904,776,0
915008,323.53,904,775,0
915018,324.05,904,777,0
915028,324.47,904,776,0
915038,324.80,904,776,0
915048,324.94,904,776,0
915058,325.13,904,777,0
915068,325.61,904,775,0
915078,326.71,904,777,0
915088,329.07,904,775,0
915098,333.63,904,777,0
915108,341.29,904,776,0
915127,352.77,913,775,0
915130,369.68,913,776,0
915139,392.24,913,777,0
915149,420.41,913,775,0
915159,453.54,913,777,0
915169,490.79,913,776,0
915179,531.10,913,777,0
915189,572.60,913,775,0
915200,612.02,913,777,0
915209,647.88,913,776,0
915219,679.16,913,777,0
915229,705.34,913,776,0
915239,726.11,913,777,0
915249,741.38,913,776,0
915259,752.06,913,778,0
915269,759.55,913,776,0
915279,764.78,913,777,0
915289,768.45,913,776,0
915299,771.01,913,777,0
915309,771.65,913,776,0
915319,769.18,913,777,0
915329,762.57,913,776,0
915339,750.91,913,777,0
915349,733.41,913,776,0
915359,709.76,913,777,0
915369,679.70,913,775,0
915379,644.82,913,777,0
915389,606.82,913,776,0
915399,567.57,913,777,0
915409,528.74,913,776,0
915419,492.18,913,777,0
915429,459.04,913,776,0
915439,430.57,913,777,0
915449,407.04,913,776,0
915459,388.86,913,778,0
915469,375.83,913,776,0
915479,367.74,913,777,0
915489,363.79,913,776,0
915500,363.34,913,777,0
915510,365.38,913,775,0
915520,369.21,913,778,0
915530,373.86,913,775,0
915540,378.83,913,778,0
915550,383.42,913,775,0
915560,387.41,913,777,0
915570,390.33,913,776,0
915580,392.20,913,778,0
915590,392.91,913,776,0
915600,392.73,913,778,0
915610,391.48,913,775,0
915620,389.49,913,777,0
915630,386.73,913,776,0
915640,383.64,913,777,0
915650,380.19,913,776,0
915660,376.75,913,777,0
915671,373.27,913,776,0
915681,370.10,913,777,0
915691,367.11,913,775,0
915701,364.59,913,777,0
915712,362.27,913,776,0
915721,360.48,913,778,0
915731,358.88,913,775,0
915741,357.67,913,778,0
915751,356.66,913,775,0
915761,356.03,913,777,0
915771,355.55,913,775,0
915781,355.43,913,777,0
915791,355.39,913,776,0
915801,355.66,913,777,0
915811,355.97,913,775,0
915821,356.45,913,778,0
915831,356.92,913,776,0
915841,357.54,913,777,0
915851,358.11,913,775,0
915861,358.80,913,777,0
915871,359.46,913,776,0
915881,360.27,913,778,0
915891,361.09,913,775,0
915901,362.00,913,778,0
915911,362.86,913,775,0
915921,363.80,913,778,0
915931,364.63,913,775,0
915941,365.39,913,778,0
915951,365.91,913,775,0
915961,366.32,913,777,0
915971,366.57,913,775,0
915981,366.87,913,777,0
915991,367.38,913,776,0
916001,368.68,913,777,0
916012,371.35,913,775,0
916022,376.56,913,777,0
916032,385.30,913,776,0
916051,398.97,924,775,0
916055,419.04,924,776,0
916063,445.73,924,777,0
916073,479.19,924,776,0
916083,518.39,924,777,0
916093,560.10,924,776,0
916103,601.77,924,777,0
916113,641.01,924,776,0
916123,675.42,924,777,0
916133,704.10,924,776,0
916143,725.97,924,777,0
916153,741.28,924,776,0
916163,751.99,924,777,0
916173,759.50,924,776,0
916183,764.79,924,777,0
916193,768.50,924,776,0
916203,771.13,924,777,0
916213,772.98,924,776,0
916224,774.31,924,777,0
916233,775.29,924,775,0
916243,776.02,924,777,0
916253,776.48,924,775,0
916263,776.85,924,777,0
916273,777.11,924,776,0
916283,777.34,924,777,0
916293,777.49,924,776,0
916303,777.60,924,777,0
916313,775.71,924,776,0
916323,768.98,924,778,0
916333,755.57,924,775,0
916343,734.61,924,777,0
916353,706.23,924,776,0
916363,670.93,924,777,0
916373,629.38,924,776,0
916383,584.70,924,777,0
916393,540.82,924,776,0
916403,500.71,924,777,0
916413,466.13,924,775,0
916423,437.85,924,777,0
916433,415.99,924,776,0
916443,400.48,924,777,0
916453,390.44,924,776,0
916463,385.03,924,776,0
916473,383.18,924,776,0
916483,383.98,924,777,0
916493,386.35,924,776,0
916503,389.54,924,776,0
916513,392.72,924,776,0
916524,395.59,924,777,0
916534,397.64,924,776,0
916544,398.74,924,777,0
916554,398.81,924,775,0
916564,398.10,924,777,0
916574,396.48,924,776,0
916584,394.32,924,776,0
916594,391.61,924,776,0
916604,388.64,924,777,0
916614,385.45,924,776,0
916624,382.23,924,777,0
916634,378.99,924,776,0
916644,375.99,924,777,0
916654,373.17,924,776,0
916664,370.63,924,777,0
916674,368.38,924,776,0
916684,366.55,924,777,0
916695,365.02,924,776,0
916705,363.81,924,776,0
916715,362.88,924,776,0
916725,362.23,924,776,0
916736,361.73,924,776,0
916745,361.43,924,777,0
916755,361.13,924,776,0
916765,360.88,924,776,0
916775,360.57,924,776,0
916785,360.27,924,777,0
916795,359.93,924,776,0
916805,359.61,924,777,0
916815,359.21,924,776,0
916825,358.85,924,777,0
916835,358.47,924,776,0
916845,358.07,924,776,0
916855,357.62,924,776,0
916865,357.13,924,777,0
916875,356.58,924,776,0
916885,355.98,924,777,0
916895,355.30,924,775,0
916905,354.57,924,776,0
916915,353.75,924,776,0
916925,352.97,924,776,0
916935,352.25,924,775,0
916945,351.83,924,776,0
916955,352.10,924,774,0
916965,353.78,924,777,0
916975,357.96,924,776,0
916985,365.94,924,776,0
916995,378.73,924,776,0
917014,397.93,963,775,0
917017,425.25,963,777,0
917026,460.79,963,776,0
917036,502.47,963,776,0
917046,546.98,963,776,0
917056,591.47,963,776,0
917066,633.76,963,776,0
917076,671.46,963,776,0
917086,702.09,963,776,0
917096,724.82,963,776,0
917106,740.73,963,776,0
917116,751.87,963,777,0
917126,759.71,963,776,0
917136,765.20,963,776,0
917146,769.04,963,776,0
917156,771.73,963,777,0
917166,773.61,963,776,0
917176,774.93,963,777,0
917186,775.85,963,776,0
917196,776.49,963,776,0
917207,776.95,963,775,0
917217,777.26,963,776,0
917227,777.48,963,776,0
917237,775.80,963,777,0
917248,769.04,963,776,0
917257,755.49,963,777,0
917267,733.70,963,776,0
917277,703.32,963,777,0
917287,664.48,963,775,0
917297,618.14,963,777,0
917307,567.05,963,776,0
917317,515.74,963,776,0
917327,467.22,963,775,0
917337,424.34,963,777,0
917347,388.58,963,776,0
917357,360.93,963,777,0
917367,341.11,963,776,0
917377,328.82,963,777,0
917387,323.09,963,776,0
917397,322.85,963,777,0
917407,326.71,963,776,0
917417,333.48,963,777,0
917427,341.69,963,776,0
917437,350.49,963,777,0
917447,358.78,963,776,0
917457,366.01,963,777,0
917467,371.58,963,776,0
917477,375.30,963,777,0
917487,377.10,963,776,0
917497,377.20,963,777,0
917507,375.72,963,776,0
917517,373.11,963,777,0
917527,369.52,963,775,0
917537,365.38,963,777,0
917548,360.89,963,776,0
917558,356.38,963,777,0
917568,351.94,963,776,0
917578,347.89,963,777,0
917588,344.19,963,776,0
917598,341.09,963,777,0
917608,338.45,963,776,0
917618,336.43,963,777,0
917628,334.80,963,776,0
917638,333.66,963,777,0
917648,332.73,963,775,0
917658,332.21,963,777,0
917668,331.85,963,776,0
917678,331.85,963,777,0
917688,331.94,963,775,0
917698,332.26,963,777,0
917708,332.65,963,775,0
917719,333.27,963,777,0
917729,333.79,963,775,0
917739,334.45,963,777,0
917749,335.00,963,775,0
917760,335.60,963,777,0
917769,336.06,963,775,0
917779,336.60,963,777,0
917789,337.02,963,775,0
917799,337.61,963,778,0
917809,338.12,963,775,0
917819,338.72,963,777,0
917829,339.28,963,775,0
917839,340.05,963,777,0
917849,340.72,963,776,0
917859,341.41,963,777,0
917869,341.88,963,775,0
917879,342.26,963,777,0
917889,342.35,963,776,0
917899,342.38,963,777,0
917909,342.26,963,775,0
917919,342.66,963,777,0
917929,344.00,963,775,0
917939,347.30,963,777,0
917958,353.64,944,777,0
917961,365.02,944,778,0
917970,382.41,944,775,0
917980,406.80,944,778,0
917990,438.62,944,776,0
918000,477.99,944,777,0
918010,521.84,944,775,0
918020,567.19,944,777,0
918030,610.80,944,775,0
918040,650.63,944,777,0
918050,684.94,944,775,0
918060,712.39,944,777,0
918070,732.03,944,775,0
918080,745.82,944,777,0
918090,755.47,944,775,0
918100,762.23,944,777,0
918110,766.96,944,775,0
918120,770.27,944,777,0
918130,772.59,944,775,0
918140,774.21,944,777,0
918150,773.42,944,775,0
918160,768.79,944,777,0
918170,758.96,944,775,0
918180,742.98,944,777,0
918190,720.49,944,775,0
918200,691.11,944,777,0
918210,654.65,944,775,0
918220,613.44,944,777,0
918231,569.38,944,775,0
918241,524.69,944,777,0
918251,481.11,944,775,0
918261,440.15,944,777,0
918272,403.08,944,775,0
918281,371.21,944,777,0
918291,344.96,944,774,0
918301,324.96,944,777,0
918311,311.04,944,775,0
918321,303.06,944,777,0
918331,300.17,944,775,0
918341,301.88,944,777,0
918351,306.97,944,775,0
918361,314.61,944,776,0
918371,323.60,944,774,0
918381,333.19,944,776,0
918391,342.43,944,775,0
918401,350.87,944,776,0
918411,357.77,944,774,0
918421,363.07,944,776,0
918431,366.52,944,774,0
918441,368.33,944,776,0
918451,368.53,944,775,0
918461,367.56,944,777,0
918471,365.51,944,775,0
918481,362.87,944,776,0
918491,359.78,944,774,0
918501,356.59,944,776,0
918511,353.28,944,774,0
918521,350.20,944,776,0
918531,347.22,944,774,0
918541,344.71,944,776,0
918551,342.44,944,775,0
918561,340.64,944,777,0
918572,339.20,944,776,0
918582,338.33,944,777,0
918592,337.76,944,776,0
918602,337.66,944,777,0
918612,337.76,944,776,0
918622,338.18,944,777,0
918632,338.64,944,775,0
918642,339.22,944,777,0
918652,339.71,944,776,0
918662,340.18,944,777,0
918672,340.51,944,776,0
918682,340.70,944,777,0
918692,340.71,944,776,0
918702,340.75,944,777,0
918712,340.74,944,776,0
918722,340.86,944,777,0
918732,341.03,944,776,0
918743,341.32,944,777,0
918753,341.74,944,775,0
918763,342.42,944,777,0
918773,343.15,944,776,0
918784,344.05,944,777,0
918793,344.89,944,775,0
918803,345.87,944,777,0
918813,346.85,944,776,0
918823,347.75,944,776,0
918833,348.38,944,775,0
918843,348.74,944,776,0
918853,348.73,944,774,0
918863,348.51,944,777,0
918873,348.23,944,775,0
918883,348.59,944,777,0
918893,350.47,944,776,0
918913,355.21,954,775,0
918916,364.75,954,777,0
918925,380.43,954,776,0
918935,403.48,954,776,0
918945,434.67,954,776,0
918956,473.90,954,777,0
918966,518.07,954,776,0
918976,563.99,954,777,0
918986,608.44,954,775,0
918996,649.11,954,776,0
919006,684.09,954,776,0
919016,711.92,954,775,0
919026,731.70,954,775,0
919036,745.55,954,777,0
919046,755.24,954,776,0
919056,762.03,954,776,0
919066,766.82,954,775,0
919076,770.17,954,776,0
919086,772.52,954,776,0
919096,774.16,954,775,0
919106,775.32,954,775,0
919116,773.85,954,776,0
919127,767.85,954,775,0
919137,755.94,954,777,0
919147,736.97,954,775,0
919157,710.45,954,775,0
919168,676.16,954,775,0
919177,634.54,954,776,0
919187,588.39,954,775,0
919197,540.66,954,777,0
919207,493.75,954,775,0
919217,450.19,954,777,0
919227,411.52,954,776,0
919237,379.27,954,777,0
919247,353.94,954,775,0
919257,335.87,954,777,0
919267,324.85,954,775,0
919277,320.48,954,777,0
919287,321.62,954,775,0
919297,327.35,954,777,0
919307,336.25,954,775,0
919317,347.19,954,777,0
919327,358.92,954,775,0
919337,370.43,954,777,0
919347,380.76,954,774,0
919357,389.36,954,776,0
919367,395.76,954,775,0
919377,399.99,954,777,0
919387,401.97,954,775,0
919397,402.06,954,777,0
919407,400.41,954,775,0
919417,397.59,954,777,0
919427,393.81,954,776,0
919437,389.63,954,777,0
919447,385.02,954,776,0
919457,380.43,954,777,0
919468,375.93,954,775,0
919478,371.79,954,777,0
919488,367.87,954,775,0
919498,364.44,954,777,0
919508,361.35,954,775,0
919518,358.89,954,777,0
919528,356.86,954,775,0
919538,355.36,954,777,0
919548,354.27,954,775,0
919558,353.67,954,777,0
919568,353.43,954,775,0
919578,353.64,954,777,0
919588,354.18,954,775,0
919598,355.15,954,776,0
919608,356.31,954,775,0
919618,357.76,954,777,0
919628,359.29,954,775,0
919639,361.04,954,777,0
919649,362.75,954,775,0
919659,364.41,954,777,0
919669,365.79,954,775,0
919680,367.05,954,777,0
919689,367.89,954,775,0
919699,368.52,954,777,0
919709,368.54,954,775,0
919719,368.25,954,777,0
919729,367.49,954,775,0
919739,366.61,954,777,0
919749,365.96,954,775,0
919759,366.61,954,777,0
919769,369.39,954,775,0
919779,376.13,954,777,0
919789,388.30,954,775,0
919799,407.84,954,776,0
919818,435.53,906,776,0
919821,472.40,906,777,0
919830,514.71,906,775,0
919840,559.58,906,776,0
919851,604.02,906,775,0
919860,645.46,906,777,0
919870,681.41,906,775,0
919880,710.38,906,777,0
919890,730.67,906,775,0
919900,744.87,906,777,0
919910,754.81,906,775,0
919920,761.77,906,777,0
919930,766.64,906,775,0
919940,770.05,906,777,0
919950,772.43,906,775,0
919960,774.10,906,777,0
919970,775.27,906,775,0
919980,776.09,906,777,0
919990,776.66,906,775,0
920000,777.06,906,777,0
920010,777.34,906,775,0
920020,777.54,906,777,0
920030,775.36,906,775,0
920040,767.46,906,777,0
920050,751.29,906,775,0
920060,725.66,906,777,0
920070,690.41,906,775,0
920080,645.88,906,777,0
920090,592.82,906,775,0
920100,535.02,906,777,0
920110,477.33,906,775,0
920120,424.00,906,777,0
920130,377.76,906,775,0
920140,340.37,906,777,0
920151,312.66,906,775,0
920161,294.93,906,777,0
920171,286.25,906,775,0
920181,285.49,906,777,0
920192,290.87,906,775,0
920201,300.81,906,777,0
920211,313.34,906,775,0
920221,326.95,906,777,0
920231,340.08,906,775,0
920241,351.88,906,777,0
920251,361.56,906,775,0
920261,368.98,906,777,0
920271,373.83,906,775,0
920281,376.37,906,777,0
920291,376.68,906,775,0
920301,375.41,906,777,0
920311,372.76,906,775,0
920321,369.27,906,777,0
920331,365.21,906,775,0
920341,361.07,906,777,0
920351,357.02,906,775,0
920361,353.46,906,777,0
920371,350.32,906,775,0
920381,347.82,906,777,0
920391,345.91,906,775,0
920401,344.61,906,777,0
920411,343.82,906,775,0
920421,343.58,906,776,0
920431,343.66,906,775,0
920441,344.15,906,776,0
920451,344.79,906,775,0
920461,345.67,906,777,0
920471,346.54,906,775,0
920481,347.45,906,777,0
920492,348.30,906,775,0
920502,349.20,906,777,0
920512,349.95,906,776,0
920522,350.69,906,776,0
920532,351.34,906,775,0
920542,352.05,906,777,0
920552,352.68,906,776,0
920562,353.38,906,776,0
920572,354.04,906,775,0
920582,354.80,906,777,0
920592,355.54,906,775,0
920602,356.19,906,776,0
920612,356.69,906,775,0
920622,357.17,906,776,0
920632,357.59,906,775,0
920642,358.44,906,777,0
920652,360.41,906,775,0
920663,364.74,906,777,0
920673,373.01,906,775,0
920683,386.93,906,777,0
920702,408.21,884,775,0
920706,438.79,884,775,0
920715,477.64,884,776,0
920725,521.38,884,776,0
920735,566.99,884,776,0
920745,611.69,884,775,0
920755,652.89,884,776,0
920765,688.19,884,776,0
920775,715.13,884,776,0
920785,733.99,884,776,0
920795,747.20,884,776,0
920805,756.44,884,776,0
920815,762.91,884,776,0
920825,767.43,884,775,0
920835,770.60,884,776,0
920845,772.82,884,776,0
920855,774.38,884,777,0
920865,775.51,884,776,0
920876,776.30,884,777,0
920886,776.85,884,775,0
920896,777.24,884,777,0
920906,775.62,884,775,0
920916,768.54,884,777,0
920926,753.89,884,775,0
920936,729.92,884,776,0
920946,695.79,884,775,0
920956,651.37,884,776,0
920966,597.39,884,775,0
920976,536.71,884,776,0
920986,474.06,884,775,0
920996,413.22,884,776,0
921006,357.57,884,775,0
921016,309.74,884,777,0
921026,271.29,884,775,0
921036,242.96,884,777,0
921047,224.80,884,775,0
921057,216.38,884,777,0
921067,216.35,884,775,0
921077,223.36,884,777,0
921088,235.51,884,775,0
921097,251.13,884,777,0
921107,268.23,884,775,0
921117,285.39,884,777,0
921127,301.26,884,775,0
921137,315.07,884,776,0
921147,326.10,884,774,0
921157,334.26,884,777,0
921167,339.41,884,775,0
921177,342.12,884,777,0
921187,342.55,884,775,0
921197,341.40,884,777,0
921207,338.97,884,776,0
921217,335.85,884,777,0
921227,332.25,884,775,0
921237,328.70,884,778,0
921247,325.11,884,776,0
921257,321.86,884,778,0
921267,318.82,884,775,0
921277,316.30,884,777,0
921287,314.07,884,776,0
921297,312.33,884,777,0
921307,310.90,884,775,0
921317,310.03,884,777,0
921327,309.51,884,775,0
921337,309.53,884,777,0
921347,309.84,884,775,0
921357,310.66,884,777,0
921367,311.75,884,775,0
921377,313.24,884,777,0
921388,314.79,884,775,0
921398,316.57,884,778,0
921408,318.24,884,775,0
921418,319.97,884,777,0
921428,321.52,884,775,0
921438,323.08,884,778,0
921448,324.43,884,775,0
921458,325.80,884,778,0
921468,327.02,884,775,0
921478,328.38,884,778,0
921488,329.64,884,775,0
921498,331.03,884,777,0
921508,332.31,884,774,0
921518,333.67,884,778,0
921528,334.84,884,775,0
921538,335.92,884,778,0
921548,336.67,884,775,0
921559,337.28,884,777,0
921569,337.50,884,775,0
921579,337.65,884,777,0
921589,337.80,884,775,0
921600,338.89,884,777,0
921609,341.62,884,775,0
921628,347.65,926,774,0
921631,359.07,926,774,0
921640,377.56,926,776,0
921650,404.22,926,773,0
921660,440.46,926,775,0
921670,483.69,926,773,0
921680,530.80,926,774,0
921690,578.56,926,772,0
921700,623.65,926,774,0
921710,663.70,926,772,0
921720,696.87,926,775,0
921730,721.21,926,774,0
921740,738.25,926,775,0
921750,750.13,926,773,0
921760,758.45,926,774,0
921771,764.27,926,771,0
921780,768.35,926,776,0
921790,771.20,926,774,0
921800,773.20,926,776,0
921810,774.60,926,775,0
921820,775.62,926,777,0
921830,776.33,926,775,0
921840,776.83,926,777,0
921850,777.18,926,775,0
921860,774.77,926,777,0
921870,766.31,926,775,0
921880,749.63,926,777,0
921890,723.26,926,775,0
921900,687.05,926,775,0
921910,640.92,926,774,0
921920,585.49,926,777,0
921930,524.40,926,775,0
921940,462.48,926,776,0
921950,403.49,926,775,0
921960,350.89,926,712,1
921970,306.35,926,759,0
921980,271.44,926,765,0
921990,246.45,926,762,0
922000,231.53,926,766,0
922010,225.67,926,762,0
922020,227.96,926,767,0
922030,236.24,926,763,0
922040,249.20,926,767,0
922050,264.91,926,764,0
922060,282.25,926,768,0
922071,299.49,926,763,0
922081,315.76,926,767,0
922091,329.72,926,763,0
922101,341.29,926,768,0
922112,349.77,926,763,0
922121,355.54,926,768,0
922131,358.51,926,763,0
922141,359.30,926,768,0
922151,358.14,926,763,0
922161,355.82,926,768,0
922171,352.58,926,763,0
922181,349.06,926,768,0
922191,345.31,926,763,0
922201,341.83,926,768,0
922211,338.50,926,763,0
922221,335.65,926,768,0
922231,333.10,926,763,0
922241,331.10,926,768,0
922251,329.31,926,764,0
922261,327.97,926,768,0
922271,326.87,926,763,0
922281,326.31,926,771,0
922291,326.04,926,764,0
922301,326.33,926,768,0
922311,326.92,926,764,0
922321,328.06,926,771,0
922331,329.45,926,764,0
922341,331.33,926,769,0
922351,333.25,926,764,0
922361,335.36,926,771,0
922371,337.35,926,764,0
922381,339.35,926,769,0
922391,341.04,926,764,0
922401,342.62,926,771,0
922412,343.80,926,761,0
922422,344.89,926,775,0
922432,345.74,926,756,0
922442,346.54,926,774,0
922452,347.20,926,752,0
922462,347.99,926,775,0
922472,348.77,926,754,0
922482,349.52,926,777,0
922492,350.18,926,751,0
922502,350.73,926,774,0
922512,350.98,926,756,0
922522,350.94,926,774,0
922532,350.53,926,753,0
922542,349.99,926,774,0
922552,349.69,926,757,0
922562,350.47,926,775,0
922572,353.54,926,753,0
922583,360.58,926,774,0
922593,373.35,926,752,0
922612,393.60,984,750,0
922615,423.59,984,761,0
922625,462.76,984,770,0
922635,507.44,984,759,0
922645,554.50,984,770,0
922655,600.98,984,761,0
922665,644.18,984,770,0
922675,681.67,984,759,0
922685,710.57,984,770,0
922695,730.80,984,760,0
922705,744.96,984,770,0
922715,754.87,984,758,0
922725,761.81,984,770,0
922735,766.71,984,761,0
922745,770.14,984,770,0
922755,772.54,984,759,0
922765,774.22,984,770,0
922775,775.40,984,760,0
922785,776.22,984,769,0
922796,776.28,984,762,0
922806,772.13,984,769,0
922816,761.93,984,763,0
922826,743.70,984,768,0
922836,716.87,984,764,0
922846,681.04,984,769,0
922856,636.54,984,763,0
922866,584.01,984,768,0
922876,528.12,984,764,0
922886,471.73,984,769,0
922896,418.49,984,762,0
922906,370.00,984,769,0
922916,328.43,984,764,0
922926,294.27,984,769,0
922936,268.99,984,762,0
922946,251.98,984,768,0
922956,243.46,984,764,0
922967,241.95,984,768,0
922977,247.06,984,765,0
922987,256.73,984,767,0
922997,270.31,984,767,0
923008,285.60,984,766,0
923017,301.97,984,765,0
923027,317.40,984,767,0
923037,331.73,984,767,0
923047,343.51,984,766,0
923057,353.08,984,765,0
923067,359.62,984,767,0
923077,363.89,984,766,0
923087,365.42,984,766,0
923097,365.30,984,765,0
923107,363.11,984,767,0
923117,360.03,984,766,0
923127,355.78,984,767,0
923137,351.43,984,765,0
923147,346.59,984,767,0
923157,342.25,984,766,0
923167,337.94,984,766,0
923177,334.53,984,767,0
923187,331.37,984,767,0
923197,329.20,984,766,0
923207,327.34,984,766,0
923217,326.38,984,767,0
923227,325.54,984,767,0
923237,325.51,984,766,0
923247,325.53,984,766,0
923257,326.27,984,767,0
923267,326.96,984,767,0
923277,328.26,984,766,0
923287,329.47,984,766,0
923297,331.25,984,767,0
923308,332.85,984,766,0
923318,334.82,984,768,0
923328,336.46,984,766,0
923338,338.38,984,768,0
923348,339.81,984,765,0
923358,341.32,984,768,0
923368,342.26,984,766,0
923378,343.25,984,768,0
923388,343.73,984,765,0
923398,344.33,984,768,0
923408,344.44,984,766,0
923418,344.78,984,768,0
923428,344.85,984,766,0
923438,345.24,984,768,0
923448,345.29,984,766,0
923458,345.59,984,768,0
923468,345.41,984,766,0
923479,345.33,984,768,0
923489,344.72,984,765,0
923499,344.16,984,768,0
923509,343.25,984,765,0
923520,343.09,984,769,0
923529,343.88,984,765,0
923539,347.47,984,768,0
923549,354.92,984,765,0
923559,368.44,984,769,0
923578,388.88,966,768,0
923581,418.74,966,776,0
923590,457.69,966,765,0
923600,502.49,966,770,0
923610,549.61,966,765,0
923620,596.31,966,769,0
923630,639.63,966,765,0
923640,677.71,966,769,0
923650,707.67,966,765,0
923660,728.77,966,769,0
923670,743.54,966,765,0
923680,753.88,966,770,0
923691,761.11,966,765,0
923700,766.18,966,769,0
923710,769.73,966,765,0
923720,772.21,966,769,0
923730,773.95,966,765,0
923740,775.16,966,769,0
923750,776.01,966,765,0
923760,774.51,966,769,0
923770,768.14,966,765,0
923780,755.59,966,769,0
923790,735.35,966,764,0
923800,706.75,966,769,0
923810,669.45,966,764,0
923820,624.02,966,769,0
923830,572.93,966,764,0
923840,519.80,966,769,0
923850,467.06,966,764,0
923860,417.63,966,771,0
923870,373.47,966,764,0
923880,336.43,966,769,0
923890,307.11,966,764,0
923900,286.38,966,772,0
923910,273.84,966,764,0
923920,269.30,966,769,0
923930,271.65,966,764,0
923940,279.81,966,771,0
923950,292.00,966,765,0
923960,306.96,966,769,0
923970,322.87,966,764,0
923980,338.72,966,770,0
923991,353.03,966,762,0
924001,365.11,966,775,0
924011,374.29,966,757,0
924021,380.59,966,774,0
924032,383.80,966,753,0
924041,384.50,966,774,0
924051,382.89,966,758,0
924061,379.63,966,776,0
924071,375.11,966,754,0
924081,369.98,966,774,0
924091,364.50,966,759,0
924101,359.12,966,775,0
924111,353.94,966,756,0
924121,349.33,966,773,0
924131,345.37,966,760,0
924141,342.22,966,775,0
924151,339.75,966,754,0
924161,338.11,966,774,0
924171,337.14,966,761,0
924181,336.84,966,775,0
924191,337.02,966,757,0
924201,337.57,966,773,0
924211,338.30,966,761,0
924221,339.28,966,774,0
924231,340.31,966,757,0
924241,341.42,966,774,0
924251,342.49,966,762,0
924261,343.63,966,774,0
924271,344.73,966,757,0
924281,345.88,966,774,0
924291,346.94,966,762,0
924301,347.99,966,774,0
924311,348.94,966,758,0
924321,349.73,966,774,0
924332,350.19,966,752,0
924342,350.35,966,773,0
924352,350.12,966,751,0
924362,349.35,966,773,0
924372,348.26,966,752,0
924382,347.07,966,773,0
924392,346.28,966,751,0
924402,346.79,966,774,0
924412,350.07,966,753,0
924422,357.42,966,773,0
924432,370.88,966,751,0
924442,392.04,966,774,0
924462,422.37,883,772,0
924465,461.86,883,770,0
924474,506.82,883,760,0
924484,553.89,883,770,0
924494,600.38,883,762,0
924504,643.46,883,771,0
924514,680.65,883,760,0
924524,709.86,883,770,0
924534,730.30,883,761,0
924545,744.61,883,770,0
924555,754.63,883,762,0
924565,761.64,883,769,0
924575,766.55,883,764,0
924585,769.98,883,769,0
924595,772.39,883,763,0
924605,774.07,883,769,0
924615,775.25,883,764,0
924625,776.08,883,769,0
924635,776.65,883,762,0
924645,777.06,883,769,0
924655,776.05,883,764,0
924665,769.70,883,769,0
924675,756.20,883,762,0
924685,733.38,883,769,0
924695,700.83,883,763,0
924705,658.06,883,769,0
924716,606.06,883,765,0
924726,546.81,883,767,0
924736,486.23,883,766,0
924746,427.36,883,767,0
924756,374.54,883,767,0
924766,329.42,883,767,0
924776,294.36,883,766,0
924786,269.31,883,767,0
924796,254.95,883,767,0
924806,249.43,883,768,0
924816,252.30,883,766,0
924826,261.13,883,767,0
924836,274.89,883,767,0
924846,290.87,883,768,0
924856,308.09,883,766,0
924866,324.31,883,767,0
924876,339.26,883,767,0
924887,351.31,883,766,0
924897,360.69,883,768,0
924907,366.52,883,766,0
924917,369.75,883,768,0
924928,369.96,883,765,0
924937,368.30,883,768,0
924947,364.65,883,766,0
924957,360.26,883,768,0
924967,354.95,883,766,0
924977,349.87,883,768,0
924987,344.72,883,766,0
924997,340.48,883,768,0
925007,336.69,883,766,0
925017,334.13,883,768,0
925027,332.20,883,766,0
925037,331.63,883,768,0
925047,331.74,883,766,0
925057,333.19,883,767,0
925067,335.19,883,766,0
925077,338.30,883,768,0
925087,341.77,883,766,0
925097,346.04,883,768,0
925107,350.27,883,766,0
925117,354.95,883,768,0
925127,359.12,883,766,0
925137,363.24,883,768,0
925147,366.38,883,766,0
925157,368.97,883,768,0
925167,370.22,883,766,0
925177,370.75,883,768,0
925187,370.01,883,766,0
925197,369.15,883,768,0
925207,368.42,883,766,0
925217,369.75,883,768,0
925228,374.28,883,766,0
925238,384.53,883,768,0
925248,401.81,883,766,0
925258,428.23,883,769,0
925278,463.99,816,768,0
925281,506.25,816,777,0
925290,551.43,816,760,0
925300,596.82,816,776,0
925310,639.39,816,754,0
925320,676.86,816,773,0
925330,706.90,816,761,0
925340,728.27,816,776,0
925350,743.19,816,755,0
925360,753.68,816,772,0
925370,761.02,816,762,0
925380,766.15,816,776,0
925390,769.75,816,754,0
925400,772.27,816,772,0
925410,774.03,816,763,0
925420,775.26,816,775,0
925430,776.09,816,756,0
925441,773.62,816,777,0
925451,765.37,816,752,0
925461,749.53,816,774,0
925471,724.86,816,751,0
925481,690.74,816,774,0
925491,647.45,816,752,0
925501,595.29,816,774,0
925511,538.07,816,752,0
925521,479.38,816,774,0
925531,422.52,816,752,0
925541,370.21,816,775,0
925551,324.63,816,750,0
925561,286.94,816,776,0
925571,258.12,816,752,0
925581,238.45,816,776,0
925591,227.86,816,751,0
925601,225.46,816,775,0
925612,230.16,816,751,0
925622,240.36,816,773,0
925632,254.65,816,752,0
925642,271.21,816,773,0
925652,288.76,816,755,0
925662,305.68,816,774,0
925672,321.07,816,753,0
925682,333.91,816,772,0
925692,344.01,816,755,0
925702,350.86,816,773,0
925712,354.89,816,753,0
925722,355.95,816,772,0
925732,354.89,816,755,0
925742,351.88,816,774,0
925752,347.80,816,753,0
925762,342.72,816,773,0
925772,337.49,816,754,0
925783,332.11,816,770,0
925793,327.37,816,758,0
925803,322.97,816,770,0
925813,319.51,816,760,0
925824,316.57,816,769,0
925833,314.68,816,758,0
925843,313.32,816,769,0
925853,312.97,816,760,0
925863,312.89,816,769,0
925873,313.65,816,758,0
925883,314.57,816,769,0
925893,316.16,816,760,0
925903,317.74,816,769,0
925913,319.83,816,757,0
925923,321.77,816,769,0
925933,324.11,816,760,0
925943,326.05,816,770,0
925953,328.09,816,757,0
925963,329.73,816,770,0
925973,331.57,816,760,0
925983,332.90,816,770,0
925993,334.39,816,761,0
926003,335.47,816,770,0
926013,336.79,816,760,0
926023,337.75,816,770,0
926033,338.94,816,761,0
926043,339.77,816,770,0
926053,340.87,816,759,0
926063,341.51,816,770,0
926073,342.26,816,761,0
926083,342.52,816,770,0
926093,342.88,816,759,0
926103,342.74,816,770,0
926113,343.08,816,761,0
926124,343.87,816,769,0
926134,346.91,816,762,0
926144,353.02,816,769,0
926163,364.67,886,768,0
926167,383.88,886,767,0
926175,412.12,886,765,0
926185,449.71,886,768,0
926195,493.90,886,767,0
926205,541.07,886,767,0
926215,588.62,886,765,0
926225,633.35,886,768,0
926235,672.24,886,767,0
926245,703.54,886,767,0
926255,725.88,886,766,0
926265,741.52,886,768,0
926275,752.46,886,766,0
926285,760.12,886,767,0
926295,765.49,886,765,0
926305,769.24,886,768,0
926315,771.87,886,766,0
926325,773.71,886,767,0
926336,775.00,886,768,0
926345,775.90,886,768,0
926355,776.57,886,767,0
926365,777.04,886,767,0
926375,777.37,886,768,0
926385,776.19,886,768,0
926395,770.26,886,766,0
926405,756.68,886,766,0
926415,734.19,886,768,0
926425,701.99,886,767,0
926435,660.34,886,766,0
926445,609.45,886,766,0
926455,552.14,886,767,0
926465,492.79,886,768,0
926475,436.24,886,765,0
926485,384.99,886,766,0
926495,341.75,886,767,0
926505,307.41,886,766,0
926515,283.12,886,765,0
926525,268.13,886,767,0
926535,262.34,886,767,0
926545,263.87,886,766,0
926555,271.79,886,765,0
926565,283.73,886,767,0
926575,298.68,886,767,0
926585,314.51,886,766,0
926595,330.43,886,766,0
926605,344.57,886,767,0
926615,356.78,886,767,0
926625,366.02,886,766,0
926636,372.79,886,768,0
926646,376.45,886,766,0
926656,377.94,886,768,0
926666,377.06,886,766,0
926676,374.99,886,768,0
926686,371.60,886,765,0
926696,367.99,886,768,0
926706,363.88,886,766,0
926716,360.10,886,768,0
926726,356.26,886,766,0
926736,353.09,886,768,0
926746,349.98,886,766,0
926756,347.50,886,768,0
926766,345.04,886,766,0
926776,343.14,886,768,0
926786,341.25,886,766,0
926796,339.98,886,768,0
926807,338.66,886,765,0
926817,337.86,886,768,0
926827,337.09,886,765,0
926837,336.89,886,768,0
926848,336.84,886,765,0
926857,337.36,886,768,0
926867,337.94,886,765,0
926877,339.03,886,768,0
926887,340.18,886,765,0
926897,341.75,886,768,0
926907,343.20,886,765,0
926917,344.85,886,769,0
926927,346.31,886,765,0
926937,347.93,886,769,0
926947,349.20,886,765,0
926957,350.42,886,768,0
926967,351.11,886,765,0
926977,351.63,886,768,0
926987,351.49,886,765,0
926997,351.21,886,769,0
927007,350.68,886,765,0
927017,350.95,886,769,0
927027,352.42,886,766,0
927037,356.92,886,768,0
927047,365.69,886,765,0
927057,380.91,886,769,0
927076,403.27,913,768,0
927079,434.90,913,775,0
927088,474.66,913,765,0
927098,519.33,913,770,0
927108,565.52,913,765,0
927118,610.58,913,769,0
927128,651.68,913,765,0
927138,687.17,913,769,0
927148,714.42,913,765,0
927158,733.49,913,769,0
927168,746.85,913,765,0
927178,756.19,913,770,0
927188,762.78,913,765,0
927198,767.39,913,769,0
927208,770.61,913,765,0
927218,772.87,913,770,0
927228,774.45,913,764,0
927238,775.56,913,769,0
927248,775.48,913,764,0
927258,771.69,913,769,0
927268,762.18,913,764,0
927278,745.97,913,769,0
927288,721.85,913,765,0
927298,689.45,913,769,0
927308,648.65,913,764,0
927319,600.71,913,773,0
927329,548.85,913,760,0
927339,496.23,913,776,0
927349,444.94,913,755,0
927360,397.56,913,775,0
927369,355.69,913,761,0
927379,320.77,913,776,0
927389,293.45,913,754,0
927399,274.12,913,777,0
927409,262.43,913,761,0
927419,257.93,913,775,0
927429,259.53,913,755,0
927439,266.23,913,776,0
927449,276.53,913,763,0
927459,289.27,913,775,0
927469,303.12,913,755,0
927479,317.06,913,776,0
927489,329.98,913,763,0
927499,341.30,913,776,0
927509,350.38,913,757,0
927519,357.08,913,775,0
927529,361.21,913,753,0
927539,362.99,913,774,0
927549,362.65,913,756,0
927559,360.61,913,777,0
927569,357.30,913,752,0
927579,353.23,913,775,0
927589,348.79,913,756,0
927599,344.39,913,777,0
927609,340.20,913,753,0
927619,336.50,913,774,0
927629,333.35,913,757,0
927639,330.80,913,776,0
927649,328.76,913,752,0
927660,327.25,913,775,0
927670,326.19,913,751,0
927680,325.53,913,774,0
927690,325.24,913,751,0
927700,325.17,913,773,0
927710,325.29,913,751,0
927720,325.59,913,774,0
927730,326.06,913,751,0
927740,326.51,913,772,0
927750,327.09,913,751,0
927760,327.57,913,775,0
927770,328.17,913,751,0
927780,328.68,913,772,0
927790,329.25,913,752,0
927800,329.73,913,774,0
927810,330.33,913,751,0
927820,330.83,913,773,0
927831,331.44,913,753,0
927841,331.86,913,772,0
927851,332.38,913,754,0
927861,332.61,913,770,0
927872,332.77,913,759,0
927881,332.58,913,776,0
927891,332.36,913,754,0
927901,332.00,913,770,0
927911,332.43,913,758,0
927921,333.88,913,771,0
927931,337.86,913,755,0
927941,345.32,913,771,0
927951,358.12,913,758,0
927970,376.99,894,753,0
927973,403.86,894,763,0
927982,438.06,894,770,0
927992,479.61,894,762,0
928002,524.94,894,770,0
928012,571.12,894,761,0
928022,615.18,894,770,0
928032,655.28,894,762,0
928043,688.84,894,770,0
928052,715.38,894,760,0
928062,734.16,894,769,0
928072,747.31,894,762,0
928082,756.52,894,770,0
928092,762.96,894,760,0
928102,767.09,894,770,0
928112,768.09,894,761,0
928122,764.68,894,770,0
928132,756.63,894,760,0
928142,743.03,894,770,0
928152,723.78,894,761,0
928162,698.22,894,770,0
928172,667.08,894,759,0
928182,631.40,894,769,0
928192,593.31,894,761,0
928202,553.23,894,769,0
928212,513.09,894,762,0
928222,473.46,894,770,0
928232,436.08,894,761,0
928242,401.09,894,769,0
928252,370.07,894,762,0
928262,343.18,894,769,0
928272,321.65,894,761,0
928282,305.17,894,769,0
928292,294.36,894,762,0
928302,288.38,894,769,0
928312,287.50,894,761,0
928322,290.39,894,770,0
928332,296.92,894,762,0
928343,305.47,894,769,0
928353,315.79,894,763,0
928363,326.31,894,769,0
928373,336.89,894,765,0
928384,346.18,894,768,0
928393,354.35,894,764,0
928403,360.33,894,769,0
928413,364.78,894,765,0
928423,366.90,894,768,0
928433,367.53,894,763,0
928443,366.30,894,769,0
928453,364.20,894,764,0
928463,360.84,894,768,0
928473,357.33,894,763,0
928483,353.20,894,769,0
928493,349.50,894,765,0
928503,345.75,894,768,0
928513,342.78,894,763,0
928523,339.98,894,768,0
928533,338.14,894,765,0
928543,336.56,894,768,0
928553,335.87,894,766,0
928563,335.35,894,768,0
928573,335.63,894,765,0
928583,335.96,894,768,0
928593,337.00,894,766,0
928603,337.90,894,768,0
928613,339.34,894,764,0
928623,340.57,894,768,0
928633,342.24,894,766,0
928643,343.50,894,769,0
928653,345.02,894,764,0
928663,346.04,894,768,0
928673,347.32,894,766,0
928684,348.12,894,768,0
928694,349.11,894,767,0
928704,349.55,894,766,0
928714,350.20,894,768,0
928724,350.35,894,766,0
928734,350.68,894,767,0
928744,350.52,894,766,0
928754,350.75,894,768,0
928764,351.21,894,766,0
928774,353.20,894,767,0
928784,357.17,894,767,0
928794,365.09,894,768,0
928804,377.75,894,766,0
928823,396.77,853,766,0
928826,423.02,853,765,0
928835,456.92,853,768,0
928845,497.31,853,766,0
928855,541.19,853,768,0
928865,585.23,853,766,0
928875,627.21,853,768,0
928885,664.94,853,766,0
928896,696.46,853,769,0
928905,720.84,853,766,0
928915,737.99,853,768,0
928925,749.99,853,766,0
928935,758.39,853,769,0
928945,764.28,853,766,0
928955,768.39,853,768,0
928965,771.27,853,766,0
928975,773.29,853,769,0
928985,772.35,853,766,0
928995,767.27,853,768,0
929005,756.56,853,766,0
929015,739.64,853,768,0
929025,715.79,853,766,0
929035,684.95,853,768,0
929045,646.74,853,766,0
929055,603.96,853,769,0
929065,558.29,853,766,0
929075,512.51,853,768,0
929085,467.87,853,766,0
929095,426.47,853,768,0
929105,389.30,853,765,0
929115,358.05,853,768,0
929125,333.05,853,766,0
929135,315.16,853,768,0
929145,303.72,853,765,0
929155,298.83,853,768,0
929165,299.31,853,766,0
929175,304.70,853,768,0
929185,313.45,853,765,0
929196,324.89,853,768,0
929206,337.26,853,765,0
929216,349.96,853,769,0
929226,361.71,853,765,0
929236,372.17,853,769,0
929246,380.35,853,765,0
929256,386.41,853,769,0
929266,389.89,853,765,0
929276,391.29,853,769,0
929286,390.52,853,765,0
929296,388.35,853,769,0
929306,384.77,853,765,0
929316,380.56,853,769,0
929326,375.67,853,765,0
929336,370.80,853,768,0
929346,365.89,853,765,0
929356,361.47,853,769,0
929367,357.30,853,764,0
929377,353.87,853,769,0
929387,350.99,853,764,0
929397,349.02,853,772,0
929408,347.69,853,762,0
929417,347.27,853,769,0
929427,347.44,853,765,0
929437,348.38,853,772,0
929447,349.77,853,763,0
929457,351.64,853,769,0
929467,353.63,853,765,0
929477,355.80,853,772,0
929487,357.83,853,763,0
929497,359.77,853,769,0
929507,361.25,853,765,0
929517,362.46,853,772,0
929527,363.18,853,763,0
929537,363.77,853,769,0
929547,364.31,853,765,0
929557,365.59,853,772,0
929567,368.41,853,763,0
929577,374.20,853,775,0
929587,383.91,853,765,0
929597,399.24,853,771,0
929607,421.24,853,764,0
929617,450.91,853,775,0
929636,487.79,813,768,0
929639,529.34,813,775,0
929648,572.40,813,754,0
929658,614.58,813,775,0
929668,653.40,813,759,0
929678,686.97,813,777,0
929688,713.68,813,754,0
929698,733.02,813,775,0
929708,746.51,813,758,0
929718,755.96,813,778,0
929728,762.57,813,754,0
929738,767.20,813,776,0
929748,770.44,813,752,0
929758,772.71,813,777,0
929768,774.30,813,754,0
929778,775.41,813,778,0
929788,775.24,813,753,0
929798,771.57,813,777,0
929808,762.18,813,753,0
929818,745.54,813,775,0
929828,720.61,813,752,0
929838,687.30,813,777,0
929848,645.55,813,753,0
929858,596.74,813,775,0
929868,544.11,813,752,0
929879,490.97,813,774,0
929889,440.32,813,751,0
929899,394.50,813,772,0
929909,355.09,813,753,0
929920,323.31,813,772,0
929929,299.86,813,753,0
929939,284.64,813,773,0
929949,277.34,813,752,0
929959,276.81,813,772,0
929969,281.96,813,753,0
929979,291.19,813,773,0
929989,303.30,813,752,0
929999,316.67,813,772,0
930009,330.27,813,751,0
930019,342.83,813,773,0
930029,353.72,813,752,0
930039,362.29,813,772,0
930049,368.55,813,752,0
930059,372.20,813,774,0
930069,373.72,813,752,0
930079,373.08,813,772,0
930089,370.91,813,754,0
930099,367.51,813,773,0
930109,363.46,813,752,0
930119,358.82,813,773,0
930129,354.12,813,754,0
930139,349.37,813,774,0
930149,345.10,813,752,0
930159,341.17,813,773,0
930169,337.95,813,754,0
930179,335.31,813,773,0
930189,333.50,813,752,0
930199,332.28,813,772,0
930209,331.90,813,754,0
930220,331.93,813,772,0
930230,332.68,813,756,0
930240,333.67,813,770,0
930250,335.31,813,760,0
930260,337.06,813,769,0
930270,339.32,813,756,0
930280,341.45,813,770,0
930290,343.89,813,760,0
930300,345.98,813,769,0
930310,348.13,813,755,0
930320,349.63,813,770,0
930330,350.99,813,759,0
930340,351.46,813,769,0
930350,351.67,813,756,0
930360,351.21,813,773,0
930370,350.93,813,759,0
930380,350.78,813,769,0
930391,352.30,813,761,0
930401,356.20,813,770,0
930411,364.62,813,763,0
930421,378.45,813,769,0
930432,399.62,813,764,0
930441,428.10,813,770,0
930460,464.76,824,769,0
930463,507.09,824,766,0
930472,552.06,824,767,0
930482,596.40,824,769,0
930492,637.94,824,765,0
930502,674.13,824,768,0
930512,704.00,824,767,0
930522,726.20,824,769,0
930532,741.78,824,765,0
930542,752.69,824,768,0
930552,760.33,824,766,0
930562,765.67,824,769,0
930572,769.41,824,765,0
930582,772.03,824,769,0
930592,772.19,824,767,0
930603,767.72,824,768,0
930612,757.95,824,764,0
930622,741.38,824,768,0
930632,717.65,824,766,0
930642,686.00,824,767,0
930652,646.96,824,764,0
930662,601.88,824,768,0
930672,553.92,824,766,0
930682,504.23,824,767,0
930692,455.77,824,764,0
930702,409.56,824,768,0
930712,367.82,824,765,0
930722,330.93,824,767,0
930732,300.61,824,764,0
930742,276.81,824,768,0
930752,260.54,824,765,0
930762,250.78,824,767,0
930772,247.84,824,767,0
930782,250.16,824,768,0
930792,257.36,824,765,0
930802,267.66,824,768,0
930812,280.54,824,767,0
930822,294.00,824,768,0
930832,307.72,824,765,0
930842,320.06,824,767,0
930852,331.14,824,767,0
930862,339.80,824,768,0
930872,346.46,824,765,0
930882,350.35,824,767,0
930892,352.39,824,767,0
930903,352.10,824,767,0
930913,350.53,824,768,0
930923,347.37,824,766,0
930933,343.62,824,768,0
930944,338.97,824,766,0
930953,334.44,824,767,0
930963,329.59,824,766,0
930973,325.34,824,768,0
930983,321.17,824,766,0
930993,317.82,824,767,0
931003,314.74,824,766,0
931013,312.64,824,768,0
931023,310.90,824,766,0
931033,310.07,824,767,0
931043,309.49,824,766,0
931053,309.77,824,768,0
931063,310.27,824,766,0
931073,311.52,824,768,0
931083,312.78,824,766,0
931093,314.69,824,769,0
931103,316.54,824,766,0
931113,318.91,824,768,0
931123,321.08,824,766,0
931133,323.62,824,768,0
931143,325.97,824,766,0
931153,328.63,824,768,0
931163,330.80,824,766,0
931173,333.22,824,768,0
931183,335.17,824,766,0
931193,337.22,824,768,0
931203,338.74,824,766,0
931213,340.32,824,768,0
931223,341.34,824,766,0
931233,342.52,824,768,0
931244,343.09,824,766,0
931254,343.67,824,768,0
931264,343.68,824,765,0
931274,343.65,824,768,0
931284,343.20,824,765,0
931294,343.09,824,769,0
931304,343.15,824,766,0
931314,344.82,824,768,0
931324,348.65,824,765,0
931334,356.34,824,769,0
931353,368.88,893,768,0
931356,388.50,893,774,0
931365,415.48,893,765,0
931375,450.26,893,769,0
931385,491.71,893,765,0
931395,536.63,893,769,0
931405,581.91,893,765,0
931415,625.18,893,769,0
931425,663.44,893,765,0
931435,695.45,893,769,0
931445,720.22,893,765,0
931456,737.55,893,769,0
931465,749.69,893,765,0
931475,758.18,893,769,0
931485,764.13,893,765,0
931495,768.29,893,769,0
931505,771.20,893,765,0
931515,772.77,893,769,0
931525,771.12,893,765,0
931535,765.13,893,769,0
931545,753.78,893,765,0
931555,736.44,893,769,0
931565,712.40,893,765,0
931575,681.51,893,769,0
931585,644.24,893,765,0
931595,603.03,893,769,0
931605,559.39,893,765,0
931615,515.26,893,769,0
931625,471.98,893,764,0
931635,431.40,893,769,0
931645,394.47,893,764,0
931655,362.35,893,769,0
931665,335.59,893,765,0
931675,314.93,893,768,0
931685,300.16,893,764,0
931695,291.37,893,769,0
931705,287.83,893,764,0
931715,289.13,893,769,0
931725,294.06,893,765,0
931735,301.97,893,769,0
931745,311.66,893,765,0
931756,322.39,893,769,0
931766,333.08,893,763,0
931776,343.12,893,775,0
931786,351.79,893,757,0
931796,358.84,893,778,0
931806,363.86,893,763,0
931816,366.94,893,774,0
931826,368.07,893,757,0
931836,367.58,893,778,0
931846,365.65,893,764,0
931856,362.80,893,774,0
931866,359.30,893,758,0
931876,355.52,893,778,0
931886,351.64,893,764,0
931896,348.02,893,774,0
931906,344.71,893,758,0
931916,341.93,893,778,0
931927,339.55,893,753,0
931937,337.67,893,775,0
931947,336.31,893,752,0
931957,335.36,893,774,0
931968,334.74,893,751,0
931977,334.47,893,776,0
931987,334.46,893,751,0
931997,334.67,893,774,0
932007,335.07,893,751,0
932017,335.52,893,775,0
932027,336.13,893,752,0
932037,336.78,893,774,0
932047,337.49,893,751,0
932057,338.20,893,776,0
932067,338.95,893,752,0
932077,339.61,893,774,0
932087,340.20,893,751,0
932097,340.61,893,776,0
932107,340.86,893,752,0
932117,340.90,893,774,0
932127,340.97,893,751,0
932137,341.41,893,772,0
932147,343.00,893,752,0
932157,346.69,893,774,0
932167,353.77,893,752,0
932177,365.45,893,773,0
932187,382.72,893,753,0
932197,406.37,893,774,0
932216,436.60,863,773,0
932219,472.85,863,770,0
932228,513.61,863,752,0
932238,556.37,863,773,0
932248,598.39,863,754,0
932258,637.53,863,771,0
932268,671.70,863,752,0
932278,698.62,863,772,0
932288,716.73,863,754,0
932298,725.04,863,771,0
932308,723.87,863,756,0
932318,713.88,863,772,0
932328,695.62,863,753,0
932338,669.50,863,771,0
932348,637.38,863,756,0
932358,600.75,863,772,0
932368,561.66,863,753,0
932378,521.39,863,771,0
932388,481.71,863,755,0
932398,443.91,863,772,0
932408,409.61,863,753,0
932418,379.43,863,771,0
932428,354.36,863,755,0
932439,334.49,863,770,0
932449,320.50,863,759,0
932459,311.78,863,769,0
932469,308.42,863,761,0
932480,309.36,863,769,0
932489,314.31,863,759,0
932499,321.89,863,769,0
932509,331.69,863,761,0
932519,342.20,863,770,0
932529,353.15,863,758,0
932539,363.09,863,769,0
932549,372.07,863,761,0
932559,378.99,863,770,0
932569,384.22,863,758,0
932579,386.98,863,770,0
932589,387.93,863,761,0
932599,386.58,863,770,0
932609,383.92,863,758,0
932619,379.70,863,769,0
932629,374.91,863,761,0
932639,369.19,863,770,0
932649,363.61,863,762,0
932659,357.85,863,769,0
932669,352.88,863,760,0
932679,348.16,863,770,0
932689,344.47,863,762,0
932699,341.24,863,769,0
932709,339.11,863,760,0
932719,337.49,863,770,0
932729,336.92,863,761,0
932739,336.64,863,769,0
932749,337.22,863,760,0
932759,337.88,863,769,0
932769,339.25,863,762,0
932780,340.54,863,769,0
932790,342.35,863,763,0
932800,343.92,863,769,0
932810,345.83,863,765,0
932820,347.38,863,768,0
932830,349.15,863,763,0
932840,350.35,863,768,0
932850,351.70,863,765,0
932860,352.35,863,768,0
932870,353.02,863,763,0
932880,353.01,863,769,0
932890,353.01,863,764,0
932900,352.36,863,768,0
932910,351.87,863,762,0
932920,350.84,863,769,0
932930,350.16,863,764,0
932940,349.12,863,768,0
932951,348.53,863,766,0
932961,347.77,863,768,0
932971,347.58,863,767,0
932981,347.24,863,767,0
932992,347.51,863,768,0
933001,347.61,863,767,0
933011,348.33,863,767,0
933021,348.92,863,767,0
933031,349.97,863,768,0
933041,350.75,863,767,0
933051,351.94,863,767,0
933061,352.69,863,767,0
933071,353.68,863,768,0
933081,354.16,863,768,0
933091,354.93,863,767,0
933101,355.72,863,767,0
933111,357.95,863,768,0
933121,361.86,863,768,0
933131,369.58,863,767,0
933150,381.92,934,767,0
933153,401.83,934,768,0
933163,429.57,934,766,0
933172,466.00,934,769,0
933182,508.04,934,766,0
933192,553.03,934,768,0
933202,597.81,934,766,0
933212,640.16,934,769,0
933222,676.80,934,766,0
933232,706.47,934,768,0
933242,727.93,934,766,0
933252,742.95,934,769,0
933262,753.47,934,766,0
933272,760.83,934,769,0
933282,765.98,934,766,0
933292,769.59,934,769,0
933302,772.11,934,767,0
933312,773.88,934,768,0
933322,775.11,934,766,0
933332,775.98,934,769,0
933342,776.59,934,766,0
933352,777.01,934,768,0
933362,777.31,934,766,0
933372,777.51,934,768,0
933382,775.35,934,767,0
933392,768.30,934,768,0
933402,754.24,934,766,0
933412,732.44,934,768,0
933422,702.56,934,766,0
933432,665.19,934,768,0
933442,620.74,934,766,0
933452,572.90,934,768,0
933463,525.19,934,766,0
933473,481.33,934,768,0
933483,443.13,934,765,0
933493,412.24,934,769,0
933504,388.89,934,765,0
933513,373.54,934,769,0
933523,365.02,934,765,0
933533,362.87,934,769,0
933543,365.40,934,765,0
933553,371.62,934,769,0
933563,379.83,934,765,0
933573,389.10,934,769,0
933583,398.07,934,765,0
933593,406.41,934,769,0
933603,413.01,934,766,0
933613,417.94,934,769,0
933623,420.66,934,765,0
933633,421.62,934,768,0
933643,420.57,934,766,0
933653,418.17,934,768,0
933663,414.26,934,765,0
933673,409.60,934,769,0
933683,404.11,934,765,0
933693,398.50,934,769,0
933703,392.61,934,765,0
933713,387.07,934,769,0
933723,381.69,934,765,0
933733,377.07,934,769,0
933743,372.93,934,765,0
933753,369.74,934,769,0
933763,367.12,934,765,0
933773,365.50,934,769,0
933783,364.45,934,766,0
933793,364.27,934,769,0
933804,364.49,934,765,0
933814,365.37,934,769,0
933824,366.42,934,765,0
933834,367.75,934,770,0
933844,368.90,934,764,0
933854,370.00,934,769,0
933864,370.60,934,765,0
933874,371.02,934,770,0
933884,371.27,934,765,0
933894,372.18,934,769,0
933904,374.52,934,765,0
933914,379.94,934,769,0
933924,389.94,934,765,0
933934,406.29,934,769,0
933944,430.29,934,765,0
933954,463.16,934,770,0
933964,502.80,934,765,0
933984,546.10,834,764,0
933987,590.04,834,754,0
933996,631.99,834,772,0
934006,669.62,834,752,0
934017,700.89,834,772,0
934027,724.02,834,754,0
934037,740.22,834,771,0
934047,751.55,834,756,0
934057,759.49,834,770,0
934067,765.08,834,754,0
934077,769.00,834,771,0
934087,771.74,834,756,0
934097,773.66,834,770,0
934107,775.01,834,754,0
934117,775.95,834,771,0
934127,776.61,834,756,0
934137,777.02,834,770,0
934147,777.32,834,754,0
934157,773.75,834,771,0
934167,763.63,834,755,0
934177,744.79,834,770,0
934188,716.44,834,759,0
934198,678.12,834,771,0
934208,630.56,834,760,0
934218,574.38,834,770,0
934228,515.03,834,762,0
934238,456.52,834,769,0
934248,402.92,834,760,0
934258,356.36,834,770,0
934268,319.10,834,761,0
934278,291.30,834,769,0
934288,273.59,834,760,0
934298,264.71,834,770,0
934308,264.24,834,762,0
934318,270.04,834,770,0
934328,280.96,834,760,0
934338,294.64,834,770,0
934348,310.09,834,762,0
934359,325.19,834,769,0
934369,339.28,834,763,0
934379,350.68,834,769,0
934389,359.56,834,765,0
934400,365.05,834,769,0
934409,367.82,834,763,0
934419,367.45,834,769,0
934429,365.04,834,765,0
934439,360.53,834,769,0
934449,355.18,834,763,0
934459,348.87,834,769,0
934469,342.82,834,764,0
934479,336.71,834,769,0
934489,331.57,834,763,0
934499,326.94,834,769,0
934509,323.66,834,764,0
934519,321.06,834,769,0
934529,319.80,834,763,0
934539,319.13,834,769,0
934549,319.73,834,764,0
934559,320.80,834,769,0
934569,322.96,834,766,0
934579,325.33,834,769,0
934589,328.49,834,764,0
934599,331.56,834,769,0
934609,335.07,834,766,0
934619,338.10,834,769,0
934629,341.15,834,764,0
934639,343.29,834,769,0
934649,345.13,834,766,0
934659,345.82,834,769,0
934669,346.13,834,764,0
934679,345.41,834,769,0
934689,344.81,834,765,0
934700,344.40,834,768,0
934710,346.16,834,767,0
934720,350.96,834,768,0
934730,361.38,834,768,0
934740,378.54,834,767,0
934750,404.44,834,767,0
934760,439.28,834,768,0
934779,481.84,795,767,0
934782,528.17,795,766,0
934791,575.52,795,769,0
934801,620.49,795,767,0
934811,660.80,795,768,0
934821,694.20,795,766,0
934831,719.39,795,769,0
934841,737.01,795,767,0
934851,749.35,795,768,0
934861,757.95,795,767,0
934871,763.96,795,769,0
934881,768.17,795,767,0
934891,771.16,795,768,0
934901,773.26,795,767,0
934912,774.77,795,769,0
934921,775.82,795,767,0
934931,775.70,795,769,0
934941,771.04,795,767,0
934951,759.88,795,768,0
934961,740.55,795,767,0
934971,712.31,795,768,0
934981,674.29,795,766,0
934991,626.89,795,768,0
935001,571.34,795,767,0
935011,512.22,795,768,0
935021,452.33,795,766,0
935031,395.10,795,768,0
935041,342.48,795,766,0
935051,297.21,795,768,0
935061,260.08,795,766,0
935071,232.32,795,768,0
935081,213.63,795,766,0
935091,204.18,795,768,0
935101,202.54,795,766,0
935111,208.21,795,768,0
935121,219.07,795,766,0
935131,234.05,795,769,0
935141,250.92,795,766,0
935151,268.82,795,768,0
935161,285.97,795,766,0
935171,301.88,795,768,0
935181,315.12,795,767,0
935191,325.80,795,768,0
935201,333.27,795,767,0
935212,338.16,795,769,0
935222,340.08,795,766,0
935232,339.97,795,769,0
935242,337.80,795,766,0
935252,334.51,795,769,0
935262,330.16,795,766,0
935272,325.61,795,769,0
935282,320.76,795,766,0
935292,316.37,795,769,0
935302,312.23,795,766,0
935312,308.91,795,768,0
935322,306.06,795,766,0
935332,304.07,795,769,0
935342,302.51,795,766,0
935352,301.80,795,769,0
935362,301.52,795,766,0
935372,302.05,795,769,0
935383,302.93,795,765,0
935393,304.58,795,769,0
935403,306.59,795,765,0
935413,309.29,795,769,0
935424,312.29,795,765,0
935433,315.80,795,769,0
935443,319.29,795,765,0
935453,322.93,795,769,0
935463,326.34,795,765,0
935473,329.58,795,769,0
935483,332.28,795,765,0
935493,334.47,795,769,0
935503,335.78,795,765,0
935513,336.49,795,768,0
935523,336.43,795,765,0
935533,335.96,795,769,0
935543,335.50,795,765,0
935553,336.08,795,768,0
935563,338.71,795,765,0
935573,345.36,795,769,0
935583,357.63,795,765,0
935593,377.59,795,772,0
935612,406.04,833,768,0
935615,444.56,833,772,0
935624,489.43,833,761,0
935634,537.43,833,772,0
935644,585.30,833,764,0
935654,630.30,833,773,0
935664,669.72,833,759,0
935674,701.99,833,772,0
935684,724.79,833,764,0
935694,740.76,833,772,0
935704,751.93,833,761,0
935714,759.79,833,772,0
935724,765.30,833,764,0
935734,769.15,833,772,0
935744,771.85,833,762,0
935754,773.74,833,773,0
935764,775.06,833,758,0
935774,775.98,833,772,0
935784,773.46,833,762,0
935794,765.18,833,772,0
935804,749.27,833,758,0
935814,724.89,833,772,0
935824,691.24,833,762,0
935834,648.14,833,772,0
935844,595.72,833,759,0
935854,538.08,833,772,0
935864,478.40,833,762,0
935874,419.82,833,771,0
935884,364.67,833,760,0
935895,315.27,833,772,0
935905,273.36,833,754,0
935915,240.17,833,773,0
935925,215.99,833,753,0
935936,200.99,833,773,0
935945,194.74,833,755,0
935955,196.19,833,772,0
935965,204.23,833,752,0
935975,217.10,833,771,0
935985,233.36,833,758,0
935995,251.34,833,772,0
936005,269.71,833,751,0
936015,287.11,833,772,0
936025,302.72,833,758,0
936035,315.66,833,772,0
936045,325.83,833,752,0
936055,332.91,833,772,0
936065,337.22,833,758,0
936075,338.91,833,772,0
936085,338.60,833,755,0
936095,336.53,833,773,0
936105,333.37,833,753,0
936115,329.45,833,772,0
936125,325.33,833,751,0
936135,321.07,833,772,0
936145,317.24,833,752,0
936155,313.82,833,773,0
936165,311.18,833,755,0
936175,309.15,833,775,0
936185,307.86,833,755,0
936195,307.22,833,772,0
936205,307.37,833,751,0
936215,307.99,833,773,0
936225,309.19,833,754,0
936236,310.68,833,772,0
936246,312.57,833,755,0
936256,314.59,833,772,0
936266,316.94,833,759,0
936276,319.31,833,770,0
936286,321.92,833,755,0
936296,324.43,833,771,0
936306,327.22,833,759,0
936316,329.85,833,770,0
936326,332.68,833,755,0
936336,335.18,833,770,0
936346,337.70,833,759,0
936356,339.67,833,769,0
936366,341.48,833,754,0
936376,342.58,833,770,0
936386,343.52,833,758,0
936396,344.05,833,770,0
936407,345.24,833,760,0
936417,347.65,833,769,0
936427,353.37,833,762,0
936437,363.59,833,769,0
936457,380.77,844,768,0
936460,406.77,844,767,0
936469,442.79,844,767,0
936479,485.76,844,767,0
936489,532.59,844,768,0
936499,579.98,844,768,0
936509,625.42,844,767,0
936519,665.92,844,767,0
936529,698.82,844,768,0
936539,722.57,844,768,0
936549,739.20,844,767,0
936559,750.84,844,767,0
936569,758.99,844,768,0
936579,764.69,844,768,0
936589,768.68,844,767,0
936599,771.48,844,767,0
936609,773.44,844,768,0
936620,774.80,844,767,0
936630,775.76,844,769,0
936640,776.43,844,766,0
936650,776.90,844,768,0
936660,773.46,844,766,0
936670,763.98,844,768,0
936680,746.03,844,767,0
936690,718.59,844,767,0
936700,680.83,844,766,0
936710,633.44,844,768,0
936720,576.61,844,766,0
936730,515.44,844,768,0
936740,453.21,844,766,0
936750,394.26,844,768,0
936760,340.95,844,766,0
936770,296.10,844,768,0
936780,260.28,844,766,0
936791,234.95,844,768,0
936801,219.54,844,766,0
936811,213.85,844,768,0
936821,216.21,844,766,0
936832,225.57,844,768,0
936841,239.59,844,766,0
936851,256.90,844,769,0
936861,275.31,844,765,0
936871,293.73,844,768,0
936881,310.49,844,766,0
936891,325.13,844,768,0
936901,336.70,844,766,0
936911,345.49,844,769,0
936921,351.13,844,766,0
936931,354.22,844,768,0
936941,354.80,844,765,0
936951,353.79,844,768,0
936961,351.19,844,766,0
936971,348.01,844,768,0
936981,344.19,844,765,0
936991,340.49,844,768,0
937001,336.79,844,765,0
937011,333.68,844,768,0
937021,330.86,844,766,0
937031,328.89,844,768,0
937041,327.38,844,765,0
937051,326.71,844,768,0
937061,326.41,844,766,0
937071,326.80,844,769,0
937081,327.42,844,765,0
937091,328.62,844,768,0
937101,329.89,844,766,0
937111,331.51,844,768,0
937121,333.07,844,765,0
937132,334.98,844,770,0
937142,336.87,844,765,0
937152,339.10,844,769,0
937162,341.34,844,765,0
937172,343.81,844,774,0
937182,346.18,844,765,0
937192,348.74,844,769,0
937202,351.05,844,765,0
937212,353.26,844,772,0
937222,355.03,844,765,0
937232,356.52,844,769,0
937242,357.52,844,765,0
937252,358.14,844,772,0
937262,358.14,844,765,0
937272,357.97,844,769,0
937282,357.76,844,765,0
937292,358.43,844,770,0
937303,360.92,844,763,0
937313,367.03,844,772,0
937332,378.55,876,772,0
937335,398.18,876,771,0
937345,427.19,876,754,0
937355,465.40,876,772,0
937365,509.30,876,756,0
937375,555.88,876,771,0
937385,602.16,876,759,0
937395,645.40,876,772,0
937405,682.35,876,755,0
937415,711.04,876,771,0
937425,731.13,876,759,0
937435,745.19,876,772,0
937445,755.03,876,754,0
937455,761.92,876,776,0
937465,766.75,876,757,0
937475,770.12,876,772,0
937485,772.49,876,755,0
937495,774.14,876,771,0
937505,775.34,876,758,0
937516,776.18,876,770,0
937526,776.77,876,761,0
937536,777.18,876,770,0
937546,777.47,876,762,0
937556,776.51,876,770,0
937566,770.92,876,761,0
937576,757.27,876,773,0
937586,733.96,876,761,0
937596,699.82,876,769,0
937606,655.47,876,760,0
937616,601.24,876,770,0
937626,539.76,876,761,0
937636,475.76,876,769,0
937646,414.76,876,760,0
937656,359.93,876,769,0
937666,314.52,876,761,0
937676,279.14,876,769,0
937687,255.01,876,761,0
937697,241.25,876,769,0
937707,237.53,876,763,0
937717,241.70,876,768,0
937728,252.63,876,765,0
937737,267.62,876,769,0
937747,285.39,876,763,0
937757,303.57,876,769,0
937767,321.44,876,765,0
937777,337.12,876,769,0
937787,350.50,876,763,0
937797,360.47,876,768,0
937807,367.70,876,765,0
937817,371.60,876,769,0
937827,373.18,876,763,0
937837,372.10,876,769,0
937847,369.58,876,764,0
937857,365.42,876,769,0
937867,360.80,876,763,0
937877,355.37,876,768,0
937887,350.25,876,765,0
937897,344.99,876,768,0
937907,340.58,876,763,0
937917,336.42,876,769,0
937927,333.34,876,764,0
937937,330.66,876,768,0
937947,329.09,876,763,0
937957,327.82,876,769,0
937967,327.53,876,764,0
937977,327.37,876,768,0
937987,327.95,876,763,0
937997,328.48,876,768,0
938007,329.53,876,765,0
938017,330.40,876,768,0
938028,331.78,876,766,0
938038,332.92,876,767,0
938048,334.53,876,767,0
938058,336.00,876,766,0
938068,337.97,876,768,0
938078,339.78,876,767,0
938088,342.03,876,767,0
938098,343.99,876,767,0
938108,346.22,876,767,0
938118,347.96,876,767,0
938128,349.73,876,767,0
938138,350.79,876,766,0
938148,351.67,876,767,0
938158,351.68,876,767,0
938168,351.65,876,767,0
938178,351.33,876,766,0
938188,352.17,876,768,0
938199,354.73,876,765,0
938209,361.33,876,768,0
938219,373.40,876,766,0
938238,393.60,906,765,0
938242,423.76,906,765,0
938251,463.17,906,769,0
938261,507.99,906,765,0
938271,555.44,906,769,0
938281,602.24,906,765,0
938291,645.79,906,769,0
938301,683.18,906,765,0
938311,711.63,906,769,0
938321,731.54,906,765,0
938331,745.48,906,769,0
938341,755.23,906,765,0
938351,762.06,906,769,0
938361,766.85,906,765,0
938371,770.19,906,769,0
938381,772.53,906,765,0
938391,774.17,906,769,0
938401,775.32,906,765,0
938412,776.13,906,769,0
938422,776.69,906,764,0
938432,777.08,906,773,0
938442,773.80,906,760,0
938452,763.83,906,773,0
938462,745.32,906,764,0
938472,716.94,906,772,0
938482,678.00,906,759,0
938492,628.76,906,773,0
938502,570.12,906,764,0
938512,506.87,906,772,0
938522,443.52,906,758,0
938532,383.79,906,772,0
938542,330.80,906,764,0
938552,286.97,906,773,0
938562,253.55,906,760,0
938572,230.97,906,772,0
938583,218.98,906,758,0
938593,216.76,906,773,0
938603,222.74,906,755,0
938613,235.16,906,774,0
938624,252.09,906,749,0
938633,271.56,906,773,0
938643,291.71,906,751,0
938653,310.95,906,772,0
938663,328.19,906,750,0
938673,342.62,906,773,0
938683,353.71,906,751,0
938693,361.25,906,776,0
938703,365.50,906,751,0
938713,366.90,906,772,0
938723,365.90,906,750,0
938733,362.93,906,773,0
938743,358.62,906,751,0
938753,353.55,906,772,0
938763,348.28,906,751,0
938773,343.06,906,773,0
938783,338.20,906,754,0
938793,333.85,906,772,0
938803,330.30,906,756,0
938813,327.55,906,773,0
938823,325.71,906,754,0
938833,324.60,906,772,0
938843,324.29,906,755,0
938853,324.59,906,773,0
938863,325.66,906,751,0
938873,327.13,906,772,0
938883,329.06,906,756,0
938893,331.27,906,773,0
938903,333.85,906,751,0
938913,336.55,906,773,0
938924,339.43,906,752,0
938934,342.09,906,773,0
938944,344.80,906,755,0
938954,347.13,906,772,0
938964,349.28,906,758,0
938974,350.91,906,772,0
938984,352.22,906,755,0
938994,352.80,906,771,0
939004,353.03,906,757,0
939014,352.55,906,771,0
939024,351.83,906,753,0
939034,350.77,906,772,0
939044,350.41,906,757,0
939054,351.48,906,771,0
939064,355.93,906,753,0
939074,365.12,906,771,0
939084,381.45,906,757,0
939104,406.26,866,758,0
939107,441.71,866,766,0
939116,484.31,866,769,0
939126,530.93,866,764,0
939137,578.35,866,768,0
939147,623.85,866,765,0
939157,664.44,866,768,0
939167,698.03,866,767,0
939177,722.02,866,766,0
939187,738.82,866,765,0
939197,750.57,866,768,0
939207,758.80,866,767,0
939217,764.56,866,766,0
939227,768.59,866,765,0
939237,771.41,866,768,0
939247,773.39,866,767,0
939257,774.77,866,767,0
939267,775.74,866,765,0
939277,774.36,866,768,0
939287,768.08,866,766,0
939297,754.30,866,767,0
939308,731.88,866,768,0
939318,699.60,866,766,0
939328,657.55,866,768,0
939338,605.70,866,765,0
939348,547.16,866,768,0
939358,485.48,866,766,0
939368,425.00,866,767,0
939378,368.17,866,765,0
939388,318.19,866,768,0
939398,276.22,866,766,0
939408,244.14,866,768,0
939418,221.81,866,765,0
939428,209.70,866,768,0
939438,206.40,866,766,0
939448,211.42,866,768,0
939458,222.65,866,766,0
939468,239.04,866,768,0
939479,258.06,866,766,0
939489,278.57,866,768,0
939499,298.33,866,765,0
939509,316.74,866,768,0
939520,332.21,866,765,0
939529,344.66,866,768,0
939539,353.29,866,765,0
939549,358.73,866,768,0
939559,360.74,866,765,0
939569,360.35,866,768,0
939579,357.54,866,765,0
939589,353.48,866,768,0
939599,348.28,866,765,0
939609,342.92,866,768,0
939619,337.33,866,765,0
939629,332.39,866,768,0
939639,327.86,866,765,0
939649,324.47,866,768,0
939659,321.84,866,765,0
939669,320.48,866,768,0
939679,319.91,866,765,0
939689,320.58,866,768,0
939699,321.95,866,766,0
939709,324.36,866,768,0
939719,327.30,866,765,0
939729,331.02,866,768,0
939739,334.83,866,766,0
939749,339.00,866,768,0
939759,342.85,866,765,0
939769,346.67,866,768,0
939779,349.77,866,766,0
939789,352.41,866,768,0
939799,354.04,866,766,0
939809,355.19,866,768,0
939820,355.56,866,765,0
939830,356.21,866,769,0
939840,357.73,866,765,0
939850,362.10,866,768,0
939860,370.77,866,764,0
939870,385.75,866,769,0
939880,408.63,866,765,0
939890,441.14,866,769,0
939910,481.51,805,768,0
939913,526.49,805,773,0
939922,572.75,805,754,0
939932,617.49,805,773,0
939942,658.14,805,753,0
939952,692.34,805,773,0
939962,718.04,805,755,0
939972,736.03,805,774,0
939982,748.62,805,753,0
939992,757.43,805,773,0
940002,763.60,805,755,0
940012,767.92,805,773,0
940022,770.95,805,753,0
940033,773.06,805,772,0
940043,774.54,805,752,0
940053,775.58,805,772,0
940063,776.31,805,754,0
940073,774.37,805,771,0
940083,767.15,805,752,0
940093,752.06,805,772,0
940103,727.48,805,754,0
940113,692.41,805,771,0
940123,647.16,805,754,0
940133,591.91,805,772,0
940143,530.14,805,753,0
940153,465.64,805,771,0
940163,402.96,805,751,0
940173,345.29,805,772,0
940183,295.66,805,752,0
940193,255.26,805,771,0
940204,225.65,805,756,0
940214,206.81,805,770,0
940224,198.81,805,760,0
940234,200.07,805,769,0
940244,209.61,805,761,0
940254,224.94,805,770,0
940264,244.63,805,759,0
940274,266.21,805,769,0
940284,288.39,805,761,0
940294,309.14,805,770,0
940304,327.70,805,759,0
940314,342.71,805,769,0
940324,354.45,805,761,0
940334,362.24,805,770,0
940344,366.84,805,759,0
940354,368.05,805,769,0
940364,366.96,805,761,0
940375,363.72,805,769,0
940385,359.47,805,762,0
940395,354.10,805,768,0
940405,348.76,805,763,0
940416,343.17,805,769,0
940425,338.32,805,761,0
940435,333.72,805,769,0
940445,330.16,805,763,0
940455,327.03,805,769,0
940465,325.09,805,762,0
940475,323.65,805,769,0
940485,323.46,805,763,0
940495,323.79,805,769,0
940505,325.22,805,762,0
940515,326.96,805,769,0
940525,329.67,805,763,0
940535,332.60,805,769,0
940545,336.32,805,761,0
940555,339.95,805,769,0
940565,343.99,805,763,0
940575,347.64,805,768,0
940585,351.43,805,764,0
940595,354.43,805,769,0
940605,357.09,805,763,0
940615,358.56,805,769,0
940625,359.46,805,764,0
940635,359.11,805,769,0
940645,358.43,805,763,0
940655,357.23,805,769,0
940665,357.29,805,764,0
940675,359.18,805,770,0
940685,365.38,805,762,0
940695,377.35,805,769,0
940705,397.90,805,764,0
940716,427.93,805,769,0
940735,467.21,826,768,0
940738,511.72,826,766,0
940747,558.82,826,768,0
940758,605.11,826,767,0
940767,647.98,826,768,0
940777,684.37,826,767,0
940787,712.46,826,768,0
940797,732.12,826,766,0
940807,745.89,826,768,0
940817,755.52,826,766,0
940827,762.26,826,769,0
940837,766.98,826,766,0
940847,770.29,826,768,0
940857,772.60,826,767,0
940867,774.22,826,768,0
940877,775.36,826,766,0
940887,776.15,826,767,0
940897,776.70,826,766,0
940907,777.09,826,768,0
940917,775.39,826,766,0
940928,768.25,826,768,0
940937,753.00,826,766,0
940947,728.14,826,768,0
940957,692.49,826,766,0
940967,646.35,826,768,0
940977,590.32,826,766,0
940987,527.70,826,767,0
940997,463.03,826,766,0
941007,401.01,826,767,0
941017,344.65,826,766,0
941027,297.22,826,768,0
941037,259.61,826,766,0
941047,232.99,826,768,0
941057,216.53,826,766,0
941067,210.25,826,768,0
941077,212.27,826,766,0
941087,221.66,826,768,0
941097,235.95,826,766,0
941107,253.88,826,768,0
941117,272.99,826,766,0
941127,292.58,826,768,0
941137,310.62,826,766,0
941147,326.76,826,768,0
941157,339.65,826,766,0
941167,349.52,826,768,0
941177,355.84,826,766,0
941187,359.40,826,768,0
941197,359.88,826,766,0
941207,358.42,826,768,0
941217,354.95,826,766,0
941228,350.64,826,768,0
941238,345.43,826,766,0
941248,340.33,826,768,0
941258,335.09,826,765,0
941268,330.56,826,768,0
941278,326.41,826,765,0
941288,323.24,826,768,0
941298,320.56,826,765,0
941308,318.85,826,768,0
941318,317.56,826,766,0
941328,317.18,826,768,0
941338,317.21,826,765,0
941348,318.05,826,769,0
941358,319.15,826,765,0
941368,320.99,826,768,0
941378,323.09,826,765,0
941388,325.85,826,769,0
941399,328.72,826,765,0
941409,331.98,826,768,0
941419,335.11,826,764,0
941429,338.25,826,769,0
941440,340.88,826,764,0
941449,343.10,826,768,0
941459,344.40,826,765,0
941469,345.05,826,769,0
941479,344.82,826,765,0
941489,344.23,826,768,0
941499,343.73,826,765,0
941509,344.76,826,769,0
941519,348.73,826,765,0
941529,357.60,826,769,0
941539,373.19,826,765,0
941549,397.78,826,769,0
941569,432.51,833,768,0
941572,475.22,833,774,0
941581,522.17,833,755,0
941591,570.24,833,776,0
941601,616.59,833,753,0
941612,658.45,833,774,0
941622,693.07,833,752,0
941632,718.55,833,773,0
941642,736.39,833,754,0
941652,748.87,833,772,0
941662,757.61,833,752,0
941672,763.73,833,774,0
941682,768.01,833,754,0
941692,771.01,833,773,0
941702,773.10,833,750,0
941712,774.57,833,775,0
941722,775.60,833,753,0
941732,776.32,833,772,0
941742,776.82,833,751,0
941752,774.22,833,772,0
941762,765.50,833,753,0
941772,748.29,833,772,0
941783,721.37,833,755,0
941793,683.98,833,772,0
941803,636.46,833,759,0
941813,579.19,833,769,0
941824,516.60,833,760,0
941833,452.99,833,771,0
941843,392.65,833,758,0
941853,338.24,833,769,0
941863,292.57,833,760,0
941873,256.44,833,771,0
941883,231.02,833,758,0
941893,215.67,833,769,0
941903,210.24,833,760,0
941913,212.91,833,772,0
941923,222.67,833,758,0
941933,237.08,833,769,0
941943,255.01,833,760,0
941953,274.17,833,771,0
941963,293.49,833,757,0
941973,311.04,833,770,0
941983,326.46,833,760,0
941993,338.53,833,770,0
942003,347.59,833,757,0
942013,353.03,833,770,0
942023,355.72,833,760,0
942033,355.46,833,769,0
942043,353.35,833,757,0
942053,349.52,833,769,0
942063,345.08,833,760,0
942073,339.95,833,770,0
942083,335.12,833,757,0
942093,330.29,833,770,0
942103,326.30,833,760,0
942113,322.74,833,769,0
942124,320.16,833,761,0
942134,318.01,833,769,0
942144,316.89,833,762,0
942154,316.11,833,768,0
942164,316.29,833,764,0
942174,316.72,833,769,0
942184,317.87,833,762,0
942194,319.03,833,769,0
942204,320.78,833,764,0
942214,322.34,833,769,0
942224,324.38,833,762,0
942234,326.07,833,769,0
942244,328.06,833,764,0
942254,329.67,833,769,0
942264,331.53,833,762,0
942274,332.91,833,769,0
942284,334.52,833,764,0
942295,335.65,833,768,0
942305,336.96,833,765,0
942315,337.66,833,767,0
942325,338.44,833,766,0
942336,338.57,833,767,0
942345,338.70,833,764,0
942355,338.06,833,767,0
942365,337.53,833,766,0
942375,337.03,833,767,0
942385,338.09,833,765,0
942395,341.41,833,768,0
942405,349.56,833,766,0
942415,363.83,833,767,0
942434,386.60,866,768,0
942437,419.46,866,766,0
942446,461.19,866,769,0
942456,507.94,866,766,0
942466,556.77,866,767,0
942476,604.24,866,766,0
942486,647.80,866,768,0
942496,684.84,866,766,0
942507,712.79,866,768,0
942516,732.35,866,767,0
942526,746.05,866,769,0
942536,755.63,866,766,0
942546,762.34,866,769,0
942556,767.04,866,766,0
942566,770.33,866,768,0
942576,772.63,866,767,0
942586,774.24,866,768,0
942596,775.37,866,767,0
942606,776.16,866,768,0
942616,775.04,866,766,0
942626,769.33,866,769,0
942636,756.71,866,767,0
942646,735.89,866,768,0
942656,705.49,866,766,0
942666,665.62,866,768,0
942676,616.15,866,765,0
942686,559.96,866,768,0
942696,500.40,866,766,0
942706,441.44,866,768,0
942716,385.59,866,766,0
942726,336.04,866,767,0
942736,293.94,866,766,0
942746,261.18,866,768,0
942756,237.38,866,765,0
942766,223.12,866,768,0
942776,217.17,866,766,0
942786,219.13,866,768,0
942796,227.02,866,766,0
942807,239.87,866,768,0
942817,255.38,866,766,0
942827,272.58,866,768,0
942837,289.55,866,765,0
942848,305.67,866,768,0
942857,319.44,866,766,0
942867,330.88,866,768,0
942877,339.10,866,765,0
942887,344.56,866,768,0
942897,347.00,866,765,0
942907,347.30,866,768,0
942917,345.37,866,765,0
942927,342.13,866,768,0
942937,337.63,866,766,0
942947,332.86,866,768,0
942957,327.76,866,765,0
942967,323.03,866,768,0
942977,318.48,866,766,0
942987,314.78,866,768,0
942997,311.54,866,765,0
943007,309.24,866,768,0
943017,307.41,866,765,0
943027,306.56,866,768,0
943037,306.05,866,765,0
943047,306.33,866,768,0
943057,306.88,866,765,0
943067,308.16,866,768,0
943077,309.57,866,765,0
943087,311.45,866,768,0
943097,313.33,866,765,0
943107,315.76,866,768,0
943117,318.06,866,765,0
943127,320.66,866,768,0
943137,323.03,866,765,0
943148,325.59,866,768,0
943158,327.90,866,765,0
943168,330.25,866,768,0
943178,332.23,866,765,0
943188,334.22,866,769,0
943198,335.78,866,765,0
943208,337.22,866,768,0
943218,338.14,866,765,0
943228,338.74,866,769,0
943238,338.69,866,765,0
943248,338.35,866,768,0
943258,337.82,866,765,0
943268,338.09,866,768,0
943278,339.82,866,765,0
943288,344.97,866,768,0
943298,355.22,866,765,0
943318,372.99,883,764,0
943321,400.63,883,754,0
943330,438.89,883,773,0
943340,483.79,883,752,0
943350,532.37,883,774,0
943361,581.33,883,752,0
943371,627.90,883,773,0
943381,669.07,883,752,0
943391,701.71,883,773,0
943401,724.60,883,754,0
943411,740.62,883,773,0
943421,751.83,883,752,0
943431,759.68,883,773,0
943441,765.18,883,755,0
943451,769.02,883,773,0
943461,771.72,883,752,0
943471,773.60,883,772,0
943481,774.92,883,752,0
943491,775.85,883,773,0
943501,776.49,883,752,0
943511,776.94,883,774,0
943521,773.70,883,754,0
943532,763.85,883,772,0
943542,745.68,883,756,0
943552,717.88,883,770,0
943562,680.46,883,760,0
943572,633.43,883,769,0
943582,578.10,883,756,0
943592,518.84,883,770,0
943602,460.26,883,759,0
943612,405.33,883,769,0
943622,357.19,883,755,0
943632,317.10,883,770,0
943642,286.60,883,759,0
943652,265.25,883,769,0
943662,253.26,883,755,0
943672,249.28,883,770,0
943682,252.63,883,759,0
943692,261.22,883,769,0
943703,273.97,883,761,0
943713,288.68,883,769,0
943723,304.42,883,762,0
943733,319.34,883,769,0
943744,333.04,883,764,0
943753,344.12,883,769,0
943763,352.83,883,762,0
943773,358.24,883,769,0
943783,361.21,883,764,0
943793,361.36,883,770,0
943803,359.71,883,762,0
943813,356.03,883,769,0
943823,351.52,883,763,0
943833,346.05,883,769,0
943843,340.76,883,761,0
943853,335.26,883,769,0
943863,330.47,883,763,0
943873,325.96,883,770,0
943883,322.58,883,761,0
943893,319.71,883,769,0
943903,318.00,883,763,0
943913,316.84,883,768,0
943923,316.80,883,761,0
943933,317.08,883,773,0
943943,318.34,883,763,0
943953,319.74,883,768,0
943963,321.92,883,761,0
943973,324.04,883,769,0
943983,326.69,883,763,0
943993,329.14,883,769,0
944003,332.05,883,761,0
944013,334.69,883,769,0
944023,337.70,883,763,0
944033,340.32,883,769,0
944044,343.18,883,764,0
944054,345.44,883,768,0
944064,347.71,883,765,0
944074,349.21,883,767,0
944084,350.60,883,766,0
944094,351.49,883,768,0
944104,353.27,883,766,0
944114,356.41,883,767,0
944124,363.36,883,767,0
944134,375.16,883,769,0
944144,394.79,883,766,0
944154,423.39,883,768,0
944174,461.59,856,767,0
944177,505.47,856,766,0
944186,552.26,856,768,0
944196,598.55,856,766,0
944206,642.06,856,769,0
944216,679.58,856,766,0
944226,709.15,856,768,0
944236,729.85,856,766,0
944246,744.34,856,769,0
944257,754.48,856,766,0
944267,761.58,856,769,0
944277,766.55,856,766,0
944287,770.03,856,769,0
944297,772.42,856,765,0
944307,774.09,856,769,0
944317,775.27,856,765,0
944327,776.09,856,769,0
944337,776.66,856,765,0
944347,777.06,856,769,0
944357,777.34,856,766,0
944367,776.34,856,769,0
944377,769.77,856,765,0
944387,755.39,856,769,0
944397,731.10,856,765,0
944407,696.32,856,769,0
944417,651.01,856,765,0
944428,596.10,856,769,0
944438,533.97,856,765,0
944448,470.72,856,769,0
944458,410.38,856,764,0
944468,356.99,856,773,0
944478,312.68,856,764,0
944488,279.09,856,769,0
944498,256.44,856,765,0
944508,244.56,856,773,0
944518,241.99,856,765,0
944528,247.35,856,769,0
944538,258.52,856,765,0
944548,273.79,856,771,0
944558,290.95,856,765,0
944568,308.45,856,769,0
944578,324.60,856,764,0
944588,338.61,856,772,0
944599,349.48,856,762,0
944609,357.01,856,775,0
944619,361.08,856,755,0
944629,362.08,856,773,0
944640,360.39,856,752,0
944649,356.71,856,775,0
944659,351.57,856,753,0
944669,345.74,856,772,0
944679,339.82,856,751,0
944689,334.22,856,774,0
944699,329.27,856,758,0
944709,325.16,856,773,0
944719,321.98,856,754,0
944729,319.89,856,775,0
944739,318.68,856,755,0
944749,318.39,856,774,0
944759,319.00,856,752,0
944769,320.41,856,777,0
944779,322.52,856,755,0
944789,325.23,856,774,0
944799,328.34,856,752,0
944809,331.79,856,774,0
944819,335.24,856,756,0
944829,338.43,856,775,0
944839,341.13,856,752,0
944849,343.19,856,774,0
944859,344.63,856,759,0
944869,345.94,856,774,0
944879,348.02,856,753,0
944889,352.30,856,774,0
944899,360.39,856,759,0
944909,374.63,856,775,0
944919,397.20,856,754,0
944929,429.88,856,773,0
944949,470.89,776,773,0
944952,516.74,776,770,0
944961,564.30,776,756,0
944971,610.84,776,770,0
944982,653.32,776,761,0
944991,689.05,776,772,0
945001,715.74,776,754,0
945011,734.41,776,771,0
945021,747.49,776,759,0
945031,756.64,776,771,0
945041,763.05,776,755,0
945051,767.54,776,770,0
945061,770.67,776,760,0
945071,772.87,776,773,0
945081,774.41,776,755,0
945091,775.49,776,771,0
945101,776.24,776,759,0
945111,776.77,776,772,0
945121,776.07,776,755,0
945131,770.00,776,770,0
945141,756.03,776,758,0
945152,731.98,776,770,0
945161,697.61,776,754,0
945171,652.47,776,771,0
945181,597.22,776,758,0
945191,533.68,776,769,0
945201,467.90,776,753,0
945211,403.86,776,770,0
945221,345.79,776,757,0
945231,295.45,776,769,0
945241,255.16,776,752,0
945251,225.58,776,776,0
945261,207.45,776,757,0
945271,199.52,776,769,0
945281,201.03,776,753,0
945291,209.94,776,773,0
945301,224.96,776,757,0
945311,243.61,776,769,0
945321,264.39,776,759,0
945331,284.97,776,771,0
945341,304.39,776,757,0
945351,321.12,776,769,0
945361,334.84,776,760,0
945371,344.66,776,771,0
945381,351.06,776,757,0
945391,353.74,776,769,0
945401,353.65,776,759,0
945411,350.93,776,773,0
945421,346.66,776,756,0
945431,341.02,776,769,0
945441,335.01,776,759,0
945452,328.71,776,769,0
945462,323.10,776,761,0
945472,317.88,776,769,0
945482,313.72,776,762,0
945492,310.25,776,769,0
945502,308.11,776,761,0
945512,306.71,776,769,0
945522,306.58,776,762,0
945532,306.96,776,769,0
945542,308.43,776,761,0
945552,310.23,776,769,0
945562,312.86,776,762,0
945572,315.43,776,769,0
945582,318.56,776,761,0
945592,321.39,776,769,0
945602,324.40,776,761,0
945612,326.68,776,769,0
945623,328.79,776,763,0
945633,329.93,776,768,0
945643,330.93,776,764,0
945653,331.42,776,767,0
945664,332.97,776,766,0
945673,336.19,776,768,0
945683,343.76,776,764,0
945693,357.21,776,767,0
945703,379.60,776,766,0
945713,411.61,776,768,0
945723,453.08,776,765,0
945742,499.99,793,765,0
945745,549.53,793,769,0
945754,598.10,793,767,0
945764,642.94,793,768,0
945774,680.76,793,766,0
945784,709.97,793,768,0
945794,730.43,793,767,0
945804,744.74,793,767,0
945814,754.72,793,766,0
945824,761.70,793,768,0
945835,766.59,793,766,0
945844,770.01,793,767,0
945854,772.41,793,766,0
945864,774.09,793,768,0
945874,775.26,793,766,0
945884,776.08,793,767,0
945894,776.66,793,766,0
945904,773.12,793,768,0
945914,762.07,793,766,0
945924,742.25,793,767,0
945934,712.04,793,766,0
945944,671.36,793,768,0
945954,620.12,793,766,0
945964,559.70,793,766,0
945974,494.78,793,766,0
945984,430.60,793,767,0
945994,369.73,793,766,0
946004,315.86,793,768,0
946014,270.34,793,766,0
946024,235.18,793,768,0
946034,210.06,793,766,0
946044,195.60,793,768,0
946054,190.27,793,766,0
946064,193.66,793,767,0
946074,203.58,793,766,0
946084,218.96,793,768,0
946094,237.23,793,766,0
946104,257.26,793,767,0
946114,276.81,793,766,0
946124,295.38,793,768,0
946135,311.25,793,765,0
946145,324.42,793,768,0
946155,333.94,793,765,0
946165,340.43,793,768,0
946176,343.47,793,764,0
946185,344.14,793,768,0
946195,342.30,793,765,0
946205,339.12,793,768,0
946215,334.59,793,765,0
946225,329.87,793,768,0
946235,324.85,793,765,0
946245,320.48,793,768,0
946255,316.44,793,765,0
946265,313.43,793,768,0
946275,311.08,793,765,0
946285,309.77,793,768,0
946295,308.94,793,765,0
946305,309.08,793,768,0
946315,309.62,793,765,0
946325,310.93,793,768,0
946335,312.45,793,765,0
946345,314.59,793,768,0
946355,316.81,793,765,0
946365,319.61,793,768,0
946375,322.34,793,765,0
946385,325.28,793,768,0
946395,327.90,793,766,0
946405,330.63,793,768,0
946415,332.75,793,765,0
946425,334.71,793,768,0
946435,335.87,793,765,0
946445,336.94,793,768,0
946455,338.03,793,765,0
946465,340.51,793,768,0
946476,345.41,793,765,0
946486,355.14,793,768,0
946496,371.47,793,764,0
946506,396.83,793,768,0
946526,432.28,783,769,0
946529,475.48,783,775,0
946538,522.87,783,752,0
946548,571.46,783,777,0
946558,618.08,783,752,0
946568,659.97,783,774,0
946578,694.39,783,753,0
946588,719.48,783,775,0
946598,737.03,783,751,0
946608,749.32,783,775,0
946618,757.93,783,755,0
946628,763.95,783,774,0
946638,768.16,783,752,0
946648,771.11,783,776,0
946658,773.18,783,755,0
946668,774.63,783,775,0
946678,775.64,783,752,0
946689,776.35,783,776,0
946699,776.84,783,751,0
946709,777.19,783,776,0
946719,775.16,783,751,0
946729,767.14,783,772,0
946739,751.28,783,751,0
946749,726.04,783,775,0
946759,690.93,783,751,0
946769,646.04,783,774,0
946779,592.45,783,751,0
946789,533.48,783,775,0
946799,474.28,783,751,0
946809,418.18,783,773,0
946819,368.45,783,751,0
946829,327.05,783,775,0
946839,295.28,783,750,0
946849,273.04,783,773,0
946860,260.25,783,753,0
946870,255.72,783,773,0
946880,258.55,783,755,0
946890,266.78,783,771,0
946900,279.11,783,759,0
946910,293.52,783,773,0
946920,308.88,783,754,0
946930,323.53,783,772,0
946940,337.00,783,758,0
946950,348.14,783,773,0
946960,357.06,783,755,0
946970,363.08,783,771,0
946980,366.87,783,758,0
946990,368.24,783,772,0
947000,368.00,783,754,0
947010,365.98,783,771,0
947020,363.07,783,758,0
947031,359.11,783,769,0
947041,355.05,783,761,0
947051,350.62,783,769,0
947061,346.58,783,762,0
947072,342.55,783,768,0
947081,339.38,783,760,0
947091,336.52,783,769,0
947101,334.74,783,761,0
947111,333.32,783,768,0
947121,332.92,783,760,0
947131,332.86,783,769,0
947141,333.80,783,761,0
947151,334.93,783,768,0
947161,336.84,783,761,0
947171,338.77,783,769,0
947181,341.24,783,762,0
947191,343.35,783,769,0
947201,345.69,783,760,0
947211,347.37,783,769,0
947221,348.93,783,761,0
947231,349.64,783,769,0
947241,350.39,783,763,0
947251,351.13,783,770,0
947261,353.58,783,761,0
947271,358.59,783,769,0
947281,368.78,783,763,0
947291,385.18,783,769,0
947301,410.41,783,761,0
947320,445.09,795,761,0
947323,487.23,795,768,0
947332,533.15,795,769,0
947342,580.08,795,764,0
947352,624.67,795,768,0
947362,664.84,795,766,0
947372,697.80,795,769,0
947382,721.99,795,764,0
947392,738.88,795,768,0
947402,750.70,795,765,0
947412,758.93,795,768,0
947422,764.70,795,764,0
947432,768.73,795,768,0
947442,771.55,795,765,0
947452,773.49,795,768,0
947462,774.88,795,764,0
947472,775.86,795,769,0
947482,776.55,795,765,0
947492,775.83,795,768,0
947502,771.16,795,764,0
947512,759.63,795,769,0
947522,739.85,795,765,0
947532,710.50,795,768,0
947543,671.73,795,766,0
947553,623.60,795,766,0
947563,568.52,795,767,0
947573,509.91,795,766,0
947584,452.51,795,768,0
947593,398.91,795,767,0
947603,352.31,795,767,0
947613,313.69,795,766,0
947623,284.55,795,768,0
947633,264.33,795,767,0
947643,253.35,795,767,0
947653,249.98,795,766,0
947663,253.67,795,768,0
947673,262.22,795,767,0
947683,274.66,795,766,0
947693,288.87,795,766,0
947703,304.08,795,768,0
947713,318.28,795,767,0
947723,331.27,795,766,0
947733,341.65,795,766,0
947743,349.68,795,768,0
947753,354.58,795,766,0
947763,357.10,795,766,0
947773,356.90,795,766,0
947783,355.13,795,768,0
947793,351.53,795,766,0
947803,347.26,795,766,0
947813,342.12,795,767,0
947823,337.24,795,768,0
947833,332.24,795,766,0
947843,328.01,795,767,0
947853,323.98,795,766,0
947863,320.99,795,768,0
947873,318.42,795,766,0
947884,316.92,795,768,0
947894,315.79,795,765,0
947904,315.55,795,768,0
947914,315.60,795,765,0
947924,316.49,795,768,0
947934,317.42,795,766,0
947944,318.96,795,768,0
947954,320.43,795,765,0
947964,322.32,795,768,0
947974,323.98,795,766,0
947984,325.78,795,768,0
947994,327.05,795,765,0
948004,328.23,795,768,0
948014,328.64,795,766,0
948024,328.83,795,768,0
948034,328.50,795,766,0
948044,328.65,795,768,0
948055,329.82,795,765,0
948065,334.08,795,769,0
948075,342.71,795,765,0
948085,358.18,795,768,0
948096,382.00,795,765,0
948105,415.51,795,769,0
948124,457.79,804,768,0
948127,505.29,804,776,0
948136,554.45,804,764,0
948146,602.40,804,770,0
948156,646.08,804,765,0
948166,683.04,804,770,0
948176,711.53,804,765,0
948186,731.47,804,769,0
948196,745.47,804,764,0
948206,755.27,804,770,0
948216,762.13,804,765,0
948226,766.94,804,769,0
948236,770.30,804,765,0
948246,772.65,804,769,0
948256,774.30,804,765,0
948267,775.41,804,775,0
948276,774.34,804,765,0
948286,768.45,804,769,0
948296,755.63,804,763,0
948306,734.61,804,774,0
948316,704.94,804,764,0
948326,666.43,804,769,0
948336,619.20,804,764,0
948346,565.87,804,774,0
948356,510.20,804,764,0
948366,455.71,804,769,0
948376,404.84,804,764,0
948386,359.54,804,772,0
948396,321.15,804,764,0
948406,290.94,804,769,0
948416,269.10,804,764,0
948426,255.61,804,773,0
948436,249.64,804,760,0
948446,250.48,804,769,0
948456,256.63,804,764,0
948466,267.12,804,771,0
948476,280.24,804,762,0
948486,294.82,804,769,0
948496,309.45,804,764,0
948506,323.29,804,771,0
948516,335.41,804,761,0
948526,345.53,804,769,0
948536,353.00,804,764,0
948546,357.93,804,771,0
948556,360.26,804,761,0
948567,360.36,804,777,0
948577,358.36,804,754,0
948587,354.78,804,776,0
948597,350.01,804,751,0
948608,344.65,804,775,0
948617,339.01,804,754,0
948627,333.52,804,776,0
948637,328.44,804,751,0
948647,324.06,804,774,0
948657,320.53,804,755,0
948667,317.93,804,776,0
948677,316.28,804,752,0
948687,315.55,804,774,0
948697,315.64,804,756,0
948707,316.44,804,774,0
948717,317.68,804,752,0
948727,319.23,804,774,0
948737,320.83,804,758,0
948747,322.34,804,774,0
948757,323.52,804,752,0
948767,324.31,804,774,0
948777,324.82,804,752,0
948787,325.47,804,774,0
948797,327.13,804,753,0
948807,331.08,804,775,0
948817,338.94,804,751,0
948827,352.41,804,774,0
948837,373.29,804,752,0
948847,402.99,804,775,0
948857,442.21,804,752,0
948876,487.74,752,755,0
948879,536.16,752,755,0
948888,584.29,752,774,0
948898,629.46,752,753,0
948908,669.13,752,775,0
948918,701.19,752,751,0
948928,724.24,752,774,0
948938,740.37,752,753,0
948948,751.66,752,773,0
948958,759.60,752,751,0
948968,765.16,752,774,0
948978,769.06,752,753,0
948988,771.78,752,773,0
948998,773.69,752,751,0
949008,773.74,752,775,0
949018,769.45,752,753,0
949028,758.73,752,773,0
949038,740.68,752,751,0
949048,714.21,752,774,0
949058,678.96,752,752,0
949068,634.83,752,773,0
949079,583.75,752,753,0
949089,529.01,752,772,0
949099,474.11,752,756,0
949109,421.10,752,771,0
949120,372.82,752,759,0
949129,330.66,752,774,0
949139,296.22,752,756,0
949149,269.79,752,770,0
949159,252.03,752,759,0
949169,241.99,752,772,0
949179,239.42,752,755,0
949189,242.77,752,770,0
949199,251.45,752,759,0
949209,263.66,752,772,0
949219,278.42,752,756,0
949229,293.94,752,771,0
949239,309.64,752,759,0
949249,324.11,752,774,0
949259,336.97,752,755,0
949269,347.10,752,772,0
949279,354.74,752,758,0
949289,359.36,752,769,0
949299,361.65,752,755,0
949309,361.37,752,771,0
949319,359.42,752,758,0
949329,355.78,752,769,0
949339,351.56,752,754,0
949349,346.68,752,771,0
949359,342.10,752,758,0
949369,337.44,752,769,0
949379,333.54,752,754,0
949389,330.08,752,771,0
949399,327.70,752,758,0
949409,325.86,752,769,0
949420,325.09,752,760,0
949430,324.68,752,769,0
949440,325.20,752,762,0
949450,325.87,752,769,0
949460,327.07,752,763,0
949470,327.99,752,769,0
949480,329.02,752,762,0
949490,329.53,752,769,0
949500,330.48,752,763,0
949510,331.80,752,769,0
949520,335.16,752,762,0
949530,341.37,752,769,0
949540,352.96,752,763,0
949550,370.84,752,769,0
949560,397.42,752,762,0
949570,433.08,752,769,0
949590,476.38,713,768,0
949593,523.50,713,767,0
949602,571.56,713,767,0
949612,617.25,713,767,0
949622,658.53,713,769,0
949633,692.70,713,766,0
949643,718.29,713,768,0
949653,736.20,713,766,0
949663,748.74,713,769,0
949673,757.52,713,766,0
949683,763.71,713,768,0
949693,768.08,713,766,0
949703,771.14,713,768,0
949713,773.29,713,766,0
949723,774.79,713,769,0
949733,775.84,713,766,0
949743,776.57,713,768,0
949753,776.23,713,766,0
949763,771.75,713,768,0
949773,760.04,713,766,0
949783,739.37,713,768,0
949793,708.36,713,765,0
949804,666.98,713,768,0
949814,615.34,713,765,0
949824,555.41,713,768,0
949834,491.52,713,765,0
949844,428.66,713,768,0
949854,370.09,713,765,0
949864,319.19,713,768,0
949874,277.48,713,765,0
949884,246.43,713,768,0
949894,225.82,713,765,0
949904,215.59,713,768,0
949914,214.38,713,765,0
949924,221.21,713,768,0
949934,233.79,713,765,0
949944,250.74,713,768,0
949954,269.80,713,765,0
949964,289.79,713,769,0
949975,308.84,713,765,0
949985,326.07,713,769,0
949995,340.32,713,764,0
950005,351.50,713,770,0
950016,359.02,713,763,0
950025,363.51,713,769,0
950035,364.86,713,764,0
950045,363.79,713,770,0
950055,360.68,713,764,0
950065,356.36,713,769,0
950075,351.20,713,765,0
950085,345.87,713,768,0
950095,340.55,713,764,0
950105,335.93,713,769,0
950115,332.01,713,765,0
950125,329.05,713,768,0
950135,326.93,713,764,0
950145,325.88,713,769,0
950155,325.57,713,765,0
950165,325.96,713,769,0
950175,326.61,713,764,0
950185,327.54,713,772,0
950195,328.41,713,764,0
950205,329.32,713,768,0
950215,330.12,713,765,0
950225,331.46,713,773,0
950235,333.80,713,765,0
950245,338.58,713,769,0
950255,347.23,713,764,0
950265,361.78,713,772,0
950275,383.44,713,765,0
950285,413.91,713,769,0
950295,453.62,713,765,0
950305,499.08,713,773,0
950325,546.93,736,774,0
950328,594.22,736,774,0
950337,638.08,736,752,0
950347,676.37,736,774,0
950358,706.90,736,753,0
950367,728.32,736,775,0
950377,743.35,736,752,0
950387,753.87,736,774,0
950397,761.28,736,753,0
950407,766.43,736,774,0
950417,770.03,736,752,0
950427,772.55,736,775,0
950437,774.31,736,754,0
950447,775.50,736,774,0
950457,776.34,736,751,0
950467,776.37,736,775,0
950477,771.97,736,753,0
950487,760.71,736,774,0
950497,740.52,736,751,0
950507,710.20,736,774,0
950517,669.42,736,752,0
950528,618.30,736,773,0
950537,558.55,736,750,0
950547,495.00,736,774,0
950557,431.70,736,752,0
950567,372.22,736,772,0
950577,319.70,736,751,0
950587,275.99,736,774,0
950597,242.56,736,752,0
950607,219.29,736,775,0
950617,206.09,736,751,0
950627,202.08,736,773,0
950637,206.17,736,751,0
950647,216.49,736,772,0
950657,231.43,736,751,0
950667,249.09,736,773,0
950677,268.00,736,751,0
950687,286.56,736,774,0
950697,303.75,736,754,0
950707,318.44,736,773,0
950717,330.26,736,751,0
950727,338.84,736,774,0
950737,344.33,736,753,0
950747,346.89,736,773,0
950757,347.01,736,751,0
950767,344.91,736,773,0
950777,341.38,736,753,0
950787,336.85,736,773,0
950797,331.97,736,751,0
950807,326.96,736,774,0
950817,322.26,736,753,0
950828,317.98,736,773,0
950838,314.56,736,755,0
950848,311.78,736,771,0
950858,310.00,736,758,0
950868,308.84,736,769,0
950878,308.68,736,755,0
950888,309.07,736,772,0
950898,310.38,736,757,0
950908,311.98,736,770,0
950918,314.21,736,755,0
950928,316.42,736,772,0
950938,319.00,736,757,0
950948,321.14,736,769,0
950958,323.24,736,755,0
950968,324.67,736,772,0
950978,326.01,736,757,0
950988,327.04,736,770,0
950999,328.87,736,760,0
951009,332.04,736,769,0
951019,338.67,736,762,0
951029,349.91,736,769,0
951040,368.24,736,763,0
951049,394.27,736,770,0
951068,429.59,743,769,0
951071,472.52,743,767,0
951080,519.81,743,767,0
951090,567.82,743,769,0
951100,614.03,743,764,0
951110,655.34,743,768,0
951120,690.25,743,766,0
951130,716.70,743,769,0
951140,735.22,743,764,0
951150,748.14,743,769,0
951160,757.23,743,766,0
951170,763.54,743,769,0
951180,767.97,743,765,0
951190,771.02,743,768,0
951200,773.16,743,766,0
951211,771.61,743,768,0
951220,764.96,743,764,0
951230,751.25,743,768,0
951240,729.84,743,766,0
951250,699.71,743,767,0
951260,661.31,743,764,0
951270,614.38,743,768,0
951280,562.79,743,765,0
951290,508.55,743,767,0
951300,455.12,743,764,0
951310,404.00,743,768,0
951320,357.80,743,765,0
951330,317.02,743,767,0
951340,283.45,743,763,0
951350,257.05,743,768,0
951360,238.73,743,765,0
951370,227.54,743,768,0
951380,223.78,743,766,0
951390,225.73,743,768,0
951400,233.10,743,765,0
951410,244.04,743,768,0
951420,257.96,743,766,0
951430,272.84,743,768,0
951440,288.23,743,765,0
951450,302.39,743,768,0
951460,315.39,743,766,0
951470,325.90,743,768,0
951480,334.33,743,765,0
951490,339.80,743,768,0
951500,343.20,743,766,0
951511,344.00,743,767,0
951521,343.23,743,767,0
951531,340.63,743,766,0
951541,337.36,743,768,0
951552,333.05,743,766,0
951561,328.92,743,767,0
951571,324.49,743,766,0
951581,320.74,743,768,0
951591,317.18,743,766,0
951601,314.59,743,767,0
951611,312.40,743,766,0
951621,311.30,743,768,0
951631,310.52,743,765,0
951641,310.75,743,767,0
951651,311.21,743,766,0
951661,312.48,743,768,0
951671,313.79,743,765,0
951681,315.65,743,767,0
951691,317.34,743,766,0
951701,319.43,743,768,0
951711,321.18,743,765,0
951721,323.23,743,768,0
951731,324.79,743,767,0
951741,326.35,743,768,0
951751,327.28,743,766,0
951761,328.22,743,768,0
951771,328.67,743,767,0
951781,329.84,743,768,0
951791,331.99,743,765,0
951801,337.18,743,768,0
951811,346.17,743,767,0
951821,361.42,743,768,0
951831,383.92,743,766,0
951841,415.53,743,768,0
951861,455.91,793,768,0
951864,501.84,793,769,0
951873,549.59,793,765,0
951883,596.77,793,769,0
951894,640.25,793,765,0
951903,677.98,793,769,0
951913,707.81,793,765,0
951923,728.87,793,769,0
951933,743.61,793,765,0
951943,753.93,793,769,0
951953,761.15,793,765,0
951963,766.25,793,769,0
951973,769.82,793,765,0
951983,772.31,793,768,0
951993,774.06,793,765,0
952003,772.97,793,769,0
952013,766.72,793,765,0
952023,754.21,793,769,0
952033,733.92,793,765,0
952043,705.44,793,769,0
952053,668.32,793,765,0
952064,622.93,793,769,0
952073,572.12,793,765,0
952083,519.37,793,768,0
952093,466.72,793,765,0
952103,417.00,793,769,0
952113,371.87,793,765,0
952123,333.17,793,768,0
952133,301.53,793,764,0
952143,277.67,793,769,0
952153,261.23,793,765,0
952163,252.29,793,769,0
952173,249.84,793,765,0
952183,253.19,793,769,0
952193,260.81,793,765,0
952203,271.84,793,769,0
952213,284.57,793,765,0
952223,298.24,793,769,0
952233,311.46,793,765,0
952243,323.66,793,768,0
952253,333.83,793,765,0
952263,342.03,793,769,0
952273,347.68,793,765,0
952283,351.24,793,768,0
952293,352.59,793,765,0
952303,352.20,793,769,0
952313,350.21,793,764,0
952323,347.36,793,768,0
952333,343.61,793,765,0
952343,339.66,793,769,0
952353,335.39,793,764,0
952364,331.37,793,769,0
952374,327.57,793,764,0
952384,324.36,793,773,0
952394,321.64,793,760,0
952404,319.77,793,777,0
952414,318.51,793,764,0
952424,318.19,793,773,0
952434,318.47,793,762,0
952444,319.49,793,776,0
952454,320.97,793,765,0
952464,323.04,793,772,0
952474,325.34,793,762,0
952484,327.90,793,777,0
952494,330.37,793,764,0
952504,332.83,793,772,0
952514,335.07,793,762,0
952524,336.98,793,777,0
952535,338.31,793,754,0
952545,339.16,793,775,0
952555,339.50,793,752,0
952565,339.56,793,773,0
952576,339.87,793,750,0
952585,341.19,793,775,0
952595,344.86,793,752,0
952605,352.49,793,773,0
952615,365.84,793,751,0
952625,386.20,793,774,0
952635,414.86,793,753,0
952654,452.27,793,751,0
952657,495.99,793,761,0
952666,542.58,793,773,0
952676,588.95,793,752,0
952686,632.29,793,772,0
952696,670.56,793,754,0
952706,701.81,793,776,0
952716,724.67,793,751,0
952726,740.67,793,772,0
952736,751.87,793,754,0
952747,759.71,793,772,0
952756,765.19,793,751,0
952766,769.04,793,773,0
952776,771.73,793,753,0
952786,773.61,793,772,0
952796,772.53,793,751,0
952806,766.32,793,772,0
952816,753.67,793,754,0
952826,733.41,793,772,0
952836,705.35,793,753,0
952846,669.16,793,773,0
952856,625.05,793,753,0
952866,575.71,793,771,0
952876,524.50,793,750,0
952886,473.60,793,773,0
952896,425.42,793,752,0
952906,381.24,793,772,0
952916,342.81,793,754,0
952926,310.90,793,772,0
952936,286.37,793,752,0
952946,268.94,793,772,0
952956,258.80,793,754,0
952966,255.09,793,773,0
952976,257.29,793,752,0
952986,263.93,793,772,0
952996,274.28,793,754,0
953006,286.75,793,772,0
953016,300.37,793,752,0
953026,313.76,793,772,0
953036,326.39,793,755,0
953047,337.16,793,772,0
953057,346.02,793,757,0
953067,352.23,793,770,0
953077,356.23,793,760,0
953088,357.83,793,769,0
953097,357.71,793,756,0
953107,355.87,793,770,0
953117,353.12,793,760,0
953127,349.36,793,769,0
953137,345.52,793,756,0
953147,341.42,793,773,0
953157,337.87,793,760,0
953167,334.44,793,769,0
953177,331.73,793,756,0
953187,329.33,793,770,0
953197,327.82,793,760,0
953207,326.54,793,769,0
953217,326.04,793,756,0
953227,325.73,793,770,0
953237,326.07,793,760,0
953247,326.39,793,769,0
953257,327.26,793,761,0
953267,328.08,793,770,0
953277,329.38,793,759,0
953287,330.60,793,769,0
953297,332.18,793,761,0
953307,333.58,793,770,0
953317,335.29,793,759,0
953327,336.66,793,769,0
953337,338.09,793,761,0
953347,338.96,793,771,0
953357,339.70,793,758,0
953367,339.92,793,770,0
953377,340.67,793,761,0
953388,342.31,793,769,0
953398,346.76,793,762,0
953408,355.02,793,769,0
953418,369.46,793,764,0
953428,391.13,793,769,0
953438,421.48,793,763,0
953457,460.21,803,762,0
953460,504.76,803,768,0
953469,551.42,803,767,0
953479,597.53,803,765,0
953489,640.06,803,768,0
953499,677.03,803,767,0
953509,706.63,803,767,0
953519,728.04,803,765,0
953529,743.03,803,768,0
953539,753.52,803,766,0
953549,760.86,803,767,0
953559,766.01,803,765,0
953569,769.60,803,768,0
953579,772.12,803,766,0
953589,772.69,803,767,0
953600,769.48,803,767,0
953609,760.81,803,768,0
953619,745.69,803,767,0
953629,722.94,803,767,0
953639,692.40,803,767,0
953649,653.97,803,768,0
953659,609.41,803,766,0
953669,560.94,803,767,0
953679,511.59,803,767,0
953689,463.07,803,768,0
953699,418.18,803,766,0
953709,377.92,803,767,0
953719,343.96,803,767,0
953729,316.46,803,768,0
953739,296.61,803,766,0
953749,283.70,803,767,0
953759,278.13,803,767,0
953769,278.48,803,766,0
953779,284.38,803,765,0
953789,293.99,803,767,0
953799,306.85,803,767,0
953809,320.87,803,767,0
953819,335.56,803,766,0
953829,349.07,803,767,0
953839,361.22,803,767,0
953849,370.80,803,767,0
953859,378.19,803,765,0
953869,382.37,803,767,0
953879,384.28,803,767,0
953889,383.46,803,767,0
953900,381.05,803,768,0
953910,376.75,803,766,0
953920,371.73,803,768,0
953930,365.68,803,766,0
953940,359.82,803,768,0
953950,353.79,803,765,0
953960,348.58,803,768,0
953970,343.78,803,766,0
953980,340.20,803,768,0
953990,337.23,803,766,0
954000,335.53,803,768,0
954010,334.47,803,766,0
954020,334.54,803,768,0
954030,334.90,803,766,0
954040,336.08,803,769,0
954050,337.30,803,766,0
954060,339.05,803,768,0
954071,340.54,803,765,0
954081,342.13,803,769,0
954091,343.21,803,765,0
954101,344.26,803,769,0
954112,344.74,803,764,0
954121,345.42,803,768,0
954131,346.41,803,765,0
954141,349.20,803,768,0
954151,354.75,803,765,0
954161,364.86,803,768,0
954171,380.84,803,765,0
954181,404.76,803,769,0
954191,437.19,803,765,0
954201,477.68,803,768,0
954220,522.47,763,768,0
954223,568.66,763,773,0
954232,613.42,763,765,0
954242,654.35,763,769,0
954252,688.92,763,765,0
954262,715.68,763,769,0
954272,734.42,763,765,0
954283,747.54,763,769,0
954292,756.68,763,765,0
954302,763.07,763,769,0
954312,767.55,763,765,0
954322,770.69,763,769,0
954332,772.88,763,765,0
954342,774.42,763,769,0
954352,775.49,763,765,0
954362,776.24,763,769,0
954372,774.97,763,765,0
954382,768.98,763,769,0
954392,755.87,763,765,0
954402,734.31,763,769,0
954412,703.66,763,765,0
954422,663.82,763,769,0
954432,614.97,763,764,0
954442,559.78,763,769,0
954452,502.03,763,764,0
954462,445.71,763,768,0
954472,393.47,763,764,0
954482,347.60,763,769,0
954492,309.58,763,764,0
954502,280.56,763,769,0
954512,260.64,763,764,0
954522,249.77,763,769,0
954532,246.88,763,765,0
954542,250.99,763,769,0
954552,260.34,763,765,0
954562,273.56,763,769,0
954572,288.91,763,765,0
954583,305.05,763,773,0
954593,320.42,763,763,0
954603,334.18,763,776,0
954613,345.44,763,753,0
954624,353.97,763,775,0
954633,359.46,763,762,0
954643,362.19,763,775,0
954653,362.35,763,755,0
954663,360.49,763,774,0
954673,357.04,763,763,0
954683,352.74,763,775,0
954693,348.02,763,754,0
954703,343.30,763,774,0
954713,338.88,763,763,0
954723,335.15,763,775,0
954733,332.19,763,756,0
954743,330.07,763,774,0
954753,328.72,763,764,0
954763,328.16,763,775,0
954773,328.29,763,754,0
954783,328.93,763,775,0
954793,329.94,763,752,0
954803,331.07,763,775,0
954813,332.16,763,755,0
954823,333.06,763,774,0
954833,333.60,763,752,0
954843,333.80,763,774,0
954853,333.82,763,756,0
954863,334.00,763,774,0
954873,335.24,763,753,0
954883,338.64,763,774,0
954893,345.74,763,756,0
954903,358.29,763,776,0
954913,378.04,763,753,0
954924,406.44,763,774,0
954934,444.07,763,752,0
954953,488.23,733,751,0
954956,535.65,733,762,0
954966,583.20,733,771,0
954975,628.05,733,754,0
954985,667.64,733,773,0
954995,699.85,733,756,0
955005,723.33,733,771,0
955015,739.78,733,755,0
955025,751.24,733,773,0
955035,759.27,733,756,0
955045,764.89,733,772,0
955055,768.82,733,754,0
955065,771.58,733,772,0
955075,773.55,733,756,0
955085,774.93,733,771,0
955095,774.18,733,753,0
955105,768.51,733,772,0
955115,756.06,733,755,0
955125,735.21,733,773,0
955136,705.45,733,759,0
955145,666.53,733,773,0
955155,618.84,733,755,0
955165,564.37,733,771,0
955175,507.22,733,758,0
955185,450.37,733,772,0
955195,396.94,733,754,0
955205,348.70,733,772,0
955215,307.52,733,758,0
955225,274.06,733,772,0
955235,249.45,733,754,0
955245,233.28,733,772,0
955255,225.53,733,757,0
955265,224.90,733,773,0
955275,230.71,733,754,0
955285,241.13,733,772,0
955295,255.28,733,757,0
955305,271.18,733,770,0
955315,287.84,733,755,0
955325,303.62,733,772,0
955335,318.09,733,757,0
955345,330.02,733,770,0
955355,339.44,733,754,0
955365,345.70,733,773,0
955375,349.39,733,756,0
955385,350.30,733,770,0
955395,349.27,733,756,0
955405,346.32,733,772,0
955415,342.41,733,756,0
955425,337.48,733,770,0
955436,332.50,733,760,0
955446,327.20,733,769,0
955456,322.51,733,761,0
955466,318.12,733,769,0
955476,314.74,733,763,0
955486,311.95,733,769,0
955496,310.42,733,761,0
955506,309.52,733,769,0
955516,309.97,733,763,0
955526,310.92,733,770,0
955536,312.87,733,761,0
955546,314.97,733,769,0
955556,317.76,733,763,0
955566,320.45,733,770,0
955576,323.44,733,761,0
955586,325.84,733,769,0
955596,328.20,733,763,0
955607,329.77,733,769,0
955617,331.25,733,764,0
955627,332.25,733,769,0
955637,334.10,733,766,0
955648,337.20,733,768,0
955657,343.44,733,764,0
955667,353.77,733,768,0
955677,370.59,733,766,0
955687,394.67,733,767,0
955697,427.13,733,764,0
955716,467.29,763,764,0
955719,512.42,763,769,0
955728,559.05,763,766,0
955738,604.63,763,767,0
955748,646.19,763,767,0
955758,681.92,763,768,0
955768,710.27,763,766,0
955778,730.59,763,767,0
955788,744.81,763,767,0
955798,754.77,763,768,0
955808,761.74,763,766,0
955819,766.62,763,769,0
955828,770.03,763,767,0
955838,772.04,763,768,0
955848,770.14,763,767,0
955858,763.07,763,768,0
955868,749.51,763,767,0
955878,728.83,763,767,0
955888,700.12,763,766,0
955898,663.61,763,768,0
955908,619.63,763,766,0
955918,571.70,763,767,0
955928,521.52,763,766,0
955938,471.78,763,768,0
955948,423.84,763,766,0
955958,380.13,763,767,0
955968,341.22,763,766,0
955978,308.71,763,768,0
955988,282.61,763,765,0
955998,263.91,763,767,0
956008,251.77,763,766,0
956018,246.52,763,768,0
956028,246.84,763,765,0
956038,252.42,763,767,0
956048,261.42,763,766,0
956058,273.34,763,768,0
956068,286.39,763,766,0
956078,300.16,763,767,0
956088,312.93,763,766,0
956098,324.61,763,768,0
956108,334.02,763,766,0
956119,341.52,763,768,0
956129,346.29,763,766,0
956139,348.99,763,768,0
956149,349.29,763,765,0
956160,348.18,763,769,0
956169,345.38,763,766,0
956179,341.97,763,768,0
956189,337.69,763,765,0
956199,333.45,763,768,0
956209,329.08,763,766,0
956219,325.28,763,768,0
956229,321.64,763,765,0
956239,318.75,763,768,0
956249,316.08,763,766,0
956259,314.21,763,768,0
956269,312.69,763,765,0
956279,312.01,763,769,0
956289,311.62,763,766,0
956299,312.08,763,768,0
956309,312.83,763,765,0
956319,314.34,763,768,0
956329,316.08,763,765,0
956339,318.37,763,768,0
956349,320.53,763,765,0
956359,323.03,763,768,0
956369,325.12,763,765,0
956379,327.23,763,768,0
956389,328.66,763,766,0
956399,329.79,763,769,0
956409,330.37,763,766,0
956419,331.20,763,768,0
956429,332.43,763,765,0
956439,335.68,763,769,0
956449,341.82,763,765,0
956460,352.93,763,769,0
956470,370.05,763,765,0
956480,394.81,763,769,0
956499,427.44,783,769,0
956503,468.41,783,774,0
956511,513.84,783,765,0
956521,560.73,783,772,0
956531,606.03,783,764,0
956541,647.55,783,776,0
956551,683.08,783,765,0
956561,711.43,783,771,0
956571,731.40,783,764,0
956581,745.38,783,774,0
956591,755.17,783,765,0
956601,762.02,783,771,0
956611,766.81,783,764,0
956621,768.11,783,775,0
956631,764.82,783,765,0
956641,756.09,783,771,0
956651,741.10,783,764,0
956661,719.47,783,775,0
956672,690.92,783,756,0
956681,655.63,783,770,0
956691,615.71,783,764,0
956701,573.03,783,775,0
956711,529.22,783,759,0
956721,486.08,783,770,0
956731,444.79,783,764,0
956741,406.62,783,774,0
956751,372.36,783,756,0
956761,343.03,783,769,0
956771,319.06,783,764,0
956781,300.96,783,775,0
956791,288.63,783,758,0
956801,281.97,783,769,0
956811,280.43,783,764,0
956821,283.48,783,776,0
956831,290.06,783,759,0
956841,299.47,783,775,0
956851,310.47,783,765,0
956861,322.20,783,774,0
956871,333.76,783,759,0
956881,344.46,783,776,0
956891,353.53,783,765,0
956901,360.75,783,774,0
956911,365.79,783,761,0
956921,368.77,783,775,0
956931,369.65,783,765,0
956941,368.86,783,773,0
956951,366.54,783,761,0
956961,363.21,783,775,0
956972,359.16,783,756,0
956982,354.74,783,774,0
956992,350.28,783,753,0
957002,346.08,783,773,0
957012,342.24,783,751,0
957022,339.00,783,773,0
957032,336.34,783,753,0
957042,334.22,783,773,0
957052,332.70,783,751,0
957062,331.68,783,773,0
957072,331.09,783,752,0
957082,330.76,783,775,0
957092,330.75,783,752,0
957102,330.99,783,775,0
957112,331.60,783,752,0
957122,332.36,783,773,0
957132,333.41,783,751,0
957143,334.57,783,773,0
957153,336.07,783,753,0
957163,337.55,783,772,0
957173,339.19,783,755,0
957184,340.50,783,771,0
957193,341.77,783,754,0
957203,342.44,783,772,0
957213,342.90,783,755,0
957223,342.93,783,771,0
957233,343.34,783,753,0
957243,344.57,783,772,0
957253,348.21,783,755,0
957263,355.35,783,772,0
957273,367.71,783,753,0
957283,386.49,783,774,0
957293,413.21,783,755,0
957313,447.99,813,756,0
957316,489.78,813,765,0
957325,534.89,813,769,0
957335,580.39,813,764,0
957345,623.73,813,769,0
957356,662.64,813,765,0
957366,695.06,813,768,0
957376,719.90,813,767,0
957386,737.29,813,767,0
957396,749.50,813,768,0
957406,758.05,813,768,0
957416,764.04,813,767,0
957426,768.23,813,768,0
957436,771.16,813,768,0
957446,771.88,813,768,0
957456,768.92,813,766,0
957466,760.50,813,767,0
957476,746.04,813,768,0
957486,724.64,813,768,0
957496,696.25,813,766,0
957506,660.47,813,768,0
957516,619.27,813,767,0
957527,574.45,813,766,0
957537,529.01,813,768,0
957547,484.18,813,766,0
957557,442.21,813,768,0
957568,403.92,813,766,0
957577,371.07,813,768,0
957587,343.67,813,766,0
957597,322.85,813,768,0
957607,308.02,813,766,0
957617,299.49,813,768,0
957627,296.13,813,766,0
957637,297.85,813,768,0
957647,303.12,813,766,0
957657,311.57,813,768,0
957667,321.51,813,766,0
957677,332.55,813,768,0
957687,343.22,813,766,0
957697,353.36,813,768,0
957707,361.69,813,766,0
957717,368.43,813,768,0
957727,372.80,813,766,0
957737,375.43,813,768,0
957747,375.86,813,766,0
957757,374.96,813,768,0
957767,372.40,813,766,0
957777,369.19,813,768,0
957787,365.06,813,766,0
957797,360.93,813,768,0
957807,356.41,813,766,0
957817,352.26,813,768,0
957827,348.02,813,766,0
957837,344.50,813,769,0
957847,341.09,813,766,0
957857,338.41,813,768,0
957868,335.89,813,766,0
957878,334.08,813,769,0
957888,332.43,813,765,0
957898,331.44,813,769,0
957908,330.54,813,765,0
957918,330.25,813,768,0
957928,330.04,813,766,0
957938,330.33,813,768,0
957948,330.62,813,765,0
957958,331.38,813,769,0
957968,332.08,813,766,0
957978,333.13,813,769,0
957988,334.03,813,765,0
957998,335.14,813,768,0
958008,335.95,813,765,0
958018,336.87,813,768,0
958028,337.42,813,765,0
958039,337.94,813,769,0
958049,337.91,813,765,0
958059,337.64,813,769,0
958069,337.02,813,765,0
958080,336.76,813,771,0
958089,337.22,813,765,0
958099,339.72,813,769,0
958109,345.51,813,765,0
958119,356.54,813,771,0
958129,373.91,813,765,0
958139,399.31,813,769,0
958158,433.29,846,768,0
958161,475.16,846,774,0
958170,521.18,846,765,0
958180,568.23,846,776,0
958190,613.29,846,757,0
958200,654.30,846,776,0
958210,688.88,846,765,0
958220,715.62,846,774,0
958230,734.33,846,758,0
958240,747.43,846,778,0
958251,756.60,846,752,0
958260,763.02,846,774,0
958270,767.52,846,758,0
958280,770.66,846,775,0
958290,772.86,846,753,0
958300,774.40,846,775,0
958310,774.54,846,759,0
958320,770.95,846,776,0
958330,761.84,846,753,0
958340,746.29,846,774,0
958350,723.31,846,760,0
958360,692.53,846,776,0
958370,654.02,846,754,0
958380,609.31,846,774,0
958390,561.39,846,760,0
958400,513.10,846,776,0
958410,466.44,846,754,0
958420,423.58,846,773,0
958430,386.04,846,760,0
958440,354.78,846,776,0
958450,330.25,846,753,0
958460,312.82,846,773,0
958470,302.07,846,760,0
958480,297.55,846,776,0
958490,298.41,846,753,0
958500,303.65,846,774,0
958510,312.11,846,760,0
958520,322.62,846,777,0
958530,334.01,846,754,0
958540,345.40,846,776,0
958551,355.91,846,751,0
958561,364.85,846,773,0
958571,371.88,846,751,0
958581,376.67,846,773,0
958592,379.30,846,753,0
958601,379.81,846,774,0
958611,378.50,846,751,0
958621,375.56,846,773,0
958631,371.45,846,753,0
958641,366.52,846,774,0
958651,361.22,846,751,0
958661,355.67,846,773,0
958671,350.37,846,753,0
958681,345.37,846,774,0
958691,341.02,846,751,0
958701,337.28,846,774,0
958711,334.37,846,753,0
958721,332.20,846,774,0
958731,330.94,846,751,0
958741,330.27,846,773,0
958751,330.36,846,753,0
958761,330.94,846,773,0
958771,332.11,846,751,0
958781,333.49,846,773,0
958791,335.23,846,753,0
958801,336.96,846,773,0
958811,338.86,846,751,0
958821,340.62,846,774,0
958831,342.32,846,753,0
958841,343.59,846,772,0
958851,344.62,846,751,0
958861,345.12,846,774,0
958871,345.42,846,753,0
958881,345.47,846,773,0
958892,346.14,846,754,0
958902,348.07,846,772,0
958912,352.98,846,758,0
958922,362.03,846,770,0
958932,377.32,846,761,0
958942,399.68,846,772,0
958952,430.59,846,758,0
958971,469.84,813,760,0
958974,514.25,813,767,0
958983,560.33,813,770,0
958993,605.49,813,762,0
959003,646.83,813,769,0
959013,682.71,813,764,0
959023,711.12,813,770,0
959033,731.19,813,763,0
959043,745.23,813,770,0
959053,755.06,813,764,0
959063,761.94,813,770,0
959073,766.76,813,762,0
959083,770.13,813,770,0
959093,772.49,813,764,0
959104,774.14,813,769,0
959113,774.92,813,762,0
959123,771.90,813,769,0
959133,763.49,813,763,0
959143,747.78,813,769,0
959153,724.58,813,762,0
959163,692.99,813,769,0
959173,653.35,813,763,0
959183,606.06,813,769,0
959193,555.43,813,762,0
959203,503.70,813,769,0
959213,454.29,813,763,0
959223,408.39,813,769,0
959233,368.46,813,762,0
959243,335.06,813,769,0
959253,309.67,813,763,0
959263,291.69,813,769,0
959273,281.67,813,765,0
959283,278.21,813,769,0
959293,281.15,813,763,0
959303,288.65,813,769,0
959313,300.15,813,764,0
959323,313.52,813,769,0
959333,328.15,813,763,0
959343,342.12,813,769,0
959353,355.33,813,764,0
959363,366.24,813,769,0
959373,375.13,813,763,0
959383,380.92,813,769,0
959393,384.41,813,765,0
959404,385.02,813,768,0
959414,383.77,813,766,0
959424,380.32,813,768,0
959434,375.81,813,767,0
959444,369.95,813,767,0
959454,363.97,813,765,0
959464,357.46,813,768,0
959474,351.54,813,767,0
959484,345.72,813,767,0
959494,340.96,813,766,0
959504,336.69,813,768,0
959514,333.74,813,767,0
959524,331.42,813,767,0
959534,330.43,813,765,0
959544,329.96,813,768,0
959554,330.79,813,767,0
959564,331.92,813,767,0
959575,333.96,813,768,0
959585,335.99,813,766,0
959595,338.43,813,768,0
959605,340.40,813,766,0
959616,342.47,813,768,0
959625,343.83,813,766,0
959635,345.42,813,769,0
959645,347.05,813,766,0
959655,350.29,813,769,0
959665,355.69,813,766,0
959675,365.64,813,769,0
959685,381.22,813,766,0
959695,404.68,813,769,0
959705,436.11,813,767,0
959715,475.89,813,769,0
959734,520.15,763,768,0
959737,566.31,763,770,0
959746,611.04,763,766,0
959756,652.09,763,769,0
959766,686.82,763,766,0
959776,714.22,763,769,0
959787,733.39,763,766,0
959796,746.86,763,769,0
959806,756.25,763,766,0
959816,762.81,763,769,0
959826,767.41,763,766,0
959836,770.67,763,769,0
959846,772.96,763,767,0
959856,774.60,763,769,0
959866,775.71,763,766,0
959876,776.52,763,769,0
959886,774.61,763,766,0
959896,767.40,763,769,0
959906,752.54,763,766,0
959916,729.32,763,769,0
959926,696.65,763,766,0
959936,654.80,763,768,0
959946,603.94,763,766,0
959956,547.73,763,769,0
959966,489.83,763,766,0
959976,434.21,763,769,0
959986,382.89,763,765,0
959996,338.65,763,769,0
960006,302.33,763,766,0
960016,275.27,763,768,0
960026,257.23,763,765,0
960036,248.12,763,769,0
960046,246.46,763,766,0
960056,251.59,763,769,0
960066,261.57,763,766,0
960076,275.41,763,769,0
960087,291.02,763,765,0
960097,307.21,763,769,0
960107,322.41,763,765,0
960117,336.08,763,769,0
960128,347.12,763,765,0
960137,355.48,763,769,0
960147,360.65,763,765,0
960157,363.07,763,769,0
960167,362.83,763,765,0
960177,360.70,763,769,0
960187,356.85,763,765,0
960197,352.09,763,769,0
960207,346.71,763,765,0
960217,341.44,763,769,0
960227,336.38,763,765,0
960237,332.02,763,769,0
960247,328.29,763,765,0
960257,325.63,763,769,0
960267,323.77,763,765,0
960277,322.98,763,769,0
960287,322.99,763,765,0
960297,323.89,763,772,0
960307,325.34,763,765,0
960317,327.47,763,769,0
960327,329.85,763,765,0
960337,332.56,763,772,0
960347,335.09,763,765,0
960357,337.55,763,769,0
960367,339.57,763,765,0
960377,341.28,763,772,0
960387,342.44,763,765,0
960397,343.64,763,770,0
960407,345.38,763,765,0
960417,348.99,763,772,0
960428,355.81,763,762,0
960438,367.82,763,777,0
960448,386.78,763,753,0
960458,414.31,763,776,0
960478,451.03,743,773,0
960481,494.35,743,771,0
960490,540.83,743,756,0
960500,587.51,743,771,0
960510,631.54,743,759,0
960520,670.38,743,774,0
960530,701.94,743,755,0
960540,724.80,743,772,0
960550,740.76,743,759,0
960560,751.93,743,773,0
960570,759.75,743,755,0
960580,765.23,743,772,0
960590,769.06,743,759,0
960600,771.74,743,775,0
960610,773.62,743,755,0
960620,774.93,743,772,0
960630,774.44,743,759,0
960641,769.08,743,770,0
960651,756.97,743,761,0
960661,736.36,743,770,0
960671,706.85,743,762,0
960681,667.86,743,769,0
960691,620.24,743,761,0
960701,565.66,743,770,0
960711,508.59,743,762,0
960721,451.84,743,769,0
960731,399.00,743,761,0
960741,351.56,743,770,0
960751,311.83,743,762,0
960761,279.87,743,769,0
960771,256.85,743,760,0
960781,242.15,743,769,0
960791,235.98,743,761,0
960801,236.63,743,769,0
960812,243.60,743,763,0
960822,254.77,743,769,0
960832,269.41,743,765,0
960842,285.36,743,769,0
960852,301.84,743,766,0
960862,316.93,743,769,0
960872,330.45,743,765,0
960882,341.07,743,768,0
960892,349.24,743,767,0
960902,354.09,743,769,0
960912,356.55,743,764,0
960922,356.21,743,769,0
960932,354.22,743,766,0
960942,350.34,743,769,0
960952,345.78,743,764,0
960962,340.19,743,768,0
960972,334.78,743,766,0
960983,329.19,743,768,0
960993,324.37,743,767,0
961003,319.89,743,767,0
961013,316.54,743,768,0
961024,313.68,743,766,0
961033,312.06,743,767,0
961043,310.93,743,767,0
961053,310.95,743,768,0
961063,311.39,743,766,0
961073,312.77,743,766,0
961083,314.34,743,767,0
961093,316.68,743,768,0
961103,318.96,743,766,0
961113,321.72,743,767,0
961123,324.07,743,766,0
961133,326.62,743,768,0
961143,328.62,743,766,0
961153,330.62,743,767,0
961163,331.81,743,767,0
961173,332.85,743,768,0
961183,333.28,743,766,0
961193,334.14,743,768,0
961203,335.47,743,767,0
961213,339.14,743,768,0
961223,346.09,743,766,0
961233,358.79,743,768,0
961243,378.01,743,767,0
961253,405.91,743,768,0
961263,442.53,743,767,0
961283,486.22,805,766,0
961286,533.17,805,766,0
961295,580.47,805,769,0
961305,624.95,805,766,0
961315,664.73,805,769,0
961325,697.34,805,766,0
961335,721.63,805,769,0
961345,738.62,805,766,0
961355,750.48,805,769,0
961366,758.82,805,765,0
961375,764.70,805,769,0
961385,768.82,805,765,0
961395,771.66,805,769,0
961405,773.18,805,765,0
961415,771.37,805,769,0
961425,764.10,805,766,0
961435,750.10,805,769,0
961445,728.30,805,765,0
961455,698.68,805,769,0
961465,660.85,805,765,0
961475,615.64,805,769,0
961485,565.65,805,765,0
961495,514.28,805,769,0
961505,463.54,805,765,0
961515,415.85,805,768,0
961525,372.31,805,765,0
961536,334.72,805,769,0
961545,303.64,805,765,0
961555,280.05,805,769,0
961565,263.58,805,765,0
961575,254.49,805,769,0
961585,251.77,805,765,0
961595,255.01,805,768,0
961605,262.81,805,765,0
961615,274.31,805,769,0
961625,287.80,805,765,0
961635,302.43,805,769,0
961645,316.75,805,765,0
961655,330.24,805,769,0
961665,341.78,805,765,0
961675,351.19,805,769,0
961685,357.86,805,764,0
961695,362.10,805,769,0
961705,363.70,805,765,0
961715,363.28,805,769,0
961725,360.84,805,765,0
961735,357.16,805,769,0
961745,352.40,805,765,0
961755,347.31,805,769,0
961765,341.99,805,765,0
961775,337.06,805,769,0
961785,332.50,805,765,0
961795,328.79,805,769,0
961805,325.60,805,765,0
961815,323.19,805,769,0
961825,321.25,805,765,0
961836,320.02,805,769,0
961846,319.20,805,764,0
961856,318.88,805,774,0
961866,318.75,805,759,0
961876,319.08,805,775,0
961886,319.66,805,764,0
961896,320.66,805,775,0
961906,321.88,805,760,0
961916,323.41,805,775,0
961926,325.09,805,764,0
961936,327.08,805,773,0
961946,329.07,805,760,0
961956,331.10,805,776,0
961966,332.96,805,764,0
961976,334.73,805,773,0
961986,336.10,805,761,0
961996,337.14,805,774,0
962007,337.87,805,755,0
962017,338.81,805,774,0
962027,340.67,805,752,0
962037,344.67,805,774,0
962048,352.18,805,752,0
962057,364.77,805,774,0
962067,384.21,805,752,0
962077,411.83,805,774,0
962097,448.31,814,773,0
962100,491.38,814,771,0
962109,537.63,814,760,0
962119,583.99,814,770,0
962129,627.96,814,761,0
962139,666.97,814,771,0
962149,699.04,814,759,0
962159,722.73,814,770,0
962169,739.31,814,762,0
962179,750.92,814,771,0
962189,759.04,814,759,0
962199,764.73,814,770,0
962209,768.71,814,762,0
962220,771.50,814,770,0
962230,772.25,814,763,0
962240,768.62,814,769,0
962250,759.47,814,764,0
962260,743.48,814,769,0
962270,720.66,814,763,0
962280,690.25,814,769,0
962290,652.59,814,764,0
962300,608.78,814,768,0
962310,562.48,814,762,0
962320,515.32,814,769,0
962330,469.92,814,764,0
962340,426.92,814,768,0
962350,388.54,814,762,0
962360,355.12,814,769,0
962370,328.17,814,763,0
962380,307.21,814,769,0
962391,293.09,814,764,0
962401,284.92,814,767,0
962411,282.93,814,766,0
962421,285.61,814,767,0
962432,292.75,814,767,0
962441,302.47,814,768,0
962451,314.46,814,766,0
962461,326.92,814,767,0
962471,339.59,814,768,0
962481,350.85,814,768,0
962491,360.84,814,766,0
962501,368.39,814,767,0
962511,374.10,814,767,0
962521,377.16,814,768,0
962531,378.35,814,766,0
962541,377.26,814,767,0
962551,374.95,814,767,0
962561,371.07,814,768,0
962571,366.72,814,766,0
962581,361.53,814,767,0
962591,356.53,814,767,0
962601,351.27,814,766,0
962611,346.65,814,766,0
962621,342.12,814,767,0
962631,338.53,814,767,0
962641,335.20,814,766,0
962651,332.87,814,766,0
962661,330.76,814,767,0
962671,329.64,814,767,0
962681,328.76,814,766,0
962691,328.75,814,766,0
962701,328.82,814,767,0
962711,329.69,814,767,0
962721,330.55,814,766,0
962732,332.10,814,768,0
962742,333.57,814,766,0
962752,335.54,814,768,0
962762,337.27,814,766,0
962772,339.29,814,768,0
962782,340.79,814,766,0
962792,342.39,814,768,0
962802,343.39,814,766,0
962812,344.26,814,768,0
962822,344.40,814,766,0
962832,344.71,814,768,0
962842,345.09,814,766,0
962852,347.04,814,768,0
962862,350.93,814,766,0
962872,358.88,814,768,0
962882,372.07,814,766,0
962892,392.66,814,768,0
962903,421.26,814,765,0
962922,458.90,826,765,0
962925,502.22,826,762,0
962934,548.39,826,769,0
962945,594.18,826,765,0
962955,637.11,826,774,0
962965,674.62,826,761,0
962975,705.08,826,780,0
962985,726.95,826,754,0
962995,742.27,826,773,0
963005,752.99,826,761,0
963015,760.49,826,776,0
963025,765.74,826,756,0
963035,769.42,826,773,0
963045,771.99,826,762,0
963055,773.80,826,776,0
963065,772.70,826,754,0
963075,767.13,826,773,0
963085,755.56,826,762,0
963095,737.05,826,776,0
963105,710.98,826,756,0
963116,677.30,826,775,0
963126,636.24,826,753,0
963136,590.57,826,773,0
963146,542.83,826,751,0
963156,495.44,826,774,0
963166,450.60,826,753,0
963176,410.01,826,773,0
963186,374.82,826,751,0
963196,345.73,826,773,0
963206,323.31,826,751,0
963216,307.49,826,773,0
963226,298.21,826,751,0
963236,294.68,826,772,0
963246,296.15,826,753,0
963256,301.63,826,774,0
963266,310.27,826,752,0
963276,320.82,826,772,0
963287,332.40,826,752,0
963297,343.72,826,773,0
963307,354.26,826,755,0
963317,363.18,826,770,0
963328,370.24,826,759,0
963337,375.01,826,771,0
963347,377.71,826,754,0
963357,378.14,826,771,0
963367,376.98,826,758,0
963377,374.16,826,771,0
963387,370.51,826,754,0
963397,365.94,826,771,0
963407,361.16,826,758,0
963417,356.10,826,772,0
963427,351.31,826,754,0
963437,346.55,826,771,0
963447,342.35,826,757,0
963457,338.39,826,771,0
963467,335.14,826,754,0
963477,332.19,826,770,0
963487,330.03,826,758,0
963497,328.22,826,770,0
963507,327.38,826,754,0
963517,326.97,826,771,0
963527,327.32,826,758,0
963537,327.95,826,770,0
963547,329.30,826,754,0
963557,330.71,826,771,0
963567,332.64,826,758,0
963577,334.33,826,770,0
963587,336.25,826,754,0
963597,337.76,826,771,0
963607,339.29,826,757,0
963617,340.14,826,769,0
963628,340.79,826,761,0
963638,340.59,826,769,0
963648,340.24,826,761,0
963658,339.40,826,769,0
963668,339.24,826,763,0
963678,340.02,826,769,0
963688,343.70,826,761,0
963698,351.25,826,769,0
963708,365.10,826,763,0
963718,385.94,826,769,0
963728,415.62,826,762,0
963747,454.05,825,762,0
963750,498.65,825,768,0
963759,545.64,825,769,0
963769,592.33,825,765,0
963779,635.65,825,768,0
963789,673.77,825,766,0
963799,704.44,825,768,0
963809,726.55,825,765,0
963819,741.98,825,769,0
963829,752.79,825,766,0
963840,760.35,825,767,0
963849,765.65,825,765,0
963859,769.35,825,768,0
963869,771.95,825,766,0
963879,773.76,825,767,0
963889,774.82,825,764,0
963899,772.26,825,768,0
963909,764.64,825,766,0
963919,750.26,825,767,0
963929,728.93,825,764,0
963939,699.68,825,768,0
963949,662.87,825,766,0
963959,618.60,825,767,0
963969,570.98,825,764,0
963979,521.91,825,768,0
963989,474.58,825,765,0
963999,429.88,825,767,0
964009,390.36,825,767,0
964019,356.35,825,768,0
964029,329.42,825,765,0
964039,309.02,825,767,0
964049,296.03,825,767,0
964059,289.12,825,768,0
964069,288.48,825,765,0
964079,292.45,825,767,0
964089,300.72,825,767,0
964099,311.30,825,768,0
964109,323.77,825,765,0
964119,336.14,825,767,0
964129,348.31,825,766,0
964140,358.67,825,766,0
964150,367.26,825,768,0
964160,373.05,825,766,0
964170,376.68,825,768,0
964180,377.55,825,766,0
964190,376.65,825,768,0
964200,373.67,825,766,0
964210,369.70,825,768,0
964220,364.60,825,766,0
964230,359.49,825,768,0
964240,354.12,825,766,0
964250,349.37,825,768,0
964260,344.89,825,765,0
964270,341.41,825,768,0
964280,338.37,825,766,0
964290,336.37,825,768,0
964300,334.72,825,766,0
964311,333.99,825,768,0
964321,333.56,825,766,0
964331,333.82,825,768,0
964341,334.18,825,765,0
964352,335.11,825,769,0
964361,335.98,825,766,0
964371,337.27,825,768,0
964381,338.30,825,765,0
964391,339.45,825,769,0
964401,340.13,825,766,0
964411,340.78,825,769,0
964421,340.84,825,765,0
964431,340.89,825,769,0
964441,340.71,825,766,0
964451,341.48,825,768,0
964461,343.82,825,765,0
964471,349.75,825,769,0
964481,360.11,825,766,0
964491,377.26,825,768,0
964501,402.43,825,766,0
964511,436.93,825,769,0
964531,478.91,783,768,0
964534,525.05,783,776,0
964543,571.96,783,764,0
964553,617.32,783,775,0
964563,658.15,783,756,0
964573,692.35,783,771,0
964583,718.13,783,764,0
964593,736.18,783,775,0
