Time,PPG,IBI,GSR,GSR_Event
119873,429.32,823,754,0
119876,464.84,823,757,0
119885,502.99,823,759,0
119895,541.99,823,756,0
119905,579.84,823,759,0
119915,614.86,823,756,0
119925,645.54,823,759,0
119936,670.97,823,757,0
119945,690.43,823,759,0
119955,703.25,823,756,0
119965,709.39,823,759,0
119975,709.40,823,757,0
119985,703.79,823,759,0
119995,693.40,823,756,0
120005,678.92,823,758,0
120015,661.16,823,757,0
120025,640.75,823,759,0
120035,618.37,823,756,0
120045,594.26,823,758,0
120055,568.90,823,756,0
120065,542.70,823,759,0
120075,516.13,823,756,0
120085,489.48,823,759,0
120095,463.23,823,756,0
120105,437.84,823,758,0
120115,414.06,823,756,0
120125,392.23,823,759,0
120135,372.83,823,756,0
120145,356.17,823,758,0
120155,342.57,823,756,0
120165,332.03,823,758,0
120175,324.69,823,756,0
120185,320.11,823,759,0
120195,318.19,823,756,0
120205,318.44,823,759,0
120215,320.53,823,756,0
120225,323.93,823,758,0
120236,328.19,823,757,0
120246,332.72,823,758,0
120256,337.35,823,756,0
120266,341.57,823,758,0
120276,345.34,823,757,0
120286,348.28,823,758,0
120296,350.43,823,756,0
120306,351.71,823,758,0
120316,352.31,823,757,0
120326,352.05,823,758,0
120336,351.18,823,756,0
120346,349.49,823,758,0
120356,347.29,823,757,0
120366,344.55,823,758,0
120376,341.55,823,757,0
120386,338.26,823,758,0
120396,335.01,823,757,0
120407,331.79,823,758,0
120417,328.98,823,757,0
120427,326.55,823,757,0
120437,324.75,823,758,0
120448,323.46,823,757,0
120457,322.89,823,757,0
120467,322.79,823,758,0
120477,323.28,823,758,0
120487,324.10,823,757,0
120497,325.31,823,757,0
120507,326.59,823,758,0
120517,327.96,823,758,0
120527,329.08,823,757,0
120537,330.17,823,757,0
120547,330.98,823,758,0
120557,331.76,823,758,0
120567,332.51,823,757,0
120577,333.82,823,757,0
120587,336.06,823,758,0
120597,340.15,823,758,0
120607,346.71,823,757,0
120617,356.87,823,758,0
120627,370.92,823,758,0
120637,389.72,823,757,0
120647,413.24,823,757,0
120667,441.50,793,757,0
120670,473.75,793,756,0
120679,508.80,793,759,0
120689,544.77,793,756,0
120699,580.45,793,759,0
120709,613.75,793,757,0
120719,643.27,793,758,0
120729,667.57,793,756,0
120739,685.79,793,759,0
120749,697.59,793,757,0
120759,703.20,793,759,0
120769,702.67,793,756,0
120779,696.77,793,759,0
120790,686.00,793,756,0
120799,671.34,793,758,0
120809,653.28,793,756,0
120819,632.58,793,759,0
120829,609.65,793,756,0
120839,585.37,793,759,0
120849,560.06,793,756,0
120859,534.28,793,759,0
120869,508.18,793,756,0
120879,482.50,793,759,0
120889,457.45,793,756,0
120899,433.74,793,759,0
120909,411.53,793,756,0
120919,391.45,793,758,0
120929,373.70,793,756,0
120939,358.79,793,759,0
120949,346.68,793,756,0
120960,337.65,793,759,0
120969,331.45,793,756,0
120979,328.10,793,759,0
120989,327.13,793,756,0
120999,328.33,793,759,0
121009,331.06,793,757,0
121019,335.07,793,758,0
121029,339.76,793,756,0
121039,344.89,793,759,0
121049,349.85,793,756,0
121059,354.57,793,759,0
121069,358.64,793,756,0
121079,362.05,793,759,0
121089,364.52,793,757,0
121099,366.21,793,758,0
121109,366.87,793,756,0
121119,366.87,793,759,0
121129,366.09,793,756,0
121139,364.87,793,758,0
121149,363.15,793,757,0
121159,361.22,793,759,0
121169,359.05,793,756,0
121179,356.98,793,758,0
121189,354.89,793,756,0
121199,352.99,793,759,0
121209,351.24,793,756,0
121219,349.84,793,758,0
121229,348.60,793,756,0
121239,347.65,793,759,0
121249,346.73,793,756,0
121260,345.91,793,759,0
121270,345.04,793,756,0
121280,344.21,793,759,0
121290,343.29,793,756,0
121300,342.43,793,759,0
121310,341.53,793,756,0
121320,340.81,793,759,0
121330,340.18,793,756,0
121340,339.79,793,759,0
121350,339.46,793,756,0
121360,339.54,793,759,0
121370,340.06,793,756,0
121380,341.59,793,759,0
121390,344.54,793,756,0
121400,349.82,793,759,0
121410,358.19,793,756,0
121420,370.73,793,759,0
121431,388.04,793,756,0
121450,410.70,784,755,0
121453,438.99,784,756,0
121462,472.16,784,759,0
121473,509.10,784,756,0
121483,548.33,784,760,0
121493,587.87,784,756,0
121503,625.54,784,759,0
121513,659.66,784,756,0
121523,688.78,784,760,0
121533,712.67,784,756,0
121543,730.81,784,759,0
121553,742.87,784,756,0
121563,748.91,784,760,0
121573,749.54,784,756,0
121583,745.05,784,759,0
121593,735.73,784,756,0
121603,721.84,784,759,0
121613,703.93,784,756,0
121623,682.70,784,759,0
121633,658.92,784,756,0
121644,633.18,784,759,0
121654,606.21,784,756,0
121664,578.46,784,758,0
121674,550.38,784,756,0
121684,522.50,784,759,0
121694,495.56,784,756,0
121704,470.11,784,758,0
121714,446.85,784,756,0
121724,426.19,784,759,0
121734,408.65,784,756,0
121744,394.40,784,758,0
121754,383.65,784,757,0
121764,376.21,784,758,0
121774,371.86,784,756,0
121784,370.19,784,759,0
121794,370.86,784,756,0
121804,373.26,784,759,0
121815,376.91,784,756,0
121825,381.09,784,758,0
121835,385.31,784,757,0
121845,388.94,784,759,0
121856,391.70,784,756,0
121865,393.16,784,758,0
121875,393.29,784,756,0
121885,392.09,784,759,0
121895,389.87,784,756,0
121905,386.87,784,758,0
121915,383.57,784,756,0
121925,380.05,784,759,0
121935,376.74,784,757,0
121945,373.64,784,758,0
121955,370.92,784,756,0
121965,368.37,784,758,0
121975,366.03,784,757,0
121985,363.75,784,759,0
121995,361.64,784,757,0
122005,359.43,784,758,0
122015,357.20,784,757,0
122025,354.74,784,758,0
122035,352.25,784,756,0
122045,349.56,784,759,0
122055,346.78,784,757,0
122065,343.84,784,758,0
122075,341.06,784,756,0
122085,338.43,784,758,0
122095,336.29,784,756,0
122105,334.57,784,758,0
122115,333.54,784,756,0
122125,333.04,784,758,0
122135,333.15,784,756,0
122145,333.58,784,758,0
122156,334.31,784,756,0
122166,334.94,784,758,0
122176,335.56,784,757,0
122186,336.08,784,758,0
122196,337.13,784,758,0
122206,338.97,784,758,0
122216,342.67,784,757,0
122226,349.11,784,758,0
122236,359.53,784,758,0
122246,374.59,784,758,0
122256,395.24,784,757,0
122266,421.57,784,758,0
122286,453.67,835,757,0
122289,490.88,835,756,0
122298,531.76,835,759,0
122308,573.40,835,756,0
122318,613.65,835,759,0
122328,650.49,835,757,0
122338,682.61,835,759,0
122348,709.09,835,756,0
122358,729.33,835,758,0
122369,743.63,835,756,0
122379,752.70,835,759,0
122389,756.65,835,756,0
122399,755.51,835,759,0
122409,749.10,835,756,0
122419,737.54,835,759,0
122429,720.58,835,756,0
122439,698.16,835,759,0
122449,671.16,835,756,0
122459,640.98,835,759,0
122469,608.63,835,756,0
122479,575.27,835,759,0
122489,541.59,835,755,0
122499,508.93,835,759,0
122509,478.01,835,756,0
122519,449.76,835,759,0
122529,424.72,835,756,0
122540,403.55,835,760,0
122550,386.58,835,755,0
122560,374.06,835,759,0
122570,365.69,835,755,0
122580,361.45,835,760,0
122590,360.76,835,756,0
122600,363.06,835,759,0
122610,367.59,835,755,0
122620,373.67,835,760,0
122630,380.50,835,756,0
122640,387.42,835,760,0
122650,393.68,835,755,0
122660,398.87,835,760,0
122670,402.68,835,756,0
122680,404.92,835,759,0
122690,405.42,835,755,0
122700,404.31,835,760,0
122711,401.64,835,755,0
122721,397.81,835,760,0
122731,393.02,835,755,0
122741,387.62,835,760,0
122752,381.90,835,755,0
122761,376.27,835,760,0
122771,370.88,835,755,0
122781,365.99,835,760,0
122791,361.66,835,755,0
122801,358.03,835,760,0
122811,355.11,835,755,0
122821,352.85,835,760,0
122831,351.14,835,755,0
122841,350.02,835,760,0
122851,349.37,835,755,0
122861,349.05,835,760,0
122871,349.03,835,755,0
122881,349.19,835,759,0
122891,349.48,835,755,0
122901,349.81,835,760,0
122911,350.21,835,755,0
122921,351.00,835,760,0
122931,352.54,835,755,0
122941,355.55,835,760,0
122951,360.96,835,755,0
122961,369.89,835,760,0
122971,383.21,835,755,0
122981,402.00,835,760,0
122991,426.86,835,755,0
123001,457.93,835,760,0
123011,494.34,835,755,0
123030,534.78,745,755,0
123033,576.20,745,756,0
123042,616.38,745,760,0
123052,653.17,745,755,0
123062,685.05,745,760,0
123072,711.00,745,756,0
123082,730.85,745,759,0
123092,744.78,745,756,0
123102,753.97,745,760,0
123112,758.31,745,756,0
123122,757.45,745,759,0
123132,751.01,745,756,0
123142,738.97,745,760,0
123152,721.02,745,755,0
123162,696.93,745,760,0
123172,667.21,745,755,0
123182,633.50,745,760,0
123192,597.18,745,755,0
123202,559.45,745,760,0
123212,521.39,745,755,0
123223,484.16,745,759,0
123233,449.01,745,756,0
123243,416.99,745,759,0
123253,388.75,745,756,0
123264,365.00,745,759,0
123273,346.27,745,756,0
123283,332.65,745,759,0
123293,324.05,745,756,0
123303,320.01,745,759,0
123313,319.96,745,756,0
123323,323.19,745,759,0
123333,328.87,745,756,0
123343,336.20,745,759,0
123353,344.45,745,756,0
123363,352.89,745,759,0
123373,360.89,745,756,0
123383,367.91,745,759,0
123393,373.59,745,756,0
123403,377.66,745,759,0
123413,379.90,745,756,0
123423,380.28,745,759,0
123433,378.99,745,756,0
123443,376.30,745,759,0
123453,372.48,745,756,0
123463,367.71,745,759,0
123473,362.39,745,756,0
123483,356.83,745,759,0
123493,351.40,745,756,0
123503,346.22,745,759,0
123513,341.61,745,756,0
123523,337.70,745,759,0
123533,334.75,745,756,0
123543,332.77,745,759,0
123553,331.94,745,756,0
123564,332.13,745,759,0
123574,333.42,745,756,0
123584,335.52,745,758,0
123594,338.45,745,757,0
123604,341.92,745,759,0
123614,345.80,745,756,0
123624,349.72,745,758,0
123634,353.53,745,756,0
123644,356.84,745,759,0
123654,359.63,745,756,0
123664,361.71,745,759,0
123674,363.56,745,757,0
123684,365.66,745,758,0
123694,369.02,745,757,0
123704,374.67,745,758,0
123714,384.16,745,757,0
123724,398.68,745,758,0
123735,419.60,745,757,0
123745,447.41,745,758,0
123755,482.17,745,757,0
123774,522.15,744,757,0
123778,564.36,744,758,0
123787,606.00,744,757,0
123797,644.87,744,758,0
123807,679.02,744,757,0
123817,707.09,744,759,0
123827,728.15,744,757,0
123837,742.93,744,758,0
123847,753.24,744,757,0
123857,760.49,744,759,0
123867,765.57,744,756,0
123877,769.13,744,758,0
123887,771.62,744,757,0
123897,772.85,744,758,0
123907,770.88,744,757,0
123917,764.19,744,759,0
123927,751.27,744,757,0
123937,731.35,744,759,0
123948,703.73,744,756,0
123958,668.45,744,759,0
123968,626.19,744,756,0
123978,579.68,744,759,0
123988,531.34,744,756,0
123998,483.88,744,759,0
124008,439.18,744,756,0
124018,399.09,744,759,0
124028,364.69,744,756,0
124038,336.84,744,759,0
124048,315.68,744,756,0
124058,301.33,744,759,0
124068,293.13,744,756,0
124078,290.52,744,759,0
124088,292.46,744,756,0
124098,298.15,744,759,0
124108,306.42,744,756,0
124119,316.45,744,759,0
124129,327.07,744,756,0
124139,337.59,744,759,0
124149,347.23,744,756,0
124160,355.56,744,759,0
124169,362.04,744,756,0
124179,366.57,744,759,0
124189,368.97,744,756,0
124199,369.49,744,759,0
124209,368.23,744,756,0
124219,365.59,744,759,0
124229,361.81,744,756,0
124239,357.37,744,759,0
124249,352.54,744,756,0
124259,347.71,744,759,0
124269,343.04,744,756,0
124279,338.87,744,760,0
124289,335.22,744,756,0
124299,332.33,744,759,0
124309,330.13,744,756,0
124319,328.80,744,759,0
124329,328.31,744,756,0
124339,328.69,744,759,0
124349,329.72,744,756,0
124359,331.48,744,759,0
124369,333.65,744,756,0
124379,336.11,744,759,0
124389,338.48,744,756,0
124399,340.69,744,759,0
124409,342.58,744,756,0
124419,344.42,744,759,0
124429,346.44,744,756,0
124439,349.48,744,759,0
124449,354.48,744,756,0
124460,362.82,744,759,0
124470,375.77,744,756,0
124480,394.78,744,759,0
124490,420.74,744,756,0
124510,454.07,735,755,0
124513,494.21,735,757,0
124522,537.77,735,760,0
124532,581.90,735,756,0
124542,624.06,735,759,0
124552,662.01,735,756,0
124562,694.11,735,759,0
124572,719.10,735,756,0
124582,736.56,735,759,0
124592,748.78,735,756,0
124602,757.29,735,759,0
124612,763.24,735,756,0
124622,767.41,735,759,0
124632,770.33,735,756,0
124642,772.38,735,759,0
124652,772.13,735,756,0
124662,767.42,735,759,0
124673,756.62,735,757,0
124683,738.39,735,759,0
124693,712.05,735,757,0
124703,677.19,735,759,0
124713,633.98,735,757,0
124723,584.65,735,759,0
124733,532.30,735,757,0
124743,479.50,735,758,0
124753,428.99,735,757,0
124763,382.66,735,759,0
124773,342.27,735,757,0
124783,308.89,735,759,0
124793,283.16,735,757,0
124803,265.16,735,759,0
124813,254.78,735,756,0
124823,251.20,735,758,0
124833,253.59,735,757,0
124844,260.61,735,758,0
124854,271.14,735,757,0
124864,283.70,735,758,0
124874,297.33,735,757,0
124884,310.86,735,758,0
124894,323.55,735,757,0
124904,334.74,735,759,0
124914,344.20,735,757,0
124924,351.60,735,758,0
124934,357.12,735,757,0
124944,360.64,735,759,0
124954,362.59,735,757,0
124964,362.97,735,758,0
124974,362.17,735,757,0
124984,360.27,735,759,0
124994,357.66,735,757,0
125004,354.38,735,758,0
125015,350.84,735,757,0
125025,346.99,735,758,0
125035,343.35,735,757,0
125045,339.90,735,757,0
125056,336.97,735,758,0
125065,334.54,735,758,0
125075,332.88,735,758,0
125085,331.93,735,757,0
125095,331.95,735,758,0
125105,332.69,735,758,0
125115,334.33,735,758,0
125125,336.54,735,758,0
125135,339.42,735,758,0
125145,342.55,735,758,0
125155,345.86,735,757,0
125165,348.90,735,758,0
125175,351.72,735,758,0
125185,353.86,735,758,0
125195,355.57,735,758,0
125205,356.69,735,758,0
125215,357.85,735,758,0
125225,359.61,735,757,0
125235,363.07,735,757,0
125245,369.26,735,758,0
125255,379.94,735,758,0
125265,396.29,735,757,0
125275,419.47,735,758,0
125294,449.97,785,757,0
125297,488.17,785,759,0
125306,530.59,785,757,0
125316,574.34,785,759,0
125326,616.67,785,757,0
125336,655.38,785,758,0
125346,688.74,785,757,0
125356,715.35,785,758,0
125366,733.97,785,757,0
125376,747.05,785,759,0
125386,756.25,785,757,0
125396,762.73,785,759,0
125406,767.23,785,757,0
125416,770.37,785,758,0
125426,772.53,785,757,0
125436,774.09,785,759,0
125446,772.69,785,757,0
125456,766.18,785,758,0
125466,752.67,785,757,0
125476,731.08,785,759,0
125486,700.93,785,757,0
125496,662.04,785,758,0
125506,614.41,785,757,0
125516,561.19,785,759,0
125527,505.46,785,757,0
125537,450.46,785,759,0
125547,398.64,785,757,0
125557,351.95,785,759,0
125568,311.93,785,756,0
125577,279.77,785,759,0
125587,255.80,785,757,0
125597,240.17,785,759,0
125607,232.19,785,757,0
125617,231.02,785,759,0
125627,235.30,785,757,0
125637,243.91,785,759,0
125647,255.42,785,756,0
125657,268.67,785,758,0
125667,282.31,785,757,0
125677,295.59,785,759,0
125687,307.67,785,756,0
125697,318.23,785,759,0
125707,326.81,785,757,0
125717,333.60,785,759,0
125727,338.56,785,757,0
125737,342.04,785,759,0
125747,344.13,785,757,0
125757,345.24,785,759,0
125767,345.47,785,757,0
125777,345.20,785,759,0
125787,344.37,785,757,0
125797,343.27,785,759,0
125807,341.86,785,757,0
125817,340.32,785,759,0
125827,338.64,785,757,0
125837,337.12,785,759,0
125847,335.58,785,756,0
125857,334.25,785,759,0
125868,333.06,785,757,0
125878,332.23,785,759,0
125888,331.60,785,756,0
125898,331.25,785,759,0
125908,330.96,785,756,0
125918,330.89,785,760,0
125928,330.88,785,756,0
125938,330.96,785,759,0
125948,330.97,785,756,0
125958,331.06,785,759,0
125968,331.09,785,756,0
125978,331.10,785,759,0
125988,330.94,785,756,0
125998,330.70,785,759,0
126008,330.28,785,756,0
126018,329.90,785,760,0
126028,329.76,785,756,0
126039,330.51,785,760,0
126049,332.97,785,756,0
126059,338.38,785,760,0
126069,348.08,785,756,0
126080,363.66,785,760,0
126098,386.05,804,760,0
126101,416.89,804,760,0
126110,455.97,804,756,0
126120,500.55,804,760,0
126130,547.31,804,755,0
126140,593.38,804,760,0
126150,636.21,804,755,0
126160,673.94,804,760,0
126170,704.18,804,755,0
126180,726.15,804,760,0
126190,741.53,804,756,0
126200,752.30,804,760,0
126210,759.88,804,755,0
126220,765.15,804,760,0
126230,768.83,804,755,0
126240,771.41,804,760,0
126251,773.26,804,756,0
126260,774.51,804,760,0
126270,772.09,804,756,0
126280,763.79,804,760,0
126290,748.12,804,756,0
126300,724.30,804,760,0
126310,691.77,804,755,0
126320,650.48,804,760,0
126330,600.92,804,756,0
126340,547.20,804,760,0
126350,492.54,804,755,0
126360,439.66,804,760,0
126370,390.65,804,756,0
126380,347.34,804,760,0
126390,311.11,804,755,0
126400,282.75,804,760,0
126410,262.51,804,756,0
126420,250.27,804,760,0
126430,245.48,804,755,0
126440,247.26,804,760,0
126450,254.64,804,755,0
126460,266.32,804,760,0
126470,280.88,804,755,0
126480,296.99,804,760,0
126490,313.45,804,756,0
126500,329.34,804,760,0
126510,343.90,804,755,0
126520,356.44,804,760,0
126530,366.64,804,756,0
126540,374.42,804,760,0
126551,379.78,804,755,0
126561,382.84,804,760,0
126571,383.88,804,756,0
126581,383.01,804,760,0
126592,380.65,804,756,0
126601,377.07,804,760,0
126611,372.64,804,756,0
126621,367.52,804,759,0
126631,362.09,804,756,0
126641,356.58,804,760,0
126651,351.39,804,755,0
126661,346.64,804,759,0
126671,342.64,804,756,0
126681,339.40,804,760,0
126691,337.18,804,756,0
126701,335.88,804,760,0
126711,335.53,804,756,0
126721,335.93,804,760,0
126731,337.02,804,756,0
126741,338.47,804,759,0
126751,340.13,804,756,0
126761,341.76,804,759,0
126771,343.42,804,756,0
126781,345.18,804,760,0
126791,347.61,804,756,0
126801,351.50,804,759,0
126811,357.95,804,756,0
126821,368.38,804,760,0
126831,384.47,804,756,0
126841,407.55,804,760,0
126851,438.42,804,756,0
126870,477.29,772,755,0
126873,520.70,772,757,0
126882,565.79,772,759,0
126892,609.87,772,757,0
126902,650.37,772,759,0
126912,685.14,772,757,0
126922,712.83,772,759,0
126932,732.29,772,757,0
126942,745.96,772,759,0
126952,755.49,772,757,0
126962,762.11,772,759,0
126972,766.71,772,757,0
126982,769.97,772,759,0
126992,772.25,772,756,0
127002,773.85,772,759,0
127012,772.82,772,757,0
127022,767.09,772,760,0
127032,754.85,772,756,0
127042,734.62,772,759,0
127052,705.68,772,756,0
127063,667.67,772,759,0
127073,620.84,772,756,0
127083,567.79,772,759,0
127093,511.67,772,757,0
127104,455.32,772,758,0
127113,401.70,772,756,0
127123,352.72,772,758,0
127133,310.20,772,757,0
127143,275.21,772,758,0
127153,248.49,772,756,0
127163,230.22,772,758,0
127173,220.34,772,757,0
127183,218.01,772,758,0
127193,222.38,772,756,0
127203,232.08,772,758,0
127213,245.94,772,757,0
127223,262.46,772,758,0
127233,280.36,772,756,0
127243,298.25,772,759,0
127253,315.24,772,757,0
127263,330.38,772,759,0
127273,343.21,772,757,0
127283,353.17,772,759,0
127293,360.32,772,757,0
127303,364.51,772,758,0
127313,366.16,772,757,0
127323,365.51,772,758,0
127333,363.09,772,757,0
127343,359.29,772,758,0
127353,354.66,772,757,0
127363,349.49,772,759,0
127373,344.29,772,756,0
127383,339.14,772,759,0
127393,334.34,772,757,0
127404,330.00,772,758,0
127414,326.36,772,757,0
127424,323.29,772,758,0
127434,320.98,772,758,0
127444,319.31,772,757,0
127454,318.49,772,757,0
127464,318.26,772,758,0
127474,318.74,772,758,0
127484,319.63,772,757,0
127494,321.07,772,757,0
127504,322.76,772,758,0
127514,324.81,772,758,0
127524,326.88,772,757,0
127534,329.10,772,757,0
127544,331.13,772,758,0
127554,333.02,772,758,0
127564,334.47,772,757,0
127575,335.57,772,758,0
127585,336.17,772,757,0
127595,336.63,772,758,0
127605,337.39,772,757,0
127616,339.67,772,759,0
127625,344.61,772,757,0
127635,354.20,772,759,0
127645,370.21,772,757,0
127655,394.58,772,759,0
127665,428.05,772,757,0
127684,469.78,814,757,0
127687,516.00,814,756,0
127696,563.74,814,759,0
127706,609.98,814,757,0
127716,652.03,814,759,0
127726,687.29,814,757,0
127736,714.37,814,759,0
127746,733.33,814,757,0
127756,746.65,814,759,0
127766,755.97,814,756,0
127776,762.49,814,759,0
127787,767.06,814,756,0
127796,770.30,814,759,0
127806,772.57,814,756,0
127816,774.11,814,759,0
127826,775.15,814,756,0
127836,775.92,814,759,0
127846,775.21,814,757,0
127856,769.62,814,759,0
127866,756.53,814,756,0
127876,734.73,814,759,0
127886,703.14,814,756,0
127896,661.57,814,759,0
127906,610.23,814,756,0
127916,551.53,814,759,0
127926,489.96,814,756,0
127936,429.63,814,759,0
127946,373.34,814,756,0
127956,323.91,814,759,0
127966,282.96,814,756,0
127976,251.73,814,758,0
127986,230.21,814,756,0
127996,218.45,814,759,0
128006,215.44,814,756,0
128016,220.20,814,759,0
128026,231.07,814,756,0
128036,246.60,814,759,0
128046,264.98,814,757,0
128056,284.74,814,759,0
128066,304.32,814,756,0
128076,322.87,814,759,0
128087,339.19,814,756,0
128097,352.85,814,759,0
128107,363.31,814,756,0
128117,370.54,814,760,0
128128,374.50,814,756,0
128137,375.55,814,760,0
128147,373.88,814,756,0
128157,370.19,814,759,0
128167,364.82,814,756,0
128177,358.49,814,760,0
128187,351.61,814,756,0
128197,344.74,814,760,0
128207,338.13,814,756,0
128217,332.14,814,759,0
128227,326.87,814,756,0
128237,322.58,814,760,0
128247,319.23,814,756,0
128257,316.98,814,759,0
128267,315.66,814,759,0
128277,315.42,814,759,0
128287,316.15,814,756,0
128297,317.82,814,760,0
128307,320.23,814,756,0
128317,323.25,814,759,0
128327,326.56,814,756,0
128337,330.08,814,760,0
128347,333.35,814,756,0
128357,336.25,814,760,0
128367,338.53,814,756,0
128377,340.30,814,760,0
128387,341.84,814,756,0
128397,343.94,814,760,0
128407,347.69,814,756,0
128417,354.77,814,760,0
128428,366.88,814,757,0
128438,386.03,814,762,0
128448,413.75,814,758,0
128458,450.85,814,764,0
128468,494.31,814,756,0
128487,540.93,803,756,0
128490,587.67,803,757,0
128499,631.78,803,761,0
128509,670.63,803,757,0
128519,702.11,803,761,0
128529,724.75,803,757,0
128539,740.64,803,761,0
128549,751.76,803,761,0
128559,759.55,803,760,0
128569,765.04,803,757,0
128579,768.89,803,760,0
128589,771.58,803,756,0
128599,773.46,803,760,0
128609,774.78,803,756,0
128619,775.70,803,760,0
128629,772.71,803,756,0
128640,763.19,803,760,0
128649,745.74,803,755,0
128659,719.03,803,760,0
128669,682.51,803,755,0
128679,636.15,803,759,0
128689,580.74,803,755,0
128699,520.69,803,761,0
128709,459.80,803,755,0
128719,400.93,803,759,0
128729,346.91,803,755,0
128739,299.83,803,759,0
128749,261.23,803,755,0
128759,231.72,803,759,0
128769,211.62,803,755,0
128779,200.80,803,760,0
128789,198.55,803,755,0
128799,203.65,803,760,0
128809,214.73,803,756,0
128819,229.98,803,760,0
128829,247.73,803,755,0
128839,266.37,803,759,0
128849,284.43,803,756,0
128859,300.80,803,760,0
128869,314.62,803,755,0
128879,325.36,803,761,0
128889,332.92,803,755,0
128899,337.32,803,760,0
128909,338.77,803,758,0
128919,337.55,803,762,0
128929,334.04,803,755,0
128940,328.63,803,759,0
128950,321.71,803,756,0
128960,313.70,803,759,0
128970,305.05,803,756,0
128980,296.16,803,759,0
128990,287.46,803,755,0
129000,279.18,803,759,0
129010,271.67,803,755,0
129020,264.95,803,759,0
129030,259.18,803,755,0
129040,254.16,803,760,0
129050,249.95,803,756,0
129060,246.49,803,759,0
129070,243.99,803,756,0
129080,242.41,803,760,0
129090,242.07,803,756,0
129100,242.95,803,759,0
129111,245.32,803,756,0
129121,248.95,803,759,0
129131,253.85,803,756,0
129141,259.55,803,759,0
129152,265.95,803,756,0
129161,272.52,803,759,0
129171,279.18,803,757,0
129181,285.42,803,759,0
129191,291.25,803,757,0
129201,296.23,803,759,0
129211,300.41,803,756,0
129221,303.41,803,759,0
129231,305.43,803,758,0
129241,306.42,803,759,0
129251,307.19,803,757,0
129261,308.59,803,760,0
129271,312.36,803,757,0
129281,320.05,803,760,0
129291,334.01,803,758,0
129301,356.20,803,760,0
129311,388.63,803,757,0
129331,431.17,843,757,0
129334,479.89,843,760,0
129343,531.14,843,759,0
129353,581.92,843,759,0
129363,629.13,843,758,0
129373,670.02,843,758,0
129383,702.12,843,759,0
129393,724.58,843,759,0
129403,740.31,843,758,0
129413,751.31,843,758,0
129423,759.02,843,759,0
129433,764.41,843,758,0
129443,768.19,843,759,0
129453,770.83,843,758,0
129463,772.73,843,759,0
129473,774.05,843,758,0
129483,774.98,843,762,0
129494,775.63,843,758,0
129503,776.08,843,758,0
129513,772.03,843,758,0
129523,760.32,843,757,0
129533,738.97,843,758,0
129543,707.31,843,758,0
129553,665.09,843,757,0
129563,612.47,843,757,0
129573,550.53,843,758,0
129583,485.02,843,758,0
129593,420.72,843,758,0
129603,361.24,843,758,0
129613,309.18,843,758,0
129623,266.27,843,758,0
129633,234.00,843,758,0
129643,212.62,843,758,0
129653,201.80,843,758,0
129664,200.62,843,757,0
129673,207.72,843,758,0
129683,221.22,843,758,0
129693,239.54,843,758,0
129703,260.63,843,757,0
129713,282.73,843,758,0
129723,304.11,843,758,0
129733,323.71,843,758,0
129743,340.68,843,758,0
129753,354.70,843,758,0
129763,365.42,843,758,0
129773,372.97,843,758,0
129783,377.39,843,758,0
129793,379.20,843,758,0
129803,378.50,843,758,0
129813,375.78,843,758,0
129823,371.17,843,758,0
129833,365.21,843,759,0
129843,358.20,843,758,0
129853,350.77,843,758,0
129863,343.12,843,758,0
129873,335.80,843,758,0
129883,329.00,843,759,0
129893,323.17,843,758,0
129903,318.32,843,758,0
129913,314.67,843,758,0
129923,312.11,843,758,0
129933,310.79,843,757,0
129943,310.55,843,758,0
129953,311.42,843,758,0
129964,313.01,843,757,0
129974,315.36,843,758,0
129984,318.08,843,757,0
129994,321.23,843,759,0
130004,324.50,843,757,0
130014,327.91,843,759,0
130024,331.19,843,757,0
130034,334.44,843,759,0
130044,337.35,843,757,0
130054,340.11,843,758,0
130064,342.48,843,757,0
130074,344.74,843,759,0
130084,347.22,843,757,0
130094,350.92,843,759,0
130104,357.12,843,757,0
130114,367.80,843,759,0
130124,384.79,843,757,0
130135,410.18,843,759,0
130145,445.27,843,757,0
130155,487.36,843,759,0
130174,533.24,844,759,0
130178,580.05,844,760,0
130187,624.86,844,756,0
130197,664.98,844,761,0
130207,697.86,844,756,0
130217,721.60,844,760,0
130227,738.26,844,756,0
130237,749.93,844,760,0
130247,758.09,844,756,0
130257,763.81,844,760,0
130267,767.81,844,756,0
130277,770.65,844,760,0
130287,772.68,844,756,0
130297,774.06,844,760,0
130307,775.07,844,756,0
130317,775.82,844,760,0
130327,776.35,844,756,0
130337,774.40,844,761,0
130348,766.57,844,756,0
130358,750.50,844,760,0
130368,724.80,844,756,0
130378,689.03,844,760,0
130388,643.47,844,756,0
130398,589.11,844,761,0
130408,529.34,844,756,0
130418,468.89,844,760,0
130428,411.71,844,756,0
130438,360.80,844,760,0
130448,318.13,844,756,0
130458,284.83,844,760,0
130468,261.31,844,756,0
130478,247.38,844,760,0
130488,242.38,844,756,0
130498,245.22,844,760,0
130508,254.50,844,756,0
130519,268.45,844,760,0
130529,285.37,844,756,0
130539,303.39,844,760,0
130549,321.10,844,756,0
130560,337.23,844,760,0
130569,350.87,844,756,0
130579,361.45,844,760,0
130589,368.78,844,756,0
130599,372.83,844,760,0
130609,373.99,844,756,0
130619,372.62,844,760,0
130629,369.27,844,756,0
130639,364.26,844,760,0
130649,358.22,844,756,0
130659,351.60,844,760,0
130669,344.82,844,756,0
130679,338.10,844,760,0
130689,331.86,844,756,0
130699,326.24,844,760,0
130709,321.63,844,756,0
130719,317.97,844,760,0
130729,315.36,844,756,0
130739,313.75,844,760,0
130749,313.14,844,756,0
130759,313.36,844,760,0
130769,314.32,844,756,0
130779,315.72,844,760,0
130789,317.44,844,756,0
130799,319.28,844,760,0
130809,321.29,844,756,0
130819,323.35,844,760,0
130829,325.47,844,756,0
130839,327.56,844,760,0
130849,329.75,844,756,0
130860,331.92,844,760,0
130870,334.09,844,757,0
130880,335.99,844,760,0
130890,337.58,844,757,0
130900,338.56,844,759,0
130910,338.99,844,756,0
130920,338.78,844,760,0
130930,338.55,844,757,0
130940,339.20,844,759,0
130950,342.14,844,756,0
130960,349.25,844,759,0
130970,362.93,844,757,0
130980,385.33,844,759,0
130990,417.84,844,756,0
131009,459.29,835,756,0
131012,506.05,835,758,0
131021,554.93,835,759,0
131031,602.82,835,757,0
131041,646.59,835,759,0
131051,683.44,835,757,0
131061,711.51,835,759,0
131072,731.16,835,757,0
131081,744.91,835,759,0
131091,754.54,835,757,0
131101,761.32,835,759,0
131111,766.07,835,757,0
131121,769.43,835,759,0
131131,771.83,835,757,0
131141,773.55,835,759,0
131151,774.76,835,757,0
131161,775.60,835,759,0
131171,776.19,835,757,0
131181,776.61,835,759,0
131191,776.85,835,757,0
131201,775.23,835,759,0
131211,767.92,835,757,0
131221,752.04,835,759,0
131231,726.06,835,757,0
131241,689.18,835,759,0
131251,641.99,835,757,0
131261,585.08,835,759,0
131271,521.62,835,757,0
131281,457.02,835,759,0
131291,396.16,835,757,0
131301,342.37,835,759,0
131311,298.24,835,757,0
131321,264.74,835,759,0
131331,242.45,835,757,0
131341,230.87,835,759,0
131351,229.11,835,758,0
131361,235.42,835,759,0
131372,248.15,835,758,0
131382,265.12,835,759,0
131392,284.54,835,758,0
131402,304.56,835,758,0
131412,323.72,835,759,0
131422,340.65,835,759,0
131432,354.64,835,758,0
131442,364.95,835,759,0
131452,371.61,835,759,0
131462,374.64,835,759,0
131472,374.62,835,758,0
131482,371.90,835,758,0
131492,367.35,835,758,0
131502,361.41,835,759,0
131512,354.99,835,758,0
131522,348.35,835,758,0
131532,341.99,835,759,0
131543,335.99,835,758,0
131553,330.72,835,759,0
131563,326.01,835,758,0
131573,322.06,835,759,0
131584,318.66,835,757,0
131593,316.10,835,759,0
131603,314.31,835,757,0
131613,313.53,835,759,0
131623,313.67,835,757,0
131633,314.93,835,759,0
131643,317.05,835,757,0
131653,320.08,835,759,0
131663,323.61,835,758,0
131673,327.50,835,759,0
131683,331.29,835,757,0
131693,334.85,835,760,0
131703,337.76,835,757,0
131713,340.06,835,759,0
131723,341.42,835,757,0
131733,341.93,835,759,0
131743,341.53,835,758,0
131753,340.47,835,759,0
131763,338.74,835,757,0
131773,336.72,835,759,0
131783,334.45,835,757,0
131793,332.43,835,759,0
131803,330.76,835,757,0
131813,330.06,835,759,0
131823,330.85,835,757,0
131833,334.37,835,760,0
131843,341.63,835,758,0
131853,354.56,835,759,0
131863,374.79,835,758,0
131883,404.25,873,757,0
131886,443.61,873,757,0
131895,489.07,873,760,0
131905,537.30,873,756,0
131915,585.64,873,760,0
131926,631.09,873,756,0
131935,671.01,873,760,0
131945,702.85,873,756,0
131955,725.09,873,760,0
131965,740.67,873,756,0
131975,751.61,873,760,0
131985,759.31,873,757,0
131995,764.75,873,760,0
132005,768.55,873,756,0
132015,771.21,873,760,0
132025,773.12,873,756,0
132035,774.46,873,760,0
132045,775.35,873,757,0
132055,775.97,873,760,0
132065,776.37,873,757,0
132075,774.97,873,760,0
132085,768.25,873,756,0
132096,753.65,873,760,0
132105,730.01,873,757,0
132115,696.54,873,760,0
132125,653.09,873,756,0
132135,600.31,873,760,0
132145,541.03,873,757,0
132155,480.12,873,760,0
132165,421.58,873,756,0
132175,368.35,873,760,0
132185,322.73,873,757,0
132195,286.43,873,760,0
132205,260.07,873,756,0
132215,243.59,873,759,0
132225,236.34,873,757,0
132235,237.48,873,760,0
132245,245.44,873,756,0
132255,258.81,873,760,0
132265,275.75,873,757,0
132275,294.68,873,760,0
132285,314.02,873,757,0
132295,332.61,873,760,0
132305,349.19,873,757,0
132315,363.15,873,760,0
132325,373.82,873,757,0
132335,381.11,873,760,0
132345,385.11,873,757,0
132355,386.23,873,760,0
132365,384.83,873,757,0
132375,381.58,873,760,0
132385,376.91,873,756,0
132396,371.49,873,760,0
132406,365.69,873,757,0
132416,359.91,873,760,0
132426,354.28,873,756,0
132436,349.10,873,760,0
132446,344.44,873,756,0
132456,340.49,873,760,0
132466,337.30,873,756,0
132476,334.98,873,760,0
132486,333.49,873,756,0
132496,332.87,873,760,0
132506,333.04,873,756,0
132516,333.84,873,760,0
132526,335.09,873,756,0
132536,336.65,873,760,0
132546,338.25,873,756,0
132556,339.89,873,760,0
132567,341.42,873,756,0
132577,342.84,873,760,0
132587,344.22,873,756,0
132597,345.57,873,760,0
132608,346.85,873,756,0
132617,348.14,873,760,0
132627,349.30,873,756,0
132637,350.28,873,761,0
132647,350.92,873,756,0
132657,351.25,873,760,0
132667,351.52,873,756,0
132677,352.30,873,760,0
132687,354.83,873,756,0
132697,360.45,873,761,0
132707,371.16,873,756,0
132717,389.15,873,761,0
132727,416.41,873,756,0
132746,453.57,864,756,0
132749,497.16,864,757,0
132758,543.82,864,760,0
132768,590.81,864,757,0
132779,635.14,864,760,0
132788,674.01,864,756,0
132798,704.91,864,761,0
132808,726.58,864,756,0
132818,741.70,864,760,0
132828,752.29,864,756,0
132838,759.75,864,760,0
132848,765.01,864,757,0
132858,768.74,864,760,0
132868,771.39,864,757,0
132878,773.28,864,761,0
132888,774.66,864,757,0
132898,775.62,864,761,0
132908,776.29,864,757,0
132918,774.92,864,761,0
132928,768.34,864,757,0
132938,754.10,864,760,0
132948,730.67,864,757,0
132958,697.64,864,760,0
132968,654.89,864,757,0
132978,602.77,864,760,0
132988,544.12,864,757,0
132998,483.53,864,760,0
133008,425.00,864,756,0
133018,371.68,864,760,0
133028,325.71,864,756,0
133038,288.64,864,760,0
133048,261.58,864,757,0
133058,244.65,864,760,0
133068,237.38,864,757,0
133079,238.81,864,760,0
133089,247.65,864,757,0
133099,262.11,864,760,0
133109,280.55,864,757,0
133120,300.96,864,760,0
133129,321.63,864,757,0
133139,340.98,864,760,0
133149,357.92,864,757,0
133159,371.40,864,760,0
133169,381.18,864,757,0
133179,387.04,864,760,0
133189,389.34,864,757,0
133199,388.47,864,760,0
133209,385.20,864,757,0
133219,380.04,864,760,0
133229,373.81,864,757,0
133239,366.93,864,759,0
133249,360.05,864,757,0
133259,353.39,864,760,0
133269,347.27,864,757,0
133279,341.71,864,760,0
133289,336.95,864,757,0
133299,332.94,864,760,0
133309,329.83,864,757,0
133319,327.52,864,760,0
133329,326.12,864,757,0
133339,325.53,864,760,0
133349,325.80,864,757,0
133359,326.72,864,760,0
133369,328.34,864,757,0
133379,330.34,864,760,0
133389,332.60,864,757,0
133399,334.82,864,760,0
133409,337.10,864,757,0
133420,339.17,864,760,0
133430,341.13,864,757,0
133440,342.85,864,759,0
133450,344.57,864,758,0
133460,346.20,864,759,0
133470,347.98,864,757,0
133480,349.70,864,759,0
133490,351.46,864,757,0
133500,353.04,864,759,0
133510,354.44,864,757,0
133520,355.29,864,759,0
133530,355.68,864,757,0
133540,355.35,864,759,0
133550,354.56,864,757,0
133560,353.45,864,759,0
133570,352.84,864,758,0
133580,353.57,864,759,0
133591,357.43,864,758,0
133601,366.17,864,759,0
133611,382.11,864,758,0
133630,407.06,884,758,0
133634,442.96,884,760,0
133643,485.87,884,757,0
133653,532.71,884,760,0
133663,580.41,884,757,0
133673,626.06,884,760,0
133683,666.76,884,758,0
133693,699.96,884,759,0
133703,723.24,884,757,0
133713,739.58,884,760,0
133723,751.07,884,758,0
133733,759.10,884,760,0
133743,764.77,884,757,0
133753,768.70,884,760,0
133763,771.40,884,757,0
133773,773.30,884,759,0
133783,774.62,884,758,0
133793,775.55,884,760,0
133804,776.20,884,757,0
133814,776.65,884,760,0
133824,777.01,884,757,0
133834,773.62,884,761,0
133844,763.19,884,756,0
133854,744.02,884,760,0
133864,714.74,884,757,0
133874,675.05,884,760,0
133884,625.23,884,757,0
133894,566.41,884,760,0
133904,503.41,884,757,0
133914,441.10,884,760,0
133924,382.87,884,756,0
133934,331.87,884,760,0
133944,289.99,884,757,0
133954,258.54,884,760,0
133964,237.51,884,756,0
133975,226.85,884,760,0
133985,225.57,884,757,0
133995,232.34,884,760,0
134005,245.48,884,756,0
134016,263.29,884,761,0
134025,283.82,884,757,0
134035,305.52,884,760,0
134045,326.62,884,756,0
134055,345.93,884,761,0
134065,362.50,884,756,0
134075,375.68,884,760,0
134085,385.07,884,756,0
134095,390.75,884,760,0
134105,392.97,884,757,0
134115,392.25,884,760,0
134125,389.09,884,756,0
134135,384.13,884,761,0
134145,377.97,884,756,0
134155,371.20,884,760,0
134165,364.16,884,756,0
134175,357.17,884,761,0
134185,350.47,884,756,0
134195,344.37,884,760,0
134205,338.99,884,756,0
134215,334.49,884,760,0
134225,330.92,884,756,0
134235,328.33,884,760,0
134245,326.56,884,756,0
134255,325.53,884,761,0
134265,325.12,884,756,0
134275,325.17,884,760,0
134285,325.50,884,756,0
134295,325.99,884,761,0
134305,326.60,884,756,0
134316,327.40,884,761,0
134326,328.40,884,756,0
134336,329.56,884,760,0
134346,330.94,884,756,0
134356,332.50,884,760,0
134366,334.23,884,756,0
134376,336.18,884,761,0
134386,338.18,884,756,0
134396,340.23,884,761,0
134406,342.22,884,756,0
134416,344.04,884,760,0
134426,345.65,884,756,0
134436,346.96,884,761,0
134446,347.87,884,756,0
134456,348.38,884,760,0
134466,348.44,884,756,0
134476,348.22,884,760,0
134487,348.24,884,756,0
134497,349.33,884,760,0
134507,352.96,884,756,0
134517,360.90,884,761,0
134528,375.33,884,757,0
134546,397.90,916,756,0
134549,431.23,916,758,0
134558,472.65,916,760,0
134568,518.87,916,757,0
134578,566.69,916,760,0
134588,613.20,916,757,0
134598,655.35,916,760,0
134608,690.99,916,757,0
134618,716.92,916,760,0
134628,735.12,916,757,0
134638,747.85,916,760,0
134648,756.81,916,757,0
134658,763.08,916,761,0
134668,767.51,916,757,0
134678,770.62,916,760,0
134688,772.83,916,757,0
134699,774.38,916,759,0
134708,775.47,916,757,0
134718,776.23,916,760,0
134728,776.76,916,757,0
134738,775.76,916,760,0
134748,770.17,916,757,0
134758,757.35,916,760,0
134768,735.56,916,757,0
134778,703.81,916,760,0
134788,662.29,916,757,0
134798,611.16,916,760,0
134808,552.66,916,757,0
134818,491.00,916,760,0
134828,430.53,916,756,0
134838,374.53,916,760,0
134848,325.77,916,757,0
134858,285.64,916,759,0
134868,255.58,916,757,0
134878,235.69,916,760,0
134888,225.88,916,757,0
134898,225.15,916,760,0
134908,232.35,916,757,0
134918,245.57,916,760,0
134928,263.14,916,757,0
134938,283.07,916,760,0
134948,303.92,916,757,0
134958,323.96,916,760,0
134968,342.06,916,757,0
134978,357.25,916,760,0
134988,369.18,916,757,0
134999,377.44,916,760,0
135009,382.19,916,757,0
135019,383.59,916,760,0
135029,382.30,916,758,0
135040,378.70,916,759,0
135049,373.47,916,757,0
135059,367.12,916,760,0
135069,360.35,916,758,0
135079,353.48,916,759,0
135089,347.03,916,757,0
135099,341.11,916,760,0
135109,336.02,916,758,0
135119,331.64,916,760,0
135129,328.28,916,758,0
135139,325.75,916,760,0
135149,324.24,916,758,0
135159,323.48,916,760,0
135169,323.59,916,757,0
135179,324.36,916,760,0
135189,325.79,916,758,0
135199,327.53,916,760,0
135209,329.55,916,758,0
135219,331.57,916,760,0
135229,333.67,916,758,0
135239,335.61,916,760,0
135249,337.49,916,758,0
135259,339.14,916,760,0
135269,340.73,916,758,0
135279,342.05,916,760,0
135289,343.28,916,758,0
135299,344.22,916,760,0
135309,345.06,916,757,0
135319,345.55,916,760,0
135329,345.95,916,758,0
135340,346.09,916,760,0
135350,346.19,916,758,0
135360,346.01,916,759,0
135370,345.70,916,758,0
135380,345.11,916,759,0
135390,344.60,916,758,0
135400,344.38,916,759,0
135410,345.42,916,759,0
135420,348.72,916,759,0
135430,355.88,916,758,0
135440,368.64,916,759,0
135459,389.28,913,759,0
135462,420.14,913,758,0
135471,460.04,913,759,0
135481,505.28,913,758,0
135491,552.86,913,760,0
135501,599.96,913,758,0
135511,643.81,913,759,0
135521,681.63,913,759,0
135531,710.32,913,760,0
135541,730.46,913,758,0
135552,744.59,913,760,0
135561,754.53,913,759,0
135571,761.53,913,760,0
135581,766.47,913,758,0
135591,769.89,913,760,0
135601,772.28,913,759,0
135611,773.95,913,760,0
135621,775.12,913,758,0
135631,775.90,913,760,0
135641,776.44,913,759,0
135651,774.43,913,759,0
135661,766.84,913,758,0
135671,751.59,913,759,0
135681,727.54,913,759,0
135691,694.08,913,759,0
135701,651.07,913,758,0
135711,599.06,913,760,0
135721,541.32,913,758,0
135731,482.42,913,759,0
135741,425.77,913,758,0
135751,374.15,913,760,0
135761,329.66,913,758,0
135771,293.98,913,759,0
135781,267.71,913,758,0
135791,251.21,913,760,0
135801,243.69,913,758,0
135811,244.34,913,759,0
135821,251.65,913,758,0
135831,264.27,913,760,0
135841,280.48,913,758,0
135852,298.80,913,760,0
135862,317.46,913,758,0
135872,335.32,913,760,0
135882,351.30,913,758,0
135892,364.79,913,761,0
135902,375.18,913,758,0
135912,382.42,913,760,0
135922,386.32,913,758,0
135932,387.38,913,760,0
135942,385.85,913,758,0
135952,382.38,913,760,0
135962,377.34,913,758,0
135972,371.37,913,760,0
135982,364.78,913,758,0
135992,358.21,913,760,0
136002,351.76,913,758,0
136012,345.87,913,760,0
136023,340.55,913,758,0
136033,336.15,913,760,0
136043,332.59,913,757,0
136053,330.05,913,761,0
136064,328.37,913,757,0
136073,327.74,913,760,0
136083,327.86,913,757,0
136093,328.72,913,761,0
136103,330.00,913,757,0
136113,331.80,913,761,0
136123,333.79,913,757,0
136133,335.95,913,761,0
136143,338.02,913,757,0
136153,340.07,913,760,0
136163,342.02,913,757,0
136173,344.03,913,761,0
136183,345.82,913,757,0
136193,347.59,913,761,0
136203,349.30,913,757,0
136213,351.09,913,760,0
136223,352.82,913,757,0
136233,354.63,913,761,0
136243,356.24,913,757,0
136253,357.84,913,761,0
136263,359.17,913,757,0
136273,360.19,913,761,0
136283,360.61,913,757,0
136293,360.60,913,761,0
136303,360.12,913,758,0
136313,359.70,913,761,0
136323,359.96,913,758,0
136333,362.29,913,761,0
136343,368.29,913,757,0
136353,380.16,913,761,0
136373,399.82,914,760,0
136376,429.92,914,761,0
136385,468.82,914,757,0
136395,513.14,914,762,0
136406,559.81,914,757,0
136415,606.03,914,761,0
136425,648.83,914,757,0
136435,685.57,914,761,0
136445,713.08,914,757,0
136455,732.39,914,761,0
136465,745.90,914,757,0
136475,755.40,914,761,0
136485,762.05,914,757,0
136495,766.71,914,761,0
136505,770.01,914,757,0
136515,772.36,914,762,0
136525,773.97,914,757,0
136535,775.14,914,762,0
136545,775.95,914,757,0
136555,776.52,914,761,0
136565,776.92,914,757,0
136576,773.86,914,761,0
136585,764.86,914,757,0
136595,747.72,914,762,0
136605,721.14,914,757,0
136615,684.72,914,761,0
136625,638.90,914,757,0
136635,584.42,914,761,0
136645,525.79,914,757,0
136655,466.97,914,761,0
136665,411.82,914,757,0
136675,363.23,914,761,0
136685,323.30,914,757,0
136695,293.04,914,761,0
136705,272.80,914,756,0
136715,262.40,914,761,0
136725,261.08,914,757,0
136735,267.53,914,761,0
136745,280.14,914,757,0
136755,296.94,914,761,0
136765,316.12,914,757,0
136775,336.05,914,761,0
136785,355.19,914,757,0
136795,372.32,914,761,0
136805,386.63,914,757,0
136815,397.62,914,761,0
136825,405.24,914,757,0
136835,409.58,914,761,0
136845,410.91,914,757,0
136855,409.69,914,761,0
136865,406.36,914,757,0
136876,401.45,914,761,0
136886,395.49,914,757,0
136896,388.95,914,761,0
136906,382.24,914,757,0
136916,375.74,914,761,0
136926,369.69,914,757,0
136936,364.38,914,761,0
136946,359.94,914,757,0
136956,356.36,914,761,0
136966,353.68,914,757,0
136976,351.85,914,761,0
136986,350.95,914,757,0
136996,350.84,914,761,0
137006,351.53,914,757,0
137016,352.74,914,761,0
137026,354.45,914,757,0
137036,356.41,914,761,0
137047,358.56,914,757,0
137057,360.62,914,761,0
137067,362.66,914,758,0
137077,364.39,914,761,0
137088,366.08,914,758,0
137097,367.68,914,761,0
137107,369.45,914,758,0
137117,371.29,914,761,0
137127,373.26,914,758,0
137137,375.24,914,761,0
137147,377.27,914,758,0
137157,379.03,914,761,0
137167,380.43,914,758,0
137177,381.16,914,760,0
137187,381.24,914,758,0
137197,380.57,914,760,0
137207,379.41,914,758,0
137217,378.26,914,761,0
137227,378.35,914,757,0
137237,381.12,914,760,0
137247,388.58,914,758,0
137257,402.85,914,760,0
137276,425.70,903,760,0
137279,459.13,903,760,0
137288,499.68,903,758,0
137298,544.05,903,760,0
137308,589.42,903,758,0
137318,632.88,903,760,0
137328,671.61,903,758,0
137338,703.44,903,760,0
137348,725.77,903,758,0
137358,741.39,903,760,0
137368,752.38,903,758,0
137378,760.06,903,760,0
137388,765.44,903,758,0
137398,769.21,903,760,0
137408,771.85,903,758,0
137418,773.69,903,760,0
137428,774.99,903,758,0
137438,775.89,903,761,0
137448,776.52,903,758,0
137458,776.97,903,760,0
137468,775.86,903,758,0
137478,769.82,903,760,0
137488,756.03,903,758,0
137498,732.53,903,760,0
137508,698.52,903,758,0
137518,654.18,903,760,0
137528,600.04,903,758,0
137538,538.53,903,760,0
137548,474.77,903,758,0
137559,413.30,903,760,0
137569,358.09,903,758,0
137579,311.74,903,760,0
137589,275.82,903,759,0
137600,251.10,903,759,0
137609,237.61,903,758,0
137619,234.30,903,760,0
137629,240.00,903,759,0
137639,252.60,903,759,0
137649,270.16,903,759,0
137659,290.47,903,760,0
137669,311.80,903,759,0
137679,332.47,903,760,0
137689,351.36,903,758,0
137699,367.24,903,760,0
137709,379.72,903,759,0
137719,388.59,903,760,0
137729,394.07,903,759,0
137739,396.36,903,760,0
137749,396.08,903,759,0
137759,393.53,903,760,0
137769,389.51,903,759,0
137779,384.47,903,760,0
137789,378.93,903,759,0
137799,373.12,903,759,0
137809,367.43,903,759,0
137819,361.90,903,760,0
137829,356.92,903,758,0
137839,352.40,903,759,0
137849,348.64,903,759,0
137859,345.57,903,760,0
137869,343.43,903,759,0
137879,342.06,903,759,0
137889,341.53,903,759,0
137900,341.58,903,759,0
137910,342.27,903,760,0
137920,343.26,903,758,0
137930,344.59,903,760,0
137940,346.00,903,758,0
137950,347.59,903,760,0
137960,349.17,903,759,0
137970,350.83,903,760,0
137980,352.34,903,758,0
137990,353.87,903,760,0
138000,355.19,903,759,0
138010,356.42,903,760,0
138020,357.24,903,758,0
138030,357.81,903,760,0
138040,357.91,903,759,0
138050,357.76,903,760,0
138060,357.11,903,759,0
138071,356.22,903,760,0
138081,355.04,903,758,0
138091,354.21,903,760,0
138101,354.23,903,758,0
138112,356.44,903,761,0
138121,361.92,903,759,0
138131,372.70,903,760,0
138141,390.49,903,758,0
138161,417.17,884,758,0
138164,453.89,884,757,0
138173,497.00,884,761,0
138183,543.20,884,758,0
138193,589.81,884,761,0
138203,633.92,884,758,0
138213,672.95,884,761,0
138223,704.46,884,758,0
138233,726.52,884,761,0
138243,741.97,884,758,0
138253,752.78,884,761,0
138263,760.34,884,758,0
138273,765.64,884,761,0
138284,769.35,884,757,0
138294,771.94,884,762,0
138304,773.76,884,757,0
138314,775.03,884,762,0
138324,775.92,884,757,0
138334,775.17,884,762,0
138344,769.55,884,757,0
138354,756.61,884,761,0
138364,734.74,884,757,0
138374,703.32,884,761,0
138384,661.95,884,757,0
138394,610.88,884,761,0
138404,552.16,884,757,0
138414,490.40,884,762,0
138424,429.34,884,757,0
138434,372.23,884,761,0
138444,321.29,884,757,0
138455,278.52,884,761,0
138465,245.28,884,757,0
138475,222.18,884,761,0
138485,209.14,884,757,0
138496,205.71,884,761,0
138505,210.68,884,757,0
138515,222.74,884,761,0
138525,240.34,884,757,0
138535,261.58,884,761,0
138545,284.68,884,757,0
138555,307.83,884,761,0
138565,329.70,884,757,0
138575,349.25,884,761,0
138585,365.71,884,757,0
138595,378.49,884,761,0
138605,387.47,884,757,0
138615,392.81,884,761,0
138625,394.93,884,757,0
138635,394.18,884,761,0
138645,391.12,884,757,0
138655,386.24,884,761,0
138665,380.13,884,757,0
138675,373.32,884,761,0
138685,366.24,884,757,0
138695,359.18,884,761,0
138705,352.57,884,757,0
138715,346.61,884,761,0
138725,341.50,884,757,0
138735,337.36,884,761,0
138745,334.26,884,757,0
138755,332.12,884,761,0
138765,331.01,884,757,0
138775,330.75,884,761,0
138785,331.26,884,757,0
138796,332.42,884,761,0
138806,334.10,884,757,0
138816,336.04,884,761,0
138826,338.26,884,758,0
138836,340.58,884,760,0
138846,343.02,884,757,0
138856,345.50,884,761,0
138866,348.09,884,758,0
138876,350.72,884,760,0
138886,353.46,884,757,0
138896,356.11,884,761,0
138906,358.56,884,758,0
138916,360.49,884,761,0
138926,361.85,884,758,0
138936,362.36,884,761,0
138946,362.13,884,758,0
138956,361.10,884,761,0
138967,359.74,884,758,0
138977,358.41,884,760,0
138987,358.07,884,758,0
138997,359.72,884,761,0
139008,364.99,884,758,0
139017,375.19,884,760,0
139027,392.36,884,758,0
139046,417.93,886,758,0
139049,453.78,886,760,0
139058,496.10,886,761,0
139068,541.80,886,759,0
139078,587.85,886,761,0
139088,631.82,886,759,0
139098,670.96,886,761,0
139108,703.03,886,759,0
139118,725.52,886,760,0
139128,741.26,886,759,0
139138,752.28,886,761,0
139148,760.00,886,759,0
139158,765.40,886,761,0
139168,769.18,886,759,0
139179,771.83,886,760,0
139188,773.68,886,759,0
139198,774.97,886,760,0
139208,775.88,886,759,0
139218,776.52,886,760,0
139228,776.96,886,758,0
139238,777.27,886,760,0
139248,773.21,886,759,0
139258,761.53,886,760,0
139268,740.76,886,758,0
139278,709.54,886,760,0
139288,667.60,886,759,0
139298,615.22,886,759,0
139308,553.61,886,758,0
139318,488.28,886,760,0
139328,424.26,886,758,0
139338,364.74,886,759,0
139348,313.04,886,759,0
139358,271.07,886,760,0
139368,240.19,886,759,0
139378,220.42,886,759,0
139388,211.68,886,759,0
139398,212.59,886,760,0
139408,221.84,886,759,0
139418,237.40,886,760,0
139428,257.55,886,759,0
139438,280.06,886,760,0
139448,303.31,886,759,0
139458,325.42,886,760,0
139468,345.52,886,759,0
139479,362.55,886,760,0
139489,376.19,886,759,0
139499,385.99,886,759,0
139509,392.33,886,760,0
139520,395.28,886,758,0
139529,395.54,886,759,0
139539,393.32,886,759,0
139549,389.37,886,760,0
139559,383.98,886,759,0
139569,377.95,886,759,0
139579,371.45,886,759,0
139589,365.19,886,760,0
139599,359.22,886,758,0
139609,354.14,886,759,0
139619,349.98,886,759,0
139629,347.03,886,760,0
139639,345.09,886,759,0
139649,344.29,886,759,0
139659,344.16,886,759,0
139669,344.76,886,760,0
139679,345.64,886,758,0
139689,346.86,886,760,0
139699,348.11,886,759,0
139709,349.49,886,759,0
139719,350.84,886,759,0
139729,352.39,886,760,0
139739,353.90,886,759,0
139749,355.56,886,759,0
139759,357.11,886,758,0
139769,358.70,886,760,0
139779,360.12,886,759,0
139789,361.46,886,759,0
139799,362.43,886,759,0
139809,363.25,886,760,0
139820,363.69,886,758,0
139830,363.91,886,760,0
139840,363.76,886,758,0
139850,363.45,886,760,0
139860,362.80,886,758,0
139870,362.17,886,760,0
139880,361.52,886,758,0
139890,361.54,886,761,0
139900,362.92,886,758,0
139910,366.93,886,760,0
139920,375.01,886,758,0
139930,389.36,886,761,0
139950,411.63,903,760,0
139953,444.27,903,762,0
139962,484.47,903,758,0
139972,529.07,903,761,0
139982,575.21,903,757,0
139992,620.15,903,761,0
140002,660.95,903,757,0
140012,695.20,903,761,0
140022,720.04,903,758,0
140033,737.43,903,761,0
140043,749.60,903,757,0
140053,758.12,903,762,0
140063,764.08,903,757,0
140073,768.26,903,762,0
140083,771.18,903,757,0
140093,773.23,903,762,0
140103,774.66,903,757,0
140113,775.66,903,761,0
140123,776.36,903,757,0
140133,776.85,903,762,0
140143,777.20,903,757,0
140153,774.27,903,761,0
140163,764.93,903,757,0
140173,746.52,903,762,0
140183,717.39,903,757,0
140193,676.95,903,761,0
140204,625.41,903,757,0
140214,563.66,903,762,0
140224,496.34,903,757,0
140234,428.40,903,761,0
140244,364.59,903,757,0
140254,308.57,903,762,0
140264,262.93,903,757,0
140274,229.18,903,761,0
140284,207.91,903,757,0
140294,198.51,903,762,0
140304,199.90,903,757,0
140314,210.26,903,761,0
140324,227.58,903,757,0
140334,249.39,903,762,0
140344,273.45,903,757,0
140354,297.61,903,761,0
140364,320.40,903,757,0
140375,340.42,903,761,0
140385,356.84,903,757,0
140395,369.14,903,761,0
140405,377.50,903,758,0
140416,382.11,903,761,0
140425,383.53,903,757,0
140435,382.26,903,761,0
140445,378.97,903,758,0
140455,374.22,903,761,0
140465,368.63,903,757,0
140475,362.48,903,761,0
140485,356.29,903,758,0
140495,350.21,903,761,0
140505,344.57,903,757,0
140515,339.56,903,761,0
140525,335.45,903,757,0
140535,332.23,903,761,0
140545,330.15,903,757,0
140555,329.07,903,762,0
140565,329.14,903,758,0
140575,330.08,903,761,0
140585,331.86,903,758,0
140595,334.09,903,761,0
140605,336.76,903,757,0
140615,339.53,903,761,0
140625,342.37,903,758,0
140635,345.00,903,761,0
140645,347.49,903,757,0
140655,349.70,903,761,0
140665,351.80,903,758,0
140675,353.71,903,761,0
140685,355.64,903,758,0
140695,357.50,903,761,0
140705,359.45,903,758,0
140716,361.33,903,761,0
140726,363.16,903,758,0
140736,364.65,903,761,0
140746,365.83,903,758,0
140756,366.31,903,760,0
140766,366.22,903,758,0
140776,365.34,903,761,0
140786,364.08,903,758,0
140796,362.73,903,760,0
140806,362.29,903,758,0
140816,363.96,903,761,0
140826,369.67,903,758,0
140836,381.26,903,761,0
140855,400.59,906,761,0
140858,429.94,906,760,0
140867,468.40,906,759,0
140877,512.43,906,760,0
140887,558.93,906,758,0
140897,604.89,906,761,0
140907,647.48,906,759,0
140917,684.32,906,760,0
140928,712.43,906,759,0
140937,732.10,906,761,0
140947,745.87,906,759,0
140957,755.51,906,760,0
140967,762.26,906,759,0
140977,766.98,906,761,0
140987,770.29,906,759,0
140997,772.60,906,760,0
141007,774.22,906,759,0
141017,775.35,906,760,0
141027,776.15,906,759,0
141037,776.70,906,760,0
141047,774.18,906,759,0
141057,765.68,906,761,0
141067,748.81,906,759,0
141077,721.86,906,760,0
141087,684.28,906,759,0
141097,635.94,906,760,0
141107,577.71,906,759,0
141117,513.43,906,761,0
141127,447.51,906,759,0
141137,384.06,906,760,0
141147,326.70,906,758,0
141157,277.72,906,760,0
141167,239.06,906,759,0
141177,211.18,906,760,0
141187,194.33,906,759,0
141197,187.93,906,760,0
141207,191.04,906,759,0
141217,201.95,906,760,0
141228,219.11,906,759,0
141238,240.29,906,760,0
141248,263.82,906,760,0
141258,287.79,906,759,0
141268,310.65,906,761,0
141278,330.90,906,760,0
141288,347.77,906,760,0
141298,360.44,906,759,0
141308,369.01,906,760,0
141318,373.51,906,760,0
141328,374.64,906,760,0
141338,372.82,906,759,0
141348,368.97,906,760,0
141358,363.54,906,760,0
141368,357.51,906,760,0
141378,351.10,906,759,0
141388,344.90,906,760,0
141399,339.01,906,759,0
141409,333.95,906,760,0
141419,329.64,906,759,0
141429,326.45,906,761,0
141440,324.13,906,758,0
141449,323.06,906,760,0
141459,322.96,906,759,0
141469,323.87,906,761,0
141479,325.54,906,759,0
141489,327.99,906,760,0
141499,330.82,906,759,0
141509,334.00,906,761,0
141519,337.09,906,759,0
141529,340.10,906,761,0
141539,342.86,906,758,0
141549,345.43,906,761,0
141559,347.57,906,758,0
141569,349.50,906,760,0
141579,351.11,906,758,0
141589,352.62,906,761,0
141599,353.89,906,758,0
141609,355.08,906,761,0
141619,355.87,906,759,0
141629,356.47,906,760,0
141639,356.63,906,759,0
141649,356.48,906,761,0
141659,355.74,906,758,0
141669,354.53,906,760,0
141679,352.61,906,759,0
141689,350.24,906,761,0
141699,347.39,906,759,0
141709,344.48,906,761,0
141719,341.85,906,759,0
141729,340.70,906,761,0
141740,342.33,906,758,0
141750,348.62,906,761,0
141760,361.42,906,759,0
141770,382.72,906,761,0
141780,413.79,906,758,0
141799,454.44,944,758,0
141802,500.76,944,758,0
141811,549.44,944,762,0
141821,597.35,944,758,0
141831,641.60,944,761,0
141841,679.52,944,758,0
141851,709.06,944,761,0
141861,729.74,944,758,0
141871,744.22,944,761,0
141881,754.36,944,758,0
141891,761.45,944,762,0
141901,766.41,944,758,0
141911,769.89,944,761,0
141921,772.32,944,758,0
141931,774.03,944,762,0
141941,775.22,944,758,0
141952,776.05,944,762,0
141961,776.64,944,758,0
141971,773.40,944,762,0
141981,763.30,944,758,0
141991,744.14,944,762,0
142001,714.91,944,758,0
142011,674.99,944,762,0
142021,624.30,944,758,0
142031,563.48,944,761,0
142041,497.46,944,758,0
142051,430.85,944,761,0
142061,367.55,944,758,0
142071,310.56,944,761,0
142081,262.31,944,758,0
142091,224.80,944,762,0
142101,198.97,944,758,0
142111,184.84,944,761,0
142121,181.84,944,758,0
142131,188.79,944,761,0
142141,203.90,944,758,0
142151,225.23,944,761,0
142161,250.45,944,758,0
142171,277.40,944,762,0
142181,304.06,944,758,0
142191,328.90,944,761,0
142201,350.70,944,758,0
142211,368.75,944,761,0
142221,382.54,944,758,0
142231,392.15,944,761,0
142241,397.85,944,758,0
142252,400.29,944,762,0
142262,399.86,944,758,0
142272,397.33,944,761,0
142282,393.29,944,758,0
142292,388.49,944,762,0
142302,383.37,944,758,0
142312,378.46,944,762,0
142322,373.95,944,758,0
142332,370.19,944,762,0
142342,367.22,944,758,0
142352,365.14,944,761,0
142362,363.86,944,758,0
142372,363.30,944,762,0
142382,363.25,944,758,0
142392,363.61,944,761,0
142402,364.24,944,758,0
142412,365.11,944,762,0
142423,366.06,944,758,0
142433,367.11,944,762,0
142443,368.24,944,758,0
142453,369.41,944,761,0
142464,370.62,944,758,0
142473,371.80,944,762,0
142483,372.76,944,758,0
142493,373.43,944,761,0
142503,373.65,944,758,0
142513,373.37,944,762,0
142523,372.53,944,758,0
142533,371.00,944,762,0
142543,368.73,944,758,0
142553,365.85,944,761,0
142563,362.47,944,758,0
142573,358.86,944,762,0
142583,355.47,944,758,0
142593,353.06,944,761,0
142603,353.04,944,758,0
142613,357.19,944,762,0
142623,367.50,944,758,0
142633,386.04,944,762,0
142643,414.01,944,758,0
142662,452.11,863,757,0
142665,496.69,863,760,0
142674,544.35,863,761,0
142684,591.95,863,758,0
142694,636.45,863,761,0
142704,675.06,863,758,0
142714,705.90,863,761,0
142724,727.53,863,759,0
142734,742.67,863,762,0
142744,753.27,863,758,0
142754,760.69,863,761,0
142764,765.88,863,758,0
142774,769.52,863,762,0
142784,772.06,863,758,0
142794,773.84,863,761,0
142804,775.09,863,759,0
142814,775.96,863,762,0
142824,776.57,863,758,0
142834,775.16,863,761,0
142844,768.04,863,759,0
142854,752.86,863,762,0
142864,727.87,863,758,0
142874,692.38,863,761,0
142884,646.50,863,758,0
142894,591.06,863,762,0
142904,528.99,863,758,0
142914,465.39,863,761,0
142924,404.33,863,758,0
142935,349.20,863,761,0
142945,302.43,863,758,0
142955,265.44,863,761,0
142965,238.82,863,758,0
142976,222.55,863,761,0
142985,216.04,863,759,0
142995,218.17,863,761,0
143005,227.68,863,759,0
143015,242.77,863,761,0
143025,261.70,863,759,0
143035,282.57,863,761,0
143045,303.92,863,759,0
143055,324.38,863,761,0
143065,342.95,863,759,0
143075,358.74,863,761,0
143085,371.42,863,759,0
143095,380.81,863,761,0
143105,387.21,863,759,0
143115,390.79,863,761,0
143125,391.92,863,758,0
143135,391.05,863,761,0
143145,388.72,863,759,0
143155,385.33,863,761,0
143165,381.42,863,758,0
143175,377.14,863,761,0
143185,372.94,863,759,0
143195,369.06,863,761,0
143205,365.65,863,759,0
143215,362.67,863,761,0
143225,360.24,863,759,0
143235,358.15,863,761,0
143245,356.57,863,758,0
143255,355.24,863,761,0
143265,354.18,863,759,0
143276,353.23,863,761,0
143286,352.47,863,759,0
143296,351.73,863,760,0
143306,351.25,863,759,0
143316,350.75,863,760,0
143326,350.44,863,759,0
143336,350.09,863,760,0
143346,349.89,863,759,0
143356,349.63,863,760,0
143366,349.57,863,759,0
143376,349.57,863,761,0
143386,349.95,863,759,0
143396,350.57,863,760,0
143406,351.73,863,759,0
143416,353.22,863,760,0
143426,355.26,863,759,0
143436,357.45,863,760,0
143447,359.76,863,759,0
143457,361.72,863,760,0
143467,363.39,863,760,0
143477,364.69,863,759,0
143488,366.37,863,760,0
143497,369.08,863,760,0
143507,374.59,863,760,0
143517,384.57,863,759,0
143527,401.54,863,760,0
143546,426.84,884,759,0
143549,462.11,884,761,0
143558,503.69,884,759,0
143568,548.74,884,761,0
143578,594.21,884,759,0
143588,637.39,884,760,0
143598,675.33,884,759,0
143608,706.13,884,761,0
143618,727.69,884,759,0
143628,742.78,884,760,0
143638,753.35,884,759,0
143648,760.74,884,761,0
143659,765.92,884,759,0
143668,769.54,884,761,0
143678,772.08,884,759,0
143688,773.86,884,760,0
143698,775.10,884,759,0
143708,775.97,884,760,0
143718,776.58,884,759,0
143728,776.92,884,760,0
143738,772.32,884,759,0
143748,760.39,884,761,0
143758,738.93,884,759,0
143768,706.81,884,760,0
143778,663.62,884,759,0
143788,610.12,884,760,0
143798,547.09,884,759,0
143808,480.67,884,760,0
143818,414.81,884,759,0
143828,353.76,884,761,0
143838,300.34,884,759,0
143848,256.78,884,760,0
143858,223.68,884,759,0
143868,201.70,884,760,0
143878,190.18,884,759,0
143888,188.45,884,761,0
143898,194.79,884,759,0
143908,207.79,884,760,0
143918,225.38,884,759,0
143928,246.14,884,760,0
143938,268.17,884,759,0
143948,290.32,884,760,0
143959,311.01,884,759,0
143969,329.43,884,761,0
143979,344.56,884,759,0
143989,356.26,884,761,0
144000,364.11,884,758,0
144009,368.45,884,761,0
144019,369.30,884,758,0
144029,367.28,884,761,0
144039,362.78,884,758,0
144049,356.68,884,761,0
144059,349.36,884,758,0
144069,341.62,884,761,0
144079,333.72,884,758,0
144089,326.35,884,761,0
144099,319.73,884,759,0
144109,314.28,884,761,0
144119,309.95,884,758,0
144129,306.97,884,760,0
144139,305.09,884,759,0
144149,304.46,884,761,0
144159,304.71,884,758,0
144169,305.74,884,761,0
144179,307.28,884,758,0
144189,309.25,884,761,0
144199,311.45,884,759,0
144209,313.84,884,761,0
144219,316.12,884,759,0
144229,318.40,884,761,0
144239,320.55,884,759,0
144249,322.61,884,761,0
144259,324.49,884,759,0
144269,326.23,884,761,0
144279,327.66,884,759,0
144289,329.00,884,761,0
144300,330.16,884,759,0
144310,331.27,884,762,0
144320,332.22,884,758,0
144330,333.14,884,762,0
144340,333.91,884,758,0
144350,334.79,884,761,0
144360,335.80,884,759,0
144370,337.62,884,762,0
144380,341.07,884,758,0
144390,347.48,884,761,0
144400,358.44,884,759,0
144410,376.09,884,762,0
144430,402.25,883,761,0
144433,439.07,883,762,0
144442,482.72,883,758,0
144452,529.99,883,762,0
144462,578.04,883,758,0
144472,624.05,883,762,0
144482,665.18,883,758,0
144492,698.94,883,762,0
144502,722.66,883,758,0
144513,739.26,883,762,0
144523,750.88,883,758,0
144533,759.02,883,762,0
144543,764.71,883,758,0
144553,768.70,883,761,0
144563,771.49,883,758,0
144573,773.44,883,762,0
144583,774.81,883,759,0
144593,775.77,883,761,0
144603,776.44,883,759,0
144613,772.88,883,762,0
144623,762.29,883,758,0
144633,742.66,883,761,0
144643,713.36,883,758,0
144653,673.82,883,762,0
144663,624.25,883,758,0
144673,565.33,883,762,0
144684,502.32,883,759,0
144694,439.48,883,761,0
144704,380.62,883,759,0
144714,328.15,883,761,0
144724,284.48,883,759,0
144734,250.82,883,761,0
144744,227.94,883,759,0
144754,215.66,883,761,0
144764,213.53,883,759,0
144774,220.06,883,761,0
144784,233.76,883,759,0
144794,252.60,883,761,0
144804,274.92,883,759,0
144814,298.64,883,761,0
144824,322.28,883,759,0
144834,344.05,883,762,0
144844,363.28,883,762,0
144855,379.14,883,761,0
144865,391.44,883,759,0
144875,400.01,883,761,0
144885,405.28,883,759,0
144896,407.34,883,761,0
144905,406.94,883,759,0
144915,404.17,883,761,0
144925,399.53,883,759,0
144935,393.24,883,761,0
144945,385.76,883,759,0
144955,377.13,883,761,0
144965,367.92,883,759,0
144975,358.22,883,761,0
144985,348.64,883,759,0
144995,339.45,883,761,0
145005,331.17,883,759,0
145015,323.88,883,761,0
145025,318.08,883,759,0
145035,313.73,883,761,0
145045,311.11,883,759,0
145055,310.01,883,761,0
145065,310.43,883,760,0
145075,311.97,883,761,0
145085,314.68,883,759,0
145095,318.08,883,761,0
145105,322.13,883,760,0
145115,326.29,883,761,0
145125,330.53,883,759,0
145135,334.44,883,761,0
145145,338.04,883,760,0
145155,340.94,883,761,0
145165,343.23,883,759,0
145175,344.79,883,761,0
145185,346.27,883,760,0
145196,348.24,883,761,0
145206,352.16,883,760,0
145216,359.48,883,761,0
145226,372.45,883,760,0
145236,392.80,883,760,0
145246,421.96,883,759,0
145256,460.42,883,760,0
145266,504.69,883,760,0
145276,551.50,883,760,0
145295,597.98,866,760,0
145298,641.14,866,759,0
145307,678.56,866,761,0
145317,708.35,866,760,0
145327,729.24,866,761,0
145337,743.87,866,760,0
145347,754.11,866,761,0
145357,761.28,866,760,0
145367,766.29,866,761,0
145377,769.81,866,760,0
145387,772.26,866,761,0
145397,773.98,866,760,0
145408,775.19,866,761,0
145417,776.03,866,760,0
145427,775.38,866,761,0
145437,770.04,866,760,0
145447,757.81,866,761,0
145457,737.38,866,760,0
145467,707.91,866,761,0
145477,668.89,866,760,0
145487,620.71,866,761,0
145497,565.34,866,760,0
145507,507.04,866,761,0
145517,449.13,866,759,0
145527,394.45,866,761,0
145537,345.16,866,760,0
145547,303.37,866,761,0
145557,269.96,866,760,0
145567,245.50,866,761,0
145577,230.01,866,759,0
145587,223.19,866,761,0
145597,224.08,866,760,0
145607,231.85,866,761,0
145617,244.93,866,759,0
145627,261.96,866,761,0
145637,281.26,866,760,0
145647,301.50,866,761,0
145657,321.19,866,760,0
145667,339.43,866,761,0
145677,355.12,866,760,0
145687,367.81,866,761,0
145697,377.04,866,759,0
145708,382.98,866,761,0
145718,385.60,866,759,0
145728,385.51,866,761,0
145738,382.87,866,759,0
145748,378.32,866,761,0
145758,372.27,866,759,0
145768,365.42,866,761,0
145778,358.01,866,759,0
145788,350.59,866,762,0
145798,343.38,866,759,0
145808,336.88,866,761,0
145818,331.13,866,759,0
145828,326.42,866,762,0
145838,322.61,866,760,0
145848,319.90,866,761,0
145858,318.04,866,759,0
145868,317.09,866,761,0
145879,316.68,866,759,0
145889,316.82,866,762,0
145899,317.17,866,759,0
145909,317.76,866,762,0
145920,318.35,866,759,0
145929,319.10,866,762,0
145939,319.84,866,758,0
145949,320.79,866,762,0
145959,321.84,866,758,0
145969,323.13,866,762,0
145979,324.55,866,759,0
145989,326.18,866,762,0
145999,327.89,866,758,0
146009,329.93,866,762,0
146019,332.61,866,759,0
146029,336.84,866,762,0
146039,343.75,866,759,0
146049,354.79,866,763,0
146059,371.70,866,758,0
146069,396.47,866,762,0
146079,430.36,866,758,0
146089,472.08,866,762,0
146108,518.13,813,761,0
146111,565.49,813,763,0
146120,611.50,813,758,0
146130,653.48,813,762,0
146140,688.82,813,758,0
146150,715.57,813,762,0
146160,734.30,813,758,0
146170,747.41,813,763,0
146180,756.59,813,758,0
146190,763.01,813,762,0
146200,767.51,813,758,0
146210,770.66,813,762,0
146220,772.86,813,758,0
146230,774.40,813,762,0
146240,775.48,813,758,0
146250,776.24,813,762,0
146260,776.77,813,758,0
146270,775.72,813,762,0
146280,769.68,813,758,0
146290,756.27,813,763,0
146300,733.82,813,758,0
146310,701.95,813,762,0
146320,660.26,813,758,0
146330,609.01,813,762,0
146340,550.34,813,758,0
146350,488.99,813,762,0
146360,428.52,813,758,0
146370,372.05,813,762,0
146380,321.47,813,758,0
146391,278.64,813,762,0
146401,244.72,813,758,0
146411,220.16,813,762,0
146421,204.68,813,758,0
146432,197.96,813,762,0
146441,199.09,813,758,0
146451,206.91,813,762,0
146461,220.09,813,758,0
146471,237.16,813,762,0
146481,256.74,813,758,0
146491,277.61,813,762,0
146501,298.51,813,758,0
146511,318.46,813,762,0
146521,336.58,813,758,0
146531,352.22,813,762,0
146541,365.01,813,758,0
146551,374.65,813,762,0
146561,381.05,813,758,0
146571,384.34,813,763,0
146581,384.71,813,758,0
146591,382.48,813,762,0
146601,378.09,813,758,0
146611,372.02,813,762,0
146621,364.82,813,758,0
146631,356.77,813,763,0
146641,348.35,813,758,0
146651,339.98,813,763,0
146661,332.05,813,758,0
146671,324.80,813,762,0
146681,318.47,813,758,0
146691,313.23,813,762,0
146701,309.30,813,758,0
146711,306.73,813,762,0
146721,305.57,813,758,0
146732,305.74,813,762,0
146742,307.27,813,759,0
146752,309.94,813,762,0
146762,313.55,813,758,0
146772,317.76,813,762,0
146782,322.25,813,758,0
146792,326.67,813,762,0
146802,330.80,813,758,0
146812,334.37,813,762,0
146822,337.60,813,758,0
146832,340.89,813,762,0
146842,345.38,813,759,0
146852,352.51,813,762,0
146862,363.97,813,759,0
146872,381.72,813,762,0
146882,407.78,813,759,0
146892,443.33,813,762,0
146903,485.92,813,759,0
146913,532.18,813,762,0
146932,579.14,824,762,0
146935,624.10,824,760,0
146945,664.40,824,760,0
146955,697.54,824,761,0
146965,721.68,824,763,0
146975,738.57,824,760,0
146985,750.40,824,760,0
146995,758.68,824,761,0
147005,764.48,824,760,0
147015,768.53,824,761,0
147025,771.37,824,760,0
147035,773.36,824,761,0
147045,774.75,824,760,0
147055,775.73,824,760,0
147065,776.41,824,761,0
147075,774.74,824,761,0
147085,767.62,824,760,0
147095,752.61,824,761,0
147105,728.38,824,760,0
147116,694.20,824,760,0
147126,650.25,824,761,0
147136,596.95,824,759,0
147146,537.56,824,761,0
147156,476.37,824,759,0
147166,417.54,824,761,0
147176,363.85,824,760,0
147186,317.74,824,761,0
147196,280.36,824,759,0
147206,252.69,824,761,0
147216,234.66,824,760,0
147226,226.19,824,761,0
147236,226.00,824,759,0
147246,232.99,824,760,0
147256,245.38,824,760,0
147266,261.76,824,761,0
147276,280.31,824,759,0
147287,299.59,824,761,0
147297,317.92,824,759,0
147307,334.32,824,761,0
147317,347.81,824,759,0
147328,358.11,824,762,0
147337,364.76,824,759,0
147347,367.96,824,761,0
147357,367.76,824,759,0
147367,364.79,824,762,0
147377,359.58,824,760,0
147387,352.98,824,761,0
147397,345.40,824,759,0
147407,337.65,824,762,0
147417,330.08,824,760,0
147427,323.24,824,761,0
147437,317.26,824,759,0
147447,312.51,824,761,0
147457,308.97,824,760,0
147467,307.01,824,761,0
147477,306.49,824,759,0
147487,307.67,824,762,0
147497,310.38,824,759,0
147507,314.64,824,761,0
147517,320.02,824,759,0
147527,326.27,824,762,0
147537,332.66,824,759,0
147547,338.85,824,761,0
147557,344.21,824,759,0
147567,348.69,824,761,0
147577,352.12,824,759,0
147587,354.96,824,761,0
147597,357.63,824,759,0
147607,361.30,824,761,0
147617,366.99,824,759,0
147628,376.30,824,762,0
147638,390.39,824,759,0
147648,410.67,824,762,0
147658,437.90,824,759,0
147668,472.73,824,762,0
147687,513.14,755,761,0
147690,556.13,755,763,0
147699,598.90,755,758,0
147709,639.22,755,762,0
147719,674.98,755,758,0
147729,704.56,755,762,0
147739,726.59,755,758,0
147749,742.01,755,763,0
147759,752.81,755,758,0
147769,760.37,755,762,0
147779,765.66,755,758,0
147789,769.36,755,763,0
147799,771.95,755,758,0
147809,773.77,755,762,0
147819,775.04,755,758,0
147829,775.93,755,763,0
147840,773.33,755,758,0
147849,764.96,755,762,0
147859,748.77,755,758,0
147869,723.56,755,763,0
147879,688.76,755,758,0
147889,644.78,755,762,0
147899,591.96,755,758,0
147909,534.33,755,762,0
147919,475.34,755,758,0
147929,418.50,755,762,0
147939,366.36,755,758,0
147949,321.04,755,762,0
147959,283.57,755,758,0
147969,254.90,755,762,0
147979,235.43,755,758,0
147989,225.01,755,762,0
147999,222.87,755,758,0
148009,228.09,755,762,0
148019,239.12,755,758,0
148029,254.51,755,762,0
148039,272.66,755,758,0
148049,291.96,755,762,0
148059,310.92,755,758,0
148069,328.43,755,762,0
148079,343.47,755,758,0
148089,355.63,755,762,0
148099,364.57,755,758,0
148109,370.27,755,762,0
148119,372.85,755,758,0
148129,372.72,755,763,0
148140,370.32,755,758,0
148150,366.19,755,763,0
148160,360.91,755,758,0
148170,354.89,755,762,0
148180,348.67,755,758,0
148190,342.77,755,762,0
148200,337.57,755,758,0
148210,333.37,755,762,0
148220,330.47,755,758,0
148230,328.92,755,762,0
148240,328.86,755,758,0
148250,330.23,755,763,0
148260,332.82,755,758,0
148270,336.39,755,762,0
148280,340.60,755,758,0
148290,345.13,755,762,0
148300,349.72,755,758,0
148311,353.92,755,762,0
148321,357.42,755,758,0
148331,359.95,755,762,0
148341,361.42,755,758,0
148352,361.98,755,762,0
148361,362.07,755,758,0
148371,362.48,755,762,0
148381,364.65,755,758,0
148391,370.33,755,762,0
148401,381.33,755,758,0
148411,399.62,755,762,0
148421,426.86,755,758,0
148431,463.72,755,762,0
148450,506.66,763,762,0
148453,552.40,763,761,0
148462,597.97,763,759,0
148472,640.75,763,762,0
148482,678.20,763,759,0
148492,708.09,763,762,0
148502,729.07,763,759,0
148512,743.75,763,762,0
148523,754.02,763,759,0
148532,761.22,763,762,0
148542,766.25,763,759,0
148552,769.78,763,762,0
148562,772.24,763,759,0
148572,773.97,763,761,0
148582,775.18,763,759,0
148592,775.13,763,761,0
148602,770.63,763,759,0
148612,759.68,763,762,0
148622,740.62,763,759,0
148632,712.36,763,761,0
148642,674.63,763,759,0
148652,627.77,763,762,0
148662,573.19,763,759,0
148672,514.98,763,761,0
148682,456.49,763,759,0
148692,400.63,763,761,0
148702,349.99,763,758,0
148712,306.15,763,761,0
148722,270.19,763,759,0
148732,242.75,763,761,0
148742,224.10,763,758,0
148752,213.87,763,761,0
148762,211.59,763,759,0
148772,216.13,763,761,0
148782,226.38,763,759,0
148792,240.83,763,761,0
148802,258.16,763,759,0
148812,276.79,763,761,0
148823,295.41,763,759,0
148833,312.60,763,761,0
148843,327.68,763,759,0
148853,339.86,763,761,0
148864,348.99,763,760,0
148873,354.91,763,761,0
148883,358.06,763,759,0
148893,358.64,763,761,0
148903,357.42,763,760,0
148913,354.60,763,761,0
148923,350.82,763,759,0
148933,346.20,763,761,0
148943,341.13,763,760,0
148953,335.56,763,761,0
148963,329.86,763,759,0
148973,323.95,763,761,0
148983,318.09,763,760,0
148993,312.32,763,761,0
149003,307.00,763,759,0
149013,302.28,763,761,0
149023,298.56,763,759,0
149033,295.86,763,761,0
149043,294.57,763,759,0
149053,294.66,763,761,0
149063,296.35,763,759,0
149073,299.37,763,761,0
149083,303.67,763,759,0
149093,308.79,763,761,0
149103,314.55,763,759,0
149113,320.51,763,761,0
149123,326.83,763,759,0
149133,333.57,763,761,0
149143,341.50,763,759,0
149153,351.51,763,760,0
149164,365.20,763,760,0
149174,384.08,763,761,0
149184,409.81,763,760,0
149194,443.34,763,760,0
149214,484.00,763,759,0
149217,528.48,763,759,0
149226,574.02,763,761,0
149236,617.95,763,759,0
149246,657.86,763,762,0
149256,691.59,763,759,0
149266,717.51,763,761,0
149276,735.66,763,759,0
149286,748.36,763,762,0
149296,757.25,763,760,0
149306,763.48,763,762,0
149316,767.83,763,759,0
149326,770.88,763,761,0
149336,773.02,763,759,0
149346,774.51,763,761,0
149356,775.56,763,759,0
149366,774.83,763,762,0
149377,769.06,763,759,0
149387,756.05,763,762,0
149397,734.22,763,758,0
149407,702.87,763,762,0
149417,661.77,763,758,0
149427,611.57,763,762,0
149437,554.31,763,758,0
149447,494.43,763,762,0
149457,435.37,763,759,0
149467,380.32,763,761,0
149477,331.32,763,758,0
149487,290.13,763,762,0
149497,257.26,763,758,0
149507,233.27,763,762,0
149517,218.02,763,758,0
149527,211.11,763,762,0
149537,211.42,763,758,0
149548,217.98,763,762,0
149558,229.39,763,758,0
149568,244.48,763,762,0
149578,261.95,763,758,0
149588,280.65,763,762,0
149598,299.27,763,758,0
149608,317.15,763,762,0
149618,333.43,763,758,0
149628,347.62,763,762,0
149638,359.22,763,758,0
149648,368.11,763,762,0
149658,374.08,763,758,0
149668,377.48,763,762,0
149678,378.28,763,758,0
149688,376.91,763,762,0
149698,373.77,763,758,0
149708,369.34,763,762,0
149719,364.01,763,758,0
149729,358.39,763,762,0
149739,352.70,763,758,0
149749,347.35,763,762,0
149760,342.44,763,758,0
149769,338.11,763,762,0
149779,334.35,763,758,0
149789,331.12,763,762,0
149799,328.34,763,758,0
149809,325.92,763,762,0
149819,323.80,763,758,0
149829,321.98,763,762,0
149839,320.65,763,758,0
149849,320.07,763,762,0
149859,320.69,763,758,0
149869,323.40,763,762,0
149879,329.49,763,758,0
149889,340.19,763,762,0
149899,357.19,763,758,0
149909,381.95,763,762,0
149919,415.69,763,758,0
149929,458.00,763,762,0
149939,505.06,763,758,0
149958,553.60,745,757,0
149961,600.99,745,759,0
149970,644.49,745,762,0
149980,681.67,745,758,0
149990,710.57,745,762,0
150000,730.80,745,758,0
150010,744.96,745,762,0
150020,754.87,745,758,0
150030,761.81,745,762,0
150040,766.67,745,758,0
150050,770.07,745,762,0
150060,772.45,745,758,0
150070,774.11,745,762,0
150080,775.28,745,758,0
150090,772.71,745,762,0
150100,764.10,745,758,0
150110,748.08,745,762,0
150120,723.54,745,758,0
150130,689.87,745,762,0
150140,647.13,745,758,0
150150,595.92,745,762,0
150160,540.32,745,758,0
150170,483.65,745,762,0
150180,428.60,745,758,0
150190,377.59,745,762,0
150200,332.58,745,758,0
150210,294.78,745,762,0
150220,264.93,745,758,0
150231,243.40,745,762,0
150241,230.16,745,758,0
150251,224.71,745,761,0
150261,226.39,745,758,0
150272,234.03,745,761,0
150281,246.40,745,758,0
150291,262.01,745,762,0
150301,279.54,745,758,0
150311,297.59,745,761,0
150321,314.98,745,758,0
150331,330.55,745,762,0
150341,343.63,745,758,0
150351,353.72,745,761,0
150361,360.79,745,758,0
150371,364.75,745,761,0
150381,366.07,745,758,0
150391,365.06,745,761,0
150401,362.43,745,758,0
150411,358.70,745,761,0
150421,354.46,745,758,0
150431,349.91,745,761,0
150441,345.57,745,758,0
150451,341.50,745,762,0
150461,338.00,745,758,0
150471,335.00,745,761,0
150481,332.60,745,759,0
150491,330.79,745,761,0
150501,329.83,745,758,0
150511,329.62,745,761,0
150521,330.33,745,758,0
150531,331.82,745,762,0
150541,334.10,745,758,0
150551,336.94,745,761,0
150561,340.30,745,758,0
150572,343.81,745,761,0
150582,347.34,745,759,0
150592,350.37,745,761,0
150602,352.87,745,759,0
150612,354.67,745,761,0
150622,356.14,745,759,0
150632,357.64,745,761,0
150642,360.40,745,759,0
150652,365.81,745,761,0
150662,375.68,745,758,0
150672,391.85,745,761,0
150682,416.32,745,759,0
150702,450.17,743,759,0
150705,491.26,743,761,0
150714,536.18,743,760,0
150724,581.94,743,761,0
150734,625.89,743,760,0
150744,665.39,743,760,0
150754,698.02,743,759,0
150764,722.01,743,761,0
150774,738.81,743,760,0
150785,750.57,743,761,0
150795,758.80,743,759,0
150805,764.56,743,761,0
150815,768.59,743,759,0
150825,771.41,743,761,0
150835,773.39,743,759,0
150845,774.77,743,761,0
150855,775.74,743,759,0
150865,776.42,743,761,0
150875,774.84,743,759,0
150885,767.90,743,761,0
150895,753.14,743,759,0
150905,729.23,743,761,0
150915,695.77,743,759,0
150925,652.73,743,761,0
150935,600.40,743,759,0
150945,541.86,743,761,0
150956,481.39,743,759,0
150966,422.94,743,761,0
150976,369.39,743,758,0
150986,322.73,743,762,0
150996,284.45,743,758,0
151006,255.56,743,762,0
151016,236.02,743,758,0
151026,225.60,743,761,0
151036,223.41,743,758,0
151046,228.26,743,761,0
151056,238.64,743,759,0
151066,253.15,743,761,0
151076,270.16,743,758,0
151086,288.37,743,761,0
151096,306.34,743,759,0
151106,323.13,743,762,0
151116,337.92,743,758,0
151127,350.28,743,762,0
151137,359.84,743,758,0
151147,366.70,743,762,0
151157,370.95,743,758,0
151168,373.02,743,762,0
151177,373.19,743,759,0
151187,371.72,743,783,0
151197,368.80,743,771,0
151207,365.00,743,776,0
151217,360.59,743,777,0
151227,355.91,743,779,0
151237,351.18,743,780,0
151247,346.71,743,781,0
151257,342.73,743,780,0
151267,339.42,743,782,0
151277,336.60,743,785,0
151287,334.15,743,788,0
151297,332.09,743,788,0
151307,330.18,743,791,0
151317,328.45,743,792,0
151327,326.82,743,792,0
151337,325.37,743,792,0
151347,324.06,743,793,0
151357,323.14,743,792,0
151367,322.54,743,793,0
151377,322.64,743,792,0
151387,323.22,743,793,0
151397,324.48,743,793,0
151407,326.18,743,793,0
151417,328.44,743,793,0
151427,330.88,743,793,0
151437,333.57,743,793,0
151447,336.32,743,793,0
151457,339.52,743,793,0
151468,343.69,743,794,0
151478,350.21,743,794,0
151488,360.39,743,792,0
151498,376.26,743,794,0
151508,399.41,743,792,0
151518,431.13,743,794,0
151537,471.08,836,793,0
151540,515.93,836,795,0
151549,562.49,836,791,0
151559,608.07,836,794,0
151569,649.88,836,792,0
151579,685.53,836,792,0
151589,713.27,836,792,0
151599,732.69,836,794,0
151609,746.28,836,794,0
151619,755.80,836,794,0
151629,762.46,836,794,0
151639,767.12,836,795,0
151649,770.38,836,794,0
151659,772.67,836,794,0
151669,774.27,836,794,0
151680,775.39,836,795,0
151689,776.17,836,794,0
151699,776.72,836,794,0
151709,773.72,836,794,0
151719,764.29,836,794,0
151729,746.80,836,794,0
151739,719.95,836,794,0
151749,683.15,836,794,0
151759,636.43,836,794,0
151769,580.55,836,794,0
151779,519.65,836,795,0
151789,457.70,836,794,0
151799,397.66,836,794,0
151809,342.43,836,793,0
151819,294.22,836,794,0
151829,254.47,836,793,0
151839,223.77,836,794,0
151849,202.45,836,793,0
151859,190.27,836,794,0
151869,186.59,836,794,0
151879,190.27,836,794,0
151889,199.83,836,794,0
151899,213.77,836,794,0
151909,230.60,836,792,0
151919,249.23,836,794,0
151929,268.88,836,792,0
151939,289.10,836,794,0
151949,309.60,836,792,0
151959,330.46,836,794,0
151969,351.67,836,792,0
151980,373.19,836,794,0
151990,394.52,836,791,0
152000,415.11,836,794,0
152010,433.85,836,791,0
152020,449.92,836,795,0
152030,462.29,836,791,0
152040,470.30,836,794,0
152050,473.55,836,791,0
152060,472.23,836,794,0
152070,466.76,836,791,0
152080,458.09,836,794,0
152090,447.13,836,789,0
152100,435.27,836,794,0
152110,423.66,836,791,0
152120,413.60,836,794,0
152130,405.88,836,792,0
152140,401.29,836,794,0
152151,400.04,836,792,0
152161,402.09,836,794,0
152171,406.73,836,792,0
152181,413.28,836,794,0
152192,420.36,836,792,0
152201,426.89,836,795,0
152211,431.25,836,793,0
152221,431.99,836,794,0
152231,427.49,836,793,0
152241,416.97,836,794,0
152251,399.37,836,793,0
152261,374.79,836,794,0
152271,343.74,836,790,0
152281,308.12,836,794,0
152291,270.32,836,792,0
152301,233.97,836,794,0
152311,202.56,836,791,0
152321,180.07,836,794,0
152331,169.85,836,791,0
152341,174.78,836,795,0
152351,196.27,836,791,0
152361,235.02,836,794,0
152371,289.49,836,790,0
152381,354.87,836,795,0
152391,425.15,836,790,0
152401,495.18,836,795,0
152411,560.52,836,790,0
152430,617.71,893,789,0
152433,664.00,893,791,0
152442,698.20,893,794,0
152452,722.14,893,789,0
152462,738.90,893,795,0
152472,750.63,893,790,0
152482,758.84,893,795,0
152492,764.59,893,789,0
152502,768.61,893,795,0
152512,771.43,893,790,0
152522,773.40,893,795,0
152532,774.78,893,790,0
152542,775.70,893,795,0
152552,772.45,893,790,0
152562,762.37,893,794,0
152572,743.70,893,790,0
152582,716.06,893,794,0
152592,679.23,893,791,0
152602,633.73,893,794,0
152612,580.28,893,790,0
152622,524.06,893,794,0
152632,468.88,893,790,0
152642,418.09,893,794,0
152652,373.53,893,792,0
152663,337.20,893,794,0
152673,310.01,893,792,0
152683,292.61,893,794,0
152693,284.58,893,792,0
152704,285.39,893,794,0
152713,293.55,893,793,0
152723,307.48,893,795,0
152733,324.91,893,794,0
152743,343.84,893,795,0
152753,362.36,893,792,0
152763,379.05,893,795,0
152773,392.96,893,791,0
152783,403.86,893,793,0
152793,411.53,893,793,0
152803,416.43,893,794,0
152813,418.70,893,794,0
152823,418.88,893,794,0
152833,417.24,893,794,0
152843,414.13,893,794,0
152853,409.46,893,794,0
152863,403.54,893,795,0
152873,396.13,893,794,0
152883,387.69,893,795,0
152893,377.93,893,792,0
152903,366.81,893,795,0
152913,354.09,893,794,0
152923,340.18,893,794,0
152933,325.13,893,794,0
152943,309.75,893,795,0
152953,294.61,893,795,0
152963,280.80,893,795,0
152973,269.03,893,794,0
152983,260.15,893,795,0
152993,254.06,893,794,0
153004,250.91,893,795,0
153014,250.13,893,793,0
153024,251.12,893,794,0
153034,253.10,893,794,0
153044,255.77,893,794,0
153054,258.54,893,794,0
153064,261.63,893,795,0
153074,264.83,893,792,0
153084,268.22,893,794,0
153094,271.80,893,793,0
153104,276.10,893,795,0
153114,281.86,893,793,0
153124,290.43,893,795,0
153134,303.03,893,791,0
153144,321.53,893,794,0
153154,347.95,893,791,0
153164,383.88,893,795,0
153175,429.17,893,791,0
153185,479.82,893,795,0
153195,532.33,893,791,0
153205,583.75,893,794,0
153216,631.18,893,795,0
153234,671.88,804,794,0
153237,703.72,804,794,0
153246,726.00,804,795,0
153256,741.60,804,794,0
153266,752.52,804,794,0
153276,760.16,804,793,0
153286,765.52,804,794,0
153296,769.26,804,793,0
153306,771.88,804,794,0
153316,773.72,804,793,0
153326,775.00,804,793,0
153336,775.90,804,793,0
153346,776.53,804,794,0
153356,776.97,804,793,0
153366,774.58,804,793,0
153376,765.32,804,793,0
153387,746.11,804,793,0
153396,715.95,804,793,0
153406,673.92,804,794,0
153416,620.37,804,793,0
153426,556.02,804,793,0
153436,485.26,804,793,0
153446,413.65,804,794,0
153456,346.21,804,793,0
153466,285.59,804,793,0
153476,234.50,804,793,0
153486,193.98,804,793,0
153496,164.71,804,793,0
153506,145.90,804,793,0
153516,136.84,804,792,0
153526,136.08,804,794,0
153536,142.52,804,793,0
153546,154.45,804,793,0
153556,170.56,804,793,0
153566,188.99,804,793,0
153576,208.62,804,793,0
153586,228.11,804,793,0
153596,246.72,804,793,0
153606,263.26,804,794,0
153616,277.32,804,793,0
153626,288.28,804,793,0
153636,296.38,804,793,0
153646,301.50,804,793,0
153656,304.05,804,793,0
153666,304.03,804,793,0
153676,302.18,804,794,0
153687,298.66,804,793,0
153697,294.22,804,794,0
153707,289.09,804,792,0
153717,283.97,804,794,0
153728,279.05,804,791,0
153737,275.00,804,794,0
153747,271.83,804,792,0
153757,270.04,804,794,0
153767,269.51,804,792,0
153777,270.47,804,794,0
153787,272.60,804,792,0
153797,276.06,804,794,0
153807,280.42,804,792,0
153817,285.78,804,793,0
153827,291.59,804,792,0
153837,297.88,804,794,0
153847,304.09,804,792,0
153857,310.23,804,794,0
153867,315.82,804,792,0
153877,320.80,804,794,0
153887,324.63,804,792,0
153897,327.49,804,795,0
153907,328.93,804,792,0
153917,329.33,804,794,0
153927,328.46,804,792,0
153937,326.74,804,794,0
153947,324.46,804,793,0
153957,322.61,804,794,0
153967,322.00,804,792,0
153977,324.44,804,794,0
153987,331.12,804,793,0
153997,344.33,804,793,0
154007,365.79,804,792,0
154027,397.27,792,792,0
154030,438.71,792,790,0
154039,486.24,792,795,0
154049,536.23,792,790,0
154059,585.92,792,794,0
154070,632.18,792,790,0
154079,672.37,792,795,0
154089,704.02,792,791,0
154099,726.17,792,795,0
154109,741.68,792,790,0
154119,752.53,792,795,0
154129,760.13,792,790,0
154139,765.45,792,795,0
154149,769.17,792,790,0
154159,771.78,792,795,0
154169,773.60,792,791,0
154179,774.92,792,795,0
154189,775.80,792,790,0
154199,776.42,792,795,0
154209,776.85,792,791,0
154219,777.15,792,795,0
154229,777.32,792,790,0
154240,772.60,792,795,0
154249,760.33,792,791,0
154259,738.63,792,795,0
154269,706.34,792,790,0
154279,663.64,792,795,0
154289,611.38,792,791,0
154299,550.88,792,795,0
154309,488.39,792,790,0
154319,428.40,792,794,0
154329,374.58,792,790,0
154339,329.75,792,795,0
154349,295.11,792,790,0
154359,271.16,792,795,0
154369,257.19,792,790,0
154379,252.46,792,795,0
154389,255.32,792,790,0
154399,264.14,792,795,0
154409,276.87,792,790,0
154419,291.95,792,795,0
154429,307.52,792,790,0
154439,322.71,792,794,0
154449,336.30,792,790,0
154459,347.95,792,795,0
154469,357.18,792,790,0
154479,364.15,792,795,0
154489,368.87,792,790,0
154499,371.82,792,795,0
154509,373.16,792,790,0
154519,373.45,792,794,0
154529,372.76,792,790,0
154540,371.55,792,795,0
154550,369.88,792,790,0
154560,367.99,792,795,0
154570,365.85,792,789,0
154580,363.67,792,794,0
154590,361.32,792,790,0
154600,359.08,792,795,0
154610,356.83,792,790,0
154620,354.78,792,794,0
154630,352.92,792,790,0
154640,351.31,792,795,0
154650,349.89,792,789,0
154660,348.77,792,795,0
154670,347.72,792,790,0
154680,346.95,792,795,0
154690,346.24,792,789,0
154700,345.86,792,794,0
154711,345.99,792,789,0
154721,347.28,792,794,0
154731,350.45,792,789,0
154741,356.83,792,795,0
154752,367.72,792,789,0
154761,384.56,792,795,0
154771,408.57,792,789,0
154781,440.93,792,795,0
154801,480.98,774,794,0
154804,525.30,774,795,0
154813,570.81,774,790,0
154823,614.79,774,795,0
154833,655.01,774,791,0
154843,689.34,774,794,0
154853,715.94,774,790,0
154863,734.56,774,795,0
154873,747.59,774,791,0
154883,756.71,774,795,0
154893,763.10,774,790,0
154903,767.57,774,795,0
154913,770.70,774,791,0
154924,772.89,774,795,0
154934,774.42,774,791,0
154944,775.50,774,795,0
154954,776.25,774,792,0
154964,773.17,774,794,0
154974,764.04,774,791,0
154984,746.84,774,795,0
154994,720.40,774,792,0
155004,684.15,774,794,0
155014,638.55,774,791,0
155024,584.04,774,795,0
155034,525.19,774,792,0
155044,465.52,774,794,0
155054,408.62,774,791,0
155064,357.09,774,794,0
155074,313.13,774,792,0
155084,277.65,774,794,0
155095,251.57,774,792,0
155105,234.86,774,794,0
155115,227.14,774,792,0
155125,227.19,774,794,0
155136,233.94,774,793,0
155145,245.62,774,794,0
155155,260.82,774,793,0
155165,277.72,774,794,0
155175,295.16,774,793,0
155185,311.70,774,794,0
155195,326.74,774,793,0
155205,339.46,774,794,0
155215,349.82,774,793,0
155225,357.51,774,794,0
155235,362.88,774,793,0
155245,365.92,774,794,0
155255,367.19,774,793,0
155265,366.83,774,795,0
155275,365.42,774,792,0
155285,363.11,774,794,0
155295,360.38,774,793,0
155305,357.31,774,794,0
155315,354.39,774,793,0
155325,351.57,774,794,0
155335,349.26,774,793,0
155345,347.29,774,794,0
155355,345.92,774,792,0
155365,345.00,774,794,0
155375,344.66,774,793,0
155385,344.55,774,794,0
155395,344.85,774,792,0
155405,345.24,774,794,0
155415,345.90,774,793,0
155425,346.53,774,794,0
155436,347.31,774,793,0
155446,348.03,774,793,0
155456,348.88,774,794,0
155466,349.60,774,793,0
155476,350.32,774,794,0
155486,350.74,774,793,0
155496,350.99,774,794,0
155506,350.69,774,793,0
155516,350.18,774,794,0
155526,349.57,774,793,0
155536,349.66,774,794,0
155546,351.22,774,792,0
155556,356.00,774,794,0
155566,365.21,774,794,0
155576,381.05,774,794,0
155586,404.86,774,793,0
155606,438.03,805,792,0
155609,478.99,805,790,0
155618,524.38,805,795,0
155628,570.85,805,790,0
155638,615.94,805,795,0
155649,656.80,805,790,0
155659,691.23,805,794,0
155669,717.26,805,790,0
155679,735.48,805,795,0
155689,748.24,805,789,0
155699,757.17,805,795,0
155709,763.42,805,790,0
155719,767.79,805,795,0
155729,770.85,805,790,0
155739,773.00,805,795,0
155749,774.50,805,790,0
155759,775.55,805,795,0
155769,776.28,805,790,0
155779,775.08,805,795,0
155789,768.59,805,790,0
155799,754.40,805,794,0
155809,730.79,805,789,0
155820,697.00,805,795,0
155830,652.81,805,789,0
155840,598.70,805,795,0
155850,537.20,805,789,0
155860,473.07,805,794,0
155870,410.22,805,789,0
155880,352.08,805,795,0
155890,301.02,805,789,0
155900,258.88,805,794,0
155910,226.56,805,789,0
155920,204.58,805,795,0
155930,192.62,805,790,0
155940,189.99,805,795,0
155950,195.26,805,789,0
155960,207.10,805,794,0
155970,223.78,805,790,0
155980,243.69,805,795,0
155991,264.96,805,789,0
156001,286.10,805,795,0
156011,305.74,805,789,0
156021,323.05,805,794,0
156032,337.30,805,789,0
156041,348.18,805,795,0
156051,355.63,805,789,0
156061,359.81,805,795,0
156071,361.07,805,789,0
156081,359.93,805,795,0
156091,356.91,805,790,0
156101,352.57,805,794,0
156111,347.30,805,790,0
156121,341.55,805,795,0
156131,335.77,805,790,0
156141,330.27,805,795,0
156151,325.30,805,790,0
156161,321.10,805,795,0
156171,317.77,805,790,0
156181,315.52,805,795,0
156191,314.42,805,790,0
156201,314.47,805,795,0
156211,315.57,805,790,0
156221,317.63,805,795,0
156231,320.53,805,790,0
156241,323.97,805,795,0
156251,327.71,805,789,0
156261,331.48,805,795,0
156271,335.02,805,790,0
156281,338.14,805,795,0
156291,340.67,805,789,0
156301,342.53,805,795,0
156311,343.61,805,789,0
156321,343.81,805,795,0
156332,343.14,805,790,0
156342,341.60,805,794,0
156352,339.28,805,790,0
156362,336.45,805,795,0
156372,333.62,805,791,0
156382,331.72,805,795,0
156392,332.06,805,791,0
156402,336.28,805,795,0
156412,346.31,805,791,0
156422,363.53,805,795,0
156432,389.43,805,791,0
156451,424.83,846,790,0
156454,468.30,846,793,0
156463,516.04,846,795,0
156473,564.67,846,791,0
156483,611.10,846,795,0
156493,653.11,846,792,0
156503,688.39,846,795,0
156513,715.23,846,791,0
156523,734.02,846,795,0
156533,747.17,846,792,0
156544,756.38,846,795,0
156553,762.86,846,791,0
156563,767.40,846,795,0
156573,770.58,846,791,0
156583,772.81,846,795,0
156593,774.37,846,791,0
156603,775.41,846,795,0
156613,774.43,846,792,0
156623,768.26,846,795,0
156633,755.02,846,791,0
156643,733.03,846,795,0
156653,701.39,846,792,0
156663,659.79,846,794,0
156673,608.90,846,791,0
156683,551.03,846,794,0
156693,490.59,846,791,0
156703,430.84,846,794,0
156713,375.17,846,792,0
156723,326.01,846,794,0
156733,285.29,846,792,0
156743,253.88,846,795,0
156753,232.44,846,792,0
156763,220.78,846,794,0
156773,218.40,846,792,0
156783,224.11,846,795,0
156793,236.68,846,792,0
156803,254.26,846,795,0
156813,275.10,846,791,0
156823,297.31,846,794,0
156833,319.37,846,792,0
156844,339.66,846,794,0
156854,357.12,846,793,0
156864,370.76,846,794,0
156874,380.43,846,793,0
156884,385.96,846,794,0
156894,387.68,846,792,0
156904,385.94,846,794,0
156914,381.58,846,793,0
156924,375.11,846,794,0
156934,367.49,846,793,0
156944,359.24,846,794,0
156954,351.16,846,793,0
156964,343.65,846,794,0
156974,337.37,846,792,0
156984,332.37,846,794,0
156994,329.09,846,793,0
157004,327.39,846,794,0
157015,327.36,846,794,0
157025,328.67,846,794,0
157035,331.25,846,794,0
157045,334.56,846,793,0
157056,338.55,846,794,0
157065,342.76,846,794,0
157075,347.03,846,793,0
157085,350.79,846,793,0
157095,353.98,846,794,0
157105,356.09,846,794,0
157115,357.22,846,793,0
157125,356.94,846,793,0
157135,355.46,846,794,0
157145,352.71,846,794,0
157155,349.32,846,793,0
157165,345.80,846,793,0
157175,343.50,846,794,0
157185,343.39,846,794,0
157195,347.48,846,793,0
157205,357.32,846,793,0
157215,374.97,846,794,0
157225,401.68,846,793,0
157235,437.90,846,793,0
157245,481.26,846,794,0
157264,528.50,813,793,0
157267,576.26,813,791,0
157276,621.74,813,794,0
157286,662.15,813,793,0
157296,695.32,813,795,0
157306,720.04,813,792,0
157316,737.38,813,794,0
157326,749.52,813,793,0
157336,758.02,813,794,0
157346,763.97,813,792,0
157356,768.14,813,794,0
157366,771.10,813,793,0
157376,773.17,813,794,0
157386,774.62,813,792,0
157396,775.63,813,795,0
157406,773.90,813,794,0
157416,766.56,813,794,0
157426,751.43,813,792,0
157436,727.26,813,794,0
157446,693.63,813,793,0
157456,650.54,813,794,0
157466,598.22,813,793,0
157476,540.08,813,794,0
157486,480.27,813,793,0
157496,422.46,813,794,0
157506,369.27,813,793,0
157516,322.73,813,795,0
157527,284.15,813,792,0
157537,254.75,813,795,0
157547,234.55,813,792,0
157557,223.37,813,795,0
157568,220.26,813,791,0
157577,224.30,813,794,0
157587,233.98,813,792,0
157597,248.09,813,795,0
157607,264.90,813,791,0
157617,283.15,813,794,0
157627,301.27,813,792,0
157637,318.46,813,795,0
157647,333.71,813,791,0
157657,346.61,813,795,0
157667,356.50,813,791,0
157677,363.34,813,794,0
157687,366.88,813,791,0
157697,367.51,813,794,0
157707,365.22,813,792,0
157717,360.61,813,795,0
157727,353.83,813,791,0
157737,345.61,813,795,0
157747,336.38,813,794,0
157757,327.05,813,794,0
157767,317.99,813,794,0
157777,309.98,813,794,0
157787,303.30,813,792,0
157797,298.54,813,794,0
157807,295.76,813,792,0
157817,295.19,813,795,0
157827,296.51,813,792,0
157837,299.74,813,795,0
157847,304.40,813,791,0
157857,310.24,813,794,0
157868,316.64,813,790,0
157878,323.35,813,795,0
157888,329.76,813,791,0
157898,335.74,813,795,0
157908,340.88,813,790,0
157918,345.20,813,794,0
157928,348.48,813,792,0
157938,351.00,813,794,0
157948,352.67,813,791,0
157958,353.88,813,795,0
157968,354.60,813,791,0
157978,355.11,813,795,0
157988,355.25,813,791,0
157998,355.26,813,795,0
158008,355.01,813,791,0
158018,354.96,813,795,0
158028,355.45,813,792,0
158039,357.63,813,795,0
158049,362.62,813,791,0
158059,372.29,813,795,0
158069,388.32,813,789,0
158080,412.48,813,795,0
158098,445.38,834,794,0
158101,485.94,834,796,0
158110,530.57,834,789,0
158120,576.39,834,794,0
158130,620.50,834,790,0
158140,660.33,834,795,0
158150,693.53,834,789,0
158160,718.79,834,795,0
158170,736.47,834,789,0
158180,748.88,834,795,0
158190,757.58,834,791,0
158200,763.66,834,795,0
158210,767.92,834,792,0
158220,770.94,834,795,0
158230,773.02,834,791,0
158240,774.47,834,794,0
158251,775.49,834,791,0
158260,776.20,834,795,0
158270,776.65,834,790,0
158280,772.86,834,795,0
158290,762.19,834,790,0
158300,743.23,834,795,0
158310,714.75,834,790,0
158320,676.29,834,795,0
158330,627.99,834,790,0
158340,570.74,834,795,0
158350,509.49,834,790,0
158360,448.23,834,795,0
158370,389.96,834,790,0
158380,337.47,834,795,0
158390,292.76,834,790,0
158400,257.22,834,795,0
158410,231.27,834,790,0
158420,215.07,834,795,0
158430,207.89,834,790,0
158440,208.74,834,794,0
158450,216.19,834,790,0
158460,228.69,834,795,0
158470,244.43,834,790,0
158480,261.87,834,795,0
158490,279.57,834,790,0
158500,296.50,834,795,0
158510,311.69,834,790,0
158520,324.55,834,795,0
158530,334.72,834,790,0
158540,342.09,834,795,0
158551,346.60,834,790,0
158561,348.44,834,795,0
158571,347.88,834,792,0
158581,345.30,834,795,0
158592,341.22,834,791,0
158601,336.10,834,795,0
158611,330.46,834,791,0
158621,324.79,834,795,0
158631,319.50,834,791,0
158641,314.85,834,795,0
158651,311.08,834,791,0
158661,308.31,834,794,0
158671,306.63,834,791,0
158681,306.14,834,794,0
158691,306.70,834,791,0
158701,308.29,834,795,0
158711,310.99,834,791,0
158721,314.64,834,794,0
158731,319.07,834,791,0
158741,324.15,834,795,0
158751,329.59,834,792,0
158761,335.20,834,795,0
158771,340.71,834,791,0
158781,345.81,834,794,0
158791,350.37,834,790,0
158801,354.16,834,794,0
158811,357.07,834,791,0
158821,359.06,834,794,0
158831,360.16,834,791,0
158841,360.32,834,794,0
158851,359.54,834,790,0
158861,357.79,834,794,0
158871,355.24,834,791,0
158881,352.04,834,795,0
158892,348.60,834,792,0
158902,345.68,834,795,0
158912,344.53,834,792,0
158922,346.73,834,795,0
158932,354.05,834,793,0
158942,368.05,834,794,0
158952,390.45,834,792,0
158971,422.33,873,791,0
158974,463.24,873,794,0
158983,509.24,873,795,0
158993,557.00,873,792,0
159003,603.46,873,794,0
159013,646.18,873,793,0
159023,682.72,873,794,0
159033,711.22,873,793,0
159043,731.17,873,794,0
159053,745.18,873,793,0
159063,754.98,873,795,0
159073,761.89,873,793,0
159083,766.72,873,795,0
159093,770.10,873,793,0
159104,772.47,873,794,0
159113,774.13,873,792,0
159123,775.29,873,794,0
159133,774.18,873,793,0
159143,768.12,873,794,0
159153,755.66,873,793,0
159163,735.27,873,795,0
159173,706.22,873,793,0
159183,668.14,873,794,0
159193,621.60,873,792,0
159203,568.92,873,795,0
159213,513.87,873,793,0
159223,459.10,873,794,0
159233,407.60,873,793,0
159243,361.43,873,795,0
159253,322.43,873,793,0
159263,291.23,873,794,0
159273,268.66,873,793,0
159283,254.45,873,795,0
159293,248.31,873,793,0
159303,249.16,873,794,0
159313,256.01,873,793,0
159323,267.28,873,794,0
159333,281.73,873,793,0
159343,297.79,873,794,0
159353,314.48,873,793,0
159363,330.45,873,795,0
159373,345.06,873,793,0
159383,357.47,873,794,0
159393,367.62,873,793,0
159404,375.02,873,794,0
159414,379.90,873,793,0
159424,382.11,873,793,0
159434,382.21,873,794,0
159444,380.26,873,793,0
159454,376.88,873,793,0
159464,372.16,873,793,0
159474,366.76,873,794,0
159484,360.70,873,794,0
159494,354.62,873,793,0
159504,348.52,873,793,0
159514,342.83,873,794,0
159524,337.53,873,793,0
159534,333.00,873,793,0
159544,329.18,873,794,0
159554,326.47,873,794,0
159564,324.74,873,793,0
159575,324.22,873,795,0
159585,324.71,873,793,0
159595,326.38,873,794,0
159605,328.84,873,792,0
159616,332.15,873,794,0
159625,335.83,873,794,0
159635,339.91,873,795,0
159645,343.92,873,792,0
159655,347.85,873,795,0
159665,351.23,873,793,0
159675,354.25,873,795,0
159685,356.58,873,793,0
159695,358.59,873,794,0
159705,360.38,873,793,0
159715,362.97,873,794,0
159725,367.26,873,792,0
159735,375.03,873,794,0
159745,387.45,873,793,0
159755,406.56,873,795,0
159765,433.60,873,792,0
159775,469.72,873,795,0
159795,511.51,823,795,0
159798,555.97,823,794,0
159807,600.16,823,791,0
159817,641.81,823,795,0
159827,678.43,823,793,0
159837,708.04,823,795,0
159847,728.99,823,791,0
159857,743.65,823,795,0
159867,753.91,823,792,0
159877,761.09,823,794,0
159887,766.17,823,791,0
159897,769.67,823,795,0
159907,772.13,823,790,0
159917,773.85,823,795,0
159927,775.05,823,790,0
159937,775.89,823,795,0
159947,776.48,823,790,0
159958,775.69,823,795,0
159967,770.51,823,790,0
159977,758.49,823,795,0
159987,737.90,823,790,0
159997,707.97,823,794,0
160007,668.81,823,791,0
160017,620.74,823,795,0
160027,565.66,823,790,0
160037,507.90,823,795,0
160047,451.28,823,790,0
160057,399.08,823,795,0
160067,353.41,823,790,0
160077,315.70,823,795,0
160087,286.78,823,790,0
160097,267.13,823,795,0
160107,256.38,823,790,0
160117,253.82,823,795,0
160128,258.16,823,790,0
160137,268.14,823,795,0
160147,281.94,823,790,0
160157,298.16,823,795,0
160167,315.00,823,790,0
160177,331.16,823,794,0
160187,345.29,823,791,0
160197,356.69,823,795,0
160207,364.84,823,790,0
160217,369.86,823,794,0
160227,371.70,823,791,0
160237,370.93,823,795,0
160247,367.87,823,791,0
160257,363.32,823,795,0
160267,357.70,823,790,0
160277,351.70,823,795,0
160287,345.62,823,791,0
160297,339.99,823,795,0
160307,334.98,823,791,0
160317,331.04,823,795,0
160327,328.12,823,791,0
160337,326.54,823,794,0
160347,326.16,823,791,0
160357,327.06,823,795,0
160367,328.97,823,792,0
160377,331.85,823,794,0
160387,335.32,823,792,0
160397,339.30,823,794,0
160407,343.37,823,791,0
160417,347.41,823,795,0
160428,351.06,823,791,0
160438,354.30,823,795,0
160448,356.95,823,790,0
160458,358.98,823,795,0
160468,360.23,823,790,0
160478,360.85,823,794,0
160488,360.64,823,790,0
160498,359.80,823,794,0
160508,358.40,823,790,0
160518,356.83,823,795,0
160528,355.72,823,791,0
160538,356.36,823,795,0
160548,360.07,823,790,0
160558,368.49,823,795,0
160568,383.43,823,790,0
160578,406.66,823,795,0
160588,439.20,823,790,0
160608,479.81,814,789,0
160611,524.83,814,792,0
160620,571.12,814,795,0
160630,616.00,814,791,0
160641,656.80,814,795,0
160651,691.10,814,791,0
160661,717.17,814,795,0
160671,735.42,814,792,0
160681,748.19,814,795,0
160691,757.14,814,791,0
160701,763.40,814,795,0
160711,767.78,814,791,0
160721,770.84,814,795,0
160731,772.99,814,791,0
160741,774.49,814,795,0
160751,775.55,814,792,0
160761,773.71,814,795,0
160771,766.94,814,791,0
160781,753.24,814,794,0
160791,731.40,814,792,0
160801,700.68,814,795,0
160812,661.00,814,793,0
160822,612.62,814,795,0
160832,558.86,814,793,0
160842,502.76,814,795,0
160852,447.63,814,793,0
160862,395.97,814,794,0
160872,349.87,814,793,0
160882,310.56,814,794,0
160892,279.15,814,793,0
160902,255.71,814,795,0
160912,240.41,814,792,0
160922,232.61,814,794,0
160932,231.79,814,793,0
160942,236.65,814,795,0
160952,246.23,814,793,0
160962,259.02,814,794,0
160972,273.97,814,793,0
160983,289.49,814,794,0
160993,304.64,814,793,0
161003,318.08,814,794,0
161013,329.46,814,794,0
161024,338.06,814,793,0
161033,343.91,814,793,0
161043,346.90,814,794,0
161053,347.53,814,794,0
161063,346.00,814,793,0
161073,343.13,814,793,0
161083,339.19,814,794,0
161093,334.93,814,794,0
161103,330.50,814,793,0
161113,326.36,814,793,0
161123,322.48,814,793,0
161133,319.12,814,794,0
161143,316.04,814,793,0
161153,313.42,814,794,0
161163,310.98,814,794,0
161173,309.01,814,794,0
161183,307.34,814,794,0
161193,306.21,814,794,0
161203,305.46,814,794,0
161213,305.36,814,794,0
161223,305.77,814,793,0
161233,306.91,814,794,0
161243,308.48,814,794,0
161253,310.65,814,794,0
161263,313.20,814,793,0
161273,316.31,814,794,0
161283,319.69,814,794,0
161293,323.47,814,794,0
161303,327.23,814,793,0
161313,331.10,814,794,0
161324,334.67,814,793,0
161334,338.03,814,795,0
161344,340.98,814,792,0
161354,344.15,814,795,0
161364,347.97,814,792,0
161374,353.76,814,795,0
161384,362.70,814,793,0
161394,376.89,814,795,0
161404,397.84,814,792,0
161423,426.86,815,793,0
161426,464.83,815,791,0
161435,508.25,815,794,0
161445,553.99,815,791,0
161455,599.42,815,795,0
161465,641.68,815,791,0
161475,678.55,815,795,0
161485,708.26,815,791,0
161495,729.05,815,795,0
161505,743.65,815,791,0
161515,753.91,815,795,0
161525,761.10,815,791,0
161536,766.17,815,795,0
161545,769.72,815,792,0
161555,772.20,815,795,0
161565,773.94,815,791,0
161575,775.16,815,795,0
161585,776.01,815,792,0
161595,775.02,815,795,0
161605,769.02,815,791,0
161615,755.90,815,795,0
161625,734.50,815,792,0
161635,704.13,815,795,0
161645,664.58,815,791,0
161655,616.36,815,795,0
161665,561.91,815,792,0
161675,505.62,815,794,0
161685,450.79,815,791,0
161695,400.16,815,795,0
161705,355.75,815,791,0
161715,319.23,815,794,0
161725,291.13,815,791,0
161735,271.76,815,795,0
161745,260.69,815,791,0
161755,257.31,815,795,0
161765,260.26,815,791,0
161775,268.45,815,795,0
161785,280.28,815,791,0
161795,294.46,815,795,0
161805,309.45,815,791,0
161815,324.23,815,795,0
161825,337.75,815,791,0
161836,349.52,815,795,0
161846,358.84,815,790,0
161856,365.66,815,795,0
161866,369.83,815,790,0
161876,371.64,815,795,0
161886,371.23,815,790,0
161896,369.19,815,794,0
161906,365.75,815,790,0
161916,361.45,815,795,0
161926,356.60,815,791,0
161936,351.71,815,795,0
161946,346.91,815,791,0
161956,342.52,815,795,0
161966,338.55,815,790,0
161976,335.26,815,795,0
161986,332.57,815,790,0
161996,330.64,815,795,0
162007,329.33,815,790,0
162017,328.85,815,795,0
162027,328.98,815,790,0
162037,329.76,815,795,0
162048,330.90,815,790,0
162057,332.47,815,795,0
162067,334.13,815,790,0
162077,335.89,815,795,0
162087,337.42,815,790,0
162097,338.80,815,794,0
162107,339.89,815,790,0
162117,341.12,815,795,0
162127,342.88,815,790,0
162137,346.18,815,795,0
162147,352.12,815,790,0
162157,362.46,815,795,0
162167,378.82,815,790,0
162177,402.57,815,795,0
162187,434.72,815,790,0
162206,474.96,783,789,0
162209,519.76,783,790,0
162219,566.07,783,795,0
162228,611.01,783,790,0
162238,651.98,783,795,0
162248,687.00,783,790,0
162258,714.30,783,795,0
162268,733.41,783,790,0
162278,746.79,783,795,0
162288,756.15,783,789,0
162298,762.71,783,795,0
162308,767.29,783,789,0
162318,770.51,783,795,0
162328,772.75,783,790,0
162338,774.33,783,795,0
162348,775.43,783,789,0
162358,773.76,783,794,0
162368,766.67,783,790,0
162378,752.29,783,795,0
162388,729.44,783,790,0
162398,697.94,783,795,0
162408,657.59,783,789,0
162418,608.81,783,795,0
162428,554.78,783,789,0
162438,499.39,783,795,0
162448,445.70,783,790,0
162458,396.25,783,794,0
162468,352.55,783,790,0
162478,316.12,783,794,0
162488,287.72,783,789,0
162498,267.66,783,795,0
162508,255.63,783,790,0
162519,251.16,783,795,0
162529,253.34,783,790,0
162539,261.08,783,795,0
162549,272.97,783,790,0
162560,287.68,783,795,0
162569,303.72,783,790,0
162579,319.79,783,795,0
162589,334.81,783,790,0
162599,347.85,783,795,0
162609,358.40,783,790,0
162619,366.12,783,795,0
162629,370.93,783,790,0
162639,373.01,783,794,0
162649,372.70,783,790,0
162659,370.39,783,795,0
162669,366.59,783,791,0
162679,361.66,783,795,0
162689,356.06,783,790,0
162699,350.17,783,795,0
162709,344.38,783,791,0
162719,338.91,783,794,0
162729,334.01,783,791,0
162739,329.76,783,795,0
162749,326.28,783,790,0
162759,323.58,783,795,0
162769,321.78,783,791,0
162779,320.77,783,795,0
162789,320.54,783,790,0
162799,321.02,783,795,0
162809,322.21,783,791,0
162819,324.04,783,795,0
162829,326.43,783,790,0
162839,329.21,783,795,0
162849,332.36,783,791,0
162860,335.73,783,795,0
162870,339.11,783,791,0
162880,342.25,783,795,0
162890,345.04,783,792,0
162900,347.30,783,795,0
162910,349.05,783,791,0
162920,350.41,783,795,0
162930,352.00,783,791,0
162940,354.79,783,795,0
162950,360.04,783,791,0
162960,369.41,783,795,0
162970,385.02,783,791,0
162980,408.54,783,795,0
162990,441.04,783,791,0
163009,481.27,803,791,0
163012,525.89,803,794,0
163021,571.99,803,794,0
163031,616.74,803,792,0
163041,657.32,803,794,0
163051,691.38,803,793,0
163061,717.32,803,794,0
163072,735.53,803,793,0
163081,748.27,803,794,0
163091,757.19,803,793,0
163101,763.43,803,794,0
163111,767.80,803,793,0
163121,770.86,803,794,0
163131,773.00,803,793,0
163141,774.50,803,795,0
163151,775.55,803,793,0
163161,776.29,803,795,0
163171,776.80,803,793,0
163181,775.70,803,795,0
163191,769.49,803,793,0
163201,755.89,803,795,0
163211,733.25,803,793,0
163221,700.60,803,795,0
163231,657.99,803,793,0
163241,605.97,803,794,0
163251,547.31,803,793,0
163261,486.74,803,795,0
163271,428.19,803,793,0
163281,374.78,803,794,0
163291,329.12,803,792,0
163301,292.52,803,795,0
163311,265.79,803,793,0
163321,248.50,803,794,0
163331,240.21,803,793,0
163341,239.72,803,795,0
163351,245.84,803,793,0
163361,256.78,803,794,0
163372,271.03,803,793,0
163382,286.75,803,794,0
163392,302.72,803,794,0
163402,317.59,803,794,0
163412,330.57,803,795,0
163422,340.86,803,794,0
163432,348.40,803,794,0
163442,352.95,803,793,0
163452,355.02,803,794,0
163462,354.76,803,794,0
163472,352.82,803,794,0
163482,349.44,803,793,0
163492,345.32,803,794,0
163502,340.64,803,794,0
163512,335.99,803,794,0
163522,331.37,803,794,0
163532,327.14,803,795,0
163543,323.33,803,793,0
163553,320.36,803,795,0
163563,318.11,803,793,0
163573,316.88,803,795,0
163584,316.44,803,792,0
163593,317.08,803,795,0
163603,318.60,803,793,0
163613,321.12,803,795,0
163623,324.30,803,792,0
163633,328.15,803,795,0
163643,332.22,803,793,0
163653,336.53,803,795,0
163663,340.48,803,792,0
163673,344.02,803,794,0
163683,346.63,803,793,0
163693,348.28,803,795,0
163703,348.63,803,793,0
163713,348.01,803,794,0
163723,346.51,803,793,0
163733,345.11,803,795,0
163743,344.74,803,792,0
163753,347.30,803,795,0
163763,354.15,803,793,0
163773,367.61,803,795,0
163783,389.33,803,792,0
163793,420.81,803,795,0
163812,461.37,803,794,0
163815,507.33,803,795,0
163824,555.15,803,791,0
163834,602.16,803,795,0
163844,645.40,803,792,0
163854,682.39,803,795,0
163864,711.07,803,792,0
163874,731.15,803,795,0
163884,745.21,803,792,0
163894,755.04,803,795,0
163904,761.93,803,792,0
163914,766.75,803,795,0
163924,770.13,803,791,0
163934,772.49,803,794,0
163944,774.14,803,792,0
163954,775.30,803,795,0
163964,775.17,803,791,0
163974,771.00,803,795,0
163984,760.24,803,791,0
163994,741.23,803,795,0
164004,712.87,803,791,0
164014,675.28,803,795,0
164024,628.48,803,792,0
164034,574.12,803,795,0
164044,515.89,803,791,0
164055,457.85,803,794,0
164065,403.04,803,790,0
164075,354.21,803,794,0
164085,312.71,803,790,0
164096,279.97,803,795,0
164105,256.32,803,791,0
164115,241.99,803,795,0
164125,236.17,803,790,0
164135,238.00,803,794,0
164145,245.84,803,791,0
164155,258.36,803,795,0
164165,273.81,803,791,0
164175,290.92,803,794,0
164185,308.13,803,791,0
164195,324.46,803,794,0
164205,338.90,803,791,0
164215,351.06,803,795,0
164225,360.43,803,791,0
164235,367.03,803,795,0
164245,370.75,803,790,0
164255,371.98,803,795,0
164265,370.87,803,790,0
164275,368.08,803,795,0
164285,363.81,803,790,0
164295,358.73,803,795,0
164305,353.02,803,790,0
164315,347.36,803,795,0
164325,341.81,803,791,0
164335,336.85,803,795,0
164345,332.40,803,790,0
164355,328.89,803,795,0
164365,326.14,803,791,0
164375,324.38,803,794,0
164385,323.37,803,790,0
164396,323.34,803,794,0
164406,324.14,803,790,0
164416,325.86,803,795,0
164426,328.21,803,790,0
164436,331.19,803,794,0
164446,334.52,803,790,0
164456,338.18,803,795,0
164466,341.81,803,790,0
164476,345.25,803,795,0
164486,348.26,803,790,0
164496,350.76,803,794,0
164506,352.50,803,790,0
164516,353.55,803,795,0
164526,353.81,803,790,0
164536,353.78,803,795,0
164546,354.02,803,790,0
164556,355.69,803,795,0
164567,360.15,803,790,0
164577,369.36,803,795,0
164587,385.24,803,790,0
164597,409.64,803,795,0
164608,443.65,803,790,0
164626,485.15,814,789,0
164629,530.71,814,792,0
164638,577.34,814,795,0
164648,622.15,814,791,0
164658,662.43,814,795,0
164668,695.82,814,790,0
164678,720.47,814,795,0
164688,737.73,814,791,0
164698,749.81,814,795,0
164708,758.27,814,790,0
164718,764.19,814,795,0
164728,768.33,814,791,0
164738,771.23,814,795,0
164748,773.26,814,790,0
164758,774.68,814,795,0
164768,775.68,814,791,0
164779,773.50,814,795,0
164788,765.68,814,790,0
164798,750.09,814,795,0
164808,725.38,814,791,0
164818,690.98,814,794,0
164828,647.23,814,790,0
164838,594.62,814,795,0
164848,536.92,814,791,0
164858,477.84,814,795,0
164868,421.06,814,790,0
164878,369.44,814,795,0
164888,325.17,814,790,0
164898,289.29,814,795,0
164908,262.54,814,790,0
164918,245.11,814,795,0
164928,236.68,814,790,0
164938,236.30,814,795,0
164948,242.85,814,791,0
164958,254.64,814,795,0
164968,270.13,814,791,0
164978,287.79,814,795,0
164988,306.07,814,791,0
164998,323.66,814,795,0
165008,339.45,814,791,0
165018,352.56,814,795,0
165028,362.68,814,791,0
165038,369.59,814,795,0
165048,373.31,814,791,0
165058,374.12,814,795,0
165068,372.41,814,791,0
165079,368.77,814,795,0
165089,363.78,814,791,0
165099,357.89,814,794,0
165109,351.58,814,792,0
165120,345.19,814,795,0
165129,339.13,814,792,0
165139,333.52,814,794,0
165149,328.61,814,792,0
165159,324.40,814,795,0
165169,321.11,814,791,0
165179,318.72,814,795,0
165189,317.43,814,792,0
165199,317.13,814,795,0
165209,317.86,814,791,0
165219,319.49,814,794,0
165229,322.04,814,791,0
165239,325.29,814,795,0
165249,329.14,814,791,0
165259,333.39,814,795,0
165269,337.90,814,791,0
165279,342.47,814,795,0
165289,347.00,814,793,0
165299,351.20,814,794,0
165309,354.91,814,791,0
165319,357.94,814,795,0
165329,360.23,814,792,0
165339,361.75,814,795,0
165349,362.85,814,791,0
165359,364.10,814,795,0
165369,366.77,814,792,0
165379,372.11,814,795,0
165389,382.06,814,791,0
165399,398.46,814,794,0
165409,423.22,814,792,0
165420,457.48,814,795,0
165439,498.52,813,794,0
165442,543.02,813,793,0
165451,588.32,813,794,0
165462,631.55,813,794,0
165471,670.17,813,793,0
165481,701.79,813,794,0
165491,724.65,813,794,0
165501,740.66,813,794,0
165511,751.86,813,793,0
165521,759.70,813,794,0
165531,765.19,813,794,0
165541,769.03,813,794,0
165551,771.72,813,794,0
165561,773.61,813,794,0
165571,774.92,813,794,0
165581,775.85,813,794,0
165591,774.65,813,793,0
165601,767.94,813,794,0
165611,753.47,813,794,0
165621,729.67,813,794,0
165632,696.04,813,794,0
165641,652.79,813,794,0
165651,600.48,813,794,0
165661,541.75,813,794,0
165671,481.53,813,794,0
165681,423.60,813,794,0
165691,371.13,813,794,0
165701,326.09,813,794,0
165711,289.85,813,794,0
165721,262.94,813,794,0
165731,245.69,813,794,0
165741,237.34,813,794,0
165751,237.02,813,794,0
165761,243.27,813,794,0
165771,254.85,813,794,0
165781,269.89,813,794,0
165791,287.11,813,794,0
165801,304.78,813,793,0
165811,321.82,813,794,0
165821,336.91,813,794,0
165831,349.63,813,794,0
165841,359.21,813,794,0
165851,365.75,813,794,0
165861,369.04,813,794,0
165871,369.63,813,794,0
165881,367.68,813,794,0
165891,364.05,813,793,0
165901,358.98,813,794,0
165911,353.24,813,794,0
165921,347.04,813,794,0
165932,341.03,813,794,0
165942,335.32,813,793,0
165952,330.42,813,794,0
165962,326.14,813,792,0
165972,322.88,813,795,0
165982,320.39,813,793,0
165992,318.94,813,795,0
166002,318.23,813,793,0
166012,318.46,813,794,0
166022,319.31,813,793,0
166032,320.97,813,795,0
166042,323.04,813,793,0
166052,325.68,813,795,0
166062,328.52,813,793,0
166072,331.75,813,795,0
166082,334.91,813,793,0
166092,338.20,813,795,0
166103,341.18,813,792,0
166113,344.00,813,795,0
166123,346.31,813,792,0
166133,348.23,813,795,0
166144,349.41,813,791,0
166153,350.18,813,795,0
166163,350.47,813,792,0
166173,351.14,813,795,0
166183,352.86,813,791,0
166193,357.06,813,795,0
166203,365.18,813,792,0
166213,379.49,813,794,0
166223,401.67,813,791,0
166233,433.10,813,795,0
166252,472.84,813,794,0
166255,517.54,813,795,0
166264,564.10,813,791,0
166274,609.75,813,795,0
166284,651.57,813,791,0
166294,687.06,813,794,0
166304,714.34,813,791,0
166315,733.44,813,795,0
166324,746.81,813,791,0
166334,756.16,813,795,0
166344,762.72,813,790,0
166354,767.30,813,795,0
166364,770.51,813,791,0
166374,772.76,813,795,0
166384,774.33,813,791,0
166394,775.43,813,795,0
166404,776.20,813,791,0
166414,774.73,813,795,0
166424,767.39,813,791,0
166434,751.89,813,795,0
166444,726.94,813,791,0
166454,691.90,813,795,0
166464,646.67,813,791,0
166474,591.96,813,795,0
166484,530.81,813,790,0
166494,468.47,813,795,0
166504,408.80,813,791,0
166514,354.90,813,795,0
166524,308.99,813,790,0
166534,272.69,813,795,0
166544,246.56,813,791,0
166554,230.66,813,795,0
166564,224.12,813,791,0
166574,225.80,813,795,0
166584,233.92,813,791,0
166594,246.97,813,795,0
166604,263.09,813,790,0
166615,280.77,813,795,0
166625,298.28,813,790,0
166635,314.57,813,795,0
166645,328.67,813,790,0
166656,340.25,813,795,0
166665,348.79,813,790,0
166675,354.43,813,794,0
166685,357.17,813,790,0
166695,357.50,813,794,0
166705,355.77,813,790,0
166715,352.62,813,795,0
166725,348.36,813,790,0
166735,343.63,813,795,0
166745,338.68,813,790,0
166755,334.02,813,794,0
166765,329.90,813,790,0
166775,326.54,813,795,0
166785,323.98,813,790,0
166795,322.44,813,795,0
166805,321.84,813,790,0
166815,322.32,813,795,0
166825,323.72,813,790,0
166835,326.03,813,795,0
166845,329.02,813,790,0
166855,332.74,813,795,0
166865,336.85,813,789,0
166875,341.27,813,795,0
166885,345.60,813,790,0
166895,349.75,813,794,0
166905,353.38,813,789,0
166915,356.52,813,795,0
166925,358.81,813,790,0
166935,360.32,813,795,0
166945,361.13,813,789,0
166956,361.82,813,795,0
166966,363.20,813,790,0
166976,366.78,813,795,0
166986,374.31,813,789,0
166996,388.01,813,795,0
167006,409.52,813,790,0
167025,440.52,773,789,0
167028,479.80,773,791,0
167037,524.00,773,795,0
167047,570.03,773,790,0
167057,614.93,773,795,0
167067,655.80,773,790,0
167077,690.44,773,794,0
167087,716.71,773,790,0
167097,735.10,773,795,0
167107,747.97,773,790,0
167117,756.98,773,795,0
167127,763.28,773,790,0
167137,767.70,773,795,0
167147,770.79,773,791,0
167157,772.95,773,795,0
167168,774.47,773,791,0
167177,774.11,773,795,0
167187,768.72,773,790,0
167197,755.95,773,795,0
167207,734.19,773,791,0
167217,702.93,773,795,0
167227,661.90,773,790,0
167237,611.36,773,795,0
167247,553.56,773,791,0
167257,493.18,773,795,0
167267,433.98,773,790,0
167277,379.17,773,795,0
167287,330.95,773,790,0
167297,291.11,773,794,0
167307,260.78,773,790,0
167317,240.27,773,794,0
167327,229.18,773,791,0
167337,226.81,773,795,0
167347,231.92,773,790,0
167357,243.00,773,795,0
167367,258.43,773,791,0
167377,276.43,773,794,0
167387,295.46,773,790,0
167397,314.01,773,795,0
167407,330.85,773,791,0
167417,345.16,773,795,0
167427,356.39,773,790,0
167437,364.20,773,795,0
167447,368.68,773,791,0
167457,369.98,773,795,0
167468,368.57,773,791,0
167478,364.97,773,795,0
167488,359.79,773,792,0
167498,353.60,773,795,0
167508,347.08,773,792,0
167518,340.67,773,795,0
167528,334.77,773,791,0
167538,329.61,773,795,0
167548,325.48,773,792,0
167558,322.34,773,795,0
167568,320.27,773,792,0
167578,319.07,773,794,0
167588,318.88,773,792,0
167598,319.56,773,795,0
167608,321.06,773,792,0
167618,323.23,773,795,0
167628,326.07,773,792,0
167639,329.40,773,795,0
167649,333.18,773,793,0
167659,337.02,773,795,0
167669,341.00,773,793,0
167680,344.82,773,794,0
167689,348.43,773,793,0
167699,351.60,773,795,0
167709,354.29,773,793,0
167719,356.26,773,794,0
167729,357.68,773,792,0
167739,358.46,773,795,0
167749,359.18,773,793,0
167759,360.41,773,794,0
167769,363.50,773,792,0
167779,370.04,773,794,0
167789,382.28,773,792,0
167799,402.26,773,794,0
167809,431.58,773,793,0
167828,469.81,803,792,0
167831,513.58,803,794,0
167840,559.82,803,794,0
167851,605.64,803,794,0
167860,648.05,803,794,0
167870,684.34,803,794,0
167880,712.44,803,794,0
167890,732.10,803,794,0
167900,745.87,803,794,0
167910,755.51,803,794,0
167920,762.26,803,794,0
167930,766.98,803,794,0
167940,770.29,803,795,0
167950,772.60,803,794,0
167960,774.22,803,794,0
167970,775.35,803,794,0
167980,776.15,803,794,0
167990,776.70,803,794,0
168000,773.32,803,794,0
168010,762.85,803,794,0
168020,743.01,803,794,0
168030,713.18,803,793,0
168040,672.71,803,794,0
168050,622.01,803,794,0
168060,561.71,803,794,0
168070,497.17,803,793,0
168080,432.92,803,794,0
168090,373.11,803,794,0
168100,320.02,803,793,0
168110,276.04,803,793,0
168120,242.26,803,794,0
168130,219.47,803,794,0
168140,206.98,803,794,0
168151,204.37,803,794,0
168161,210.13,803,793,0
168171,222.82,803,795,0
168181,240.49,803,793,0
168192,261.34,803,795,0
168201,283.31,803,793,0
168211,304.99,803,795,0
168221,324.66,803,793,0
168231,341.56,803,795,0
168241,354.81,803,793,0
168251,364.30,803,795,0
168261,369.86,803,793,0
168271,372.09,803,795,0
168281,371.25,803,793,0
168291,368.22,803,794,0
168301,363.35,803,793,0
168311,357.55,803,795,0
168321,351.13,803,794,0
168331,344.74,803,794,0
168341,338.56,803,793,0
168351,333.04,803,795,0
168361,328.18,803,792,0
168371,324.31,803,794,0
168381,321.22,803,793,0
168391,319.14,803,795,0
168401,317.90,803,792,0
168411,317.63,803,794,0
168421,318.13,803,793,0
168431,319.55,803,794,0
168441,321.61,803,792,0
168451,324.47,803,794,0
168461,327.71,803,793,0
168471,331.44,803,795,0
168481,335.25,803,792,0
168492,339.12,803,795,0
168502,342.60,803,792,0
168512,345.80,803,795,0
168522,348.39,803,792,0
168532,350.59,803,794,0
168542,352.08,803,792,0
168552,353.09,803,795,0
168562,353.40,803,792,0
168572,353.20,803,795,0
168582,352.28,803,792,0
168592,350.95,803,795,0
168602,349.25,803,792,0
168612,348.06,803,795,0
168622,348.13,803,792,0
168632,351.26,803,795,0
168642,359.37,803,791,0
168652,374.90,803,794,0
168663,399.87,803,792,0
168682,436.04,854,790,0
168685,479.57,854,790,0
168694,527.36,854,795,0
168705,576.15,854,790,0
168715,622.95,854,795,0
168725,664.62,854,790,0
168735,698.51,854,795,0
168745,722.35,854,790,0
168755,739.05,854,795,0
168765,750.73,854,790,0
168775,758.91,854,795,0
168785,764.64,854,790,0
168795,768.65,854,795,0
168805,771.45,854,790,0
168815,773.42,854,795,0
168825,774.79,854,790,0
168835,775.75,854,795,0
168845,776.43,854,790,0
168855,776.86,854,795,0
168865,772.57,854,790,0
168876,760.66,854,794,0
168886,739.16,854,790,0
168896,707.14,854,795,0
168906,664.54,854,791,0
168916,611.84,854,795,0
168926,550.30,854,790,0
168936,485.71,854,794,0
168946,422.63,854,790,0
168956,364.71,854,795,0
168966,314.65,854,790,0
168976,274.09,854,795,0
168986,244.02,854,791,0
168996,224.38,854,795,0
169006,214.75,854,790,0
169016,214.10,854,795,0
169026,221.01,854,790,0
169036,233.82,854,794,0
169047,250.72,854,791,0
169057,269.79,854,795,0
169067,289.35,854,791,0
169077,307.98,854,795,0
169088,324.57,854,792,0
169097,338.33,854,795,0
169107,348.73,854,791,0
169117,355.71,854,795,0
169127,359.48,854,791,0
169137,360.37,854,795,0
169147,358.89,854,791,0
169157,355.53,854,794,0
169167,350.92,854,791,0
169177,345.50,854,795,0
169187,339.78,854,791,0
169197,334.10,854,795,0
169207,328.89,854,791,0
169217,324.29,854,795,0
169227,320.56,854,791,0
169237,317.74,854,795,0
169247,315.97,854,792,0
169257,315.12,854,795,0
169267,315.17,854,790,0
169277,315.93,854,795,0
169287,317.37,854,791,0
169297,319.23,854,795,0
169307,321.39,854,791,0
169317,323.67,854,795,0
169327,326.04,854,791,0
169337,328.26,854,794,0
169347,330.32,854,791,0
169357,332.16,854,795,0
169367,333.82,854,792,0
169377,335.29,854,795,0
169388,336.66,854,792,0
169398,337.92,854,795,0
169408,339.23,854,793,0
169418,340.53,854,795,0
169428,342.00,854,793,0
169438,343.41,854,795,0
169448,344.83,854,793,0
169458,346.00,854,795,0
169468,346.90,854,793,0
169478,347.31,854,795,0
169488,347.26,854,793,0
169498,346.63,854,794,0
169508,345.92,854,793,0
169518,345.78,854,795,0
169528,347.56,854,792,0
169538,353.00,854,795,0
169548,364.53,854,793,0
169568,384.34,886,792,0
169571,415.53,886,795,0
169580,455.95,886,794,0
169590,502.21,886,794,0
169601,551.13,886,793,0
169611,599.65,886,795,0
169621,644.58,886,793,0
169631,683.07,886,795,0
169641,711.55,886,792,0
169651,731.48,886,795,0
169661,745.44,886,792,0
169671,755.21,886,795,0
169681,762.04,886,792,0
169691,766.83,886,795,0
169701,770.18,886,793,0
169711,772.53,886,795,0
169721,774.17,886,792,0
169731,775.32,886,795,0
169741,776.12,886,792,0
169751,775.40,886,795,0
169761,769.49,886,792,0
169772,756.02,886,795,0
169782,733.21,886,792,0
169792,700.36,886,794,0
169802,657.23,886,791,0
169812,604.32,886,795,0
169822,543.88,886,792,0
169832,480.91,886,795,0
169842,419.23,886,791,0
169852,362.29,886,795,0
169862,312.44,886,792,0
169872,271.68,886,795,0
169882,240.83,886,791,0
169892,220.27,886,794,0
169902,209.39,886,791,0
169912,207.69,886,794,0
169922,213.69,886,791,0
169932,226.00,886,795,0
169943,242.63,886,791,0
169953,261.98,886,795,0
169963,282.17,886,791,0
169973,302.05,886,795,0
169984,320.08,886,790,0
169993,335.57,886,795,0
170003,347.66,886,790,0
170013,356.24,886,795,0
170023,361.23,886,790,0
170033,363.05,886,795,0
170043,361.96,886,791,0
170053,358.72,886,795,0
170063,353.79,886,790,0
170073,348.06,886,795,0
