Time,PPG,IBI,GSR,GSR_Event
5706,395.12,913,772,0
5716,390.76,913,769,0
5726,385.99,913,773,0
5736,380.42,913,769,0
5746,375.71,913,774,0
5756,371.85,913,770,0
5766,369.80,913,774,0
5776,370.50,913,770,0
5786,374.94,913,774,0
5796,380.96,913,770,0
5806,388.21,913,774,0
5816,395.09,913,770,0
5826,401.71,913,774,0
5836,407.15,913,770,0
5847,411.95,913,774,0
5857,415.61,913,771,0
5867,418.55,913,774,0
5877,420.32,913,772,0
5888,421.51,913,774,0
5897,421.70,913,771,0
5907,421.45,913,775,0
5917,421.78,913,771,0
5927,424.72,913,775,0
5937,431.53,913,771,0
5947,444.32,913,775,0
5957,463.12,913,772,0
5967,488.88,913,775,0
5986,520.12,904,775,0
5988,555.53,904,776,0
5998,591.75,904,774,0
6008,626.41,904,776,0
6018,655.52,904,774,0
6028,677.48,904,776,0
6038,689.76,904,774,0
6048,692.71,904,776,0
6059,685.64,904,775,0
6068,670.23,904,776,0
6078,647.10,904,774,0
6088,618.87,904,776,0
6098,587.24,904,775,0
6108,554.85,904,776,0
6118,522.80,904,774,0
6128,492.64,904,776,0
6138,464.68,904,775,0
6148,440.30,904,776,0
6158,419.56,904,774,0
6168,403.19,904,776,0
6178,390.70,904,775,0
6188,382.44,904,776,0
6198,377.16,904,774,0
6208,375.14,904,776,0
6218,375.40,904,774,0
6228,377.85,904,776,0
6238,381.20,904,773,0
6248,385.59,904,776,0
6258,390.52,904,774,0
6268,396.36,904,776,0
6278,402.17,904,774,0
6288,408.37,904,776,0
6298,414.52,904,774,0
6308,420.71,904,776,0
6318,426.07,904,774,0
6328,430.46,904,776,0
6338,433.41,904,774,0
6348,435.34,904,776,0
6359,435.63,904,775,0
6369,434.67,904,776,0
6379,432.50,904,775,0
6389,429.52,904,776,0
6400,425.76,904,776,0
6409,421.93,904,776,0
6419,417.67,904,775,0
6429,413.52,904,776,0
6439,409.34,904,776,0
6449,405.72,904,776,0
6459,402.68,904,775,0
6469,400.59,904,776,0
6479,399.30,904,776,0
6489,399.04,904,776,0
6499,399.54,904,775,0
6509,400.84,904,776,0
6519,402.51,904,776,0
6529,404.54,904,776,0
6539,406.27,904,775,0
6549,407.86,904,776,0
6559,409.14,904,776,0
6569,410.09,904,776,0
6579,410.62,904,776,0
6589,410.86,904,777,0
6599,410.90,904,776,0
6609,411.10,904,777,0
6619,411.07,904,776,0
6629,411.01,904,777,0
6639,410.71,904,776,0
6649,410.24,904,777,0
6659,409.52,904,776,0
6669,408.72,904,777,0
6679,407.82,904,776,0
6689,407.10,904,777,0
6700,406.60,904,777,0
6710,406.33,904,776,0
6720,406.36,904,777,0
6730,406.47,904,776,0
6740,406.63,904,777,0
6750,406.70,904,777,0
6760,406.70,904,777,0
6770,406.23,904,776,0
6780,405.65,904,777,0
6790,404.94,904,777,0
6800,404.10,904,777,0
6810,402.87,904,776,0
6820,402.18,904,777,0
6830,403.07,904,777,0
6840,407.55,904,777,0
6850,417.11,904,776,0
6860,433.11,904,777,0
6880,456.13,894,776,0
6883,486.05,894,777,0
6892,521.22,894,774,0
6902,559.34,894,777,0
6913,596.78,894,774,0
6923,630.45,894,777,0
6933,656.84,894,773,0
6943,674.29,894,777,0
6953,681.27,894,772,0
6963,678.41,894,777,0
6973,665.90,894,773,0
6983,645.79,894,777,0
6993,619.32,894,772,0
7003,589.53,894,777,0
7013,557.57,894,773,0
7023,526.33,894,777,0
7033,496.10,894,772,0
7043,469.11,894,777,0
7053,445.42,894,773,0
7063,426.27,894,777,0
7073,410.37,894,772,0
7084,398.73,894,777,0
7094,390.03,894,772,0
7104,384.83,894,776,0
7114,381.28,894,771,0
7124,380.00,894,776,0
7134,379.48,894,771,0
7144,380.97,894,776,0
7154,382.86,894,771,0
7164,385.73,894,776,0
7174,389.07,894,772,0
7184,393.72,894,776,0
7194,398.39,894,771,0
7204,403.76,894,776,0
7214,408.29,894,771,0
7224,413.26,894,776,0
7234,417.51,894,771,0
7244,421.17,894,776,0
7255,423.39,894,772,0
7265,425.12,894,776,0
7275,425.51,894,771,0
7285,425.61,894,776,0
7296,424.36,894,773,0
7305,423.05,894,776,0
7315,420.85,894,772,0
7325,418.84,894,776,0
7335,415.89,894,773,0
7345,413.43,894,776,0
7355,410.78,894,772,0
7365,408.83,894,776,0
7375,406.74,894,773,0
7385,405.36,894,776,0
7395,404.01,894,772,0
7405,403.58,894,776,0
7415,402.98,894,773,0
7425,403.07,894,777,0
7435,402.83,894,772,0
7445,402.88,894,776,0
7455,402.88,894,773,0
7465,403.26,894,777,0
7475,403.52,894,772,0
7485,404.44,894,777,0
7495,404.99,894,773,0
7505,406.19,894,777,0
7515,407.12,894,772,0
7525,407.94,894,777,0
7535,407.57,894,773,0
7545,406.80,894,776,0
7555,405.06,894,772,0
7565,403.50,894,777,0
7575,401.64,894,773,0
7585,400.59,894,777,0
7596,399.81,894,774,0
7606,400.38,894,777,0
7616,401.42,894,774,0
7626,403.40,894,777,0
7636,405.34,894,775,0
7646,407.42,894,777,0
7656,408.62,894,774,0
7666,409.55,894,777,0
7676,409.69,894,775,0
7686,409.74,894,777,0
7696,409.04,894,774,0
7706,408.30,894,777,0
7716,406.97,894,775,0
7726,405.95,894,777,0
7736,404.46,894,774,0
7746,403.64,894,777,0
7756,404.26,894,775,0
7767,408.55,894,778,0
7777,417.43,894,776,0
7796,432.82,916,774,0
7799,454.47,916,777,0
7809,483.09,916,777,0
7819,517.00,916,777,0
7829,554.63,916,777,0
7839,592.33,916,778,0
7849,626.64,916,777,0
7859,654.14,916,778,0
7869,672.87,916,777,0
7879,681.48,916,778,0
7889,679.71,916,776,0
7899,667.84,916,778,0
7909,647.27,916,777,0
7919,620.40,916,777,0
7929,589.34,916,776,0
7939,556.54,916,777,0
7949,523.55,916,776,0
7959,492.27,916,777,0
7969,463.56,916,776,0
7980,438.71,916,777,0
7990,417.75,916,776,0
8000,400.98,916,777,0
8010,388.17,916,775,0
8020,379.76,916,777,0
8030,374.78,916,775,0
8040,372.92,916,777,0
8050,372.94,916,774,0
8060,374.80,916,777,0
8070,377.86,916,775,0
8080,381.97,916,777,0
8090,386.31,916,774,0
8100,391.23,916,777,0
8110,396.26,916,775,0
8120,401.63,916,777,0
8130,406.32,916,774,0
8140,410.60,916,777,0
8151,414.15,916,774,0
8161,417.27,916,777,0
8171,419.21,916,773,0
8181,420.30,916,777,0
8192,420.21,916,773,0
8201,419.93,916,777,0
8211,418.92,916,773,0
8221,417.66,916,777,0
8231,415.58,916,773,0
8241,413.82,916,777,0
8251,411.94,916,773,0
8261,410.50,916,777,0
8271,408.68,916,773,0
8281,407.11,916,777,0
8291,404.76,916,773,0
8301,402.69,916,777,0
8311,400.21,916,773,0
8321,397.66,916,777,0
8331,394.89,916,773,0
8341,393.47,916,777,0
8351,392.64,916,773,0
8361,393.31,916,777,0
8371,394.46,916,774,0
8381,396.55,916,777,0
8391,398.91,916,774,0
8401,401.94,916,778,0
8411,404.14,916,774,0
8421,406.29,916,778,0
8431,407.53,916,774,0
8441,408.57,916,777,0
8451,408.70,916,774,0
8461,408.70,916,778,0
8471,407.76,916,774,0
8481,406.72,916,777,0
8492,405.18,916,773,0
8502,403.97,916,778,0
8512,402.65,916,773,0
8522,402.28,916,778,0
8532,402.15,916,773,0
8542,402.84,916,778,0
8552,403.44,916,773,0
8562,404.51,916,778,0
8572,405.21,916,773,0
8582,406.14,916,778,0
8592,406.14,916,774,0
8602,406.14,916,778,0
8612,405.45,916,773,0
8622,405.15,916,778,0
8632,404.33,916,774,0
8642,404.02,916,778,0
8652,403.11,916,773,0
8663,402.48,916,778,0
8673,401.18,916,773,0
8683,400.70,916,778,0
8693,401.22,916,773,0
8704,405.61,916,779,0
8713,414.13,916,773,0
8723,429.09,916,778,0
8742,450.23,946,777,0
8745,478.36,946,777,0
8754,511.47,946,774,0
8764,547.93,946,778,0
8774,583.35,946,774,0
8784,615.34,946,778,0
8794,640.31,946,774,0
8804,657.10,946,778,0
8814,663.84,946,774,0
8824,660.98,946,777,0
8834,648.64,946,773,0
8844,629.21,946,777,0
8854,604.07,946,774,0
8864,575.85,946,777,0
8875,545.51,946,775,0
8884,515.61,946,778,0
8894,486.72,946,774,0
8904,460.70,946,777,0
8914,437.52,946,774,0
8924,418.38,946,777,0
8934,402.62,946,774,0
8944,391.12,946,777,0
8954,382.77,946,774,0
8964,378.34,946,778,0
8974,376.31,946,774,0
8984,376.86,946,777,0
8994,378.66,946,774,0
9004,382.02,946,777,0
9014,385.57,946,773,0
9024,390.03,946,777,0
9034,394.26,946,774,0
9044,399.15,946,777,0
9054,403.61,946,774,0
9064,408.44,946,777,0
9074,412.59,946,774,0
9084,416.83,946,777,0
9094,420.01,946,774,0
9104,422.75,946,777,0
9114,423.98,946,774,0
9124,424.72,946,777,0
9134,423.86,946,773,0
9144,422.32,946,777,0
9154,419.56,946,774,0
9164,416.48,946,777,0
9175,412.48,946,774,0
9185,408.18,946,776,0
9195,404.27,946,776,0
9205,401.92,946,777,0
9216,400.57,946,776,0
9225,400.66,946,777,0
9235,401.32,946,775,0
9245,403.06,946,777,0
9255,405.32,946,776,0
9265,407.41,946,777,0
9275,408.27,946,775,0
9285,408.70,946,777,0
9295,408.32,946,775,0
9305,408.05,946,777,0
9315,407.35,946,775,0
9325,406.99,946,777,0
9335,406.09,946,775,0
9345,405.34,946,777,0
9355,403.99,946,775,0
9365,402.58,946,777,0
9375,400.56,946,775,0
9385,399.07,946,777,0
9395,397.63,946,774,0
9405,396.93,946,777,0
9415,396.22,946,775,0
9425,395.85,946,777,0
9435,395.38,946,774,0
9445,395.14,946,776,0
9455,393.90,946,774,0
9465,392.17,946,776,0
9475,390.32,946,774,0
9485,389.88,946,777,0
9495,390.30,946,775,0
9505,391.93,946,777,0
9516,394.18,946,775,0
9526,397.51,946,777,0
9536,401.39,946,776,0
9546,405.17,946,777,0
9556,407.65,946,776,0
9566,409.55,946,777,0
9576,411.44,946,776,0
9586,415.21,946,777,0
9596,422.60,946,776,0
9606,435.28,946,777,0
9625,453.92,883,776,0
9627,478.33,883,776,0
9637,507.98,883,777,0
9647,540.68,883,777,0
9657,573.39,883,777,0
9667,602.80,883,776,0
9677,626.18,883,776,0
9687,641.98,883,777,0
9697,649.74,883,777,0
9707,648.53,883,776,0
9717,639.07,883,777,0
9728,622.47,883,775,0
9737,600.30,883,776,0
9747,574.54,883,776,0
9757,546.26,883,776,0
9767,516.70,883,775,0
9777,487.43,883,776,0
9787,459.70,883,775,0
9797,434.81,883,775,0
9807,412.62,883,774,0
9817,393.58,883,775,0
9827,378.75,883,775,0
9837,368.19,883,775,0
9847,361.54,883,775,0
9857,358.25,883,775,0
9867,358.00,883,775,0
9877,360.79,883,775,0
9887,365.09,883,774,0
9897,369.91,883,775,0
9907,376.41,883,776,0
9917,384.56,883,776,0
9927,393.86,883,775,0
9937,403.37,883,776,0
9947,412.99,883,776,0
9957,422.89,883,776,0
9967,432.48,883,776,0
9977,440.27,883,777,0
9987,445.93,883,776,0
9997,449.59,883,777,0
10007,451.30,883,776,0
10017,451.17,883,777,0
10028,448.93,883,775,0
10038,445.01,883,776,0
10048,439.61,883,775,0
10058,434.02,883,777,0
10068,428.32,883,774,0
10078,422.82,883,776,0
10088,417.26,883,774,0
10098,411.87,883,776,0
10108,406.72,883,773,0
10118,402.18,883,776,0
10128,397.37,883,773,0
10138,392.93,883,776,0
10148,389.09,883,773,0
10158,386.11,883,775,0
10168,384.53,883,773,0
10178,384.46,883,775,0
10188,385.14,883,773,0
10199,386.98,883,775,0
10209,389.64,883,773,0
10219,393.52,883,776,0
10229,397.74,883,772,0
10240,402.36,883,776,0
10249,406.62,883,773,0
10259,410.59,883,776,0
10269,413.24,883,772,0
10279,414.88,883,776,0
10289,414.41,883,772,0
10299,413.51,883,776,0
10309,411.69,883,772,0
10319,409.90,883,776,0
10329,408.00,883,773,0
10339,406.84,883,776,0
10349,405.95,883,773,0
10359,406.18,883,776,0
10369,406.51,883,773,0
10379,407.30,883,776,0
10389,407.77,883,773,0
10399,408.27,883,776,0
10409,408.14,883,772,0
10419,407.97,883,776,0
10429,407.08,883,773,0
10439,406.24,883,776,0
10449,404.67,883,772,0
10459,403.31,883,776,0
10469,402.19,883,773,0
10479,403.29,883,776,0
10489,407.45,883,772,0
10499,416.74,883,776,0
10509,431.65,883,773,0
10519,453.57,883,776,0
10529,481.43,883,773,0
10549,514.64,924,772,0
10552,549.63,924,772,0
10561,584.24,924,776,0
10571,614.39,924,772,0
10582,638.18,924,776,0
10591,653.26,924,772,0
10601,659.48,924,776,0
10611,656.08,924,772,0
10621,644.57,924,776,0
10631,625.54,924,772,0
10641,601.85,924,776,0
10651,574.55,924,771,0
10661,546.02,924,776,0
10671,517.08,924,772,0
10681,489.93,924,776,0
10691,464.88,924,771,0
10701,443.27,924,776,0
10711,424.46,924,771,0
10721,409.24,924,775,0
10731,396.78,924,771,0
10741,387.85,924,775,0
10752,381.08,924,771,0
10761,377.28,924,775,0
10771,375.01,924,771,0
10781,375.39,924,775,0
10791,376.78,924,771,0
10801,379.76,924,775,0
10811,383.09,924,771,0
10821,388.55,924,775,0
10831,394.00,924,771,0
10841,399.44,924,775,0
10851,403.12,924,770,0
10861,407.07,924,775,0
10871,410.65,924,771,0
10881,414.40,924,775,0
10891,416.68,924,771,0
10901,418.96,924,775,0
10911,421.03,924,771,0
10921,423.81,924,775,0
10931,425.49,924,771,0
10941,426.37,924,775,0
10951,425.62,924,771,0
10961,423.68,924,775,0
10971,420.13,924,771,0
10981,416.79,924,775,0
10991,412.53,924,770,0
11001,408.00,924,775,0
11011,403.03,924,770,0
11021,399.16,924,774,0
11031,395.90,924,771,0
11041,394.51,924,775,0
11052,393.50,924,771,0
11062,394.21,924,775,0
11072,395.39,924,772,0
11082,397.24,924,775,0
11092,398.54,924,772,0
11102,399.24,924,774,0
11112,397.71,924,771,0
11122,395.14,924,774,0
11132,390.68,924,771,0
11142,386.71,924,774,0
11152,382.21,924,770,0
11162,378.50,924,774,0
11172,375.57,924,770,0
11182,374.71,924,773,0
11192,374.45,924,770,0
11202,376.55,924,774,0
11212,379.77,924,771,0
11223,385.28,924,775,0
11233,391.50,924,772,0
11243,398.80,924,775,0
11253,405.46,924,772,0
11264,412.05,924,774,0
11273,416.79,924,772,0
11283,419.98,924,775,0
11293,420.33,924,772,0
11303,418.26,924,774,0
11313,413.68,924,771,0
11323,408.89,924,774,0
11333,403.82,924,772,0
11343,400.06,924,774,0
11353,397.00,924,772,0
11363,395.63,924,774,0
11373,395.18,924,772,0
11383,395.60,924,774,0
11393,395.72,924,771,0
11403,395.80,924,773,0
11413,396.33,924,771,0
11423,401.29,924,775,0
11433,412.39,924,773,0
11443,431.22,924,775,0
11453,456.99,924,773,0
11463,488.20,924,774,0
11473,522.47,924,772,0
11492,557.13,943,771,0
11494,586.66,943,774,0
11504,608.19,943,774,0
11514,619.79,943,773,0
11524,621.91,943,774,0
11534,615.04,943,772,0
11544,600.24,943,773,0
11554,578.87,943,772,0
11564,553.66,943,773,0
11574,526.08,943,772,0
11584,498.20,943,773,0
11594,470.97,943,772,0
11604,446.25,943,773,0
11614,425.60,943,772,0
11624,409.56,943,773,0
11634,398.21,943,773,0
11644,391.25,943,774,0
11654,387.57,943,772,0
11664,386.72,943,773,0
11674,387.74,943,773,0
11684,390.31,943,774,0
11694,393.51,943,772,0
11704,396.53,943,773,0
11714,401.13,943,774,0
11724,407.48,943,775,0
11735,414.92,943,775,0
11745,422.87,943,775,0
11755,430.58,943,775,0
11765,437.86,943,775,0
11776,444.12,943,775,0
11785,447.00,943,775,0
11795,446.40,943,775,0
11805,442.94,943,774,0
11815,437.47,943,775,0
11825,431.24,943,775,0
11835,424.70,943,775,0
11845,418.75,943,775,0
11855,413.94,943,775,0
11865,410.14,943,775,0
11875,407.48,943,775,0
11885,405.80,943,774,0
11895,403.80,943,774,0
11905,400.73,943,774,0
11915,396.78,943,774,0
11925,391.75,943,773,0
11935,386.25,943,773,0
11945,380.43,943,772,0
11955,374.78,943,773,0
11965,370.47,943,773,0
11975,368.44,943,773,0
11985,368.10,943,772,0
11995,369.57,943,773,0
12005,372.57,943,773,0
12015,376.86,943,773,0
12025,381.70,943,772,0
12035,386.67,943,773,0
12045,391.27,943,773,0
12055,395.52,943,773,0
12065,399.09,943,772,0
12076,402.11,943,773,0
12086,404.13,943,772,0
12096,405.64,943,773,0
12106,406.26,943,771,0
12116,406.52,943,773,0
12126,406.07,943,771,0
12136,405.45,943,773,0
12146,404.24,943,771,0
12156,403.14,943,773,0
12166,401.81,943,771,0
12176,400.71,943,773,0
12186,399.34,943,771,0
12196,398.17,943,773,0
12206,396.92,943,772,0
12216,396.00,943,773,0
12226,394.93,943,771,0
12236,394.05,943,773,0
12247,392.88,943,770,0
12257,392.01,943,773,0
12267,391.11,943,770,0
12277,390.43,943,773,0
12288,389.58,943,770,0
12297,390.35,943,774,0
12307,392.98,943,771,0
12317,398.69,943,774,0
12327,406.80,943,769,0
12337,418.86,943,773,0
12347,435.01,943,770,0
12357,456.05,943,773,0
12377,479.57,884,773,0
12380,505.97,884,774,0
12389,532.93,884,770,0
12399,559.14,884,775,0
12409,582.07,884,770,0
12419,600.52,884,775,0
12429,612.02,884,770,0
12439,616.86,884,775,0
12449,613.17,884,770,0
12460,602.49,884,775,0
12470,585.89,884,770,0
12480,565.39,884,775,0
12490,541.62,884,771,0
12500,517.22,884,775,0
12510,492.60,884,770,0
12520,469.06,884,774,0
12530,446.07,884,769,0
12540,424.45,884,773,0
12550,403.83,884,768,0
12560,385.92,884,773,0
12570,370.69,884,769,0
12580,359.13,884,773,0
12590,350.90,884,768,0
12600,347.72,884,774,0
12610,348.70,884,769,0
12620,353.72,884,773,0
12631,360.79,884,769,0
12641,369.60,884,773,0
12651,378.89,884,770,0
12661,388.86,884,773,0
12672,397.99,884,771,0
12681,406.74,884,773,0
12691,413.93,884,770,0
12701,420.29,884,773,0
12711,425.09,884,771,0
12721,428.88,884,773,0
12731,431.27,884,771,0
12741,433.68,884,775,0
12751,436.56,884,773,0
12761,440.59,884,775,0
12771,444.49,884,772,0
12781,448.45,884,775,0
12791,451.53,884,772,0
12801,453.90,884,775,0
12811,453.89,884,771,0
12821,451.26,884,775,0
12831,446.09,884,772,0
12841,440.15,884,775,0
12851,433.46,884,772,0
12861,427.36,884,776,0
12871,421.68,884,773,0
12881,417.24,884,775,0
12891,413.26,884,771,0
12901,409.89,884,775,0
12911,405.55,884,771,0
12921,400.80,884,774,0
12931,395.07,884,770,0
12941,389.35,884,773,0
12951,383.55,884,771,0
12961,378.75,884,773,0
12972,376.34,884,773,0
12982,378.72,884,775,0
12992,384.08,884,774,0
13002,391.77,884,775,0
13012,400.11,884,774,0
13022,408.86,884,775,0
13032,416.92,884,773,0
13042,422.60,884,775,0
13052,424.09,884,774,0
13062,422.56,884,774,0
13072,418.37,884,773,0
13082,412.98,884,774,0
13092,406.60,884,773,0
13102,400.38,884,773,0
13112,394.48,884,772,0
13122,389.54,884,774,0
13132,385.65,884,773,0
13143,383.40,884,773,0
13153,381.91,884,773,0
13163,381.51,884,774,0
13173,382.34,884,774,0
13184,385.88,884,773,0
13193,392.82,884,773,0
13203,404.83,884,774,0
13213,422.28,884,774,0
13223,445.47,884,774,0
13233,473.40,884,773,0
13243,504.48,884,774,0
13253,535.92,884,774,0
13273,565.26,896,772,0
13276,589.40,896,774,0
13285,606.76,896,772,0
13295,616.22,896,774,0
13305,617.31,896,771,0
13315,611.00,896,774,0
13325,598.15,896,772,0
13335,580.23,896,774,0
13345,558.78,896,771,0
13356,535.40,896,774,0
13366,511.37,896,771,0
13376,488.50,896,774,0
13386,466.79,896,771,0
13396,447.74,896,774,0
13406,431.32,896,771,0
13416,418.28,896,774,0
13426,407.91,896,771,0
13436,400.52,896,774,0
13446,395.31,896,771,0
13456,392.73,896,774,0
13466,391.57,896,770,0
13476,392.17,896,774,0
13486,393.62,896,771,0
13496,396.13,896,774,0
13506,398.88,896,770,0
13516,402.30,896,774,0
13527,405.51,896,770,0
13537,409.26,896,774,0
13547,412.52,896,769,0
13557,416.01,896,774,0
13568,418.92,896,769,0
13577,422.03,896,774,0
13587,424.46,896,770,0
13597,426.98,896,774,0
13607,428.57,896,770,0
13617,430.16,896,774,0
13627,430.80,896,770,0
13637,431.46,896,774,0
13647,431.28,896,770,0
13657,431.19,896,774,0
13667,430.32,896,771,0
13677,429.58,896,774,0
13687,428.16,896,771,0
13697,426.96,896,774,0
13707,425.26,896,771,0
13717,423.94,896,774,0
13727,422.07,896,771,0
13737,420.63,896,774,0
13747,418.90,896,771,0
13757,417.73,896,774,0
13767,416.18,896,771,0
13777,415.10,896,774,0
13787,413.66,896,771,0
13797,412.82,896,774,0
13807,411.54,896,770,0
13817,410.69,896,774,0
13827,410.06,896,771,0
13837,410.04,896,774,0
13847,409.56,896,770,0
13857,409.43,896,774,0
13868,408.87,896,770,0
13878,408.91,896,774,0
13888,408.77,896,770,0
13898,408.54,896,774,0
13908,407.95,896,769,0
13918,407.88,896,774,0
13928,407.49,896,769,0
13938,407.43,896,774,0
13948,406.91,896,769,0
13958,406.42,896,774,0
13968,405.31,896,769,0
13978,404.58,896,774,0
13988,403.37,896,769,0
13998,402.62,896,774,0
14008,401.45,896,769,0
14018,400.63,896,774,0
14028,399.88,896,769,0
14039,400.60,896,774,0
14049,403.08,896,770,0
14059,409.70,896,774,0
14069,420.67,896,770,0
14080,437.57,896,774,0
14098,459.34,826,773,0
14101,485.90,826,774,0
14110,515.24,826,771,0
14120,545.38,826,773,0
14130,572.78,826,771,0
14140,595.69,826,774,0
14150,611.51,826,771,0
14160,620.27,826,773,0
14170,620.88,826,771,0
14180,613.93,826,774,0
14190,600.06,826,771,0
14200,581.19,826,773,0
14210,558.46,826,771,0
14220,534.19,826,774,0
14230,508.94,826,771,0
14240,484.74,826,773,0
14251,462.19,826,772,0
14260,442.89,826,774,0
14270,427.24,826,772,0
14280,415.59,826,774,0
14290,406.89,826,773,0
14300,401.82,826,775,0
14310,399.73,826,773,0
14320,400.84,826,775,0
14330,403.50,826,773,0
14340,407.12,826,775,0
14350,410.77,826,772,0
14360,415.00,826,775,0
14370,418.81,826,774,0
14380,422.04,826,775,0
14390,423.44,826,772,0
14400,424.17,826,775,0
14410,424.25,826,774,0
14420,424.47,826,775,0
14430,424.12,826,773,0
14440,423.52,826,775,0
14450,422.17,826,773,0
14460,421.17,826,775,0
14470,419.45,826,772,0
14480,417.34,826,775,0
14490,414.80,826,774,0
14500,412.54,826,775,0
14510,410.15,826,773,0
14520,408.82,826,776,0
14530,408.15,826,774,0
14540,408.62,826,775,0
14551,409.16,826,774,0
14561,409.54,826,775,0
14571,408.95,826,774,0
14581,408.24,826,775,0
14592,406.15,826,774,0
14601,403.02,826,774,0
14611,398.64,826,773,0
14621,393.48,826,773,0
14631,387.89,826,773,0
14641,382.87,826,773,0
14651,378.32,826,772,0
14661,375.57,826,774,0
14671,373.94,826,772,0
14681,373.74,826,773,0
14691,375.06,826,772,0
14701,377.74,826,773,0
14711,381.25,826,773,0
14721,385.29,826,773,0
14731,388.93,826,772,0
14741,392.55,826,773,0
14751,396.11,826,772,0
14761,399.42,826,773,0
14771,402.25,826,771,0
14781,404.71,826,773,0
14791,406.55,826,772,0
14801,407.93,826,773,0
14811,408.81,826,772,0
14821,409.08,826,773,0
14831,408.84,826,773,0
14841,408.16,826,773,0
14851,406.96,826,772,0
14861,405.43,826,773,0
14871,403.50,826,773,0
14881,401.33,826,773,0
14892,398.88,826,773,0
14902,396.94,826,773,0
14912,396.62,826,773,0
14922,399.43,826,773,0
14932,406.76,826,773,0
14942,419.60,826,773,0
14952,438.15,826,774,0
14962,462.19,826,773,0
14982,490.51,883,771,0
14985,520.35,883,770,0
14994,549.56,883,774,0
15004,574.98,883,770,0
15014,594.74,883,773,0
15024,607.33,883,771,0
15034,612.33,883,773,0
15044,609.32,883,770,0
15054,599.84,883,774,0
15064,584.29,883,771,0
15074,564.79,883,773,0
15084,542.26,883,770,0
15094,518.74,883,773,0
15105,494.91,883,770,0
15115,472.73,883,773,0
15125,452.24,883,769,0
15135,434.73,883,773,0
15145,419.72,883,769,0
15155,408.19,883,774,0
15165,399.18,883,769,0
15175,393.64,883,774,0
15185,390.10,883,769,0
15195,388.92,883,774,0
15205,388.98,883,769,0
15215,390.83,883,773,0
15225,393.24,883,769,0
15235,396.81,883,774,0
15245,400.12,883,769,0
15255,404.07,883,773,0
15265,407.69,883,769,0
15276,411.56,883,774,0
15286,414.56,883,768,0
15296,417.48,883,774,0
15306,419.39,883,768,0
15316,421.16,883,774,0
15326,422.14,883,769,0
15336,423.38,883,774,0
15346,423.23,883,768,0
15356,422.86,883,774,0
15366,421.53,883,768,0
15376,420.21,883,773,0
15386,418.22,883,768,0
15396,416.27,883,774,0
15406,413.53,883,768,0
15416,411.61,883,773,0
15426,409.67,883,768,0
15436,408.53,883,774,0
15447,408.58,883,769,0
15457,410.34,883,775,0
15467,412.72,883,769,0
15477,416.28,883,775,0
15488,420.01,883,770,0
15497,424.12,883,775,0
15507,427.90,883,770,0
15517,430.54,883,775,0
15527,430.89,883,770,0
15537,430.24,883,775,0
15547,428.11,883,770,0
15557,426.32,883,776,0
15567,424.25,883,771,0
15577,422.72,883,776,0
15587,420.92,883,770,0
15597,419.79,883,776,0
15607,417.79,883,771,0
15617,415.88,883,775,0
15627,412.32,883,769,0
15637,408.11,883,775,0
15647,402.42,883,770,0
15657,396.46,883,774,0
15667,389.85,883,769,0
15677,384.20,883,774,0
15687,378.65,883,769,0
15697,373.96,883,773,0
15707,369.77,883,768,0
15717,367.61,883,773,0
15727,367.98,883,769,0
15737,373.17,883,773,0
15747,383.02,883,768,0
15757,399.22,883,774,0
15767,421.52,883,769,0
15777,450.12,883,773,0
15788,482.40,883,769,0
15807,516.57,826,769,0
15810,548.80,826,773,0
15819,577.57,826,773,0
15830,599.73,826,772,0
15839,614.51,826,773,0
15849,620.49,826,771,0
15859,618.54,826,773,0
15869,608.86,826,772,0
15879,593.60,826,773,0
15889,573.62,826,771,0
15899,550.98,826,773,0
15909,526.73,826,772,0
15919,502.77,826,773,0
15929,479.91,826,771,0
15939,459.36,826,773,0
15949,441.30,826,772,0
15959,426.08,826,773,0
15969,413.63,826,771,0
15979,404.35,826,773,0
15989,397.82,826,772,0
16000,394.36,826,774,0
16009,393.27,826,771,0
16019,393.96,826,773,0
16029,395.81,826,772,0
16039,398.83,826,773,0
16049,402.22,826,771,0
16059,406.05,826,773,0
16069,409.55,826,772,0
16079,412.73,826,773,0
16089,415.68,826,771,0
16099,418.78,826,773,0
16109,421.50,826,772,0
16119,424.05,826,773,0
16129,426.09,826,771,0
16139,427.65,826,773,0
16149,428.44,826,772,0
16159,428.65,826,773,0
16169,428.11,826,773,0
16179,427.22,826,773,0
16189,425.78,826,772,0
16199,424.05,826,773,0
16209,421.93,826,772,0
16219,419.98,826,773,0
16229,418.10,826,772,0
16239,416.44,826,773,0
16249,414.85,826,773,0
16259,413.44,826,773,0
16269,411.94,826,772,0
16279,410.71,826,774,0
16289,409.43,826,773,0
16300,408.18,826,773,0
16310,407.06,826,773,0
16320,405.88,826,773,0
16330,404.89,826,773,0
16340,403.98,826,772,0
16350,403.21,826,773,0
16360,402.68,826,772,0
16370,402.48,826,773,0
16380,402.29,826,772,0
16390,402.55,826,773,0
16400,402.90,826,773,0
16410,403.61,826,774,0
16420,404.33,826,773,0
16430,405.09,826,773,0
16440,406.18,826,773,0
16450,407.54,826,774,0
16460,408.49,826,773,0
16471,409.24,826,774,0
16481,409.73,826,772,0
16491,410.02,826,773,0
16501,409.85,826,771,0
16512,409.03,826,774,0
16521,407.57,826,772,0
16531,406.28,826,774,0
16541,405.64,826,771,0
16551,407.25,826,774,0
16561,412.10,826,772,0
16571,422.06,826,774,0
16581,437.30,826,772,0
16601,458.72,793,770,0
16604,484.99,793,769,0
16613,515.34,793,774,0
16623,546.35,793,769,0
16633,576.12,793,774,0
16643,601.20,793,770,0
16653,620.25,793,774,0
16663,630.98,793,769,0
16673,634.33,793,774,0
16684,629.43,793,769,0
16694,617.81,793,774,0
16704,599.27,793,768,0
16714,576.56,793,773,0
16724,550.64,793,768,0
16734,524.30,793,774,0
16744,497.64,793,769,0
16754,472.68,793,773,0
16764,449.89,793,768,0
16774,431.32,793,774,0
16784,416.18,793,769,0
16794,405.07,793,774,0
16804,396.86,793,768,0
16814,392.36,793,774,0
16824,390.62,793,769,0
16834,392.07,793,774,0
16844,395.60,793,770,0
16855,401.34,793,775,0
16865,407.24,793,769,0
16875,413.12,793,774,0
16885,418.01,793,769,0
16896,422.42,793,774,0
16905,425.90,793,769,0
16915,429.48,793,775,0
16925,432.21,793,770,0
16935,435.66,793,775,0
16945,439.06,793,770,0
16955,442.69,793,775,0
16965,445.87,793,770,0
16975,448.31,793,776,0
16985,448.47,793,770,0
16995,447.34,793,775,0
17005,443.98,793,770,0
17015,439.92,793,775,0
17025,434.84,793,770,0
17035,429.36,793,775,0
17045,423.38,793,770,0
17055,417.78,793,775,0
17065,412.70,793,771,0
17075,409.71,793,776,0
17085,407.65,793,770,0
17095,406.39,793,775,0
17105,404.94,793,771,0
17115,404.23,793,775,0
17125,403.90,793,770,0
17135,403.50,793,775,0
17145,401.90,793,771,0
17155,400.21,793,775,0
17165,398.26,793,769,0
17175,397.16,793,774,0
17185,396.21,793,771,0
17196,396.32,793,775,0
17206,396.18,793,770,0
17216,396.90,793,775,0
17226,397.83,793,772,0
17236,399.12,793,775,0
17246,400.03,793,771,0
17256,400.92,793,774,0
17266,400.47,793,771,0
17276,401.06,793,775,0
17286,401.86,793,771,0
17296,403.06,793,775,0
17306,404.45,793,772,0
17316,406.63,793,775,0
17326,408.11,793,771,0
17336,409.37,793,774,0
17346,409.00,793,771,0
17356,407.33,793,774,0
17367,404.23,793,772,0
17377,400.65,793,774,0
17387,396.64,793,772,0
17397,394.99,793,774,0
17408,397.39,793,773,0
17417,405.85,793,774,0
17427,421.11,793,772,0
17446,443.96,846,771,0
17449,473.89,846,775,0
17458,509.62,846,774,0
17468,547.92,846,773,0
17478,585.57,846,774,0
17488,619.34,846,774,0
17498,646.75,846,774,0
17508,665.56,846,773,0
17518,674.65,846,774,0
17528,673.81,846,773,0
17538,664.31,846,774,0
17548,647.37,846,773,0
17558,624.76,846,774,0
17568,598.05,846,774,0
17579,569.19,846,774,0
17588,539.90,846,773,0
17598,511.82,846,774,0
17608,485.69,846,774,0
17618,462.51,846,774,0
17628,442.60,846,773,0
17638,426.31,846,774,0
17648,413.61,846,774,0
17658,404.22,846,774,0
17668,397.72,846,773,0
17678,393.95,846,774,0
17688,392.51,846,773,0
17698,393.00,846,774,0
17708,395.10,846,773,0
17718,398.45,846,774,0
17728,402.73,846,774,0
17738,407.53,846,774,0
17748,412.47,846,774,0
17758,417.30,846,774,0
17768,421.84,846,774,0
17778,425.70,846,774,0
17788,428.49,846,774,0
17798,430.49,846,774,0
17808,431.58,846,774,0
17818,431.79,846,774,0
17828,431.13,846,774,0
17838,429.72,846,774,0
17848,427.79,846,774,0
17858,426.05,846,774,0
17868,424.54,846,774,0
17879,423.26,846,774,0
17889,422.45,846,775,0
17899,421.80,846,773,0
17909,421.69,846,775,0
17920,421.70,846,773,0
17929,421.66,846,775,0
17939,421.20,846,774,0
17949,420.63,846,775,0
17959,419.54,846,773,0
17969,418.56,846,775,0
17979,417.37,846,774,0
17989,416.48,846,775,0
17999,415.27,846,773,0
18009,413.99,846,775,0
18019,412.53,846,774,0
18029,411.17,846,775,0
18039,409.36,846,773,0
18049,407.37,846,775,0
18059,404.60,846,774,0
18069,401.85,846,775,0
18079,399.11,846,774,0
18089,397.06,846,775,0
18099,395.33,846,774,0
18109,394.50,846,775,0
18119,393.88,846,774,0
18129,393.62,846,775,0
18139,393.35,846,774,0
18149,392.56,846,774,0
18159,390.89,846,774,0
18169,389.12,846,774,0
18179,387.16,846,774,0
18189,385.48,846,774,0
18199,384.69,846,774,0
18209,384.74,846,774,0
18220,385.81,846,773,0
18230,387.71,846,774,0
18240,389.72,846,772,0
18250,392.16,846,775,0
18260,395.76,846,772,0
18270,401.36,846,775,0
18280,410.59,846,773,0
18290,425.29,846,775,0
18300,445.90,846,772,0
18310,472.93,846,775,0
18329,505.09,883,774,0
18332,540.85,883,774,0
18341,577.37,883,770,0
18351,611.50,883,774,0
18361,639.34,883,770,0
18371,659.42,883,774,0
18381,669.92,883,770,0
18391,671.87,883,774,0
18401,664.50,883,770,0
18411,649.82,883,775,0
18421,628.87,883,770,0
18432,604.31,883,775,0
18441,577.13,883,770,0
18451,549.58,883,775,0
18461,521.50,883,770,0
18471,495.38,883,775,0
18481,471.27,883,770,0
18491,450.53,883,775,0
18501,432.71,883,770,0
18511,418.36,883,775,0
18521,406.38,883,769,0
18531,397.14,883,774,0
18541,389.21,883,769,0
18551,383.19,883,774,0
18561,378.16,883,769,0
18571,375.07,883,774,0
18581,373.21,883,769,0
18591,373.66,883,774,0
18601,375.69,883,768,0
18611,380.11,883,774,0
18621,385.44,883,769,0
18631,391.99,883,774,0
18641,398.34,883,769,0
18651,404.84,883,774,0
18661,410.28,883,769,0
18671,415.17,883,774,0
18681,418.46,883,769,0
18691,421.07,883,774,0
18701,422.03,883,769,0
18711,422.45,883,774,0
18721,421.50,883,769,0
18732,420.28,883,774,0
18742,418.01,883,769,0
18752,415.95,883,774,0
18762,413.09,883,768,0
18772,410.54,883,774,0
18782,407.46,883,769,0
18792,405.01,883,774,0
18802,402.35,883,769,0
18812,400.44,883,774,0
18822,398.38,883,769,0
18832,397.15,883,774,0
18842,395.99,883,769,0
18852,395.65,883,774,0
18862,395.33,883,769,0
18872,396.90,883,775,0
18882,399.55,883,770,0
18892,403.97,883,776,0
18903,408.95,883,770,0
18913,414.45,883,775,0
18923,419.11,883,770,0
18933,423.54,883,775,0
18944,425.60,883,771,0
18953,426.02,883,775,0
18963,423.79,883,771,0
18973,419.99,883,775,0
18983,415.07,883,772,0
18993,410.42,883,775,0
19003,404.94,883,770,0
19013,399.64,883,775,0
19023,393.71,883,770,0
19033,388.35,883,774,0
19043,383.19,883,769,0
19053,378.89,883,774,0
19063,374.98,883,770,0
19073,372.76,883,774,0
19083,371.59,883,769,0
19093,372.31,883,774,0
19103,374.06,883,770,0
19113,377.17,883,774,0
19123,380.46,883,769,0
19133,384.10,883,774,0
19143,387.02,883,769,0
19153,390.15,883,774,0
19163,393.79,883,769,0
19173,400.07,883,774,0
19183,409.86,883,770,0
19193,425.46,883,774,0
19203,447.52,883,770,0
19213,476.89,883,775,0
19223,511.25,883,771,0
19243,549.32,913,770,0
19245,586.90,913,774,0
19255,621.34,913,774,0
19265,648.80,913,774,0
19275,667.20,913,774,0
19286,674.60,913,774,0
19295,672.15,913,773,0
19305,659.20,913,773,0
19315,638.06,913,773,0
19325,610.48,913,773,0
19335,579.27,913,773,0
19345,546.31,913,773,0
19355,513.78,913,773,0
19365,482.82,913,773,0
19375,455.44,913,773,0
19385,432.34,913,773,0
19395,413.94,913,774,0
19405,399.81,913,773,0
19415,389.80,913,773,0
19425,383.26,913,773,0
19435,379.88,913,774,0
19445,379.02,913,773,0
19456,380.08,913,773,0
19465,382.42,913,773,0
19475,385.93,913,774,0
19485,390.15,913,773,0
19495,395.12,913,773,0
19505,400.36,913,773,0
19515,405.74,913,774,0
19525,411.13,913,773,0
19535,416.10,913,773,0
19545,420.40,913,773,0
19555,423.92,913,774,0
19565,426.48,913,773,0
19575,428.05,913,773,0
19585,428.50,913,773,0
19595,428.05,913,774,0
19605,426.88,913,773,0
19615,425.12,913,774,0
19625,422.81,913,773,0
19635,420.25,913,774,0
19645,417.48,913,773,0
19655,414.63,913,774,0
19665,411.83,913,774,0
19675,409.31,913,774,0
19685,407.03,913,773,0
19695,405.05,913,774,0
19705,403.36,913,774,0
19715,402.57,913,775,0
19725,403.64,913,774,0
19735,406.32,913,775,0
19745,410.08,913,775,0
19756,414.26,913,775,0
19766,418.68,913,775,0
19776,423.06,913,774,0
19786,426.56,913,775,0
19796,427.72,913,774,0
19806,427.07,913,775,0
19816,424.01,913,773,0
19826,419.34,913,775,0
19836,413.11,913,773,0
19846,406.17,913,774,0
19856,399.61,913,774,0
19866,394.20,913,775,0
19876,388.87,913,773,0
19886,385.05,913,774,0
19896,382.25,913,773,0
19906,381.02,913,774,0
19916,380.45,913,772,0
19927,380.10,913,774,0
19937,379.47,913,772,0
19947,379.67,913,774,0
19957,380.07,913,771,0
19968,381.42,913,774,0
19977,382.97,913,771,0
19987,385.12,913,773,0
19997,387.06,913,771,0
20007,389.27,913,774,0
20017,390.86,913,771,0
20027,392.40,913,774,0
20037,393.61,913,771,0
20047,396.26,913,774,0
20057,401.32,913,772,0
20067,411.08,913,773,0
20077,426.27,913,771,0
20087,448.18,913,774,0
20097,476.15,913,772,0
20107,509.58,913,774,0
20117,545.53,913,771,0
20136,581.67,894,770,0
20139,613.91,894,769,0
20148,640.55,894,774,0
20158,658.82,894,770,0
20168,668.34,894,774,0
20178,668.15,894,770,0
20188,659.67,894,774,0
20198,643.22,894,770,0
20208,621.60,894,774,0
20218,595.28,894,770,0
20228,567.25,894,774,0
20238,538.29,894,770,0
20248,510.73,894,774,0
20258,484.80,894,770,0
20268,462.27,894,774,0
20278,443.12,894,770,0
20288,427.83,894,774,0
20298,415.32,894,770,0
20308,406.27,894,774,0
20318,399.59,894,770,0
20328,395.73,894,774,0
20338,393.41,894,770,0
20348,392.86,894,774,0
20358,393.37,894,770,0
20368,395.40,894,774,0
20378,397.85,894,770,0
20388,401.28,894,774,0
20398,404.58,894,770,0
20408,408.35,894,774,0
20418,411.55,894,770,0
20428,414.94,894,774,0
20439,417.49,894,770,0
20449,419.91,894,774,0
20459,421.27,894,769,0
20469,422.30,894,774,0
20480,422.34,894,769,0
20489,422.19,894,774,0
20499,421.02,894,769,0
20509,419.77,894,774,0
20519,417.83,894,769,0
20529,416.16,894,774,0
20539,413.97,894,769,0
20549,412.18,894,774,0
20559,409.85,894,769,0
20569,408.10,894,774,0
20579,406.05,894,769,0
20589,404.58,894,774,0
20599,402.78,894,769,0
20609,401.69,894,774,0
20619,400.32,894,769,0
20629,399.63,894,774,0
20639,398.58,894,769,0
20649,398.19,894,774,0
20659,397.54,894,769,0
20669,397.42,894,774,0
20679,396.95,894,769,0
20689,397.01,894,774,0
20699,396.88,894,770,0
20709,397.30,894,774,0
20719,397.34,894,769,0
20729,397.75,894,774,0
20739,397.78,894,770,0
20749,398.28,894,774,0
20759,398.37,894,769,0
20769,398.81,894,774,0
20780,398.70,894,770,0
20790,398.87,894,774,0
20800,398.48,894,769,0
20810,398.64,894,774,0
20820,398.53,894,770,0
20830,399.06,894,774,0
20840,399.21,894,769,0
20850,399.92,894,774,0
20860,400.37,894,770,0
20870,401.38,894,774,0
20880,401.82,894,769,0
20890,402.52,894,774,0
20900,402.53,894,770,0
20910,402.63,894,774,0
20920,401.97,894,770,0
20930,401.46,894,774,0
20940,401.50,894,770,0
20951,404.30,894,774,0
20970,410.90,834,773,0
20973,423.53,834,775,0
20982,442.78,834,773,0
20993,469.16,834,774,0
21003,501.39,834,773,0
21013,537.57,834,774,0
21023,574.56,834,774,0
21033,609.23,834,774,0
21043,638.31,834,773,0
21053,658.91,834,774,0
21063,669.65,834,773,0
21073,670.44,834,774,0
21083,661.87,834,773,0
21093,644.89,834,774,0
21103,621.05,834,773,0
21113,592.41,834,774,0
21123,561.51,834,773,0
21133,530.42,834,774,0
21143,500.68,834,773,0
21153,473.43,834,774,0
21164,449.52,834,774,0
21174,429.65,834,773,0
21184,413.55,834,774,0
21194,401.30,834,773,0
21204,392.55,834,774,0
21214,386.69,834,773,0
21224,383.35,834,774,0
21234,381.88,834,772,0
21244,382.38,834,774,0
21254,384.84,834,774,0
21264,388.53,834,774,0
21274,392.74,834,773,0
21284,398.13,834,774,0
21294,403.71,834,774,0
21304,409.24,834,774,0
21314,413.97,834,773,0
21324,418.13,834,774,0
21335,420.88,834,772,0
21345,422.67,834,774,0
21355,422.56,834,771,0
21365,421.58,834,774,0
21376,419.99,834,771,0
21385,418.75,834,774,0
21395,416.98,834,772,0
21405,415.40,834,774,0
21415,413.48,834,770,0
21425,411.79,834,773,0
21435,409.88,834,771,0
21445,408.46,834,774,0
21455,406.69,834,771,0
21465,405.03,834,774,0
21475,403.26,834,771,0
21485,402.33,834,774,0
21495,401.54,834,771,0
21505,401.72,834,774,0
21515,401.81,834,771,0
21525,402.21,834,774,0
21535,402.45,834,771,0
21545,403.43,834,774,0
21555,405.06,834,772,0
21565,407.78,834,775,0
21575,410.46,834,772,0
21585,413.67,834,775,0
21595,416.64,834,773,0
21605,419.92,834,775,0
21615,422.56,834,772,0
21625,424.23,834,775,0
21635,424.38,834,773,0
21645,423.66,834,775,0
21655,421.54,834,772,0
21665,418.76,834,775,0
21676,414.85,834,771,0
21686,410.99,834,775,0
21696,406.92,834,771,0
21706,403.56,834,775,0
21716,400.35,834,771,0
21726,398.36,834,775,0
21736,396.79,834,771,0
21746,396.51,834,776,0
21756,396.32,834,771,0
21766,396.52,834,775,0
21776,396.36,834,771,0
21786,396.38,834,775,0
21796,395.63,834,771,0
21806,394.80,834,775,0
21816,392.89,834,771,0
21826,391.25,834,775,0
21836,390.70,834,771,0
21847,393.83,834,775,0
21857,401.77,834,771,0
21867,416.32,834,775,0
21877,437.40,834,771,0
21888,465.56,834,775,0
21906,498.48,936,774,0
21909,533.99,936,776,0
21918,568.07,936,770,0
21928,597.92,936,775,0
21938,620.74,936,770,0
21948,635.52,936,775,0
21958,640.98,936,770,0
21968,637.90,936,775,0
21978,626.40,936,769,0
21988,608.41,936,774,0
21998,585.23,936,770,0
22008,559.53,936,774,0
22018,531.60,936,769,0
22028,504.08,936,775,0
22038,478.04,936,770,0
22048,455.61,936,774,0
22059,436.74,936,770,0
22068,422.29,936,775,0
22078,410.93,936,770,0
22088,403.67,936,775,0
22098,399.27,936,771,0
22108,397.82,936,775,0
22118,397.91,936,770,0
22128,399.74,936,775,0
22138,402.00,936,771,0
22148,405.05,936,775,0
22158,407.95,936,770,0
22168,410.79,936,775,0
22178,412.70,936,771,0
22188,414.63,936,775,0
22198,415.68,936,770,0
22208,416.89,936,775,0
22218,417.65,936,771,0
22228,418.66,936,775,0
22238,419.32,936,770,0
22248,420.59,936,775,0
22258,421.49,936,771,0
22268,422.84,936,775,0
22278,423.79,936,771,0
22288,424.84,936,775,0
22298,425.19,936,771,0
22308,425.52,936,775,0
22318,424.89,936,770,0
22328,424.15,936,775,0
22338,422.52,936,771,0
22348,421.34,936,775,0
22359,419.86,936,772,0
22369,419.00,936,775,0
22379,417.80,936,772,0
22389,416.83,936,775,0
22400,415.25,936,773,0
22409,414.28,936,775,0
22419,412.61,936,772,0
22429,410.63,936,774,0
22439,407.74,936,773,0
22449,405.07,936,775,0
22459,402.35,936,772,0
22469,400.62,936,774,0
22479,399.06,936,773,0
22489,398.36,936,775,0
22499,398.42,936,772,0
22509,399.37,936,774,0
22519,400.41,936,773,0
22529,401.92,936,775,0
22539,403.01,936,772,0
22549,404.12,936,775,0
22559,404.60,936,773,0
22569,404.94,936,775,0
22579,405.04,936,772,0
22589,405.33,936,775,0
22599,404.93,936,773,0
22609,404.27,936,774,0
22619,402.86,936,772,0
22629,401.53,936,774,0
22639,398.93,936,772,0
22649,395.61,936,774,0
22659,391.65,936,771,0
22669,387.77,936,773,0
22679,383.77,936,772,0
22689,380.15,936,774,0
22700,376.81,936,772,0
22710,375.96,936,773,0
22720,378.59,936,773,0
22730,386.08,936,773,0
22740,399.73,936,773,0
22750,420.04,936,774,0
22769,446.60,863,772,0
22772,478.52,863,773,0
22781,513.98,863,774,0
22791,549.94,863,773,0
22801,583.13,863,774,0
22811,610.78,863,773,0
22821,630.86,863,774,0
22831,642.56,863,773,0
22841,645.35,863,774,0
22851,639.20,863,773,0
22861,625.55,863,774,0
22871,606.19,863,773,0
22881,582.99,863,774,0
22891,557.62,863,773,0
22901,531.38,863,774,0
22912,505.64,863,773,0
22921,481.92,863,774,0
22931,460.68,863,773,0
22941,442.78,863,774,0
22951,427.85,863,773,0
22961,416.28,863,774,0
22971,407.88,863,773,0
22981,402.52,863,774,0
22991,399.49,863,773,0
23001,398.70,863,774,0
23011,399.26,863,774,0
23021,401.28,863,774,0
23031,403.98,863,773,0
23041,407.12,863,774,0
23051,410.55,863,773,0
23061,413.82,863,774,0
23071,416.44,863,773,0
23081,418.58,863,774,0
23091,419.78,863,773,0
23101,420.14,863,774,0
23111,419.42,863,772,0
23121,417.83,863,773,0
23131,415.74,863,773,0
23141,413.68,863,774,0
23151,411.42,863,772,0
23161,409.45,863,773,0
23171,407.86,863,773,0
23181,407.00,863,774,0
23191,406.57,863,772,0
23201,406.66,863,773,0
23212,406.89,863,772,0
23222,407.44,863,774,0
23232,407.73,863,771,0
23242,408.07,863,773,0
23252,408.14,863,770,0
23262,408.27,863,773,0
23272,408.19,863,771,0
23282,408.22,863,773,0
23292,407.89,863,770,0
23302,407.84,863,773,0
23312,407.42,863,771,0
23322,407.29,863,773,0
23332,406.82,863,770,0
23342,406.57,863,774,0
23352,406.06,863,771,0
23362,405.87,863,774,0
23372,405.31,863,770,0
23383,405.17,863,773,0
23393,404.61,863,770,0
23403,404.42,863,774,0
23413,403.83,863,769,0
23424,403.54,863,774,0
23433,402.82,863,770,0
23443,402.44,863,774,0
23453,401.62,863,770,0
23463,401.14,863,773,0
23473,400.20,863,770,0
23483,399.62,863,774,0
23493,398.54,863,769,0
23503,397.82,863,774,0
23513,396.63,863,770,0
23523,395.67,863,773,0
23533,394.14,863,770,0
23543,393.03,863,774,0
23553,392.29,863,770,0
23563,394.35,863,773,0
23573,399.81,863,769,0
23583,410.93,863,774,0
23603,427.83,833,772,0
23606,451.93,833,774,0
23615,481.52,833,768,0
23625,515.65,833,774,0
23635,550.60,833,769,0
23645,584.28,833,774,0
23655,612.82,833,768,0
23665,634.86,833,774,0
23675,647.76,833,769,0
23685,652.20,833,774,0
23695,647.60,833,768,0
23705,635.59,833,773,0
23715,616.73,833,769,0
23725,593.75,833,774,0
23735,567.51,833,768,0
23745,540.49,833,774,0
23755,513.13,833,769,0
23766,487.50,833,774,0
23775,464.04,833,768,0
23785,443.97,833,774,0
23795,426.75,833,769,0
23805,413.28,833,774,0
23815,402.74,833,768,0
23825,395.83,833,774,0
23835,391.43,833,769,0
23845,389.71,833,773,0
23855,389.54,833,768,0
23865,391.48,833,774,0
23875,394.34,833,769,0
23885,398.48,833,773,0
23895,402.53,833,768,0
23905,407.00,833,774,0
23915,411.12,833,769,0
23925,415.45,833,774,0
23936,418.87,833,769,0
23945,422.00,833,774,0
23955,423.97,833,769,0
23965,425.69,833,774,0
23975,426.43,833,769,0
23985,426.77,833,774,0
23995,426.03,833,769,0
24005,425.25,833,774,0
24015,423.67,833,770,0
24025,422.31,833,774,0
24035,420.33,833,769,0
24045,418.65,833,774,0
24055,416.61,833,770,0
24065,415.06,833,774,0
24075,413.15,833,769,0
24085,411.69,833,774,0
24095,409.90,833,770,0
24105,408.60,833,774,0
24115,407.14,833,769,0
24125,406.71,833,774,0
24135,407.74,833,771,0
24145,410.60,833,775,0
24155,414.06,833,770,0
24165,418.37,833,775,0
24175,422.59,833,771,0
24185,427.13,833,775,0
24195,430.39,833,770,0
24205,431.94,833,775,0
24215,431.28,833,771,0
24225,429.48,833,775,0
24236,426.03,833,771,0
24246,422.00,833,775,0
24256,417.20,833,772,0
24266,412.77,833,775,0
24276,408.29,833,773,0
24286,404.61,833,775,0
24296,401.42,833,772,0
24306,399.50,833,775,0
24316,397.93,833,773,0
24326,396.97,833,775,0
24336,395.91,833,772,0
24346,395.08,833,774,0
24356,393.85,833,773,0
24366,392.61,833,775,0
24376,391.10,833,772,0
24386,390.26,833,775,0
24396,389.75,833,773,0
24407,390.68,833,774,0
24417,393.86,833,773,0
24427,401.49,833,774,0
24437,414.03,833,773,0
24448,432.49,833,774,0
24457,456.22,833,773,0
24467,485.08,833,773,0
24486,516.98,884,772,0
24489,549.26,884,771,0
24498,579.23,884,773,0
24508,604.79,884,773,0
24518,623.49,884,774,0
24528,634.36,884,773,0
24538,636.82,884,773,0
24548,631.48,884,773,0
24558,619.63,884,774,0
24568,601.79,884,773,0
24578,579.69,884,773,0
24588,555.01,884,773,0
24598,529.51,884,774,0
24608,504.24,884,773,0
24619,480.64,884,773,0
24628,459.28,884,773,0
24638,440.89,884,774,0
24648,425.41,884,773,0
24658,413.20,884,774,0
24668,403.93,884,773,0
24678,397.52,884,774,0
24688,393.42,884,773,0
24698,391.54,884,774,0
24708,391.42,884,773,0
24718,392.88,884,774,0
24728,395.27,884,773,0
24738,398.66,884,774,0
24748,402.62,884,773,0
24758,407.02,884,774,0
24768,411.34,884,773,0
24778,415.65,884,774,0
24788,419.92,884,773,0
24798,425.00,884,775,0
24808,430.44,884,774,0
24818,436.01,884,775,0
24828,440.63,884,773,0
24838,444.47,884,775,0
24848,447.12,884,774,0
24858,448.50,884,775,0
24868,447.40,884,773,0
24878,444.15,884,775,0
24888,439.09,884,774,0
24898,433.62,884,775,0
24908,427.61,884,773,0
24919,421.55,884,775,0
24929,415.56,884,773,0
24939,410.46,884,775,0
24949,405.70,884,772,0
24960,401.80,884,775,0
24969,397.66,884,772,0
24979,394.25,884,774,0
24989,391.05,884,771,0
24999,388.12,884,774,0
25009,384.91,884,771,0
25019,382.41,884,773,0
25029,380.01,884,771,0
25039,378.98,884,773,0
25049,378.34,884,771,0
25059,378.76,884,774,0
25069,379.81,884,771,0
25079,381.93,884,774,0
25089,384.31,884,771,0
25099,387.34,884,774,0
25109,390.33,884,771,0
25119,393.53,884,774,0
25129,396.16,884,770,0
25139,398.68,884,774,0
25149,400.36,884,770,0
25159,401.80,884,773,0
25169,402.24,884,770,0
25179,402.34,884,774,0
25189,401.77,884,771,0
25199,401.19,884,773,0
25209,399.98,884,770,0
25219,399.09,884,774,0
25229,397.65,884,770,0
25239,396.55,884,773,0
25249,394.97,884,770,0
25260,393.61,884,774,0
25270,391.80,884,769,0
25280,390.62,884,773,0
25290,390.60,884,769,0
25300,394.28,884,774,0
25310,402.17,884,770,0
25320,416.30,884,774,0
25330,436.87,884,769,0
25350,464.55,863,768,0
25353,497.56,863,769,0
25362,534.16,863,773,0
25372,570.28,863,769,0
25382,603.71,863,774,0
25392,630.84,863,769,0
25402,650.00,863,774,0
25412,659.39,863,769,0
25422,659.57,863,774,0
25432,650.44,863,769,0
25442,634.11,863,774,0
25452,611.41,863,769,0
25462,585.14,863,774,0
25473,556.43,863,769,0
25483,527.76,863,773,0
25493,499.80,863,770,0
25503,474.40,863,774,0
25513,451.65,863,770,0
25523,432.90,863,773,0
25533,417.37,863,770,0
25543,405.95,863,774,0
25553,397.95,863,771,0
25563,394.06,863,774,0
25573,393.06,863,771,0
25583,395.01,863,774,0
25593,398.69,863,771,0
25603,404.10,863,774,0
25613,409.64,863,771,0
25623,415.15,863,774,0
25633,419.43,863,771,0
25644,422.90,863,774,0
25654,425.03,863,772,0
25664,426.35,863,774,0
25674,426.59,863,772,0
25684,426.50,863,774,0
25694,425.88,863,772,0
25704,425.23,863,774,0
25714,424.09,863,772,0
25724,422.90,863,774,0
25734,421.35,863,772,0
25744,419.91,863,774,0
25754,418.35,863,772,0
25764,416.88,863,774,0
25774,415.20,863,772,0
25784,413.81,863,774,0
25794,412.28,863,772,0
25804,410.83,863,774,0
25815,408.99,863,773,0
25825,407.28,863,774,0
25835,406.08,863,774,0
25845,405.84,863,775,0
25856,406.49,863,775,0
25865,408.27,863,775,0
25875,410.89,863,774,0
25885,414.18,863,775,0
25895,417.77,863,775,0
25905,421.22,863,775,0
25915,423.86,863,775,0
25925,425.49,863,775,0
25935,426.11,863,775,0
25945,425.78,863,775,0
25955,424.60,863,775,0
25965,422.71,863,775,0
25975,419.92,863,775,0
25985,416.69,863,775,0
25995,413.01,863,775,0
26005,409.06,863,775,0
26015,405.15,863,775,0
26025,401.54,863,775,0
26035,398.38,863,775,0
26045,395.82,863,775,0
26055,393.99,863,775,0
26065,392.79,863,775,0
26075,392.34,863,775,0
26085,392.50,863,775,0
26095,393.08,863,775,0
26105,393.82,863,775,0
26115,394.82,863,775,0
26125,395.86,863,775,0
26135,396.93,863,776,0
26145,397.68,863,775,0
26156,397.99,863,776,0
26166,398.12,863,775,0
26176,399.59,863,776,0
26186,403.70,863,774,0
26196,412.23,863,776,0
26206,426.30,863,775,0
26216,446.70,863,776,0
26226,473.49,863,774,0
26236,505.74,863,776,0
26255,540.88,906,775,0
26258,575.71,906,776,0
26267,607.21,906,773,0
26277,632.86,906,776,0
26287,650.48,906,774,0
26297,659.03,906,776,0
26307,658.04,906,773,0
26317,648.47,906,776,0
26327,631.57,906,773,0
26337,608.94,906,776,0
26347,582.09,906,773,0
26357,553.22,906,776,0
26368,523.50,906,772,0
26377,495.28,906,776,0
26387,469.01,906,773,0
26397,445.99,906,776,0
26407,426.15,906,772,0
26417,410.29,906,776,0
26427,397.78,906,773,0
26437,389.23,906,776,0
26447,383.59,906,772,0
26457,381.05,906,776,0
26467,380.61,906,773,0
26477,382.40,906,776,0
26487,385.41,906,772,0
26497,389.91,906,776,0
26507,394.78,906,773,0
26517,400.29,906,776,0
26527,405.47,906,772,0
26537,410.82,906,776,0
26547,415.37,906,772,0
26557,419.46,906,776,0
26567,422.19,906,772,0
26577,424.49,906,776,0
26587,425.72,906,773,0
26597,426.57,906,776,0
26607,426.40,906,772,0
26617,426.02,906,776,0
26627,425.03,906,772,0
26637,424.42,906,776,0
26647,423.18,906,773,0
26657,421.93,906,776,0
26668,420.02,906,772,0
26678,418.34,906,776,0
26688,416.05,906,772,0
26698,414.07,906,776,0
26708,411.48,906,771,0
26718,409.36,906,776,0
26728,406.85,906,772,0
26738,405.05,906,776,0
26748,403.07,906,771,0
26758,402.06,906,776,0
26768,400.97,906,772,0
26778,400.72,906,776,0
26788,400.29,906,771,0
26798,400.68,906,777,0
26808,400.73,906,772,0
26818,401.15,906,776,0
26828,401.02,906,771,0
26839,401.27,906,776,0
26849,400.98,906,771,0
26859,401.03,906,776,0
26869,400.55,906,771,0
26880,400.30,906,776,0
26889,399.57,906,771,0
26899,398.92,906,776,0
26909,397.32,906,770,0
26919,395.47,906,776,0
26929,392.75,906,771,0
26939,390.30,906,776,0
26949,387.64,906,771,0
26959,385.69,906,776,0
26969,383.73,906,771,0
26979,382.91,906,776,0
26989,382.51,906,771,0
26999,383.13,906,776,0
27009,383.56,906,771,0
27019,384.42,906,776,0
27029,384.81,906,771,0
27039,386.07,906,776,0
27049,388.40,906,771,0
27059,394.07,906,776,0
27069,403.78,906,771,0
27088,419.53,833,770,0
27091,441.36,833,773,0
27100,469.83,833,776,0
27110,503.14,833,772,0
27120,539.48,833,776,0
27130,575.38,833,773,0
27140,608.52,833,776,0
27150,635.24,833,772,0
27160,653.77,833,776,0
27170,662.28,833,772,0
27180,661.38,833,775,0
27190,651.02,833,772,0
27200,633.27,833,776,0
27210,608.81,833,772,0
27220,580.36,833,775,0
27230,549.74,833,772,0
27240,519.69,833,776,0
27250,490.81,833,772,0
27260,465.03,833,776,0
27270,442.17,833,772,0
27280,423.52,833,775,0
27290,408.75,833,772,0
27300,398.07,833,775,0
27310,390.29,833,772,0
27320,385.79,833,775,0
27330,383.50,833,772,0
27340,383.73,833,775,0
27351,385.44,833,773,0
27361,388.78,833,775,0
27371,392.75,833,773,0
27381,397.58,833,775,0
27392,402.25,833,774,0
27401,407.19,833,775,0
27411,411.63,833,774,0
27421,416.33,833,775,0
27431,420.34,833,774,0
27441,423.93,833,775,0
27451,426.39,833,774,0
27461,428.12,833,775,0
27471,428.64,833,774,0
27481,428.28,833,775,0
27491,426.82,833,774,0
27501,424.90,833,775,0
27511,422.19,833,774,0
27521,419.18,833,775,0
27531,415.82,833,773,0
27541,412.62,833,775,0
27551,409.52,833,774,0
27561,406.58,833,774,0
27571,403.23,833,773,0
27581,400.46,833,775,0
27591,397.75,833,773,0
27601,395.17,833,774,0
27611,392.38,833,773,0
27621,389.82,833,774,0
27631,387.35,833,773,0
27641,385.74,833,774,0
27651,384.41,833,773,0
27661,384.03,833,774,0
27671,384.53,833,773,0
27681,386.09,833,774,0
27692,388.12,833,774,0
27702,390.44,833,774,0
27712,392.75,833,774,0
27722,394.88,833,774,0
27732,396.72,833,774,0
27742,398.17,833,774,0
27752,399.19,833,774,0
27762,399.52,833,774,0
27772,399.32,833,774,0
27782,398.58,833,774,0
27792,397.64,833,774,0
27802,396.46,833,774,0
27812,395.21,833,775,0
27822,394.03,833,774,0
27832,393.16,833,774,0
27842,392.47,833,774,0
27852,392.12,833,775,0
27863,391.78,833,773,0
27873,391.55,833,774,0
27883,391.21,833,773,0
27893,390.63,833,774,0
27904,390.40,833,772,0
27913,391.87,833,774,0
27923,396.32,833,773,0
27933,405.82,833,775,0
27943,421.09,833,772,0
27962,442.84,874,772,0
27965,470.57,874,770,0
27974,503.74,874,775,0
27984,539.18,874,771,0
27994,574.31,874,774,0
28004,605.33,874,771,0
28014,630.13,874,774,0
28024,646.59,874,771,0
28034,654.64,874,774,0
28044,653.08,874,771,0
28054,643.33,874,774,0
28064,625.96,874,770,0
28075,603.43,874,774,0
28084,577.33,874,771,0
28094,549.84,874,774,0
28104,521.60,874,771,0
28114,494.81,874,774,0
28124,470.22,874,771,0
28134,449.16,874,774,0
28144,431.20,874,771,0
28154,417.29,874,775,0
28164,406.83,874,771,0
28174,400.16,874,774,0
28184,395.95,874,771,0
28194,394.42,874,774,0
28204,394.51,874,771,0
28214,396.37,874,774,0
28224,398.45,874,770,0
28234,401.05,874,774,0
28244,403.57,874,770,0
28254,406.78,874,774,0
28264,409.89,874,771,0
28274,413.31,874,774,0
28284,416.34,874,770,0
28294,419.46,874,774,0
28304,422.06,874,770,0
28314,424.70,874,774,0
28324,426.38,874,770,0
28334,427.72,874,774,0
28344,428.02,874,770,0
28354,428.14,874,774,0
28364,427.28,874,770,0
28375,426.26,874,774,0
28385,424.17,874,770,0
28395,422.10,874,774,0
28405,419.20,874,769,0
28416,416.61,874,774,0
28425,413.38,874,770,0
28435,410.61,874,774,0
28445,407.43,874,769,0
28455,404.94,874,774,0
28465,402.30,874,770,0
28475,400.45,874,774,0
28485,398.52,874,769,0
28495,397.42,874,774,0
28505,396.39,874,770,0
28515,396.23,874,774,0
28525,395.95,874,769,0
28535,396.26,874,774,0
28545,396.23,874,770,0
28555,396.67,874,774,0
28565,396.64,874,769,0
28575,396.96,874,774,0
28585,396.76,874,769,0
28595,396.96,874,774,0
28605,396.67,874,769,0
28615,396.86,874,774,0
28625,396.43,874,769,0
28635,396.51,874,774,0
28645,396.06,874,769,0
28655,395.91,874,774,0
28665,395.13,874,769,0
28675,394.62,874,774,0
28685,393.57,874,769,0
28695,392.97,874,774,0
28705,391.87,874,769,0
28716,391.26,874,774,0
28726,390.37,874,769,0
28736,390.00,874,774,0
28746,389.32,874,769,0
28756,388.96,874,774,0
28766,388.33,874,769,0
28776,388.83,874,774,0
28786,390.90,874,769,0
28796,397.10,874,774,0
28806,407.87,874,769,0
28825,425.18,863,768,0
28828,448.83,863,773,0
28837,479.09,863,774,0
28847,513.26,863,770,0
28857,549.57,863,774,0
28867,583.77,863,770,0
28877,614.01,863,774,0
28887,636.81,863,770,0
28897,651.05,863,774,0
28907,655.36,863,770,0
28917,650.93,863,774,0
28928,637.96,863,771,0
28937,618.90,863,774,0
28947,594.63,863,770,0
28957,567.91,863,774,0
28967,540.21,863,771,0
28977,513.49,863,774,0
28987,488.57,863,771,0
28997,467.23,863,775,0
29007,449.50,863,772,0
29017,436.37,863,775,0
29027,426.74,863,772,0
29037,420.52,863,775,0
29047,416.59,863,772,0
29057,415.04,863,775,0
29067,414.30,863,771,0
29077,414.43,863,775,0
29087,414.17,863,772,0
29097,414.08,863,775,0
29107,413.75,863,771,0
29117,413.87,863,775,0
29127,413.52,863,772,0
29137,413.62,863,775,0
29147,413.52,863,771,0
29157,413.79,863,775,0
29167,413.34,863,771,0
29177,412.68,863,774,0
29187,411.45,863,771,0
29197,410.59,863,774,0
29207,409.30,863,771,0
29217,408.14,863,774,0
29228,406.68,863,772,0
29238,406.00,863,774,0
29248,405.45,863,773,0
29258,405.36,863,774,0
29268,405.08,863,773,0
29278,405.14,863,774,0
29288,405.06,863,773,0
29298,405.17,863,774,0
29308,405.12,863,773,0
29318,405.21,863,774,0
29328,405.02,863,773,0
29338,404.84,863,774,0
29348,404.55,863,773,0
29358,404.21,863,774,0
29368,403.72,863,773,0
29378,403.20,863,774,0
29388,402.59,863,773,0
29399,402.15,863,774,0
29409,401.85,863,774,0
29419,401.55,863,774,0
29429,401.56,863,774,0
29440,401.52,863,774,0
29449,401.41,863,774,0
29459,401.16,863,774,0
29469,400.68,863,774,0
29479,399.88,863,773,0
29489,398.93,863,773,0
29499,397.58,863,774,0
29509,396.20,863,774,0
29519,394.86,863,773,0
29529,393.57,863,773,0
29539,392.33,863,773,0
29549,391.46,863,774,0
29559,390.51,863,773,0
29569,389.80,863,774,0
29579,389.22,863,774,0
29589,388.77,863,774,0
29599,388.32,863,773,0
29609,388.05,863,774,0
29619,387.57,863,774,0
29629,387.22,863,774,0
29639,386.90,863,773,0
29649,387.87,863,774,0
29659,391.34,863,774,0
29669,399.25,863,774,0
29679,412.93,863,773,0
29699,432.67,873,772,0
29702,457.80,873,771,0
29711,487.99,873,774,0
29721,520.56,873,770,0
29731,553.26,873,774,0
29741,582.63,873,771,0
29751,606.01,873,774,0
29761,621.69,873,770,0
29771,629.63,873,774,0
29782,628.93,873,770,0
29791,621.02,873,774,0
29801,606.27,873,770,0
29811,586.69,873,774,0
29821,563.34,873,770,0
29831,538.64,873,774,0
29841,513.16,873,770,0
29851,488.90,873,774,0
29861,466.04,873,770,0
29871,446.19,873,774,0
29881,429.03,873,770,0
29891,415.48,873,774,0
29901,404.54,873,770,0
29911,396.92,873,774,0
29921,392.31,873,771,0
29931,391.06,873,775,0
29941,391.73,873,770,0
29952,394.51,873,775,0
29961,398.47,873,771,0
29971,404.29,873,775,0
29981,410.76,873,771,0
29991,417.43,873,775,0
30001,423.00,873,771,0
30011,428.23,873,775,0
30021,432.19,873,771,0
30031,435.18,873,775,0
30041,436.24,873,771,0
30051,436.42,873,775,0
30061,435.05,873,771,0
30071,433.54,873,775,0
30081,431.45,873,771,0
30091,429.43,873,775,0
30101,427.11,873,771,0
30111,425.41,873,775,0
30121,423.44,873,771,0
30131,421.94,873,775,0
30141,419.86,873,771,0
30151,418.06,873,775,0
30161,415.94,873,771,0
30171,414.12,873,775,0
30181,411.55,873,771,0
30191,409.33,873,775,0
30201,406.83,873,771,0
30211,405.04,873,775,0
30221,403.14,873,771,0
30231,402.16,873,775,0
30241,401.08,873,771,0
30252,400.97,873,775,0
30262,400.85,873,771,0
30272,401.54,873,775,0
30282,401.81,873,770,0
30292,402.21,873,775,0
30302,402.06,873,771,0
30312,402.47,873,775,0
30322,402.24,873,770,0
30332,402.26,873,775,0
30342,401.62,873,771,0
30352,401.56,873,776,0
30362,401.09,873,771,0
30372,400.94,873,775,0
30382,400.27,873,771,0
30392,400.23,873,776,0
30402,399.65,873,771,0
30412,399.50,873,776,0
30423,398.66,873,771,0
30433,398.21,873,776,0
30443,397.07,873,771,0
30453,395.85,873,776,0
30464,393.80,873,771,0
30473,392.40,873,776,0
30483,391.89,873,771,0
30493,395.14,873,775,0
30503,402.60,873,771,0
30513,416.43,873,776,0
30523,436.70,873,771,0
30542,463.84,844,769,0
30545,495.90,844,775,0
30554,531.41,844,776,0
30564,566.26,844,772,0
30574,598.07,844,775,0
30584,623.38,844,772,0
30594,641.09,844,775,0
30604,649.59,844,772,0
30614,649.29,844,775,0
30624,640.07,844,772,0
30635,623.76,844,775,0
30644,601.68,844,771,0
30654,576.49,844,775,0
30664,548.87,844,772,0
30674,521.10,844,775,0
30684,494.07,844,771,0
30694,469.66,844,775,0
30704,448.03,844,772,0
30714,430.15,844,775,0
30724,415.15,844,771,0
30734,403.92,844,775,0
30744,395.71,844,772,0
30754,390.83,844,775,0
30764,388.09,844,771,0
30774,387.68,844,775,0
30784,388.55,844,772,0
30794,391.17,844,775,0
30804,394.59,844,773,0
30814,398.91,844,775,0
30824,403.27,844,771,0
30834,407.99,844,775,0
30844,412.49,844,772,0
30854,417.10,844,775,0
30864,420.84,844,772,0
30874,424.06,844,775,0
30884,426.49,844,773,0
30894,428.78,844,775,0
30904,430.22,844,772,0
30914,431.27,844,775,0
30924,431.32,844,773,0
30935,431.05,844,775,0
30945,430.39,844,773,0
30955,429.63,844,776,0
30965,428.16,844,775,0
30976,426.40,844,775,0
30985,424.18,844,774,0
30995,421.94,844,775,0
31005,419.51,844,774,0
31015,416.87,844,775,0
31025,413.87,844,774,0
31035,410.91,844,775,0
31045,408.02,844,775,0
31055,405.44,844,775,0
31065,403.08,844,774,0
31075,401.17,844,775,0
31085,399.53,844,774,0
31095,398.39,844,775,0
31105,397.33,844,774,0
31115,396.67,844,775,0
31125,395.79,844,774,0
31135,394.95,844,775,0
31145,394.06,844,774,0
31155,393.32,844,775,0
31165,392.45,844,774,0
31175,391.84,844,775,0
31185,391.29,844,774,0
31195,391.29,844,775,0
31205,391.59,844,774,0
31215,392.23,844,775,0
31225,393.10,844,775,0
31235,394.27,844,775,0
31245,395.48,844,774,0
31255,396.58,844,775,0
31265,397.43,844,775,0
31276,398.16,844,775,0
31286,398.54,844,775,0
31296,398.42,844,775,0
31306,398.47,844,775,0
31316,399.91,844,774,0
31326,404.14,844,775,0
31336,413.01,844,774,0
31346,427.71,844,775,0
31356,448.97,844,774,0
31375,476.79,833,774,0
31378,509.47,833,772,0
31387,545.20,833,775,0
31397,580.93,833,773,0
31407,613.39,833,775,0
31417,639.50,833,773,0
31427,657.61,833,775,0
31437,666.51,833,773,0
31447,666.70,833,775,0
31457,657.79,833,773,0
31467,641.48,833,775,0
31477,618.79,833,772,0
31488,592.46,833,775,0
31497,563.61,833,773,0
31507,534.32,833,775,0
31517,505.43,833,772,0
31527,478.90,833,775,0
31537,455.23,833,773,0
31547,435.49,833,775,0
31557,419.06,833,772,0
31567,406.57,833,775,0
31577,397.40,833,773,0
31587,391.79,833,775,0
31597,388.60,833,772,0
31607,387.78,833,775,0
31617,388.57,833,773,0
31627,391.10,833,774,0
31637,394.41,833,772,0
31647,398.79,833,775,0
31657,403.35,833,771,0
31667,408.48,833,775,0
31677,413.22,833,772,0
31687,417.82,833,775,0
31697,421.48,833,771,0
31707,425.06,833,775,0
31717,427.62,833,772,0
31727,429.44,833,775,0
31737,429.95,833,771,0
31747,429.63,833,775,0
31757,428.02,833,772,0
31767,425.83,833,775,0
31777,422.02,833,771,0
31788,417.69,833,775,0
31798,412.51,833,770,0
31808,407.77,833,775,0
31818,403.08,833,770,0
31828,399.72,833,775,0
31838,396.84,833,771,0
31848,395.13,833,775,0
31858,393.76,833,770,0
31868,393.45,833,775,0
31878,392.80,833,771,0
31888,392.77,833,775,0
31898,392.03,833,770,0
31908,391.38,833,774,0
31918,390.36,833,770,0
31928,389.74,833,775,0
31938,388.75,833,770,0
31948,388.69,833,774,0
31959,388.66,833,770,0
31969,389.45,833,775,0
31979,390.47,833,770,0
31989,392.13,833,774,0
32000,393.59,833,769,0
32009,395.56,833,775,0
32019,396.76,833,770,0
32029,397.95,833,774,0
32039,398.78,833,770,0
32049,399.74,833,775,0
32059,399.13,833,769,0
32069,398.37,833,774,0
32079,396.80,833,769,0
32089,395.66,833,775,0
32099,394.05,833,769,0
32109,392.23,833,774,0
32119,389.85,833,769,0
32129,388.87,833,775,0
32139,387.36,833,769,0
32149,385.67,833,774,0
32159,383.37,833,768,0
32169,382.96,833,774,0
32179,385.37,833,769,0
32189,393.02,833,774,0
32199,406.55,833,769,0
32219,428.29,843,768,0
32222,457.90,843,772,0
32231,494.83,843,774,0
32241,535.38,843,770,0
32251,576.84,843,774,0
32261,615.16,843,770,0
32271,647.60,843,774,0
32281,670.90,843,770,0
32291,684.30,843,774,0
32301,687.00,843,770,0
32311,680.36,843,773,0
32321,664.95,843,770,0
32331,642.98,843,773,0
32342,615.86,843,771,0
32351,586.37,843,773,0
32361,555.79,843,770,0
32371,525.94,843,773,0
32381,497.50,843,771,0
32391,472.36,843,774,0
32401,450.31,843,770,0
32411,432.30,843,773,0
32421,417.56,843,771,0
32431,406.50,843,774,0
32441,398.47,843,770,0
32451,393.70,843,773,0
32461,391.09,843,771,0
32471,390.76,843,774,0
32481,391.78,843,770,0
32491,394.33,843,773,0
32501,397.66,843,771,0
32512,401.66,843,773,0
32521,406.01,843,771,0
32531,410.98,843,774,0
32541,415.78,843,771,0
32551,420.39,843,774,0
32561,423.92,843,770,0
32571,426.60,843,773,0
32581,428.18,843,771,0
32591,428.55,843,774,0
32601,427.27,843,770,0
32611,425.26,843,774,0
32621,422.48,843,771,0
32631,419.68,843,774,0
32641,416.56,843,770,0
32651,413.74,843,774,0
32661,410.82,843,771,0
32671,408.90,843,774,0
32681,407.39,843,772,0
32691,406.71,843,774,0
32701,406.03,843,772,0
32711,405.72,843,774,0
32721,405.16,843,772,0
32731,404.98,843,774,0
32741,403.92,843,772,0
32751,402.49,843,774,0
32761,400.28,843,772,0
32771,398.18,843,774,0
32781,395.81,843,771,0
32791,393.60,843,773,0
32801,391.28,843,772,0
32812,389.48,843,774,0
32822,387.92,843,773,0
32832,386.79,843,773,0
32842,385.95,843,773,0
32852,385.71,843,773,0
32862,385.97,843,772,0
32872,386.75,843,773,0
32882,387.94,843,773,0
32892,389.46,843,774,0
32902,391.21,843,772,0
32912,393.03,843,774,0
32922,394.65,843,773,0
32932,396.08,843,774,0
32942,397.09,843,772,0
32952,397.70,843,774,0
32962,397.79,843,773,0
32972,397.47,843,773,0
32983,396.90,843,773,0
32993,396.12,843,774,0
33003,395.14,843,774,0
33013,393.94,843,773,0
33024,392.54,843,774,0
33033,391.09,843,773,0
33043,389.61,843,774,0
33053,388.31,843,773,0
33063,389.03,843,774,0
33073,392.92,843,773,0
33083,402.16,843,774,0
33093,417.80,843,773,0
33113,440.87,894,771,0
33116,470.83,894,770,0
33125,507.22,894,774,0
33135,546.54,894,770,0
33145,586.24,894,774,0
33155,622.21,894,771,0
33165,651.76,894,774,0
33175,671.85,894,770,0
33185,682.18,894,774,0
33196,681.57,894,770,0
33206,671.75,894,774,0
33216,653.27,894,769,0
33226,628.76,894,773,0
33236,599.69,894,769,0
33246,569.14,894,774,0
33256,537.94,894,769,0
33266,508.26,894,774,0
33276,480.50,894,769,0
33286,456.39,894,774,0
33296,435.57,894,769,0
33306,418.86,894,774,0
33316,405.40,894,769,0
33326,395.85,894,774,0
33336,389.17,894,769,0
33346,385.77,894,774,0
33356,384.43,894,769,0
33367,385.67,894,774,0
33377,388.21,894,769,0
33387,392.31,894,774,0
33397,396.80,894,769,0
33408,402.26,894,774,0
33417,407.32,894,769,0
33427,412.63,894,774,0
33437,416.90,894,769,0
33447,420.91,894,774,0
33457,423.60,894,769,0
33467,425.73,894,774,0
33477,426.37,894,769,0
33487,426.30,894,774,0
33497,424.88,894,769,0
33507,422.95,894,774,0
33517,420.01,894,769,0
33527,417.18,894,774,0
33537,413.69,894,769,0
33547,410.61,894,774,0
33557,407.30,894,769,0
33567,404.60,894,774,0
33577,401.80,894,769,0
33587,399.68,894,774,0
33597,397.33,894,769,0
33607,395.77,894,774,0
33617,394.04,894,769,0
33627,393.22,894,774,0
33637,392.34,894,769,0
33647,392.11,894,774,0
33657,391.69,894,769,0
33667,391.91,894,774,0
33677,391.89,894,769,0
33687,392.48,894,774,0
33697,392.72,894,769,0
33708,393.36,894,774,0
33718,393.77,894,770,0
33728,394.48,894,774,0
33738,394.81,894,770,0
33748,395.38,894,774,0
33758,395.48,894,770,0
33768,395.72,894,774,0
33778,395.46,894,770,0
33788,395.32,894,774,0
33798,394.84,894,770,0
33808,394.50,894,774,0
33818,393.67,894,771,0
33828,393.08,894,774,0
33838,391.99,894,770,0
33848,391.18,894,774,0
33858,390.44,894,771,0
33868,390.95,894,775,0
33879,392.12,894,772,0
33889,394.18,894,775,0
33899,396.40,894,773,0
33909,399.24,894,775,0
33920,401.95,894,773,0
33929,404.67,894,775,0
33939,405.84,894,773,0
33949,405.67,894,775,0
33959,404.27,894,773,0
33969,403.08,894,775,0
33979,403.57,894,773,0
33998,407.90,886,772,0
34001,417.83,886,775,0
34010,434.81,886,775,0
34020,459.34,886,774,0
34030,490.99,886,775,0
34040,527.68,886,775,0
34050,566.48,886,775,0
34060,603.66,886,774,0
34070,635.52,886,775,0
34080,659.41,886,775,0
34091,673.73,886,775,0
34100,678.31,886,774,0
34110,673.20,886,775,0
34120,659.17,886,775,0
34130,637.95,886,775,0
34140,611.56,886,774,0
34150,582.29,886,775,0
34160,551.73,886,775,0
34170,520.96,886,775,0
34180,491.61,886,774,0
34190,464.94,886,775,0
34200,441.73,886,775,0
34210,422.18,886,775,0
34220,406.19,886,774,0
34230,393.92,886,775,0
34240,385.20,886,775,0
34250,379.65,886,775,0
34260,376.89,886,775,0
34270,376.45,886,775,0
34280,377.86,886,774,0
34290,380.90,886,775,0
34300,385.22,886,775,0
34310,390.55,886,775,0
34320,396.47,886,774,0
34330,402.59,886,775,0
34340,408.54,886,775,0
34350,414.08,886,775,0
34360,418.98,886,774,0
34370,422.80,886,775,0
34380,425.48,886,775,0
34391,426.62,886,774,0
34401,426.39,886,774,0
34411,424.60,886,773,0
34421,421.76,886,775,0
34432,417.89,886,773,0
34441,413.72,886,774,0
34451,409.39,886,773,0
34461,405.46,886,775,0
34471,402.07,886,773,0
34481,399.65,886,775,0
34491,397.61,886,773,0
34501,396.35,886,775,0
34511,395.35,886,772,0
34521,394.64,886,774,0
34531,393.98,886,773,0
34541,393.64,886,775,0
34551,393.06,886,772,0
34561,393.00,886,774,0
34571,392.96,886,773,0
34581,393.44,886,775,0
34591,394.51,886,773,0
34601,396.16,886,775,0
34611,397.48,886,773,0
34621,399.52,886,775,0
34631,401.64,886,773,0
34641,404.19,886,775,0
34651,406.02,886,773,0
34661,406.31,886,774,0
34671,404.50,886,772,0
34681,401.70,886,774,0
34691,397.16,886,772,0
34701,391.63,886,774,0
34711,384.92,886,772,0
34721,378.43,886,774,0
34732,372.60,886,771,0
34742,368.69,886,774,0
34752,365.87,886,770,0
34762,364.71,886,774,0
34772,364.45,886,769,0
34782,365.56,886,774,0
34792,367.11,886,770,0
34802,369.35,886,774,0
34812,371.43,886,769,0
34822,374.17,886,774,0
34832,376.65,886,770,0
34842,379.41,886,774,0
34852,381.47,886,770,0
34862,383.82,886,774,0
34872,386.70,886,770,0
34882,392.28,886,774,0
34892,401.28,886,769,0
34903,415.98,886,774,0
34913,436.64,886,769,0
34923,464.18,886,774,0
34933,496.91,886,769,0
34953,533.67,954,768,0
34956,570.54,954,771,0
34965,605.39,954,774,0
34975,634.12,954,769,0
34985,654.91,954,774,0
34995,665.87,954,769,0
35005,667.49,954,774,0
35015,659.67,954,769,0
35025,644.51,954,774,0
35035,622.59,954,769,0
35045,596.74,954,774,0
35055,568.19,954,769,0
35065,539.29,954,774,0
35075,510.87,954,769,0
35085,484.77,954,774,0
35095,461.01,954,769,0
35105,440.86,954,774,0
35116,423.85,954,770,0
35126,410.78,954,774,0
35136,400.69,954,771,0
35146,393.92,954,774,0
35156,389.45,954,771,0
35166,387.73,954,774,0
35176,387.55,954,771,0
35186,389.31,954,774,0
35196,391.79,954,771,0
35206,395.33,954,774,0
35216,398.96,954,771,0
35226,403.08,954,774,0
35236,406.87,954,771,0
35246,410.68,954,774,0
35256,413.82,954,771,0
35266,416.83,954,774,0
35276,419.11,954,771,0
35287,420.92,954,774,0
35297,421.80,954,772,0
35307,422.20,954,774,0
35317,421.84,954,773,0
35328,420.95,954,774,0
35337,419.42,954,772,0
35347,417.71,954,774,0
35357,415.74,954,773,0
35367,413.76,954,774,0
35377,411.56,954,772,0
35387,409.51,954,774,0
35397,408.11,954,773,0
35407,407.61,954,774,0
35417,407.68,954,773,0
35427,408.46,954,774,0
35437,409.48,954,773,0
35447,410.79,954,774,0
35457,411.97,954,773,0
35467,412.62,954,774,0
35477,412.44,954,774,0
35487,411.58,954,774,0
35497,410.07,954,774,0
35507,408.21,954,774,0
35517,405.96,954,773,0
35527,403.36,954,774,0
35537,399.95,954,773,0
35547,395.89,954,773,0
35557,391.34,954,773,0
35567,386.61,954,774,0
35577,382.06,954,773,0
35587,377.97,954,773,0
35597,374.59,954,773,0
35607,372.57,954,773,0
35617,371.84,954,773,0
35628,372.36,954,773,0
35638,373.67,954,774,0
35648,375.52,954,773,0
35658,377.81,954,774,0
35668,380.27,954,772,0
35678,382.76,954,774,0
35688,384.93,954,773,0
35698,386.92,954,774,0
35708,388.53,954,772,0
35718,390.04,954,774,0
35728,391.10,954,773,0
35738,392.01,954,774,0
35748,392.31,954,772,0
35758,392.52,954,774,0
35768,392.23,954,773,0
35778,392.42,954,774,0
35788,394.05,954,772,0
35799,399.26,954,774,0
35809,409.43,954,772,0
35819,426.06,954,774,0
35829,449.01,954,771,0
35840,478.32,954,774,0
35858,512.17,906,773,0
35861,547.86,906,774,0
35870,581.97,906,770,0
35880,611.68,906,774,0
35890,634.15,906,771,0
35900,648.16,906,774,0
35910,652.61,906,770,0
35920,648.23,906,774,0
35930,635.90,906,771,0
35940,617.46,906,774,0
35950,594.61,906,770,0
35960,569.70,906,775,0
35970,543.65,906,771,0
35980,518.08,906,774,0
35990,493.58,906,770,0
36000,471.30,906,774,0
36011,450.76,906,770,0
36020,432.62,906,774,0
36030,416.41,906,770,0
36040,403.64,906,774,0
36050,393.68,906,770,0
36060,386.92,906,774,0
36070,382.78,906,770,0
36080,381.61,906,774,0
36090,381.94,906,769,0
36100,383.97,906,774,0
36110,386.21,906,770,0
36120,389.49,906,774,0
36130,392.81,906,769,0
36140,396.56,906,774,0
36150,399.99,906,770,0
36160,403.98,906,774,0
36170,407.46,906,769,0
36180,411.48,906,774,0
36190,414.42,906,770,0
36200,416.91,906,774,0
36210,418.14,906,769,0
36220,419.17,906,774,0
36230,419.80,906,770,0
36240,420.63,906,774,0
36250,420.44,906,770,0
36260,420.14,906,774,0
36270,418.77,906,770,0
36280,417.21,906,773,0
36290,414.62,906,770,0
36300,411.43,906,774,0
36311,407.45,906,769,0
36321,403.41,906,774,0
36331,399.30,906,769,0
36341,396.43,906,774,0
36352,393.98,906,769,0
36361,392.79,906,774,0
36371,391.78,906,769,0
36381,391.72,906,774,0
36391,391.63,906,768,0
36401,392.17,906,774,0
36411,392.33,906,769,0
36421,392.92,906,774,0
36431,392.94,906,769,0
36441,393.60,906,774,0
36451,394.45,906,770,0
36461,396.42,906,775,0
36471,398.26,906,769,0
36481,400.16,906,774,0
36491,400.92,906,769,0
36501,401.50,906,774,0
36511,400.58,906,769,0
36521,398.61,906,774,0
36531,394.87,906,769,0
36541,390.71,906,774,0
36551,386.12,906,768,0
36561,382.57,906,774,0
36571,379.27,906,769,0
36581,377.39,906,774,0
36591,375.99,906,769,0
36601,375.91,906,774,0
36611,376.28,906,769,0
36621,377.82,906,774,0
36631,379.38,906,769,0
36641,381.58,906,774,0
36652,383.29,906,769,0
36662,385.26,906,774,0
36672,386.98,906,769,0
36682,389.69,906,774,0
36692,394.07,906,770,0
36702,402.06,906,774,0
36712,414.39,906,769,0
36731,432.53,873,768,0
36734,455.90,873,773,0
36743,484.21,873,774,0
36753,515.86,873,771,0
36763,548.78,873,774,0
36773,579.49,873,772,0
36783,605.61,873,774,0
36793,624.37,873,771,0
36803,635.15,873,774,0
36813,637.12,873,771,0
36823,630.95,873,774,0
36833,616.74,873,771,0
36843,596.67,873,774,0
36853,572.17,873,771,0
36864,545.63,873,774,0
36873,518.19,873,771,0
36883,491.77,873,774,0
36893,466.56,873,771,0
36903,443.97,873,774,0
36913,424.23,873,770,0
36923,408.04,873,773,0
36933,395.17,873,771,0
36943,385.99,873,773,0
36953,379.74,873,770,0
36963,376.73,873,774,0
36973,376.30,873,771,0
36983,378.39,873,773,0
36993,381.88,873,770,0
37003,386.71,873,773,0
37013,392.16,873,771,0
37023,398.28,873,773,0
37033,404.28,873,772,0
37043,410.37,873,773,0
37053,415.66,873,771,0
37063,420.60,873,774,0
37073,424.67,873,772,0
37083,427.98,873,773,0
37093,430.09,873,771,0
37103,431.47,873,774,0
37113,431.89,873,772,0
37123,431.84,873,773,0
37133,430.81,873,771,0
37143,429.33,873,774,0
37153,427.17,873,772,0
37164,424.89,873,773,0
37174,422.18,873,772,0
37184,419.26,873,773,0
37194,416.22,873,773,0
37204,413.63,873,773,0
37214,411.38,873,772,0
37224,409.42,873,774,0
37234,407.45,873,773,0
37244,405.82,873,773,0
37254,404.37,873,772,0
37264,403.19,873,773,0
37274,402.02,873,773,0
37284,400.73,873,773,0
37294,399.65,873,773,0
37304,398.81,873,774,0
37314,398.23,873,773,0
37324,397.82,873,774,0
37335,397.44,873,774,0
37345,396.92,873,773,0
37355,396.48,873,774,0
37365,395.73,873,773,0
37376,395.08,873,774,0
37385,394.20,873,773,0
37395,393.54,873,774,0
37405,392.78,873,773,0
37415,392.46,873,774,0
37425,392.15,873,774,0
37435,392.19,873,774,0
37445,392.05,873,773,0
37455,392.16,873,774,0
37465,392.11,873,773,0
37475,392.29,873,774,0
37485,392.29,873,773,0
37495,392.42,873,774,0
37505,392.59,873,773,0
37515,393.14,873,774,0
37525,393.44,873,772,0
37535,393.82,873,774,0
37545,393.79,873,773,0
37555,394.07,873,774,0
37565,394.86,873,773,0
37575,397.99,873,774,0
37585,403.86,873,773,0
37595,414.02,873,774,0
37605,428.71,873,773,0
37624,448.51,893,771,0
37627,472.06,893,770,0
37636,498.96,893,774,0
37646,526.01,893,771,0
37656,551.77,893,774,0
37666,573.56,893,770,0
37676,590.24,893,774,0
37686,600.37,893,771,0
37696,604.11,893,774,0
37706,600.74,893,770,0
37716,591.56,893,774,0
37726,577.25,893,771,0
37736,559.65,893,774,0
37746,539.27,893,770,0
37756,517.93,893,774,0
37766,496.39,893,771,0
37776,476.30,893,774,0
37786,457.78,893,770,0
37796,442.72,893,774,0
37806,430.68,893,772,0
37816,422.29,893,775,0
37826,417.02,893,772,0
37836,414.95,893,775,0
37847,414.28,893,771,0
37857,415.31,893,775,0
37867,415.65,893,770,0
37877,415.84,893,774,0
37888,415.07,893,770,0
37897,414.02,893,775,0
37907,412.52,893,770,0
37917,411.76,893,775,0
37927,410.76,893,770,0
37937,410.28,893,774,0
37947,409.42,893,770,0
37957,409.17,893,774,0
37967,408.43,893,769,0
37977,408.09,893,774,0
37987,407.03,893,770,0
37997,406.42,893,774,0
38007,405.78,893,770,0
38017,405.93,893,774,0
38027,405.87,893,770,0
38037,406.25,893,774,0
38047,405.79,893,770,0
38057,405.90,893,774,0
38067,405.50,893,770,0
38077,405.56,893,774,0
38087,405.78,893,770,0
38097,406.40,893,774,0
38107,406.67,893,770,0
38117,407.32,893,775,0
38127,407.06,893,769,0
38137,406.70,893,774,0
38147,405.29,893,770,0
38157,403.27,893,774,0
38167,400.45,893,769,0
38177,398.08,893,774,0
38188,395.70,893,770,0
38198,393.99,893,775,0
38208,392.19,893,769,0
38218,391.84,893,775,0
38228,392.31,893,770,0
38238,393.59,893,774,0
38248,394.06,893,769,0
38258,394.73,893,775,0
38268,395.45,893,769,0
38278,396.86,893,774,0
38288,397.07,893,769,0
38298,396.41,893,774,0
38308,395.13,893,769,0
38318,395.18,893,775,0
38328,394.91,893,769,0
38338,394.76,893,774,0
38348,394.15,893,769,0
38359,394.36,893,774,0
38369,394.72,893,770,0
38379,395.49,893,774,0
38389,395.30,893,770,0
38400,395.81,893,775,0
38409,396.30,893,770,0
38419,397.54,893,774,0
38429,398.15,893,770,0
38439,398.83,893,774,0
38449,399.35,893,770,0
38459,400.70,893,774,0
38469,402.68,893,770,0
38479,407.49,893,773,0
38489,415.31,893,769,0
38508,428.25,884,769,0
38511,446.99,884,774,0
38520,471.16,884,774,0
38530,498.24,884,771,0
38540,526.71,884,774,0
38550,553.07,884,771,0
38560,575.59,884,774,0
38571,591.74,884,772,0
38580,599.88,884,774,0
38590,599.74,884,771,0
38600,592.92,884,774,0
38610,580.73,884,773,0
38620,565.13,884,775,0
38630,546.96,884,772,0
38640,528.16,884,775,0
38650,509.30,884,773,0
38660,491.55,884,775,0
38670,474.71,884,772,0
38680,458.64,884,774,0
38690,443.36,884,772,0
38700,429.63,884,774,0
38710,417.70,884,772,0
38720,407.72,884,774,0
38730,399.14,884,772,0
38740,392.84,884,774,0
38750,388.35,884,771,0
38760,385.59,884,774,0
38770,384.90,884,772,0
38780,385.66,884,774,0
38790,387.30,884,771,0
38800,390.08,884,774,0
38810,393.10,884,772,0
38820,396.67,884,774,0
38830,400.46,884,771,0
38840,404.00,884,774,0
38850,406.79,884,772,0
38860,410.15,884,774,0
38871,413.32,884,773,0
38881,416.48,884,774,0
38891,418.78,884,773,0
38901,420.43,884,774,0
38912,421.03,884,774,0
38921,421.11,884,774,0
38931,419.79,884,773,0
38941,417.75,884,774,0
38951,415.26,884,774,0
38961,413.04,884,774,0
38971,411.05,884,774,0
38981,410.39,884,774,0
38991,410.58,884,774,0
39001,410.96,884,774,0
39011,411.06,884,773,0
39021,411.00,884,774,0
39031,410.96,884,774,0
39041,411.53,884,774,0
39051,411.45,884,773,0
39061,410.59,884,775,0
39071,409.86,884,774,0
39081,409.04,884,774,0
39091,407.70,884,773,0
39101,405.90,884,774,0
39111,403.32,884,774,0
39121,400.39,884,774,0
39131,397.75,884,773,0
39141,395.12,884,774,0
39151,393.24,884,774,0
39161,392.78,884,774,0
39171,393.71,884,774,0
39181,395.85,884,775,0
39191,398.77,884,774,0
39201,401.58,884,774,0
39212,404.62,884,774,0
39222,406.96,884,773,0
39232,408.13,884,774,0
39242,407.62,884,773,0
39252,406.19,884,774,0
39262,404.33,884,773,0
39272,402.31,884,774,0
39282,399.69,884,773,0
39292,397.08,884,774,0
39302,394.78,884,773,0
39312,393.99,884,774,0
39322,395.19,884,772,0
39332,400.11,884,774,0
39342,410.36,884,774,0
39352,426.32,884,775,0
39362,447.83,884,773,0
39382,474.28,873,771,0
39385,503.21,873,770,0
39394,532.59,873,774,0
39404,558.64,873,771,0
39414,579.62,873,774,0
39425,594.22,873,770,0
39435,601.78,873,774,0
39445,601.76,873,769,0
39455,595.15,873,774,0
39465,582.55,873,769,0
39475,566.78,873,774,0
39485,547.43,873,769,0
39495,526.69,873,774,0
39505,505.14,873,769,0
39515,484.48,873,774,0
39525,465.70,873,769,0
39535,450.02,873,774,0
39545,436.00,873,769,0
39555,425.20,873,774,0
39565,416.22,873,769,0
39575,409.90,873,774,0
39585,405.22,873,769,0
39596,402.45,873,774,0
39606,400.69,873,769,0
39616,400.44,873,774,0
39626,400.82,873,769,0
39636,401.86,873,774,0
39646,403.10,873,769,0
39656,405.94,873,774,0
39666,408.87,873,769,0
39676,411.87,873,774,0
39686,414.87,873,769,0
39696,418.25,873,774,0
39706,421.35,873,769,0
39716,424.63,873,774,0
39726,426.37,873,769,0
39736,427.76,873,774,0
39746,428.04,873,769,0
39756,427.86,873,774,0
39767,426.06,873,769,0
39777,423.94,873,774,0
39787,421.22,873,770,0
39797,419.22,873,774,0
39808,416.63,873,771,0
39817,414.42,873,774,0
39827,411.90,873,770,0
39837,410.17,873,774,0
39847,408.83,873,771,0
39857,407.77,873,774,0
39867,406.08,873,770,0
39877,405.16,873,774,0
39887,403.95,873,771,0
39897,402.81,873,774,0
39907,401.58,873,770,0
39917,400.59,873,774,0
39927,399.56,873,771,0
39937,398.83,873,774,0
39947,397.51,873,770,0
39957,396.29,873,774,0
39967,394.87,873,771,0
39977,393.97,873,774,0
39987,393.42,873,770,0
39997,393.29,873,774,0
40007,394.36,873,772,0
40017,397.04,873,775,0
40027,400.67,873,771,0
40037,405.74,873,775,0
40047,411.30,873,772,0
40057,417.13,873,775,0
40067,423.13,873,772,0
40077,428.41,873,776,0
40087,432.18,873,773,0
40097,434.61,873,775,0
40108,434.69,873,773,0
40118,432.47,873,775,0
40128,427.87,873,773,0
40138,422.29,873,775,0
40148,417.11,873,773,0
40158,414.67,873,775,0
40168,417.00,873,773,0
40178,426.13,873,775,0
40188,442.55,873,774,0
40207,466.34,826,772,0
40210,495.30,826,776,0
40219,527.18,826,775,0
40229,558.88,826,775,0
40239,587.55,826,775,0
40249,610.70,826,775,0
40259,627.07,826,775,0
40269,635.45,826,775,0
40279,636.30,826,775,0
40289,629.74,826,775,0
40299,616.66,826,775,0
40309,598.38,826,775,0
40320,576.19,826,775,0
40329,551.45,826,775,0
40339,525.77,826,775,0
40349,500.38,826,775,0
40359,476.31,826,775,0
40369,454.75,826,775,0
40379,436.09,826,775,0
40389,420.38,826,775,0
40399,407.88,826,775,0
40409,398.83,826,775,0
40419,393.27,826,775,0
40429,390.83,826,775,0
40439,390.97,826,775,0
40449,393.21,826,775,0
40459,397.47,826,775,0
40469,403.03,826,775,0
40479,409.15,826,775,0
40489,415.10,826,775,0
40499,421.12,826,775,0
40509,426.91,826,775,0
40519,432.08,826,775,0
40529,436.38,826,776,0
40539,439.61,826,775,0
40549,441.40,826,775,0
40559,442.09,826,774,0
40569,441.29,826,775,0
40579,439.28,826,775,0
40589,436.54,826,775,0
40599,432.86,826,774,0
40609,428.92,826,776,0
40620,425.21,826,774,0
40630,421.72,826,775,0
40640,418.38,826,773,0
40650,415.48,826,775,0
40660,413.06,826,773,0
40670,411.50,826,775,0
40680,410.37,826,773,0
40690,409.96,826,776,0
40700,409.75,826,773,0
40710,410.17,826,776,0
40720,410.29,826,773,0
40730,410.42,826,776,0
40740,409.86,826,772,0
40750,409.13,826,775,0
40760,406.86,826,773,0
40770,403.99,826,775,0
40780,400.27,826,772,0
40791,396.76,826,775,0
40801,392.72,826,771,0
40811,389.29,826,775,0
40821,385.99,826,771,0
40832,384.49,826,775,0
40841,383.79,826,771,0
40851,384.28,826,775,0
40861,384.97,826,771,0
40871,386.52,826,775,0
40881,387.95,826,771,0
40891,389.76,826,775,0
40901,391.25,826,771,0
40911,392.89,826,775,0
40921,393.27,826,771,0
40931,393.57,826,775,0
40941,393.10,826,771,0
40951,392.51,826,774,0
40961,391.93,826,770,0
40971,393.24,826,774,0
40981,397.45,826,770,0
40991,407.60,826,774,0
41001,423.36,826,769,0
41011,445.63,826,774,0
41021,473.34,826,770,0
41040,505.34,833,768,0
41043,537.85,833,769,0
41052,569.31,833,774,0
41062,595.62,833,769,0
41072,615.45,833,774,0
41082,626.84,833,769,0
41092,630.27,833,774,0
41102,625.35,833,769,0
41112,614.02,833,774,0
41122,596.31,833,768,0
41132,575.13,833,774,0
41142,551.26,833,769,0
41152,527.06,833,774,0
41162,502.74,833,769,0
41172,480.32,833,774,0
41182,459.74,833,769,0
41192,442.42,833,774,0
41202,427.46,833,769,0
41212,415.80,833,774,0
41222,406.34,833,769,0
41232,399.98,833,774,0
41242,395.57,833,769,0
41252,393.82,833,774,0
41262,393.40,833,769,0
41272,394.95,833,774,0
41282,397.37,833,768,0
41292,401.28,833,773,0
41303,405.48,833,769,0
41313,410.35,833,773,0
41323,414.66,833,768,0
41333,419.01,833,773,0
41344,422.52,833,769,0
41353,425.75,833,774,0
41363,427.80,833,768,0
41373,429.53,833,774,0
41383,430.18,833,769,0
41393,430.64,833,774,0
41403,430.15,833,769,0
41413,431.01,833,774,0
41423,432.72,833,771,0
41433,435.67,833,775,0
41443,438.56,833,770,0
41453,441.99,833,775,0
41463,444.82,833,771,0
41473,447.88,833,776,0
41483,448.73,833,770,0
41493,447.91,833,775,0
41503,444.81,833,771,0
41513,440.75,833,775,0
41523,435.38,833,770,0
41533,430.00,833,775,0
41543,423.95,833,771,0
41553,418.44,833,775,0
41563,412.91,833,770,0
41573,408.91,833,776,0
41583,405.46,833,771,0
41593,403.40,833,776,0
41603,401.86,833,771,0
41613,401.69,833,776,0
41623,401.57,833,771,0
41633,402.21,833,775,0
41644,402.45,833,772,0
41654,403.30,833,776,0
41664,403.64,833,772,0
41674,404.30,833,776,0
41684,404.21,833,773,0
41694,404.45,833,775,0
41704,404.27,833,773,0
41714,404.36,833,776,0
41724,403.95,833,773,0
41734,403.84,833,776,0
41744,403.42,833,773,0
41754,403.42,833,776,0
41764,402.87,833,773,0
41774,402.31,833,776,0
41784,401.36,833,773,0
41794,401.72,833,776,0
41804,404.42,833,773,0
41815,411.49,833,776,0
41825,423.77,833,774,0
41835,442.83,833,776,0
41845,468.21,833,775,0
41856,499.43,833,775,0
41874,533.76,834,775,0
41877,567.99,834,774,0
41886,599.41,834,775,0
41896,625.21,834,775,0
41906,642.42,834,774,0
41916,649.97,834,774,0
41926,647.32,834,774,0
41936,635.44,834,774,0
41946,616.49,834,773,0
41956,592.09,834,774,0
41966,564.25,834,774,0
41976,535.29,834,774,0
41986,507.86,834,774,0
41996,483.47,834,774,0
42006,462.72,834,774,0
42016,445.32,834,774,0
42027,430.56,834,774,0
42036,418.52,834,773,0
42046,409.37,834,773,0
42056,402.14,834,773,0
42066,396.49,834,773,0
42076,392.48,834,774,0
42086,390.54,834,773,0
42096,391.06,834,773,0
42106,393.66,834,773,0
42116,398.26,834,774,0
42126,404.27,834,774,0
42136,411.30,834,774,0
42146,419.01,834,774,0
42156,426.59,834,774,0
42166,433.14,834,774,0
42176,438.59,834,774,0
42186,442.78,834,774,0
42196,445.55,834,774,0
42206,447.23,834,774,0
42216,447.42,834,774,0
42226,446.35,834,774,0
42236,444.31,834,773,0
42246,441.52,834,774,0
42256,437.59,834,774,0
42266,432.96,834,774,0
42276,427.61,834,774,0
42286,422.16,834,774,0
42296,416.97,834,774,0
42306,412.22,834,774,0
42316,408.13,834,774,0
42327,404.87,834,775,0
42337,402.21,834,773,0
42347,400.18,834,774,0
42357,397.68,834,772,0
42368,394.95,834,774,0
42377,391.92,834,772,0
42387,388.90,834,774,0
42397,385.67,834,772,0
42407,382.90,834,774,0
42417,380.23,834,772,0
42427,379.00,834,774,0
42437,378.62,834,771,0
42447,379.50,834,774,0
42457,380.90,834,772,0
42467,383.07,834,773,0
42477,385.23,834,772,0
42487,387.78,834,774,0
42497,390.07,834,772,0
42507,392.67,834,774,0
42517,394.74,834,771,0
42527,396.74,834,774,0
42537,398.15,834,770,0
42547,399.52,834,773,0
42557,400.31,834,771,0
42567,400.94,834,773,0
42577,400.66,834,770,0
42587,400.59,834,774,0
42597,399.77,834,771,0
42607,399.24,834,774,0
42617,399.55,834,770,0
42627,402.82,834,773,0
42637,410.07,834,771,0
42647,423.29,834,774,0
42657,442.19,834,770,0
42668,467.80,834,774,0
42687,498.55,813,773,0
42690,532.67,813,774,0
42699,566.97,813,769,0
42710,599.04,813,774,0
42719,625.30,813,768,0
42729,644.36,813,773,0
42739,654.58,813,768,0
42749,656.34,813,774,0
42759,649.94,813,768,0
42769,636.54,813,773,0
42779,616.79,813,768,0
42789,593.37,813,773,0
42799,567.37,813,768,0
42809,541.03,813,774,0
42819,514.88,813,768,0
42829,490.53,813,773,0
42839,468.21,813,768,0
42849,448.95,813,773,0
42859,432.08,813,768,0
42869,418.47,813,773,0
42880,407.14,813,768,0
42889,399.60,813,774,0
42899,394.45,813,769,0
42909,393.03,813,774,0
42919,394.86,813,769,0
42929,400.22,813,774,0
42939,407.22,813,769,0
42949,416.07,813,774,0
42959,424.49,813,769,0
42969,433.04,813,775,0
42979,439.55,813,769,0
42989,444.40,813,774,0
42999,446.55,813,769,0
43009,447.11,813,775,0
43019,445.96,813,769,0
43029,444.09,813,774,0
43039,440.12,813,768,0
43049,434.47,813,773,0
43059,426.36,813,768,0
43069,417.42,813,773,0
43079,407.52,813,768,0
43089,397.64,813,773,0
43099,387.46,813,768,0
43109,379.01,813,773,0
43119,372.71,813,768,0
43129,369.37,813,773,0
43139,367.93,813,768,0
43149,368.72,813,773,0
43159,370.35,813,768,0
43169,373.33,813,773,0
43180,376.40,813,768,0
43190,380.10,813,773,0
43200,383.37,813,768,0
43210,386.81,813,773,0
43220,389.57,813,769,0
43230,392.57,813,773,0
43240,394.97,813,768,0
43250,397.29,813,773,0
43260,398.45,813,769,0
43270,399.43,813,773,0
43280,399.43,813,768,0
43290,399.34,813,773,0
43300,398.43,813,769,0
43310,397.44,813,773,0
43320,396.02,813,768,0
43330,395.16,813,773,0
43340,394.13,813,769,0
43351,393.70,813,773,0
43361,392.98,813,769,0
43371,392.60,813,773,0
43381,392.08,813,770,0
43392,391.84,813,773,0
43401,391.42,813,769,0
43411,391.38,813,773,0
43421,391.09,813,770,0
43431,391.06,813,773,0
43441,390.75,813,769,0
43451,391.42,813,773,0
43461,393.87,813,770,0
43471,399.99,813,773,0
43481,410.15,813,769,0
43491,425.96,813,773,0
43501,447.32,813,770,0
43511,474.35,813,773,0
43530,504.63,843,772,0
43533,536.03,843,773,0
43542,566.10,843,772,0
43552,592.73,843,773,0
43563,613.30,843,773,0
43572,627.69,843,774,0
43582,634.81,843,772,0
43592,634.78,843,774,0
43602,628.33,843,773,0
43612,616.06,843,774,0
43622,599.12,843,773,0
43632,579.02,843,774,0
43642,556.05,843,773,0
43652,531.73,843,774,0
43662,507.38,843,772,0
43672,484.08,843,774,0
43682,462.63,843,773,0
43692,444.14,843,774,0
43702,428.46,843,773,0
43712,415.89,843,774,0
43722,406.19,843,773,0
43732,399.36,843,774,0
43742,395.06,843,773,0
43752,392.90,843,774,0
43762,392.76,843,774,0
43772,394.24,843,774,0
43782,396.87,843,773,0
43792,400.51,843,774,0
43802,405.07,843,774,0
43812,410.19,843,774,0
43822,415.36,843,773,0
43832,419.75,843,774,0
43842,422.87,843,773,0
43852,425.31,843,774,0
43863,426.97,843,774,0
43873,427.71,843,775,0
43883,427.50,843,775,0
43893,426.19,843,774,0
43904,423.91,843,775,0
43913,421.41,843,774,0
43923,418.28,843,774,0
43933,414.73,843,774,0
43943,411.17,843,775,0
43953,408.33,843,775,0
43963,406.43,843,775,0
43973,405.19,843,774,0
43983,404.40,843,775,0
43993,403.81,843,775,0
44003,403.48,843,775,0
44013,402.99,843,774,0
44023,402.27,843,775,0
44033,401.29,843,775,0
44043,400.22,843,775,0
44053,399.17,843,774,0
44063,398.39,843,775,0
44073,398.06,843,774,0
44083,398.38,843,775,0
44093,398.78,843,774,0
44103,399.23,843,775,0
44113,399.68,843,774,0
44123,400.37,843,775,0
44133,401.12,843,774,0
44143,401.68,843,775,0
44153,401.74,843,774,0
44163,401.39,843,775,0
44173,400.54,843,774,0
44183,399.39,843,775,0
44193,397.56,843,773,0
44204,395.89,843,775,0
44214,393.83,843,773,0
44224,391.95,843,775,0
44234,390.08,843,772,0
44244,388.38,843,775,0
44254,386.51,843,772,0
44264,384.82,843,774,0
44274,382.21,843,771,0
44284,379.71,843,774,0
44294,376.92,843,772,0
44304,374.89,843,774,0
44314,374.67,843,772,0
44324,378.54,843,774,0
44334,387.59,843,772,0
44344,402.33,843,773,0
44363,421.64,833,773,0
44366,446.78,833,775,0
44375,476.25,833,770,0
44385,508.70,833,773,0
44395,539.52,833,769,0
44405,566.32,833,773,0
44416,587.91,833,769,0
44425,604.99,833,774,0
44435,614.72,833,770,0
44445,616.82,833,774,0
44455,610.15,833,769,0
44465,597.03,833,773,0
44475,578.42,833,769,0
44485,556.78,833,773,0
44495,531.43,833,768,0
44505,504.82,833,773,0
44515,478.00,833,769,0
44525,453.49,833,773,0
44535,432.00,833,768,0
44545,414.60,833,773,0
44555,400.02,833,769,0
44565,389.81,833,773,0
44575,382.97,833,768,0
44585,379.98,833,773,0
44595,379.43,833,769,0
44605,381.49,833,773,0
44615,384.90,833,768,0
44625,389.90,833,773,0
44635,394.99,833,769,0
44645,400.65,833,773,0
44655,405.64,833,768,0
44665,410.72,833,773,0
44675,414.79,833,769,0
44685,418.71,833,773,0
44695,421.45,833,768,0
44705,423.80,833,773,0
44716,424.93,833,768,0
44726,425.51,833,773,0
44736,424.76,833,768,0
44746,423.72,833,773,0
44756,421.44,833,767,0
44766,419.00,833,773,0
44776,415.78,833,768,0
44786,412.68,833,773,0
44796,409.39,833,768,0
44806,406.70,833,773,0
44816,403.83,833,768,0
44826,401.87,833,773,0
44836,399.94,833,767,0
44846,398.88,833,773,0
44856,397.80,833,768,0
44866,397.43,833,773,0
44876,396.96,833,767,0
44887,397.27,833,773,0
44897,397.23,833,768,0
44907,397.81,833,773,0
44917,397.65,833,767,0
44928,397.71,833,773,0
44937,397.24,833,768,0
44947,397.13,833,773,0
44957,396.66,833,768,0
44967,396.85,833,773,0
44977,396.76,833,768,0
44987,398.21,833,773,0
44997,399.73,833,768,0
45007,401.74,833,773,0
45017,403.45,833,768,0
45027,405.41,833,773,0
45037,406.53,833,768,0
45047,406.84,833,773,0
45057,405.00,833,768,0
45067,402.60,833,773,0
45077,400.15,833,768,0
45087,398.31,833,773,0
45097,396.63,833,770,0
45107,396.35,833,774,0
45117,398.18,833,770,0
45127,401.98,833,774,0
45137,405.97,833,770,0
45147,409.75,833,774,0
45157,412.35,833,769,0
45176,415.12,813,769,0
45179,419.03,813,774,0
45188,425.32,813,774,0
45198,435.25,813,771,0
45208,451.50,813,775,0
45218,473.34,813,772,0
45228,500.84,813,775,0
45238,531.53,813,771,0
45248,562.57,813,775,0
45258,590.38,813,772,0
45268,613.58,813,775,0
45278,629.18,813,771,0
45288,636.50,813,775,0
45298,634.42,813,772,0
45308,624.39,813,774,0
45318,607.65,813,771,0
45328,586.41,813,775,0
45338,561.26,813,772,0
45348,534.61,813,775,0
45358,507.43,813,771,0
45368,482.44,813,775,0
45378,459.85,813,772,0
45388,440.52,813,774,0
45399,423.78,813,772,0
45409,409.92,813,774,0
45419,398.24,813,773,0
45429,389.64,813,774,0
45440,383.23,813,773,0
45449,378.71,813,773,0
45459,374.77,813,772,0
45469,373.38,813,774,0
45479,374.42,813,773,0
45489,377.00,813,773,0
45499,381.63,813,773,0
45509,388.38,813,774,0
45519,396.15,813,773,0
45529,404.89,813,774,0
45539,412.60,813,773,0
45549,418.76,813,774,0
45559,423.93,813,773,0
45569,426.82,813,773,0
45579,425.89,813,772,0
45589,422.32,813,773,0
45599,417.77,813,773,0
45609,412.87,813,773,0
45619,407.42,813,771,0
45629,402.37,813,773,0
45639,397.84,813,772,0
45649,395.75,813,773,0
45659,395.99,813,772,0
45669,397.20,813,774,0
45679,398.81,813,773,0
45689,401.22,813,773,0
45699,403.56,813,772,0
45709,405.49,813,773,0
45719,406.20,813,772,0
45729,406.14,813,774,0
45740,405.50,813,773,0
45750,404.45,813,773,0
45760,403.84,813,774,0
45770,403.03,813,772,0
45780,402.68,813,774,0
45790,403.12,813,774,0
45800,403.73,813,774,0
45810,403.77,813,773,0
45820,403.54,813,774,0
45830,402.18,813,773,0
45840,400.07,813,773,0
45850,397.30,813,772,0
45860,393.35,813,773,0
45870,388.53,813,773,0
45880,384.77,813,774,0
45890,381.46,813,772,0
45900,378.53,813,773,0
45911,376.06,813,771,0
45921,374.11,813,773,0
45931,373.74,813,771,0
45941,375.79,813,774,0
45952,377.91,813,771,0
45961,380.59,813,774,0
45971,384.49,813,772,0
45981,389.40,813,774,0
45991,394.25,813,770,0
46001,398.50,813,773,0
46011,400.71,813,771,0
46021,402.90,813,774,0
46031,406.27,813,771,0
46041,411.38,813,774,0
46051,419.28,813,771,0
46061,431.84,813,774,0
46071,448.99,813,770,0
46081,470.93,813,773,0
46100,496.20,924,773,0
46103,523.91,924,774,0
46112,552.05,924,770,0
46123,578.74,924,774,0
46132,600.07,924,770,0
46142,615.05,924,774,0
46152,622.96,924,770,0
46162,624.22,924,774,0
46172,617.64,924,770,0
46182,604.03,924,774,0
46192,584.95,924,770,0
46202,563.11,924,774,0
46212,539.42,924,770,0
46222,516.11,924,775,0
46232,493.23,924,770,0
46242,471.82,924,774,0
46252,452.50,924,771,0
46262,435.98,924,774,0
46272,421.84,924,770,0
46282,411.18,924,774,0
46292,402.38,924,769,0
46302,396.52,924,774,0
46312,392.68,924,770,0
46322,391.32,924,774,0
46332,390.79,924,769,0
46342,392.06,924,774,0
46352,394.48,924,770,0
46362,398.02,924,774,0
46372,401.44,924,770,0
46382,406.45,924,774,0
46392,411.20,924,770,0
46402,416.84,924,775,0
46412,422.46,924,770,0
46423,427.47,924,775,0
46433,431.18,924,770,0
46443,434.30,924,775,0
46453,435.58,924,769,0
46464,436.35,924,775,0
46473,435.69,924,770,0
46483,433.77,924,775,0
46493,430.54,924,770,0
46503,427.50,924,775,0
46513,424.18,924,770,0
46523,421.30,924,775,0
46533,417.95,924,770,0
46543,415.09,924,775,0
46553,412.19,924,770,0
46563,410.04,924,775,0
46573,407.54,924,770,0
46583,405.54,924,775,0
46593,403.23,924,770,0
46603,401.66,924,775,0
46613,400.01,924,770,0
46623,399.19,924,775,0
46633,398.40,924,770,0
46643,398.37,924,775,0
46653,397.87,924,770,0
46663,397.78,924,775,0
46673,397.29,924,770,0
46683,397.16,924,775,0
46693,396.47,924,770,0
46703,396.11,924,775,0
46713,395.35,924,770,0
46723,395.29,924,775,0
46733,394.99,924,770,0
46743,395.12,924,775,0
46753,394.74,924,770,0
46764,394.78,924,775,0
46774,394.16,924,770,0
46784,393.81,924,775,0
46794,393.01,924,770,0
46804,392.71,924,775,0
46814,392.07,924,770,0
46824,392.13,924,775,0
46834,392.91,924,771,0
46844,396.53,924,775,0
46854,403.53,924,770,0
46864,415.76,924,775,0
46874,433.10,924,770,0
46884,456.90,924,775,0
46903,485.56,803,774,0
46906,517.62,803,775,0
46915,550.26,803,771,0
46925,581.25,803,775,0
46935,607.58,803,771,0
46945,627.55,803,775,0
46955,638.44,803,771,0
46965,643.32,803,776,0
46976,640.70,803,773,0
46985,631.49,803,776,0
46995,616.17,803,772,0
47005,596.40,803,775,0
47015,573.31,803,773,0
47025,549.35,803,775,0
47035,522.24,803,771,0
47045,495.68,803,775,0
47055,469.89,803,772,0
47065,446.74,803,775,0
47075,426.37,803,771,0
47085,409.42,803,775,0
47095,396.09,803,773,0
47105,387.28,803,775,0
47115,381.88,803,772,0
47125,380.12,803,775,0
47135,380.81,803,773,0
47145,384.25,803,776,0
47155,389.36,803,772,0
47165,395.68,803,776,0
47175,402.16,803,773,0
47185,408.89,803,776,0
47195,415.05,803,772,0
47205,420.78,803,776,0
47215,424.79,803,773,0
47225,427.72,803,775,0
47235,429.39,803,772,0
47245,430.17,803,776,0
47255,429.74,803,773,0
47265,428.92,803,776,0
47276,427.40,803,774,0
47286,425.95,803,776,0
47296,424.81,803,775,0
47306,423.54,803,776,0
47316,422.13,803,775,0
47326,420.89,803,776,0
47336,419.30,803,774,0
47346,417.66,803,776,0
47356,415.88,803,775,0
47366,413.69,803,776,0
47376,411.00,803,774,0
47386,408.08,803,775,0
47396,404.80,803,775,0
47406,402.07,803,776,0
47416,399.52,803,774,0
47426,396.71,803,775,0
47436,394.27,803,774,0
47447,392.04,803,775,0
47457,389.37,803,774,0
47467,387.55,803,775,0
47477,385.84,803,775,0
47488,384.56,803,775,0
47497,384.65,803,775,0
47507,385.23,803,775,0
47517,386.19,803,775,0
47527,388.06,803,774,0
47537,389.93,803,775,0
47547,391.49,803,774,0
47557,393.14,803,775,0
47567,394.22,803,775,0
47577,394.58,803,775,0
47587,395.13,803,775,0
47597,395.74,803,775,0
47607,395.82,803,774,0
47617,395.70,803,775,0
47627,395.40,803,775,0
47637,396.65,803,775,0
47647,401.09,803,774,0
47657,410.06,803,775,0
47667,424.70,803,775,0
47677,446.39,803,776,0
47687,474.99,803,775,0
47707,509.92,803,773,0
47710,547.57,803,772,0
47719,585.67,803,776,0
47729,620.91,803,772,0
47739,650.34,803,776,0
47749,671.28,803,773,0
47759,682.47,803,775,0
47769,682.67,803,771,0
47779,673.51,803,775,0
47789,654.72,803,772,0
47799,628.66,803,775,0
47809,596.96,803,770,0
47819,561.79,803,774,0
47830,524.99,803,770,0
47839,489.42,803,774,0
47849,456.25,803,770,0
47859,428.36,803,775,0
47869,405.88,803,771,0
47879,390.49,803,776,0
47889,381.39,803,771,0
47899,378.48,803,776,0
47909,379.97,803,771,0
47919,385.12,803,775,0
47929,391.81,803,772,0
47939,399.75,803,776,0
47949,407.03,803,771,0
47959,413.83,803,776,0
47969,419.24,803,772,0
47979,424.10,803,776,0
47989,427.84,803,772,0
48000,431.49,803,776,0
48009,433.87,803,772,0
48019,435.41,803,776,0
48029,435.63,803,771,0
48039,435.40,803,776,0
48049,433.91,803,772,0
48059,432.01,803,776,0
48069,428.88,803,772,0
48079,425.18,803,776,0
48089,420.50,803,772,0
48099,415.16,803,775,0
48109,409.76,803,771,0
48119,404.13,803,775,0
48129,397.66,803,771,0
48139,391.38,803,775,0
48149,385.18,803,771,0
48159,380.41,803,775,0
48169,376.94,803,770,0
48179,374.60,803,775,0
48189,373.44,803,770,0
48199,374.12,803,775,0
48209,375.58,803,770,0
48219,378.32,803,775,0
48229,381.18,803,770,0
48239,384.69,803,775,0
48249,387.74,803,770,0
48259,391.20,803,775,0
48269,394.18,803,771,0
48279,397.21,803,775,0
48289,399.34,803,770,0
48300,401.21,803,775,0
48310,402.17,803,770,0
48320,403.41,803,775,0
48330,404.01,803,770,0
48340,404.52,803,775,0
48350,404.28,803,770,0
48360,404.03,803,775,0
48370,402.65,803,769,0
48380,401.12,803,775,0
48390,398.30,803,770,0
48400,395.42,803,775,0
48410,392.00,803,770,0
48420,388.96,803,775,0
48430,386.31,803,770,0
48440,386.90,803,775,0
48450,391.35,803,770,0
48460,401.96,803,775,0
48471,418.98,803,770,0
48481,443.89,803,775,0
48500,475.85,794,774,0
48503,513.95,794,774,0
48513,554.38,794,771,0
48523,594.55,794,775,0
48533,630.94,794,772,0
48543,661.00,794,774,0
48553,681.49,794,772,0
48563,691.97,794,775,0
48573,691.76,794,772,0
48583,681.98,794,774,0
48593,663.56,794,773,0
48603,638.36,794,775,0
48613,608.17,794,772,0
48623,575.89,794,774,0
48633,542.54,794,773,0
48643,510.36,794,775,0
48653,480.38,794,772,0
48663,454.00,794,774,0
48673,431.93,794,773,0
48684,415.53,794,775,0
48694,404.19,794,774,0
48704,397.92,794,775,0
48714,395.76,794,775,0
48724,397.29,794,776,0
48734,401.49,794,774,0
48744,407.13,794,775,0
48754,412.36,794,775,0
48764,416.88,794,775,0
48774,419.66,794,773,0
48784,420.53,794,774,0
48794,419.86,794,774,0
48804,417.93,794,774,0
48814,415.29,794,773,0
48824,412.72,794,775,0
48834,410.10,794,774,0
48844,408.23,794,774,0
48855,407.30,794,774,0
48865,407.00,794,774,0
48875,407.43,794,775,0
48885,408.03,794,774,0
48896,408.06,794,774,0
48905,407.66,794,774,0
48915,407.07,794,775,0
48925,406.15,794,774,0
48935,404.99,794,774,0
48945,403.32,794,774,0
48955,401.47,794,775,0
48965,399.74,794,774,0
48975,398.32,794,774,0
48985,397.07,794,774,0
48995,396.79,794,775,0
49005,396.94,794,774,0
49015,397.56,794,775,0
49025,398.20,794,774,0
49035,398.74,794,775,0
49045,398.99,794,774,0
49055,399.08,794,774,0
49065,398.28,794,773,0
49075,397.38,794,775,0
49085,396.11,794,773,0
49095,394.96,794,774,0
49105,394.03,794,773,0
49115,393.64,794,774,0
49125,393.57,794,774,0
49135,393.96,794,774,0
49145,394.83,794,773,0
49155,396.55,794,775,0
49165,398.44,794,774,0
49175,400.41,794,774,0
49185,401.74,794,773,0
49196,402.59,794,775,0
49206,402.59,794,772,0
49216,401.72,794,774,0
49226,399.58,794,772,0
49236,397.26,794,775,0
49246,396.50,794,774,0
49256,399.18,794,776,0
49266,406.11,794,773,0
49276,419.53,794,776,0
49295,439.35,795,774,0
49298,466.28,795,775,0
49307,499.58,795,772,0
49317,536.95,795,776,0
49327,575.41,795,773,0
49337,612.36,795,775,0
49347,643.84,795,772,0
49357,668.87,795,775,0
49367,685.07,795,772,0
49377,689.98,795,774,0
49387,682.83,795,770,0
49397,665.31,795,774,0
49408,639.07,795,770,0
49417,607.16,795,774,0
49427,570.69,795,770,0
49437,532.59,795,774,0
49447,495.99,795,769,0
49457,463.42,795,774,0
49467,435.18,795,770,0
49477,412.11,795,774,0
49487,393.61,795,770,0
49497,381.21,795,774,0
49507,372.53,795,770,0
49517,367.83,795,774,0
49527,366.08,795,770,0
49537,367.56,795,774,0
49547,371.03,795,770,0
49557,376.77,795,774,0
49567,382.45,795,770,0
49577,389.39,795,774,0
49587,396.38,795,770,0
49597,403.64,795,774,0
49607,410.05,795,770,0
49617,416.21,795,774,0
49627,420.99,795,770,0
49637,425.02,795,774,0
49647,427.71,795,770,0
49657,429.81,795,774,0
49667,430.43,795,770,0
49677,430.38,795,774,0
49687,428.85,795,770,0
49697,426.80,795,774,0
49708,423.60,795,770,0
49718,420.34,795,774,0
49728,416.21,795,769,0
49738,412.50,795,775,0
49748,408.41,795,769,0
49758,405.11,795,774,0
49768,402.08,795,770,0
49778,400.04,795,775,0
49788,397.80,795,769,0
49798,396.27,795,774,0
49808,394.48,795,769,0
49818,393.61,795,775,0
49828,392.74,795,769,0
49838,392.17,795,775,0
49848,391.44,795,769,0
49858,391.52,795,775,0
49868,391.45,795,769,0
49879,391.91,795,774,0
49889,391.68,795,769,0
49899,391.52,795,774,0
49909,390.85,795,769,0
49920,390.30,795,774,0
49929,389.31,795,769,0
49939,389.04,795,774,0
49949,388.77,795,769,0
49959,389.61,795,775,0
49969,391.53,795,770,0
49979,395.18,795,776,0
49989,399.11,795,770,0
49999,403.32,795,775,0
50009,407.38,795,770,0
50019,412.28,795,776,0
50029,416.66,795,771,0
50039,419.89,795,776,0
50049,421.12,795,770,0
50059,422.07,795,776,0
50069,424.06,795,771,0
50079,429.49,795,776,0
50089,439.20,795,772,0
50108,455.21,813,770,0
50111,478.03,813,774,0
50120,508.28,813,776,0
50130,543.72,813,772,0
50140,581.69,813,776,0
50150,618.17,813,772,0
50160,650.22,813,776,0
50170,674.67,813,773,0
50180,690.15,813,776,0
50190,695.08,813,772,0
50200,689.91,813,775,0
50210,675.41,813,772,0
50220,653.43,813,776,0
50230,625.02,813,772,0
50240,592.95,813,775,0
50250,558.42,813,772,0
50260,523.80,813,775,0
50270,490.43,813,772,0
50280,460.04,813,774,0
50290,432.56,813,772,0
50300,409.29,813,775,0
50310,389.96,813,771,0
50320,375.70,813,775,0
50330,365.76,813,772,0
50340,360.31,813,775,0
50350,358.67,813,771,0
50360,361.13,813,775,0
50370,366.36,813,772,0
50380,374.22,813,775,0
50391,383.33,813,773,0
50401,392.96,813,774,0
50411,402.70,813,773,0
50421,411.92,813,775,0
50432,419.57,813,773,0
50441,426.04,813,775,0
50451,431.00,813,773,0
50461,434.04,813,775,0
50471,435.66,813,774,0
50481,435.85,813,774,0
50491,435.08,813,773,0
50501,432.57,813,774,0
50511,428.03,813,773,0
50521,421.76,813,774,0
50531,414.50,813,772,0
50541,407.11,813,774,0
50551,399.83,813,773,0
50561,394.23,813,775,0
50571,391.07,813,773,0
50581,390.28,813,774,0
50591,390.88,813,774,0
50601,392.33,813,774,0
50611,393.86,813,773,0
50621,395.83,813,774,0
50631,396.18,813,773,0
50641,395.44,813,774,0
50651,393.89,813,772,0
50661,392.25,813,774,0
50671,391.45,813,774,0
50681,391.40,813,774,0
50691,391.28,813,773,0
50701,391.88,813,775,0
50711,393.46,813,774,0
50721,395.12,813,774,0
50732,396.46,813,774,0
50742,396.62,813,774,0
50752,396.73,813,775,0
50762,396.81,813,774,0
50772,396.10,813,774,0
50782,393.84,813,773,0
50792,391.27,813,774,0
50802,389.35,813,774,0
50812,389.12,813,775,0
50822,388.65,813,773,0
50832,387.90,813,774,0
50842,387.84,813,773,0
50852,390.72,813,774,0
50862,398.99,813,774,0
50872,413.05,813,774,0
50882,433.39,813,774,0
50902,462.16,793,772,0
50905,497.90,793,772,0
50914,538.26,793,774,0
50924,579.97,793,772,0
50934,619.28,793,775,0
50945,654.34,793,770,0
50955,683.38,793,775,0
50965,702.34,793,769,0
50975,711.75,793,775,0
50985,711.70,793,769,0
50995,703.82,793,775,0
51005,687.63,793,769,0
51015,663.31,793,774,0
51025,631.37,793,769,0
51035,596.81,793,775,0
51045,561.46,793,769,0
51055,526.78,793,775,0
51065,492.65,793,769,0
51075,461.55,793,774,0
51085,434.56,793,769,0
51095,412.88,793,774,0
51105,394.74,793,769,0
51116,380.46,793,774,0
51126,370.47,793,769,0
51136,365.40,793,774,0
51146,364.25,793,768,0
51156,367.13,793,774,0
51166,374.08,793,770,0
51176,384.98,793,775,0
51186,398.02,793,770,0
51196,412.63,793,775,0
51206,426.71,793,770,0
51216,439.35,793,774,0
51226,448.42,793,769,0
51236,453.35,793,775,0
51246,453.76,793,769,0
51256,450.75,793,775,0
51266,444.27,793,769,0
51276,436.30,793,775,0
51287,427.42,793,769,0
51297,419.84,793,774,0
51307,412.60,793,769,0
51317,406.29,793,775,0
51328,400.25,793,770,0
51337,395.50,793,775,0
51347,391.28,793,770,0
51357,388.37,793,775,0
51367,385.81,793,770,0
51377,384.24,793,775,0
51387,382.97,793,769,0
51397,382.64,793,775,0
51407,382.40,793,770,0
51417,382.84,793,775,0
51427,383.19,793,770,0
51437,384.20,793,775,0
51447,385.04,793,770,0
51457,386.36,793,775,0
51467,387.36,793,770,0
51477,388.71,793,775,0
51487,389.78,793,770,0
51497,391.18,793,775,0
51507,392.15,793,770,0
51517,393.26,793,775,0
51527,393.96,793,771,0
51537,395.34,793,775,0
51547,396.70,793,770,0
51557,398.59,793,775,0
51567,400.30,793,771,0
51577,402.22,793,775,0
51587,403.78,793,770,0
51597,405.31,793,775,0
51607,405.60,793,771,0
51617,405.42,793,775,0
51628,404.61,793,772,0
51638,405.28,793,775,0
51648,408.80,793,772,0
51658,417.86,793,775,0
51668,433.63,793,773,0
51687,457.66,786,770,0
51690,489.39,786,776,0
51699,526.90,786,775,0
51709,566.83,786,774,0
51719,606.48,786,774,0
51729,642.81,786,773,0
51739,673.89,786,775,0
51749,697.37,786,774,0
51759,711.74,786,775,0
51769,716.96,786,773,0
51779,713.72,786,775,0
51789,702.57,786,774,0
51799,684.23,786,775,0
51809,658.62,786,773,0
51819,627.36,786,775,0
51829,592.71,786,774,0
51840,557.14,786,775,0
51849,522.38,786,773,0
51859,490.13,786,775,0
51869,460.60,786,773,0
51879,435.26,786,774,0
51889,414.44,786,773,0
51899,398.15,786,775,0
51909,386.11,786,774,0
51919,378.19,786,775,0
51929,373.63,786,773,0
51939,372.89,786,776,0
51949,376.48,786,775,0
51959,383.71,786,776,0
51969,393.61,786,774,0
51979,405.68,786,776,0
51989,418.59,786,775,0
51999,431.53,786,776,0
52009,443.41,786,776,0
52019,452.59,786,776,0
52029,458.54,786,775,0
52039,461.42,786,776,0
52049,460.95,786,776,0
52059,457.80,786,776,0
52069,452.37,786,775,0
52079,445.49,786,776,0
52089,437.50,786,776,0
52099,429.21,786,776,0
52109,420.87,786,775,0
52119,413.41,786,776,0
52129,406.86,786,776,0
52140,401.50,786,776,0
52150,396.94,786,776,0
52160,393.31,786,776,0
52170,390.52,786,777,0
52180,388.48,786,776,0
52190,386.79,786,776,0
52200,385.44,786,776,0
52210,384.49,786,777,0
52220,384.05,786,776,0
52230,384.07,786,777,0
52240,384.44,786,776,0
52250,385.16,786,777,0
52260,386.06,786,776,0
52270,387.37,786,777,0
52280,388.84,786,776,0
52290,390.30,786,777,0
52300,391.54,786,776,0
52311,392.67,786,777,0
52321,393.41,786,775,0
52331,393.97,786,777,0
52341,394.02,786,775,0
52352,393.72,786,777,0
52361,393.12,786,775,0
52371,392.40,786,777,0
52381,391.42,786,775,0
52391,390.52,786,777,0
52401,389.42,786,775,0
52411,388.52,786,776,0
52421,387.51,786,775,0
52431,387.27,786,777,0
52441,388.60,786,775,0
52451,393.57,786,776,0
52461,403.34,786,774,0
52471,419.82,786,777,0
52481,443.02,786,775,0
52500,473.61,813,773,0
52503,509.90,813,772,0
52512,549.66,813,776,0
52523,589.45,813,772,0
52532,626.90,813,776,0
52542,658.51,813,773,0
52552,682.49,813,776,0
52562,696.36,813,772,0
52572,700.28,813,776,0
52582,694.32,813,773,0
52592,679.35,813,776,0
52602,655.55,813,772,0
52612,625.51,813,776,0
52622,591.42,813,773,0
52632,556.19,813,776,0
52642,520.78,813,772,0
52652,487.42,813,777,0
52662,457.08,813,773,0
52672,431.42,813,777,0
52682,409.78,813,772,0
52692,392.75,813,777,0
52702,379.41,813,773,0
52712,370.29,813,777,0
52722,364.41,813,772,0
52732,362.28,813,777,0
52742,362.84,813,773,0
52752,366.31,813,777,0
52762,371.28,813,773,0
52772,377.92,813,777,0
52782,385.15,813,773,0
52792,393.03,813,777,0
52802,400.01,813,772,0
52812,406.48,813,777,0
52823,411.22,813,772,0
52833,414.80,813,776,0
52843,416.19,813,771,0
52853,416.04,813,776,0
52864,414.06,813,771,0
52873,411.38,813,776,0
52883,407.54,813,772,0
52893,404.16,813,776,0
52903,400.30,813,771,0
52913,397.25,813,776,0
52923,394.18,813,771,0
52933,391.55,813,776,0
52943,388.60,813,771,0
52953,386.45,813,777,0
52963,383.91,813,771,0
52973,382.05,813,777,0
52983,379.98,813,771,0
52993,378.74,813,777,0
53003,377.75,813,771,0
53013,377.78,813,776,0
53023,377.46,813,771,0
53033,377.49,813,776,0
53043,377.00,813,771,0
53053,376.79,813,776,0
53063,376.38,813,771,0
53073,376.57,813,776,0
53083,376.40,813,771,0
53093,376.88,813,776,0
53103,378.16,813,771,0
53113,380.94,813,777,0
53123,383.96,813,772,0
53133,387.31,813,777,0
53143,389.88,813,771,0
53153,392.31,813,776,0
53164,393.72,813,771,0
53174,394.36,813,777,0
53184,393.31,813,771,0
53194,391.85,813,777,0
53204,389.83,813,771,0
53214,387.91,813,776,0
53224,385.20,813,770,0
53234,382.61,813,776,0
53244,380.37,813,771,0
53254,380.26,813,776,0
53264,383.10,813,770,0
53274,391.17,813,776,0
53284,406.07,813,771,0
53303,429.84,803,769,0
53306,461.26,803,774,0
53315,499.24,803,775,0
53325,540.61,803,772,0
53335,582.64,803,775,0
53345,620.72,803,770,0
53355,652.52,803,775,0
53365,674.73,803,772,0
53376,687.16,803,775,0
53385,688.78,803,771,0
53395,680.96,803,776,0
53405,663.83,803,771,0
53415,639.24,803,776,0
53425,609.42,803,771,0
53435,577.24,803,776,0
53445,543.65,803,772,0
53455,510.46,803,775,0
53465,478.86,803,771,0
53475,451.39,803,776,0
53485,428.73,803,772,0
53495,410.38,803,775,0
53505,395.57,803,772,0
53515,384.94,803,776,0
53525,377.67,803,772,0
53535,373.87,803,776,0
53545,372.07,803,772,0
53555,372.52,803,775,0
53565,374.38,803,772,0
53575,377.95,803,776,0
53585,382.46,803,773,0
53595,388.54,803,776,0
53605,396.09,803,773,0
53615,405.32,803,777,0
53625,415.21,803,774,0
53635,425.22,803,776,0
53645,434.07,803,773,0
53655,441.85,803,776,0
53665,447.34,803,774,0
53676,449.94,803,776,0
53686,449.05,803,774,0
53696,445.40,803,776,0
53706,439.19,803,775,0
53716,431.38,803,776,0
53726,421.96,803,774,0
53736,411.95,803,776,0
53746,401.46,803,775,0
53756,391.59,803,775,0
53766,382.20,803,774,0
53776,373.87,803,776,0
53786,366.97,803,775,0
53796,361.92,803,776,0
53806,358.77,803,774,0
53816,357.21,803,776,0
53826,356.81,803,775,0
53836,358.19,803,776,0
53847,361.48,803,776,0
53857,365.88,803,776,0
53867,370.63,803,776,0
53877,375.37,803,776,0
53888,380.23,803,776,0
53897,385.09,803,776,0
53907,389.22,803,776,0
53917,392.80,803,776,0
53927,395.56,803,776,0
53937,397.40,803,776,0
53947,398.31,803,776,0
53957,398.18,803,776,0
53967,397.22,803,776,0
53977,395.57,803,776,0
53987,392.23,803,775,0
53997,388.22,803,775,0
54007,383.65,803,776,0
54017,379.04,803,775,0
54027,375.51,803,775,0
54037,374.42,803,775,0
54047,378.54,803,776,0
54057,390.63,803,776,0
54067,410.84,803,776,0
54077,440.29,803,776,0
54087,478.05,803,776,0
54107,520.89,803,775,0
54110,565.75,803,775,0
54119,608.64,803,774,0
54129,646.29,803,776,0
54139,676.50,803,774,0
54149,696.84,803,776,0
54159,705.93,803,774,0
54169,704.79,803,776,0
54179,693.93,803,773,0
54189,674.71,803,775,0
54199,647.67,803,774,0
54209,614.98,803,776,0
54219,578.64,803,773,0
54230,541.55,803,776,0
54239,505.94,803,774,0
54249,473.52,803,776,0
54259,444.48,803,773,0
54269,419.86,803,775,0
54279,399.63,803,773,0
54289,384.10,803,775,0
54299,372.46,803,772,0
54309,364.65,803,775,0
54319,359.95,803,773,0
54329,358.60,803,775,0
54339,359.66,803,772,0
54349,363.23,803,775,0
54359,368.43,803,773,0
54369,375.25,803,775,0
54379,382.37,803,772,0
54389,390.19,803,775,0
54400,397.63,803,772,0
54409,405.37,803,775,0
54419,412.20,803,773,0
54429,418.10,803,776,0
54439,422.10,803,772,0
54449,424.68,803,775,0
54459,425.16,803,773,0
54469,424.21,803,775,0
54479,420.98,803,772,0
54489,416.53,803,775,0
54499,410.67,803,773,0
54509,404.77,803,776,0
54519,398.41,803,772,0
54529,392.72,803,775,0
54539,387.27,803,773,0
54549,382.73,803,775,0
54559,378.61,803,772,0
54569,375.64,803,775,0
54579,373.22,803,773,0
54589,371.96,803,776,0
54599,371.03,803,772,0
54609,371.70,803,776,0
54619,373.16,803,773,0
54629,375.47,803,776,0
54639,378.37,803,773,0
54649,382.25,803,776,0
54659,386.42,803,774,0
54669,390.92,803,776,0
54679,393.99,803,772,0
54689,396.35,803,776,0
54700,397.49,803,772,0
54710,398.07,803,776,0
54720,397.36,803,771,0
54730,396.14,803,776,0
54740,393.91,803,771,0
54750,391.88,803,776,0
54760,389.82,803,771,0
54770,388.63,803,776,0
54780,386.94,803,771,0
54790,385.50,803,776,0
54800,383.47,803,771,0
54810,381.53,803,775,0
54820,379.05,803,771,0
54830,377.37,803,775,0
54840,377.73,803,771,0
54850,383.25,803,776,0
54860,394.88,803,771,0
54871,414.24,803,775,0
54881,441.17,803,770,0
54900,476.09,794,768,0
54903,515.92,794,771,0
54913,557.99,794,775,0
54923,597.89,794,771,0
54933,632.98,794,775,0
54943,660.12,794,772,0
54953,677.99,794,775,0
54963,686.01,794,772,0
54973,685.24,794,775,0
54983,676.04,794,773,0
54993,659.40,794,776,0
55003,636.09,794,771,0
55013,607.95,794,775,0
55023,575.78,794,771,0
55033,540.66,794,774,0
55043,504.20,794,771,0
55053,468.44,794,774,0
55063,435.35,794,772,0
55073,407.13,794,775,0
55084,383.78,794,772,0
55094,366.62,794,775,0
55104,355.12,794,773,0
55114,349.21,794,775,0
55124,348.20,794,774,0
55134,351.70,794,775,0
55144,357.45,794,773,0
55154,365.03,794,775,0
55164,372.95,794,773,0
55174,382.43,794,775,0
55184,392.50,794,773,0
55194,401.14,794,775,0
55204,407.61,794,774,0
55214,412.61,794,775,0
55224,417.10,794,773,0
55234,421.83,794,775,0
55244,423.59,794,773,0
55255,422.17,794,774,0
55265,418.61,794,773,0
55275,413.37,794,774,0
55285,406.91,794,774,0
55296,399.95,794,775,0
55305,393.33,794,774,0
55315,389.20,794,776,0
55325,387.55,794,775,0
55335,388.12,794,775,0
55345,388.94,794,773,0
55355,390.41,794,775,0
55365,392.00,794,775,0
55375,392.60,794,775,0
55385,391.26,794,774,0
55395,388.27,794,775,0
55405,385.06,794,775,0
55415,382.56,794,774,0
55425,380.20,794,774,0
55435,377.61,794,775,0
55445,375.89,794,775,0
55455,376.86,794,776,0
55465,380.16,794,776,0
55475,383.71,794,775,0
55485,386.89,794,775,0
55495,389.15,794,775,0
55505,390.30,794,775,0
55515,389.87,794,775,0
55525,386.48,794,774,0
55535,380.89,794,775,0
55545,375.48,794,776,0
55555,372.25,794,775,0
55565,370.38,794,775,0
55575,369.41,794,775,0
55585,369.80,794,775,0
55596,371.83,794,775,0
55606,375.01,794,775,0
55616,377.79,794,774,0
55626,379.53,794,775,0
55636,381.25,794,774,0
55646,384.26,794,776,0
55656,388.73,794,774,0
55666,395.84,794,775,0
55676,407.16,794,774,0
55686,425.07,794,776,0
55705,450.25,805,775,0
55708,482.70,805,777,0
55717,520.33,805,773,0
55727,560.35,805,776,0
55737,600.02,805,773,0
55747,636.31,805,776,0
55757,664.97,805,772,0
55767,684.05,805,776,0
55777,692.09,805,773,0
55787,689.54,805,776,0
55797,677.08,805,772,0
55808,656.18,805,776,0
55817,628.36,805,773,0
55827,596.45,805,776,0
55837,561.90,805,772,0
55847,526.87,805,776,0
55857,492.58,805,773,0
55867,461.16,805,776,0
55877,433.04,805,772,0
55887,409.16,805,776,0
55897,389.10,805,773,0
55907,373.55,805,775,0
55917,361.90,805,771,0
55927,355.16,805,776,0
55937,352.20,805,773,0
55947,352.91,805,776,0
55957,356.88,805,772,0
55967,364.50,805,776,0
55977,374.21,805,772,0
55987,385.63,805,776,0
55997,395.98,805,772,0
56007,405.38,805,776,0
56017,412.93,805,772,0
56027,418.44,805,776,0
56037,420.75,805,772,0
56047,420.65,805,776,0
56057,418.23,805,771,0
56067,415.25,805,775,0
56077,411.10,805,772,0
56087,406.27,805,775,0
56097,400.62,805,771,0
56108,395.33,805,775,0
56118,389.96,805,770,0
56128,385.22,805,775,0
56138,380.35,805,770,0
56148,376.35,805,775,0
56158,372.86,805,771,0
56168,370.93,805,775,0
56178,369.79,805,771,0
56188,369.51,805,775,0
56198,369.62,805,771,0
56208,370.89,805,775,0
56218,372.89,805,771,0
56228,376.27,805,776,0
56238,379.40,805,771,0
56248,382.20,805,775,0
56258,384.32,805,770,0
56268,386.33,805,775,0
56279,387.13,805,770,0
56289,387.13,805,775,0
56299,385.55,805,770,0
56309,383.50,805,775,0
56320,380.86,805,770,0
56329,378.63,805,775,0
56339,375.83,805,770,0
56349,373.65,805,775,0
56359,371.40,805,770,0
56369,369.95,805,775,0
56379,368.47,805,770,0
56389,367.68,805,775,0
56399,367.01,805,770,0
56409,367.09,805,775,0
56419,367.06,805,770,0
56429,367.94,805,775,0
56439,370.88,805,772,0
56449,376.40,805,777,0
56459,383.39,805,772,0
56469,391.89,805,777,0
56479,400.45,805,772,0
56489,409.53,805,777,0
56499,418.46,805,772,0
56509,427.28,805,777,0
56528,436.75,823,776,0
56531,449.38,823,776,0
56540,465.68,823,772,0
56550,487.42,823,777,0
56560,513.61,823,773,0
56570,543.77,823,777,0
56580,574.52,823,772,0
56590,603.90,823,777,0
56600,628.31,823,773,0
56610,646.05,823,776,0
56620,654.73,823,772,0
56630,654.90,823,776,0
56640,646.36,823,772,0
56650,630.91,823,776,0
56660,609.04,823,773,0
56670,583.10,823,776,0
56680,554.35,823,772,0
56690,525.32,823,776,0
56700,496.55,823,773,0
56710,469.90,823,777,0
56720,445.37,823,772,0
56730,424.43,823,776,0
56740,406.52,823,773,0
56750,392.39,823,776,0
56760,381.64,823,772,0
56770,374.77,823,777,0
56780,370.64,823,773,0
56791,369.55,823,777,0
56801,370.20,823,773,0
56811,372.92,823,776,0
56821,377.02,823,774,0
56832,382.33,823,777,0
56841,387.93,823,773,0
56851,393.86,823,776,0
56861,399.39,823,774,0
56871,404.76,823,777,0
56881,409.33,823,774,0
56891,413.13,823,776,0
56901,415.45,823,774,0
56911,416.60,823,776,0
56921,416.12,823,773,0
56931,414.50,823,776,0
56941,411.65,823,774,0
56951,408.41,823,776,0
56961,404.69,823,774,0
56971,401.48,823,776,0
56981,398.47,823,774,0
56991,396.23,823,777,0
57001,394.36,823,775,0
57011,393.22,823,777,0
57021,392.00,823,774,0
57031,391.01,823,776,0
57041,389.55,823,775,0
57051,388.02,823,776,0
57061,386.00,823,774,0
57071,384.24,823,776,0
57081,382.41,823,775,0
57091,381.04,823,776,0
57101,379.57,823,774,0
57111,378.80,823,776,0
57121,378.43,823,775,0
57132,378.86,823,776,0
57142,379.42,823,775,0
57152,380.49,823,776,0
57162,381.63,823,776,0
57172,383.28,823,776,0
57182,384.83,823,776,0
57192,386.55,823,776,0
57202,387.97,823,776,0
57212,389.18,823,776,0
57222,389.90,823,775,0
57232,390.27,823,776,0
57242,390.06,823,776,0
57252,389.36,823,776,0
57262,388.09,823,775,0
57272,386.86,823,776,0
57282,385.75,823,776,0
57292,384.88,823,776,0
57303,385.39,823,776,0
57313,388.96,823,776,0
57323,397.11,823,777,0
57333,411.01,823,775,0
57344,431.23,823,777,0
57362,457.86,834,775,0
57365,490.26,834,776,0
57374,526.53,834,774,0
57384,564.17,834,777,0
57394,599.60,834,775,0
57404,629.85,834,776,0
57414,652.10,834,774,0
57424,664.80,834,776,0
57434,667.77,834,775,0
57444,661.28,834,776,0
57454,645.73,834,774,0
57464,623.22,834,776,0
57474,595.68,834,775,0
57484,565.99,834,777,0
57494,535.95,834,775,0
57504,506.74,834,776,0
57515,479.05,834,774,0
57524,454.43,834,776,0
57534,432.92,834,774,0
57544,414.94,834,776,0
57554,399.32,834,773,0
57564,386.32,834,776,0
57574,376.02,834,774,0
57584,369.16,834,776,0
57594,364.74,834,773,0
57604,362.85,834,776,0
57614,362.34,834,774,0
57624,363.69,834,775,0
57634,366.44,834,773,0
57644,370.51,834,775,0
57654,374.43,834,773,0
57664,378.37,834,775,0
57674,385.63,834,775,0
57684,396.24,834,777,0
57694,408.64,834,775,0
57704,422.16,834,777,0
57714,434.93,834,775,0
57724,446.99,834,777,0
57734,457.24,834,775,0
57744,462.01,834,777,0
57754,461.28,834,775,0
57764,456.01,834,777,0
57774,447.22,834,775,0
57784,436.31,834,776,0
57794,423.40,834,774,0
57804,409.83,834,776,0
57815,395.65,834,772,0
57825,382.30,834,776,0
57835,370.68,834,773,0
57845,361.95,834,776,0
57856,355.41,834,772,0
57865,351.38,834,776,0
57875,349.13,834,773,0
57885,349.52,834,776,0
57895,351.03,834,771,0
57905,353.68,834,775,0
57915,355.79,834,772,0
57925,359.07,834,776,0
57935,362.78,834,772,0
57945,367.43,834,776,0
57955,371.63,834,772,0
57965,376.45,834,776,0
57975,380.95,834,772,0
57985,385.12,834,776,0
57995,387.48,834,772,0
58005,389.05,834,776,0
58015,389.38,834,771,0
58025,389.52,834,775,0
58035,388.81,834,772,0
58045,387.88,834,776,0
58055,386.50,834,771,0
58065,385.67,834,775,0
58075,384.74,834,771,0
58085,384.22,834,776,0
58095,384.19,834,772,0
58105,386.02,834,776,0
58115,390.17,834,771,0
58125,399.08,834,775,0
58135,413.28,834,771,0
58145,434.84,834,776,0
58156,463.35,834,771,0
58175,498.13,813,770,0
58178,536.79,813,772,0
58187,576.97,813,776,0
58198,615.29,813,771,0
58207,649.96,813,777,0
58217,676.24,813,771,0
58227,692.16,813,776,0
58237,696.82,813,771,0
58247,691.26,813,776,0
58257,675.97,813,771,0
58267,652.79,813,776,0
58277,622.38,813,771,0
