Time,PPG,IBI,GSR,GSR_Event
328853,371.81,773,772,0
328863,369.47,773,778,0
328873,364.61,773,772,0
328883,358.26,773,778,0
328893,350.08,773,772,0
328903,341.40,773,777,0
328913,331.94,773,771,0
328923,327.24,773,777,0
328933,324.73,773,771,0
328943,324.25,773,777,0
328953,325.03,773,771,0
328963,327.51,773,777,0
328973,330.57,773,772,0
328983,334.56,773,777,0
328993,338.50,773,771,0
329004,342.81,773,777,0
329014,346.72,773,770,0
329024,350.66,773,777,0
329034,353.89,773,771,0
329044,356.97,773,777,0
329054,359.12,773,771,0
329064,361.01,773,777,0
329074,362.21,773,771,0
329084,363.30,773,777,0
329094,363.73,773,771,0
329104,364.11,773,777,0
329114,364.03,773,771,0
329124,364.19,773,777,0
329134,364.09,773,771,0
329144,364.24,773,777,0
329154,364.25,773,771,0
329164,364.73,773,777,0
329175,365.24,773,771,0
329185,366.20,773,777,0
329195,367.12,773,772,0
329205,368.37,773,777,0
329216,369.55,773,772,0
329225,370.75,773,777,0
329235,371.64,773,772,0
329245,372.52,773,777,0
329255,373.05,773,773,0
329265,373.59,773,778,0
329275,374.23,773,772,0
329285,375.92,773,777,0
329295,379.50,773,773,0
329305,386.29,773,778,0
329315,397.30,773,772,0
329325,413.84,773,777,0
329335,436.26,773,773,0
329354,464.43,823,771,0
329357,498.67,823,777,0
329366,536.74,823,779,0
329376,575.69,823,776,0
329387,613.20,823,779,0
329396,645.97,823,775,0
329406,671.82,823,778,0
329416,689.10,823,776,0
329426,695.29,823,778,0
329436,691.13,823,775,0
329446,677.63,823,778,0
329456,655.54,823,775,0
329466,627.18,823,778,0
329476,594.60,823,775,0
329486,560.13,823,779,0
329496,525.51,823,775,0
329506,492.14,823,778,0
329516,461.20,823,775,0
329526,434.10,823,778,0
329536,411.05,823,776,0
329546,392.22,823,778,0
329556,377.46,823,777,0
329566,366.78,823,779,0
329576,359.86,823,775,0
329586,356.64,823,778,0
329596,356.32,823,777,0
329606,358.80,823,778,0
329616,363.44,823,776,0
329626,369.70,823,778,0
329636,377.12,823,777,0
329646,385.18,823,779,0
329656,393.23,823,776,0
329666,400.92,823,778,0
329676,407.63,823,777,0
329687,413.10,823,779,0
329697,416.92,823,777,0
329707,419.00,823,778,0
329717,419.26,823,778,0
329728,417.55,823,778,0
329737,414.26,823,777,0
329747,409.60,823,778,0
329757,404.15,823,778,0
329767,398.23,823,778,0
329777,392.25,823,777,0
329787,386.39,823,778,0
329797,381.34,823,778,0
329807,376.95,823,778,0
329817,373.41,823,777,0
329827,370.46,823,778,0
329837,368.31,823,778,0
329847,366.50,823,778,0
329857,365.28,823,777,0
329867,364.42,823,778,0
329877,364.13,823,778,0
329887,364.22,823,778,0
329897,364.75,823,778,0
329907,365.55,823,778,0
329917,366.89,823,778,0
329927,368.42,823,778,0
329937,370.18,823,778,0
329947,371.84,823,778,0
329957,373.52,823,778,0
329967,374.95,823,778,0
329977,376.29,823,779,0
329987,377.32,823,778,0
329997,378.25,823,778,0
330007,378.82,823,778,0
330017,379.26,823,779,0
330028,379.22,823,778,0
330038,379.16,823,779,0
330048,378.60,823,777,0
330058,378.33,823,779,0
330068,378.40,823,776,0
330078,380.17,823,779,0
330088,384.40,823,777,0
330098,392.90,823,779,0
330108,406.60,823,776,0
330118,426.86,823,779,0
330137,453.52,783,778,0
330140,486.32,783,779,0
330149,523.55,783,774,0
330159,562.90,783,779,0
330169,601.46,783,776,0
330179,636.72,783,779,0
330189,665.60,783,774,0
330199,686.42,783,779,0
330209,697.48,783,775,0
330219,698.54,783,779,0
330229,689.76,783,774,0
330240,672.30,783,778,0
330249,647.27,783,775,0
330259,617.40,783,779,0
330269,584.03,783,774,0
330279,549.65,783,778,0
330289,515.47,783,775,0
330299,483.57,783,779,0
330309,454.43,783,774,0
330319,429.36,783,779,0
330329,407.82,783,775,0
330339,390.60,783,779,0
330349,377.14,783,774,0
330359,367.71,783,778,0
330369,361.67,783,775,0
330379,359.50,783,779,0
330389,360.03,783,774,0
330399,363.67,783,779,0
330409,369.17,783,774,0
330419,376.66,783,779,0
330429,384.95,783,774,0
330439,394.05,783,778,0
330449,402.52,783,773,0
330459,410.46,783,779,0
330469,416.75,783,774,0
330479,421.76,783,779,0
330489,424.53,783,774,0
330499,425.78,783,779,0
330509,424.73,783,774,0
330519,422.29,783,779,0
330529,417.96,783,774,0
330540,412.74,783,779,0
330550,406.30,783,773,0
330560,399.74,783,779,0
330570,392.66,783,773,0
330580,386.21,783,779,0
330590,380.02,783,773,0
330600,375.00,783,779,0
330610,370.50,783,773,0
330620,367.39,783,779,0
330630,364.92,783,773,0
330640,363.74,783,779,0
330650,363.05,783,773,0
330660,363.42,783,779,0
330670,363.98,783,773,0
330680,365.49,783,779,0
330690,366.93,783,773,0
330700,369.05,783,779,0
330711,370.96,783,772,0
330721,373.20,783,778,0
330731,374.90,783,772,0
330741,376.73,783,779,0
330752,377.84,783,772,0
330761,379.34,783,779,0
330771,380.31,783,772,0
330781,381.33,783,779,0
330791,381.83,783,772,0
330801,382.53,783,779,0
330811,382.80,783,772,0
330821,383.37,783,779,0
330831,383.35,783,773,0
330841,383.84,783,779,0
330851,385.13,783,773,0
330861,389.16,783,779,0
330871,396.79,783,773,0
330881,409.96,783,779,0
330891,429.35,783,773,0
330901,456.59,783,779,0
330920,490.87,783,777,0
330924,529.95,783,778,0
330932,570.42,783,773,0
330942,609.98,783,779,0
330952,646.16,783,774,0
330962,677.35,783,779,0
330972,701.76,783,773,0
330982,718.93,783,779,0
330992,728.08,783,775,0
331002,729.47,783,779,0
331012,722.90,783,773,0
331022,708.70,783,779,0
331032,686.76,783,774,0
331042,657.73,783,779,0
331052,622.67,783,773,0
331062,584.84,783,779,0
331072,546.23,783,774,0
331082,509.26,783,779,0
331092,474.73,783,775,0
331102,444.29,783,779,0
331112,418.11,783,774,0
331122,396.65,783,778,0
331132,379.48,783,775,0
331142,367.04,783,779,0
331152,358.54,783,774,0
331162,354.35,783,779,0
331172,353.64,783,775,0
331182,356.41,783,779,0
331192,361.60,783,774,0
331202,369.22,783,779,0
331212,378.11,783,775,0
331223,387.81,783,779,0
331233,397.34,783,776,0
331243,406.41,783,779,0
331253,414.30,783,776,0
331264,420.77,783,779,0
331273,425.21,783,776,0
331283,427.72,783,778,0
331293,428.14,783,776,0
331303,426.69,783,779,0
331313,423.44,783,776,0
331323,418.81,783,779,0
331333,413.12,783,776,0
331343,406.91,783,779,0
331353,400.43,783,776,0
331363,394.34,783,779,0
331373,388.84,783,776,0
331383,384.17,783,779,0
331393,380.35,783,776,0
331403,377.59,783,778,0
331413,375.70,783,776,0
331423,374.59,783,779,0
331433,374.11,783,777,0
331443,374.29,783,779,0
331453,374.93,783,776,0
331463,375.98,783,779,0
331473,377.27,783,777,0
331483,378.82,783,779,0
331493,380.42,783,776,0
331503,382.01,783,779,0
331513,383.42,783,777,0
331523,384.66,783,779,0
331533,385.67,783,777,0
331543,386.41,783,779,0
331553,386.84,783,777,0
331564,387.06,783,779,0
331574,386.96,783,778,0
331584,386.50,783,778,0
331594,385.75,783,778,0
331604,384.71,783,778,0
331614,383.55,783,778,0
331624,382.23,783,778,0
331634,381.30,783,779,0
331644,381.26,783,778,0
331654,383.41,783,778,0
331664,388.94,783,778,0
331674,399.67,783,779,0
331684,416.79,783,778,0
331694,441.28,783,778,0
331713,473.21,793,777,0
331716,511.12,793,778,0
331725,551.80,793,777,0
331735,592.57,793,779,0
331745,630.67,793,777,0
331755,664.11,793,779,0
331765,691.51,793,777,0
331776,711.24,793,779,0
331785,722.18,793,777,0
331795,724.66,793,779,0
331805,718.46,793,777,0
331815,703.96,793,779,0
331825,681.39,793,777,0
331835,651.53,793,779,0
331845,615.50,793,777,0
331855,576.31,793,778,0
331865,536.14,793,777,0
331875,497.53,793,779,0
331885,461.58,793,776,0
331895,429.78,793,779,0
331905,402.29,793,777,0
331915,380.13,793,779,0
331925,362.78,793,776,0
331935,350.67,793,779,0
331945,343.10,793,776,0
331955,340.24,793,779,0
331965,341.07,793,777,0
331975,345.42,793,779,0
331985,352.07,793,776,0
331995,360.92,793,779,0
332005,370.63,793,777,0
332015,381.03,793,779,0
332025,390.79,793,776,0
332035,399.94,793,779,0
332045,407.50,793,777,0
332055,413.65,793,779,0
332065,417.48,793,775,0
332076,419.44,793,779,0
332086,418.92,793,775,0
332096,416.76,793,778,0
332106,412.46,793,774,0
332116,407.18,793,779,0
332126,400.57,793,775,0
332136,393.80,793,779,0
332146,386.62,793,774,0
332156,380.00,793,779,0
332166,373.62,793,775,0
332176,368.37,793,779,0
332186,363.55,793,774,0
332196,360.00,793,779,0
332206,357.00,793,775,0
332216,355.20,793,779,0
332226,353.94,793,774,0
332236,353.87,793,779,0
332247,354.17,793,773,0
332257,355.45,793,779,0
332267,356.81,793,773,0
332277,358.75,793,779,0
332288,360.59,793,772,0
332297,362.90,793,779,0
332307,364.81,793,773,0
332317,367.10,793,779,0
332327,368.87,793,773,0
332337,370.88,793,779,0
332347,372.37,793,773,0
332357,374.02,793,779,0
332367,375.00,793,772,0
332377,376.07,793,779,0
332387,376.39,793,773,0
332397,376.83,793,779,0
332407,376.67,793,773,0
332417,376.94,793,779,0
332427,377.51,793,773,0
332437,380.10,793,778,0
332447,385.39,793,772,0
332457,395.73,793,779,0
332467,411.71,793,773,0
332477,435.24,793,779,0
332487,466.02,793,773,0
332507,503.35,793,771,0
332510,543.83,793,775,0
332519,584.94,793,778,0
332529,623.70,793,774,0
332539,658.42,793,779,0
332549,687.05,793,773,0
332559,708.25,793,779,0
332569,720.00,793,774,0
332579,722.79,793,779,0
332589,716.64,793,772,0
332599,702.17,793,778,0
332609,679.41,793,773,0
332619,649.33,793,779,0
332630,613.14,793,774,0
332639,574.23,793,778,0
332649,534.69,793,774,0
332659,496.90,793,779,0
332669,461.96,793,774,0
332679,431.50,793,779,0
332689,405.55,793,773,0
332699,384.90,793,779,0
332709,368.99,793,774,0
332719,358.15,793,778,0
332729,351.67,793,773,0
332739,349.59,793,778,0
332749,350.91,793,774,0
332759,355.52,793,778,0
332769,362.44,793,773,0
332779,371.56,793,779,0
332789,381.59,793,774,0
332800,392.30,793,778,0
332809,402.41,793,773,0
332819,411.97,793,779,0
332829,420.00,793,774,0
332839,426.25,793,779,0
332849,430.04,793,774,0
332859,431.74,793,779,0
332869,431.13,793,774,0
332879,428.69,793,778,0
332889,424.28,793,773,0
332899,418.71,793,779,0
332909,411.99,793,774,0
332919,404.88,793,778,0
332929,397.41,793,773,0
332939,390.30,793,779,0
332949,383.48,793,774,0
332959,377.51,793,778,0
332969,372.13,793,775,0
332979,367.93,793,779,0
332989,364.57,793,774,0
332999,362.34,793,778,0
333009,360.74,793,775,0
333019,360.13,793,779,0
333029,360.01,793,774,0
333039,360.69,793,778,0
333049,361.81,793,775,0
333059,363.45,793,779,0
333069,365.12,793,774,0
333079,367.05,793,778,0
333089,368.92,793,775,0
333100,370.96,793,778,0
333110,372.69,793,776,0
333120,374.15,793,778,0
333130,375.31,793,777,0
333140,376.46,793,778,0
333150,377.35,793,776,0
333160,378.23,793,778,0
333170,378.85,793,777,0
333180,379.71,793,778,0
333190,380.87,793,776,0
333200,383.05,793,778,0
333210,387.15,793,777,0
333220,394.65,793,778,0
333230,406.80,793,776,0
333240,425.33,793,778,0
333250,451.07,793,777,0
333260,484.39,793,779,0
333280,522.63,774,777,0
333283,563.07,774,777,0
333292,603.04,774,778,0
333302,640.27,774,777,0
333313,672.54,774,779,0
333323,698.31,774,776,0
333333,716.82,774,779,0
333343,727.93,774,775,0
333353,731.55,774,779,0
333363,727.40,774,776,0
333373,715.41,774,778,0
333383,695.31,774,775,0
333393,667.79,774,779,0
333403,633.40,774,776,0
333413,595.01,774,778,0
333423,554.80,774,776,0
333433,515.43,774,778,0
333443,478.15,774,776,0
333453,444.80,774,778,0
333463,415.89,774,776,0
333473,392.14,774,779,0
333484,373.20,774,775,0
333494,359.81,774,778,0
333504,351.12,774,774,0
333514,347.57,774,779,0
333524,348.17,774,774,0
333534,352.62,774,779,0
333544,359.63,774,774,0
333554,369.09,774,778,0
333564,379.56,774,774,0
333574,390.79,774,779,0
333584,401.40,774,774,0
333594,411.48,774,779,0
333604,419.78,774,774,0
333614,426.70,774,779,0
333624,431.08,774,774,0
333634,433.50,774,779,0
333644,433.26,774,774,0
333655,431.30,774,778,0
333665,426.88,774,773,0
333675,421.26,774,779,0
333685,413.94,774,773,0
333696,406.24,774,779,0
333705,397.68,774,774,0
333715,389.55,774,779,0
333725,381.46,774,773,0
333735,374.59,774,779,0
333745,368.37,774,773,0
333755,363.80,774,779,0
333765,359.96,774,772,0
333775,357.57,774,778,0
333785,355.82,774,772,0
333795,355.36,774,779,0
333805,355.34,774,772,0
333815,356.35,774,779,0
333825,357.32,774,772,0
333835,359.24,774,779,0
333845,361.09,774,772,0
333855,363.55,774,778,0
333865,365.61,774,772,0
333875,367.96,774,779,0
333885,369.69,774,772,0
333895,371.62,774,779,0
333905,372.72,774,772,0
333915,373.92,774,779,0
333925,374.33,774,772,0
333935,374.62,774,778,0
333945,374.09,774,772,0
333955,373.63,774,779,0
333965,372.97,774,772,0
333975,373.58,774,778,0
333985,375.98,774,772,0
333996,382.50,774,779,0
334006,394.26,774,772,0
334016,413.51,774,778,0
334026,440.62,774,773,0
334036,476.09,774,779,0
334055,516.48,775,777,0
334058,559.10,775,779,0
334067,600.86,775,774,0
334077,639.52,775,779,0
334087,672.53,775,774,0
334097,698.69,775,779,0
334107,717.08,775,774,0
334117,728.11,775,778,0
334127,731.42,775,774,0
334137,726.71,775,779,0
334147,713.51,775,774,0
334157,692.06,775,778,0
334167,662.73,775,774,0
334177,626.34,775,779,0
334187,585.35,775,774,0
334197,542.77,775,778,0
334208,500.88,775,776,0
334217,462.00,775,778,0
334227,427.25,775,774,0
334237,397.60,775,779,0
334247,373.25,775,776,0
334257,354.62,775,778,0
334267,341.32,775,775,0
334277,333.47,775,779,0
334287,330.33,775,776,0
334297,331.69,775,778,0
334307,336.54,775,774,0
334317,344.60,775,779,0
334327,354.67,775,776,0
334337,366.25,775,778,0
334347,378.09,775,775,0
334357,389.72,775,779,0
334367,400.09,775,776,0
334377,408.98,775,778,0
334387,415.54,775,775,0
334397,419.88,775,779,0
334407,421.63,775,776,0
334417,421.18,775,778,0
334427,418.56,775,775,0
334437,414.36,775,779,0
334447,408.68,775,776,0
334457,402.13,775,778,0
334467,395.02,775,775,0
334477,388.03,775,778,0
334487,381.12,775,776,0
334497,374.87,775,778,0
334508,369.25,775,776,0
334518,364.63,775,779,0
334528,360.89,775,777,0
334538,358.22,775,778,0
334548,356.53,775,778,0
334558,355.94,775,778,0
334568,356.13,775,777,0
334578,356.95,775,778,0
334588,358.46,775,778,0
334598,360.64,775,778,0
334608,363.28,775,777,0
334618,366.11,775,778,0
334628,369.03,775,778,0
334638,371.89,775,778,0
334648,374.80,775,777,0
334658,377.43,775,778,0
334668,379.70,775,778,0
334679,381.50,775,778,0
334689,382.72,775,778,0
334699,383.41,775,778,0
334709,383.71,775,778,0
334720,383.37,775,777,0
334729,382.92,775,778,0
334739,382.60,775,778,0
334749,383.23,775,778,0
334759,386.16,775,777,0
334769,393.06,775,778,0
334779,405.68,775,778,0
334789,426.05,775,779,0
334799,454.62,775,777,0
334809,490.61,775,779,0
334828,530.97,773,778,0
334831,572.93,773,780,0
334840,613.67,773,775,0
334850,650.62,773,779,0
334860,681.51,773,777,0
334870,705.01,773,779,0
334880,721.47,773,775,0
334891,732.98,773,779,0
334900,738.26,773,776,0
334910,736.60,773,779,0
334920,726.90,773,775,0
334930,709.23,773,779,0
334940,683.75,773,777,0
334950,651.08,773,779,0
334960,611.54,773,775,0
334970,569.08,773,779,0
334980,526.20,773,777,0
334990,485.77,773,779,0
335000,448.89,773,775,0
335010,416.83,773,779,0
335020,389.75,773,776,0
335030,368.61,773,779,0
335040,352.66,773,776,0
335050,342.34,773,779,0
335060,336.71,773,775,0
335070,335.94,773,778,0
335080,338.92,773,775,0
335090,345.54,773,779,0
335100,354.16,773,774,0
335110,364.62,773,778,0
335120,375.32,773,775,0
335130,386.28,773,779,0
335140,396.14,773,774,0
335150,404.93,773,778,0
335160,411.46,773,775,0
335170,416.25,773,779,0
335180,418.62,773,774,0
335191,419.08,773,779,0
335201,417.04,773,774,0
335211,413.38,773,779,0
335221,407.87,773,773,0
335232,401.69,773,779,0
335241,394.59,773,774,0
335251,387.42,773,779,0
335261,379.97,773,773,0
335271,373.34,773,779,0
335281,366.98,773,774,0
335291,361.84,773,779,0
335301,357.22,773,773,0
335311,353.90,773,778,0
335321,351.31,773,774,0
335331,350.23,773,779,0
335341,349.82,773,773,0
335351,350.69,773,778,0
335361,351.72,773,773,0
335371,353.65,773,778,0
335381,355.73,773,773,0
335391,358.59,773,778,0
335401,361.20,773,772,0
335411,363.97,773,778,0
335421,366.08,773,773,0
335431,368.50,773,778,0
335441,370.23,773,772,0
335451,371.96,773,778,0
335461,372.83,773,773,0
335471,373.61,773,778,0
335481,373.73,773,772,0
335491,374.24,773,778,0
335501,374.81,773,773,0
335511,377.31,773,778,0
335521,382.53,773,773,0
335532,393.13,773,778,0
335542,410.19,773,772,0
335552,435.76,773,779,0
335562,469.69,773,772,0
335572,509.47,773,778,0
335591,551.84,763,778,0
335594,594.32,763,779,0
335603,633.78,763,773,0
335613,668.22,763,778,0
335623,695.50,763,772,0
335633,714.85,763,779,0
335643,728.39,763,773,0
335653,737.87,763,778,0
335663,742.50,763,772,0
335673,741.11,763,779,0
335683,732.50,763,773,0
335693,716.45,763,778,0
335703,692.79,763,772,0
335713,662.04,763,779,0
335723,624.40,763,773,0
335733,582.88,763,778,0
335744,540.10,763,773,0
335753,499.01,763,779,0
335763,460.82,763,773,0
335773,427.15,763,779,0
335783,398.13,763,774,0
335793,374.82,763,778,0
335803,356.79,763,773,0
335813,344.42,763,778,0
335823,337.01,763,773,0
335833,334.65,763,778,0
335843,336.26,763,773,0
335853,341.75,763,778,0
335863,349.84,763,774,0
335873,360.22,763,778,0
335883,371.38,763,773,0
335893,382.92,763,779,0
335903,393.49,763,774,0
335913,402.94,763,779,0
335923,410.16,763,773,0
335933,415.34,763,779,0
335943,417.77,763,773,0
335953,418.05,763,778,0
335963,415.81,763,773,0
335973,411.92,763,779,0
335983,406.25,763,773,0
335993,399.74,763,778,0
336003,392.32,763,773,0
336013,384.85,763,778,0
336023,377.18,763,773,0
336033,370.10,763,779,0
336044,363.64,763,774,0
336054,358.35,763,778,0
336064,354.09,763,775,0
336074,351.19,763,779,0
336084,349.42,763,776,0
336094,348.99,763,778,0
336104,349.51,763,775,0
336114,351.03,763,779,0
336124,353.08,763,776,0
336134,355.75,763,778,0
336144,358.61,763,775,0
336154,361.60,763,778,0
336164,364.59,763,776,0
336174,367.76,763,778,0
336184,370.53,763,775,0
336194,373.11,763,779,0
336204,375.18,763,776,0
336215,376.84,763,778,0
336225,378.05,763,777,0
336235,378.80,763,778,0
336245,379.03,763,778,0
336256,379.24,763,778,0
336265,379.98,763,777,0
336275,382.30,763,778,0
336285,387.87,763,778,0
336295,398.28,763,778,0
336305,415.12,763,777,0
336315,439.86,763,778,0
336325,473.11,763,778,0
336335,511.95,763,778,0
336354,553.58,763,777,0
336357,595.11,763,778,0
336366,634.03,763,779,0
336376,668.14,763,778,0
336386,695.44,763,778,0
336396,714.81,763,778,0
336406,728.36,763,779,0
336416,737.86,763,778,0
336427,743.13,763,779,0
336436,742.87,763,778,0
336446,735.97,763,779,0
336456,721.54,763,777,0
336466,699.52,763,778,0
336476,670.13,763,778,0
336486,634.01,763,779,0
336496,592.95,763,777,0
336506,550.06,763,778,0
336516,507.83,763,778,0
336526,468.54,763,779,0
336536,433.23,763,777,0
336546,402.95,763,778,0
336556,377.72,763,778,0
336566,358.09,763,778,0
336576,343.84,763,778,0
336586,334.88,763,778,0
336596,330.72,763,777,0
336606,331.06,763,779,0
336616,334.90,763,777,0
336626,341.96,763,779,0
336636,351.10,763,777,0
336646,361.57,763,778,0
336656,372.20,763,777,0
336666,382.25,763,778,0
336676,390.75,763,777,0
336686,397.68,763,778,0
336696,402.36,763,777,0
336706,405.04,763,779,0
336716,405.24,763,777,0
336727,403.58,763,779,0
336737,399.98,763,776,0
336747,395.31,763,779,0
336757,389.22,763,775,0
336768,382.60,763,778,0
336777,375.35,763,776,0
336787,368.56,763,779,0
336797,362.09,763,775,0
336807,356.71,763,779,0
336817,352.04,763,776,0
336827,348.81,763,779,0
336837,346.47,763,775,0
336847,345.51,763,779,0
336857,345.23,763,776,0
336867,345.98,763,779,0
336877,347.01,763,775,0
336887,348.85,763,779,0
336897,350.87,763,776,0
336907,353.48,763,779,0
336917,355.73,763,775,0
336927,358.30,763,779,0
336937,360.44,763,774,0
336947,362.84,763,778,0
336957,364.51,763,774,0
336967,365.99,763,779,0
336977,366.55,763,774,0
336987,367.11,763,778,0
336997,366.86,763,775,0
337007,366.56,763,779,0
337017,365.58,763,774,0
337027,364.93,763,779,0
337037,364.23,763,775,0
337047,364.93,763,779,0
337057,367.48,763,774,0
337068,374.28,763,779,0
337078,386.45,763,773,0
337088,406.54,763,779,0
337098,434.88,763,773,0
337108,471.69,763,779,0
337127,513.35,773,778,0
337130,557.30,773,780,0
337139,600.24,773,773,0
337149,639.85,773,779,0
337159,673.28,773,773,0
337169,699.30,773,779,0
337179,717.51,773,773,0
337189,730.26,773,779,0
337199,739.01,773,773,0
337209,742.26,773,779,0
337219,738.41,773,773,0
337229,726.97,773,779,0
337239,707.44,773,773,0
337249,680.14,773,779,0
337259,645.21,773,772,0
337269,603.75,773,779,0
337280,558.95,773,772,0
337289,514.39,773,779,0
337299,471.72,773,773,0
337309,433.23,773,779,0
337319,399.48,773,773,0
337329,371.86,773,779,0
337339,349.96,773,773,0
337349,334.59,773,779,0
337359,324.90,773,772,0
337369,321.24,773,779,0
337379,322.20,773,772,0
337389,327.88,773,779,0
337399,336.57,773,772,0
337409,348.14,773,779,0
337419,360.74,773,773,0
337429,374.11,773,779,0
337439,386.59,773,772,0
337449,398.11,773,779,0
337459,407.25,773,772,0
337469,414.38,773,779,0
337479,418.55,773,772,0
337489,420.40,773,779,0
337499,419.29,773,772,0
337509,416.03,773,779,0
337519,410.41,773,772,0
337529,403.64,773,779,0
337539,395.39,773,773,0
337549,386.92,773,779,0
337559,378.11,773,772,0
337569,370.11,773,779,0
337580,362.75,773,773,0
337590,356.87,773,779,0
337600,351.81,773,773,0
337610,348.39,773,778,0
337620,346.05,773,774,0
337630,345.13,773,779,0
337640,345.05,773,773,0
337650,346.36,773,778,0
337660,348.57,773,775,0
337670,351.87,773,779,0
337680,355.42,773,773,0
337690,359.41,773,778,0
337700,363.19,773,774,0
337710,367.03,773,779,0
337720,369.98,773,773,0
337730,372.39,773,778,0
337740,373.94,773,775,0
337751,375.24,773,779,0
337761,375.90,773,775,0
337771,376.32,773,778,0
337781,376.05,773,776,0
337792,375.78,773,779,0
337801,375.16,773,775,0
337811,374.68,773,779,0
337821,374.13,773,776,0
337831,374.52,773,779,0
337841,376.51,773,775,0
337851,382.10,773,779,0
337861,392.83,773,776,0
337871,410.66,773,779,0
337881,436.44,773,775,0
337891,470.98,773,779,0
337910,510.93,783,778,0
337913,553.68,783,780,0
337922,596.20,783,777,0
337932,635.83,783,779,0
337942,669.99,783,778,0
337952,697.21,783,779,0
337963,716.30,783,778,0
337972,729.63,783,779,0
337982,738.95,783,778,0
337992,744.02,783,779,0
338002,743.16,783,778,0
338012,735.40,783,779,0
338022,719.94,783,778,0
338032,696.38,783,779,0
338042,665.03,783,778,0
338052,626.75,783,779,0
338062,583.58,783,778,0
338072,538.92,783,779,0
338082,495.19,783,778,0
338092,454.55,783,779,0
338102,418.72,783,778,0
338112,388.64,783,779,0
338122,364.49,783,778,0
338132,346.56,783,779,0
338142,334.82,783,778,0
338152,329.00,783,779,0
338162,328.61,783,778,0
338172,332.80,783,779,0
338182,340.66,783,777,0
338192,351.18,783,779,0
338202,363.30,783,778,0
338212,375.94,783,779,0
338222,388.00,783,778,0
338232,398.58,783,779,0
338242,407.15,783,778,0
338252,413.28,783,779,0
338263,416.62,783,779,0
338273,417.08,783,778,0
338283,415.04,783,779,0
338293,410.70,783,777,0
338304,404.70,783,779,0
338313,397.42,783,778,0
338323,389.50,783,779,0
338333,381.16,783,777,0
338343,373.27,783,779,0
338353,365.82,783,778,0
338363,359.57,783,779,0
338373,354.26,783,777,0
338383,350.28,783,779,0
338393,347.37,783,778,0
338403,345.84,783,779,0
338413,345.20,783,778,0
338423,345.57,783,779,0
338433,346.43,783,778,0
338443,348.10,783,779,0
338453,349.96,783,778,0
338463,352.20,783,779,0
338473,354.45,783,777,0
338483,357.02,783,779,0
338493,359.41,783,777,0
338503,361.95,783,779,0
338513,364.06,783,777,0
338523,366.27,783,779,0
338533,367.99,783,777,0
338543,369.58,783,779,0
338553,370.43,783,777,0
338563,371.20,783,779,0
338573,371.36,783,777,0
338583,371.34,783,778,0
338593,370.68,783,777,0
338604,370.22,783,779,0
338614,369.81,783,776,0
338624,370.89,783,779,0
338634,374.06,783,775,0
338644,381.50,783,779,0
338654,394.38,783,776,0
338664,414.83,783,779,0
338674,443.34,783,775,0
338694,479.92,783,773,0
338697,521.00,783,773,0
338706,563.95,783,779,0
338716,605.62,783,773,0
338726,643.96,783,779,0
338736,676.37,783,773,0
338746,701.55,783,779,0
338756,719.13,783,773,0
338766,731.47,783,779,0
338776,737.97,783,773,0
338786,737.98,783,779,0
338796,730.40,783,773,0
338806,715.28,783,779,0
338817,692.05,783,772,0
338827,661.57,783,779,0
338837,623.94,783,773,0
338847,582.47,783,779,0
338857,539.39,783,773,0
338867,497.70,783,779,0
338877,458.36,783,773,0
338887,423.58,783,779,0
338897,393.24,783,773,0
338907,368.56,783,779,0
338917,348.94,783,773,0
338927,334.90,783,779,0
338937,325.72,783,773,0
338947,321.73,783,779,0
338957,321.77,783,772,0
338967,325.78,783,779,0
338977,332.40,783,773,0
338988,341.45,783,779,0
338998,351.56,783,773,0
339008,362.19,783,779,0
339018,372.08,783,775,0
339028,381.05,783,779,0
339038,388.20,783,774,0
339048,393.58,783,779,0
339058,396.49,783,774,0
339068,397.46,783,779,0
339078,396.21,783,773,0
339088,393.53,783,779,0
339098,389.26,783,775,0
339108,384.29,783,779,0
339118,378.38,783,773,0
339128,372.56,783,779,0
339138,366.61,783,775,0
339148,361.33,783,779,0
339159,356.34,783,775,0
339169,352.30,783,779,0
339179,348.78,783,776,0
339189,346.40,783,779,0
339200,344.70,783,777,0
339209,344.02,783,779,0
339219,343.88,783,776,0
339229,344.52,783,779,0
339239,345.56,783,777,0
339249,347.15,783,779,0
339259,348.95,783,776,0
339269,351.02,783,779,0
339279,353.16,783,777,0
339289,355.42,783,779,0
339299,357.65,783,777,0
339309,359.94,783,779,0
339319,362.06,783,777,0
339329,364.10,783,779,0
339339,365.78,783,776,0
339349,367.09,783,779,0
339359,368.01,783,777,0
339369,368.60,783,779,0
339379,368.64,783,776,0
339389,368.23,783,779,0
339399,367.39,783,777,0
339409,366.72,783,779,0
339419,366.67,783,776,0
339429,368.19,783,779,0
339439,372.50,783,777,0
339449,381.22,783,779,0
339459,395.56,783,776,0
339469,416.95,783,779,0
339488,445.59,795,778,0
339491,481.16,795,778,0
339500,521.35,795,778,0
339510,563.08,795,779,0
339520,603.60,795,779,0
339530,640.83,795,779,0
339540,672.68,795,779,0
339550,696.35,795,779,0
339560,709.83,795,779,0
339570,713.05,795,779,0
339580,706.69,795,779,0
339590,691.53,795,778,0
339600,668.01,795,778,0
339610,636.94,795,779,0
339620,601.04,795,779,0
339630,562.72,795,779,0
339640,524.10,795,778,0
339650,486.96,795,779,0
339660,452.68,795,779,0
339671,422.14,795,778,0
339681,396.08,795,779,0
339691,374.33,795,778,0
339701,357.26,795,779,0
339712,344.45,795,776,0
339721,336.13,795,779,0
339731,331.42,795,777,0
339741,330.39,795,779,0
339751,332.08,795,776,0
339761,336.47,795,779,0
339771,342.33,795,777,0
339781,349.56,795,779,0
339791,356.98,795,776,0
339801,364.57,795,779,0
339811,371.38,795,777,0
339821,377.40,795,779,0
339831,381.82,795,776,0
339841,385.05,795,779,0
339851,386.58,795,777,0
339861,386.92,795,779,0
339871,385.66,795,776,0
339881,383.57,795,779,0
339891,380.44,795,777,0
339901,376.97,795,779,0
339911,373.03,795,776,0
339921,369.08,795,779,0
339931,364.90,795,777,0
339941,361.16,795,779,0
339951,357.43,795,776,0
339961,354.25,795,779,0
339971,351.31,795,776,0
339981,349.07,795,779,0
339991,347.25,795,776,0
340001,346.28,795,779,0
340012,345.51,795,775,0
340022,345.31,795,779,0
340032,345.22,795,774,0
340042,345.75,795,779,0
340052,346.30,795,773,0
340062,347.45,795,779,0
340072,348.43,795,775,0
340082,349.97,795,779,0
340092,351.31,795,773,0
340102,353.19,795,779,0
340112,354.59,795,774,0
340122,356.13,795,779,0
340132,356.90,795,773,0
340142,357.92,795,779,0
340152,358.37,795,774,0
340162,358.99,795,779,0
340172,358.86,795,773,0
340183,358.90,795,779,0
340193,358.42,795,773,0
340203,358.34,795,779,0
340213,357.85,795,772,0
340224,358.02,795,779,0
340233,358.83,795,773,0
340243,361.97,795,779,0
340253,367.85,795,773,0
340263,378.44,795,779,0
340273,393.78,795,773,0
340292,415.40,804,772,0
340295,442.75,804,773,0
340304,475.66,804,779,0
340314,511.33,804,773,0
340324,548.09,804,779,0
340334,582.39,804,772,0
340344,612.53,804,779,0
340354,635.39,804,773,0
340364,649.80,804,779,0
340374,654.10,804,772,0
340384,649.27,804,779,0
340395,635.30,804,772,0
340404,614.43,804,779,0
340414,587.68,804,772,0
340424,557.48,804,779,0
340434,525.11,804,773,0
340444,493.10,804,779,0
340454,462.22,804,772,0
340464,434.25,804,779,0
340474,409.19,804,773,0
340484,388.05,804,779,0
340494,370.46,804,772,0
340504,357.08,804,779,0
340514,347.07,804,773,0
340524,340.96,804,779,0
340534,337.76,804,772,0
340544,337.83,804,779,0
340554,340.15,804,772,0
340564,344.99,804,779,0
340574,351.04,804,772,0
340584,358.48,804,779,0
340594,366.14,804,773,0
340604,374.15,804,779,0
340614,381.31,804,772,0
340624,387.86,804,779,0
340634,392.83,804,773,0
340644,396.74,804,779,0
340654,398.87,804,772,0
340664,399.77,804,779,0
340674,398.90,804,773,0
340684,397.08,804,779,0
340695,393.93,804,773,0
340705,390.31,804,778,0
340715,385.89,804,774,0
340725,381.46,804,779,0
340736,376.74,804,775,0
340745,372.53,804,778,0
340755,368.30,804,774,0
340765,364.78,804,778,0
340775,361.50,804,774,0
340785,359.17,804,778,0
340795,357.23,804,774,0
340805,356.26,804,779,0
340815,355.67,804,775,0
340825,355.98,804,778,0
340835,356.59,804,774,0
340845,357.70,804,779,0
340855,358.77,804,775,0
340865,360.26,804,778,0
340875,361.59,804,774,0
340885,363.22,804,779,0
340895,364.69,804,775,0
340905,366.33,804,778,0
340915,367.86,804,774,0
340925,369.57,804,779,0
340935,370.94,804,775,0
340945,372.29,804,778,0
340955,373.15,804,774,0
340965,373.92,804,779,0
340975,374.28,804,775,0
340985,374.63,804,778,0
340995,374.48,804,774,0
341005,374.29,804,778,0
341015,373.86,804,775,0
341025,374.08,804,778,0
341036,375.34,804,776,0
341046,378.97,804,779,0
341056,385.75,804,776,0
341066,397.14,804,778,0
341076,413.98,804,777,0
341095,436.66,803,775,0
341098,464.83,803,779,0
341107,497.37,803,778,0
341117,532.27,803,779,0
341127,567.20,803,779,0
341137,599.41,803,778,0
341147,626.25,803,778,0
341157,645.97,803,779,0
341167,657.12,803,779,0
341177,659.10,803,778,0
341187,652.00,803,778,0
341197,636.66,803,778,0
341207,614.69,803,778,0
341217,588.00,803,778,0
341227,558.43,803,778,0
341237,527.70,803,779,0
341248,497.27,803,778,0
341257,468.69,803,778,0
341267,442.90,803,778,0
341277,420.47,803,778,0
341287,401.52,803,778,0
341297,386.15,803,778,0
341307,374.19,803,778,0
341317,365.99,803,778,0
341327,361.06,803,778,0
341337,359.37,803,778,0
341347,360.42,803,778,0
341357,363.94,803,778,0
341367,369.36,803,778,0
341377,376.41,803,778,0
341387,384.21,803,778,0
341397,392.29,803,778,0
341407,399.96,803,778,0
341417,406.87,803,779,0
341427,412.61,803,778,0
341437,416.97,803,778,0
341447,419.55,803,778,0
341457,420.41,803,779,0
341467,419.56,803,778,0
341477,417.29,803,778,0
341487,413.69,803,778,0
341497,409.28,803,778,0
341507,404.10,803,778,0
341517,398.63,803,778,0
341527,392.91,803,778,0
341537,387.58,803,778,0
341548,382.65,803,777,0
341558,378.60,803,778,0
341568,375.12,803,777,0
341578,372.68,803,779,0
341588,370.85,803,776,0
341598,369.95,803,778,0
341608,369.49,803,777,0
341618,369.73,803,778,0
341628,370.07,803,776,0
341638,370.95,803,778,0
341648,371.82,803,777,0
341658,373.29,803,779,0
341668,374.70,803,776,0
341678,376.46,803,778,0
341688,377.91,803,777,0
341698,379.57,803,779,0
341708,380.72,803,776,0
341719,381.96,803,778,0
341729,382.57,803,775,0
341739,383.26,803,779,0
341749,383.35,803,774,0
341760,383.63,803,778,0
341769,383.40,803,775,0
341779,383.45,803,779,0
341789,383.02,803,774,0
341799,383.05,803,778,0
341809,383.12,803,775,0
341819,384.63,803,779,0
341829,387.95,803,774,0
341839,395.21,803,778,0
341849,406.85,803,775,0
341859,424.85,803,779,0
341869,449.11,803,774,0
341889,480.32,793,773,0
341892,516.91,793,772,0
341901,556.24,793,779,0
341911,595.21,793,772,0
341921,631.96,793,779,0
341932,664.24,793,773,0
341942,690.18,793,779,0
341952,707.06,793,772,0
341962,714.20,793,779,0
341972,712.08,793,773,0
341982,701.81,793,779,0
341992,683.61,793,772,0
342002,658.40,793,778,0
342012,627.59,793,773,0
342022,594.20,793,779,0
342032,559.64,793,772,0
342042,526.19,793,779,0
342052,494.42,793,773,0
342062,466.09,793,778,0
342072,441.17,793,772,0
342082,420.59,793,778,0
342092,403.70,793,773,0
342103,391.23,793,778,0
342113,382.46,793,774,0
342123,377.78,793,778,0
342133,376.26,793,774,0
342144,378.24,793,778,0
342153,382.67,793,774,0
342163,389.50,793,778,0
342173,397.58,793,774,0
342183,406.53,793,778,0
342193,415.24,793,774,0
342203,423.57,793,778,0
342213,430.51,793,775,0
342223,436.02,793,778,0
342233,439.48,793,774,0
342243,441.10,793,778,0
342253,440.64,793,774,0
342263,438.60,793,778,0
342273,434.74,793,774,0
342283,429.80,793,778,0
342293,423.78,793,774,0
342303,417.41,793,778,0
342313,410.69,793,776,0
342323,404.40,793,778,0
342333,398.41,793,774,0
342343,393.36,793,778,0
342353,388.96,793,776,0
342363,385.67,793,779,0
342373,383.07,793,774,0
342383,381.46,793,778,0
342393,380.21,793,775,0
342403,379.72,793,778,0
342413,379.59,793,775,0
342423,380.23,793,779,0
342433,381.19,793,776,0
342444,382.63,793,778,0
342454,384.24,793,776,0
342464,386.35,793,778,0
342474,388.61,793,777,0
342484,391.04,793,778,0
342494,393.13,793,776,0
342504,395.02,793,778,0
342514,396.55,793,777,0
342524,397.80,793,778,0
342534,398.55,793,776,0
342544,398.94,793,778,0
342554,398.96,793,777,0
342564,398.63,793,778,0
342574,398.05,793,776,0
342584,397.39,793,779,0
342594,397.06,793,777,0
342604,397.99,793,778,0
342615,401.42,793,778,0
342625,408.75,793,778,0
342635,421.94,793,778,0
342645,442.10,793,778,0
342656,470.23,793,778,0
342674,505.22,786,777,0
342677,544.11,786,778,0
342686,584.06,786,777,0
342696,622.70,786,779,0
342706,657.42,786,778,0
342716,686.52,786,779,0
342726,708.57,786,777,0
342736,724.00,786,779,0
342746,733.51,786,778,0
342756,736.66,786,779,0
342766,732.52,786,777,0
342776,720.92,786,778,0
342786,701.96,786,778,0
342796,676.08,786,779,0
342806,643.53,786,777,0
342816,606.51,786,779,0
342827,567.32,786,776,0
342836,529.08,786,779,0
342846,492.97,786,777,0
342856,460.58,786,779,0
342866,432.21,786,776,0
342876,408.96,786,779,0
342886,390.54,786,777,0
342896,377.48,786,779,0
342906,368.76,786,776,0
342916,364.93,786,779,0
342926,364.91,786,777,0
342936,368.62,786,779,0
342946,374.74,786,776,0
342956,382.96,786,779,0
342966,392.06,786,777,0
342976,401.77,786,779,0
342986,410.79,786,776,0
342996,418.87,786,779,0
343006,425.17,786,777,0
343016,429.83,786,779,0
343026,432.11,786,775,0
343036,432.55,786,779,0
343046,430.80,786,777,0
343056,427.64,786,779,0
343066,422.78,786,775,0
343076,417.15,786,779,0
343086,410.59,786,777,0
343096,404.03,786,779,0
343106,397.20,786,775,0
343116,390.97,786,779,0
343127,384.85,786,775,0
343137,379.75,786,779,0
343147,375.07,786,773,0
343157,371.53,786,779,0
343168,368.63,786,774,0
343177,366.90,786,779,0
343187,365.60,786,774,0
343197,365.33,786,779,0
343207,365.36,786,773,0
343217,366.28,786,779,0
343227,367.44,786,774,0
343237,369.37,786,779,0
343247,371.23,786,774,0
343257,373.82,786,779,0
343267,376.19,786,774,0
343277,379.00,786,779,0
343287,381.36,786,774,0
343297,383.78,786,779,0
343307,385.47,786,774,0
343317,387.09,786,779,0
343327,387.75,786,774,0
343337,388.25,786,779,0
343347,387.92,786,774,0
343357,387.51,786,779,0
343367,386.37,786,774,0
343377,385.28,786,779,0
343387,383.78,786,774,0
343397,382.90,786,779,0
343407,382.80,786,774,0
343417,385.26,786,779,0
343427,390.88,786,774,0
343437,402.02,786,779,0
343447,419.54,786,774,0
343457,445.14,786,779,0
343477,478.05,803,778,0
343480,516.57,803,780,0
343489,557.32,803,773,0
343499,598.11,803,779,0
343510,635.96,803,773,0
343519,669.02,803,779,0
343529,695.33,803,773,0
343539,714.43,803,779,0
343549,724.80,803,773,0
343559,727.17,803,779,0
343569,721.08,803,773,0
343579,706.83,803,779,0
343589,684.34,803,773,0
343599,654.66,803,779,0
343609,618.42,803,772,0
343619,579.34,803,779,0
343629,538.82,803,772,0
343639,499.88,803,778,0
343649,463.78,803,772,0
343659,432.39,803,779,0
343669,405.62,803,773,0
343680,384.60,803,779,0
343689,368.78,803,773,0
343699,358.86,803,779,0
343709,353.76,803,772,0
343719,353.57,803,778,0
343729,356.96,803,772,0
343739,363.87,803,779,0
343749,372.82,803,772,0
343759,383.63,803,778,0
343769,394.80,803,772,0
343779,406.18,803,779,0
343789,416.37,803,772,0
343799,425.47,803,778,0
343809,432.44,803,772,0
343819,437.58,803,779,0
343829,440.19,803,773,0
343839,440.78,803,778,0
343849,439.04,803,773,0
343859,435.73,803,779,0
343869,430.63,803,773,0
343879,424.70,803,778,0
343889,417.76,803,773,0
343899,410.80,803,779,0
343909,403.58,803,772,0
343919,396.93,803,778,0
343929,390.61,803,774,0
343939,385.50,803,779,0
343949,380.98,803,772,0
343959,377.64,803,778,0
343969,375.01,803,773,0
343980,373.59,803,778,0
343990,372.81,803,774,0
344000,373.04,803,778,0
344010,373.63,803,775,0
344020,374.94,803,778,0
344030,376.46,803,774,0
344040,378.38,803,778,0
344050,380.24,803,775,0
344060,382.18,803,778,0
344070,383.80,803,774,0
344080,385.40,803,778,0
344090,386.48,803,775,0
344100,387.41,803,778,0
344110,387.71,803,774,0
344120,387.84,803,778,0
344130,387.42,803,775,0
344140,386.91,803,779,0
344151,385.99,803,776,0
344161,385.39,803,778,0
344171,385.40,803,777,0
344181,387.43,803,778,0
344192,392.57,803,777,0
344201,402.56,803,778,0
344211,418.59,803,777,0
344221,442.03,803,778,0
344231,473.13,803,778,0
344250,510.34,773,775,0
344253,550.52,773,779,0
344262,590.95,773,778,0
344272,629.19,773,779,0
344282,663.08,773,778,0
344292,690.87,773,779,0
344302,711.61,773,778,0
344312,724.28,773,779,0
344322,729.04,773,778,0
344332,725.73,773,778,0
344342,714.11,773,778,0
344352,694.49,773,778,0
344363,667.04,773,778,0
344372,632.92,773,778,0
344382,594.50,773,778,0
344392,554.45,773,778,0
344402,515.01,773,778,0
344412,478.45,773,778,0
344422,445.79,773,779,0
344432,418.12,773,778,0
344442,395.20,773,778,0
344452,377.57,773,777,0
344462,364.93,773,778,0
344472,357.28,773,778,0
344482,353.72,773,778,0
344492,354.19,773,778,0
344502,358.03,773,778,0
344512,364.88,773,778,0
344522,373.57,773,778,0
344532,383.60,773,778,0
344542,393.84,773,778,0
344552,403.96,773,778,0
344562,412.97,773,778,0
344572,420.48,773,778,0
344582,425.95,773,778,0
344592,429.44,773,778,0
344602,430.55,773,778,0
344612,429.66,773,778,0
344622,426.72,773,778,0
344632,422.17,773,779,0
344642,416.12,773,778,0
344652,409.27,773,778,0
344663,401.69,773,777,0
344673,394.11,773,778,0
344683,386.49,773,776,0
344693,379.62,773,778,0
344704,373.30,773,775,0
344713,368.37,773,779,0
344723,364.23,773,776,0
344733,361.50,773,778,0
344743,359.68,773,776,0
344753,359.35,773,779,0
344763,359.72,773,776,0
344773,361.09,773,779,0
344783,362.65,773,776,0
344793,365.02,773,779,0
344803,367.72,773,777,0
344813,371.14,773,779,0
344823,374.49,773,776,0
344833,378.07,773,779,0
344843,381.39,773,777,0
344853,384.87,773,779,0
344863,387.61,773,776,0
344873,389.91,773,779,0
344883,391.18,773,777,0
344893,391.98,773,779,0
344903,391.95,773,776,0
344913,391.92,773,779,0
344923,391.64,773,777,0
344933,392.65,773,779,0
344943,395.63,773,776,0
344953,402.85,773,779,0
344963,415.41,773,777,0
344973,435.35,773,779,0
344983,462.93,773,776,0
344993,497.92,773,779,0
345013,537.03,763,778,0
345016,577.74,763,779,0
345025,617.03,763,773,0
345035,652.89,763,779,0
345046,682.97,763,773,0
345055,706.16,763,779,0
345065,722.40,763,773,0
345075,733.25,763,779,0
345085,737.50,763,773,0
345095,735.08,763,779,0
345105,724.94,763,773,0
345115,707.39,763,779,0
345125,681.99,763,773,0
345135,649.98,763,779,0
345145,611.93,763,773,0
345155,571.75,763,779,0
345165,530.90,763,773,0
345175,492.44,763,779,0
345185,456.99,763,773,0
345195,426.52,763,779,0
345205,400.40,763,773,0
345216,380.05,763,779,0
345225,364.61,763,773,0
345235,354.78,763,779,0
345245,349.45,763,773,0
345255,349.01,763,779,0
345265,352.05,763,773,0
345275,358.68,763,779,0
345285,367.18,763,773,0
345295,377.41,763,779,0
345305,387.70,763,773,0
345315,397.95,763,779,0
345325,406.58,763,773,0
345335,413.86,763,779,0
345345,418.66,763,773,0
345355,421.59,763,779,0
345365,421.88,763,773,0
345375,420.46,763,779,0
345385,416.81,763,772,0
345395,412.15,763,779,0
345405,405.98,763,773,0
345415,399.51,763,779,0
345425,392.29,763,773,0
345435,385.52,763,779,0
345445,378.80,763,773,0
345455,373.08,763,779,0
345465,367.74,763,772,0
345475,363.70,763,779,0
345485,360.28,763,773,0
345495,358.27,763,779,0
345505,356.81,763,773,0
345516,356.61,763,779,0
345526,356.86,763,773,0
345536,358.23,763,779,0
345546,359.87,763,773,0
345556,362.31,763,779,0
345566,364.62,763,773,0
345576,367.35,763,779,0
345586,369.60,763,773,0
345596,372.25,763,779,0
345606,374.27,763,773,0
345616,376.16,763,779,0
345626,377.31,763,773,0
345636,378.46,763,779,0
345646,379.01,763,773,0
345656,379.48,763,779,0
345666,379.12,763,773,0
345676,379.13,763,779,0
345687,379.90,763,775,0
345697,383.15,763,779,0
345707,389.70,763,775,0
345717,401.88,763,780,0
345728,420.94,763,776,0
345737,448.13,763,779,0
345747,483.11,763,776,0
345766,523.06,753,775,0
345769,564.83,753,779,0
345778,605.98,753,779,0
345788,643.70,753,777,0
345798,675.98,753,779,0
345808,701.35,753,778,0
345818,719.25,753,779,0
345828,731.77,753,777,0
345838,739.60,753,779,0
345848,741.26,753,778,0
345858,736.25,753,779,0
345868,723.75,753,777,0
345878,703.60,753,779,0
345888,675.77,753,778,0
345899,640.96,753,779,0
345908,600.81,753,777,0
345918,558.78,753,779,0
345928,516.85,753,778,0
345938,477.25,753,779,0
345948,441.35,753,777,0
345958,410.30,753,779,0
345968,384.32,753,778,0
345978,363.61,753,779,0
345988,347.96,753,777,0
345998,337.68,753,779,0
346008,332.42,753,777,0
346018,331.87,753,779,0
346028,335.16,753,777,0
346038,341.84,753,779,0
346048,350.89,753,778,0
346058,361.72,753,779,0
346068,373.08,753,778,0
346078,384.20,753,779,0
346088,394.30,753,778,0
346098,403.08,753,779,0
346108,409.83,753,779,0
346118,414.46,753,779,0
346128,416.72,753,778,0
346138,416.64,753,780,0
346148,414.26,753,779,0
346158,409.90,753,779,0
346168,403.67,753,778,0
346178,396.23,753,779,0
346188,387.89,753,779,0
346199,379.09,753,779,0
346209,370.19,753,779,0
346219,361.69,753,779,0
346229,353.94,753,779,0
346240,347.27,753,779,0
346249,341.92,753,779,0
346259,338.04,753,779,0
346269,335.76,753,780,0
346279,335.10,753,779,0
346289,335.93,753,779,0
346299,337.88,753,780,0
346309,340.87,753,780,0
346319,344.43,753,779,0
346329,348.50,753,779,0
346339,352.63,753,780,0
346349,356.82,753,780,0
346359,360.64,753,779,0
346369,364.18,753,780,0
346379,367.17,753,780,0
346389,369.60,753,780,0
346399,371.18,753,779,0
346409,372.15,753,780,0
346419,372.32,753,780,0
346429,372.14,753,780,0
346439,371.50,753,779,0
346449,370.92,753,780,0
346459,371.07,753,780,0
346469,373.24,753,780,0
346479,378.61,753,779,0
346489,389.18,753,780,0
346499,406.10,753,780,0
346509,430.97,753,780,0
346519,464.11,753,779,0
346529,503.33,753,780,0
346549,545.49,783,779,0
346552,587.90,783,780,0
346561,627.70,783,776,0
346571,662.89,783,780,0
346582,691.42,783,775,0
346591,712.34,783,780,0
346601,726.98,783,776,0
346611,735.86,783,780,0
346621,737.70,783,775,0
346631,732.48,783,780,0
346641,719.43,783,776,0
346651,698.82,783,780,0
346661,670.46,783,775,0
346671,635.56,783,780,0
346681,595.79,783,776,0
346691,554.67,783,780,0
346701,513.67,783,775,0
346711,475.28,783,780,0
346721,440.14,783,776,0
346731,409.84,783,779,0
346741,383.79,783,775,0
346752,363.11,783,780,0
346761,347.22,783,776,0
346771,336.74,783,780,0
346781,330.69,783,775,0
346791,329.45,783,780,0
346801,331.93,783,776,0
346811,338.12,783,780,0
346821,346.57,783,775,0
346831,357.20,783,780,0
346841,368.28,783,776,0
346851,379.73,783,780,0
346861,390.05,783,775,0
346871,399.08,783,780,0
346881,405.83,783,776,0
346891,410.42,783,780,0
346901,412.10,783,775,0
346911,411.64,783,780,0
346921,408.49,783,775,0
346931,403.80,783,780,0
346941,397.26,783,775,0
346951,390.07,783,780,0
346961,381.95,783,775,0
346971,374.12,783,780,0
346981,366.28,783,775,0
346991,359.60,783,780,0
347001,353.42,783,775,0
347011,348.79,783,780,0
347021,344.91,783,775,0
347031,342.62,783,780,0
347041,340.94,783,775,0
347052,340.61,783,780,0
347062,340.81,783,774,0
347072,342.07,783,780,0
347082,343.46,783,774,0
347092,345.81,783,780,0
347102,348.18,783,774,0
347112,351.30,783,780,0
347122,354.08,783,774,0
347132,357.10,783,780,0
347142,359.60,783,774,0
347152,362.25,783,780,0
347162,363.97,783,774,0
347172,365.52,783,780,0
347182,366.10,783,774,0
347192,366.58,783,780,0
347202,366.24,783,774,0
347212,366.04,783,780,0
347223,365.47,783,773,0
347233,366.23,783,780,0
347243,368.69,783,774,0
347253,375.12,783,780,0
347264,386.36,783,774,0
347273,404.51,783,780,0
347283,429.98,783,774,0
347293,463.89,783,780,0
347313,503.48,763,779,0
347316,546.02,763,780,0
347325,588.27,763,777,0
347335,628.05,763,780,0
347345,662.92,763,777,0
347355,691.49,763,780,0
347365,712.47,763,776,0
347375,725.83,763,780,0
347385,731.19,763,777,0
347395,728.74,763,780,0
347405,718.10,763,776,0
347415,699.47,763,780,0
347425,672.93,763,777,0
347436,639.35,763,780,0
347446,600.72,763,778,0
347456,560.04,763,780,0
347466,519.27,763,779,0
347476,480.41,763,780,0
347486,444.71,763,778,0
347496,413.21,763,780,0
347506,386.02,763,778,0
347516,363.47,763,780,0
347526,345.63,763,778,0
347536,332.54,763,780,0
347546,323.98,763,778,0
347556,319.70,763,780,0
347566,319.28,763,778,0
347576,322.49,763,779,0
347586,328.69,763,778,0
347596,337.10,763,779,0
347607,346.88,763,779,0
347617,357.33,763,779,0
347627,367.77,763,779,0
347637,377.44,763,779,0
347648,385.75,763,780,0
347657,392.17,763,779,0
347667,396.66,763,779,0
347677,398.91,763,779,0
347687,399.15,763,780,0
347697,397.13,763,779,0
347707,393.45,763,779,0
347717,388.34,763,779,0
347727,382.41,763,780,0
347737,375.95,763,779,0
347747,369.62,763,779,0
347757,363.43,763,779,0
347767,358.20,763,780,0
347777,353.94,763,779,0
347787,350.79,763,779,0
347797,348.58,763,779,0
347807,347.38,763,780,0
347817,346.79,763,778,0
347827,347.07,763,780,0
347837,347.65,763,779,0
347847,348.74,763,780,0
347857,349.80,763,778,0
347867,351.23,763,780,0
347877,352.62,763,779,0
347887,354.28,763,780,0
347897,355.78,763,778,0
347907,357.47,763,779,0
347917,358.92,763,779,0
347927,360.44,763,780,0
347937,361.55,763,778,0
347948,362.54,763,780,0
347958,362.98,763,777,0
347968,363.20,763,779,0
347978,362.84,763,776,0
347988,362.37,763,779,0
347998,361.70,763,777,0
348008,361.28,763,779,0
348018,361.11,763,776,0
348028,362.41,763,779,0
348038,365.67,763,777,0
348048,372.63,763,779,0
348058,384.05,763,776,0
348068,401.69,763,779,0
348078,425.61,763,777,0
348097,456.46,785,776,0
348100,492.58,785,775,0
348109,532.65,785,780,0
348119,573.42,785,775,0
348129,612.60,785,780,0
348139,647.22,785,775,0
348149,675.48,785,780,0
348160,694.32,785,774,0
348169,703.65,785,779,0
348179,702.43,785,775,0
348189,691.84,785,779,0
348199,672.30,785,774,0
348209,645.38,785,779,0
348219,612.61,785,775,0
348229,577.03,785,779,0
348239,539.61,785,774,0
348249,503.08,785,779,0
348259,468.21,785,774,0
348269,436.91,785,779,0
348279,408.95,785,773,0
348289,385.35,785,779,0
348299,365.53,785,775,0
348309,350.16,785,779,0
348319,338.20,785,774,0
348329,330.47,785,779,0
348339,325.70,785,775,0
348349,324.50,785,779,0
348359,325.68,785,774,0
348369,329.55,785,779,0
348379,334.95,785,775,0
348389,342.08,785,779,0
348399,349.34,785,774,0
348409,357.13,785,779,0
348419,364.29,785,775,0
348429,371.62,785,780,0
348439,377.73,785,774,0
348449,383.04,785,780,0
348460,386.54,785,774,0
348470,388.99,785,780,0
348480,389.51,785,773,0
348490,388.84,785,780,0
348500,385.89,785,773,0
348510,381.98,785,780,0
348520,376.54,785,773,0
348530,370.94,785,780,0
348540,364.66,785,773,0
348550,359.02,785,780,0
348560,353.40,785,773,0
348570,348.74,785,780,0
348580,344.44,785,773,0
348590,341.52,785,780,0
348600,339.10,785,773,0
348610,337.91,785,780,0
348620,337.12,785,773,0
348631,337.43,785,779,0
348641,337.94,785,773,0
348651,339.29,785,779,0
348661,340.70,785,773,0
348672,342.68,785,779,0
348681,344.57,785,773,0
348691,346.97,785,780,0
348701,349.21,785,773,0
348711,351.93,785,780,0
348721,354.27,785,773,0
348731,356.76,785,780,0
348741,358.80,785,774,0
348751,360.96,785,779,0
348761,362.43,785,773,0
348771,363.76,785,780,0
348781,364.17,785,773,0
348791,364.34,785,779,0
348801,363.64,785,773,0
348811,363.06,785,779,0
348821,361.84,785,773,0
348831,360.86,785,779,0
348841,359.96,785,774,0
348851,360.44,785,779,0
348861,362.62,785,773,0
348871,368.22,785,779,0
348881,377.84,785,774,0
348891,392.93,785,779,0
348910,413.52,813,778,0
348913,440.15,813,780,0
348922,471.82,813,776,0
348932,507.32,813,779,0
348942,543.74,813,775,0
348952,578.92,813,779,0
348962,609.93,813,776,0
348972,635.15,813,779,0
348982,652.16,813,775,0
348992,660.00,813,779,0
349002,658.24,813,775,0
349012,648.10,813,779,0
349022,630.07,813,775,0
349032,606.31,813,779,0
349042,578.14,813,776,0
349052,547.89,813,779,0
349062,517.11,813,775,0
349072,487.50,813,779,0
349082,459.67,813,775,0
349092,434.78,813,779,0
349102,412.90,813,775,0
349112,394.55,813,779,0
349122,379.34,813,775,0
349132,367.58,813,779,0
349143,358.79,813,776,0
349153,353.24,813,779,0
349163,350.34,813,777,0
349173,350.15,813,779,0
349184,352.12,813,778,0
349193,356.24,813,779,0
349203,361.65,813,777,0
349213,368.23,813,779,0
349223,375.15,813,778,0
349233,382.22,813,779,0
349243,388.67,813,777,0
349253,394.12,813,779,0
349263,398.29,813,778,0
349273,401.11,813,779,0
349283,402.41,813,777,0
349293,402.37,813,779,0
349303,401.06,813,778,0
349313,398.81,813,779,0
349323,395.91,813,777,0
349333,392.55,813,779,0
349343,388.87,813,778,0
349353,385.05,813,779,0
349363,381.09,813,777,0
349373,377.21,813,779,0
349383,373.59,813,778,0
349393,370.20,813,779,0
349403,367.14,813,777,0
349413,364.61,813,779,0
349423,362.63,813,779,0
349433,361.28,813,779,0
349443,360.51,813,777,0
349453,360.19,813,779,0
349463,360.30,813,779,0
349473,360.73,813,779,0
349484,361.45,813,779,0
349494,362.34,813,779,0
349504,363.40,813,779,0
349514,364.48,813,779,0
349524,365.75,813,779,0
349534,367.02,813,779,0
349544,368.43,813,779,0
349554,369.63,813,779,0
349564,370.98,813,779,0
349574,372.27,813,779,0
349584,373.56,813,779,0
349594,374.51,813,779,0
349604,375.30,813,779,0
349614,375.85,813,779,0
349624,376.37,813,779,0
349634,376.51,813,778,0
349644,376.57,813,779,0
349655,376.32,813,778,0
349665,376.22,813,779,0
349675,376.20,813,777,0
349685,377.17,813,779,0
349696,379.82,813,776,0
349705,385.44,813,779,0
349715,394.91,813,777,0
349734,409.68,824,775,0
349737,429.92,824,774,0
349746,456.47,824,779,0
349756,487.70,824,775,0
349766,522.46,824,779,0
349776,558.07,824,775,0
349786,592.46,824,779,0
349796,622.67,824,775,0
349806,647.02,824,779,0
349816,662.83,824,775,0
349826,670.25,824,779,0
349836,668.42,824,775,0
349846,658.48,824,779,0
349856,640.81,824,774,0
349867,617.55,824,779,0
349876,590.00,824,775,0
349886,560.73,824,779,0
349896,530.47,824,774,0
349906,501.36,824,779,0
349916,473.99,824,775,0
349926,449.87,824,779,0
349936,428.56,824,775,0
349946,410.91,824,779,0
349956,396.24,824,775,0
349966,385.15,824,779,0
349976,376.66,824,774,0
349986,371.28,824,779,0
349996,368.07,824,775,0
350006,367.62,824,779,0
350016,368.80,824,774,0
350026,372.12,824,779,0
350036,376.33,824,774,0
350046,381.89,824,779,0
350056,387.62,824,774,0
350066,393.78,824,779,0
350076,399.12,824,774,0
350086,404.05,824,779,0
350096,407.55,824,774,0
350106,410.13,824,779,0
350116,410.95,824,774,0
350126,410.75,824,779,0
350136,408.81,824,774,0
350146,406.21,824,779,0
350156,402.20,824,774,0
350167,397.81,824,779,0
350177,392.56,824,773,0
350187,387.46,824,779,0
350197,381.88,824,773,0
350208,377.07,824,779,0
350217,372.29,824,773,0
350227,368.56,824,779,0
350237,365.27,824,773,0
350247,363.17,824,779,0
350257,361.45,824,773,0
350267,360.93,824,779,0
350277,360.61,824,773,0
350287,361.15,824,779,0
350297,361.79,824,773,0
350307,363.14,824,779,0
350317,364.43,824,772,0
350327,366.40,824,779,0
350337,368.12,824,773,0
350347,370.27,824,779,0
350357,372.03,824,772,0
350367,374.21,824,779,0
350377,375.82,824,772,0
350387,377.67,824,779,0
350397,378.93,824,772,0
350407,380.41,824,779,0
350417,381.40,824,773,0
350427,382.74,824,779,0
350437,383.37,824,772,0
350447,384.20,824,779,0
350457,384.36,824,773,0
350467,384.64,824,779,0
350477,384.23,824,772,0
350487,383.95,824,779,0
350497,383.06,824,772,0
350508,382.62,824,779,0
350518,382.39,824,772,0
350528,383.99,824,779,0
350538,387.85,824,773,0
350548,395.99,824,779,0
350558,408.68,824,772,0
350577,427.76,843,772,0
350580,453.25,843,776,0
350589,485.19,843,779,0
350599,521.35,843,773,0
350609,559.98,843,779,0
350619,598.00,843,774,0
350629,633.45,843,779,0
350639,662.88,843,773,0
350649,684.56,843,779,0
350659,696.52,843,774,0
350669,698.94,843,779,0
350679,691.84,843,773,0
350689,676.37,843,779,0
350699,653.38,843,774,0
350709,625.23,843,778,0
350720,593.45,843,775,0
350729,560.57,843,779,0
350739,527.87,843,774,0
350749,497.10,843,779,0
350759,468.82,843,775,0
350769,444.19,843,779,0
350779,423.01,843,774,0
350789,405.90,843,778,0
350799,392.30,843,774,0
350809,382.40,843,779,0
350819,375.59,843,774,0
350829,372.20,843,778,0
350839,371.50,843,775,0
350849,373.66,843,779,0
350859,377.62,843,774,0
350869,383.26,843,778,0
350879,389.74,843,775,0
350889,396.68,843,779,0
350899,403.24,843,774,0
350909,409.47,843,778,0
350919,414.52,843,775,0
350929,418.43,843,779,0
350939,420.79,843,774,0
350949,421.79,843,778,0
350959,421.21,843,775,0
350969,419.44,843,778,0
350979,416.18,843,774,0
350989,412.09,843,778,0
350999,406.92,843,774,0
351009,401.29,843,778,0
351020,395.25,843,775,0
351030,389.51,843,778,0
351040,383.87,843,776,0
351050,378.86,843,778,0
351060,374.44,843,777,0
351070,371.18,843,778,0
351080,368.73,843,776,0
351090,367.27,843,778,0
351100,366.63,843,777,0
351110,367.04,843,778,0
351120,368.19,843,776,0
351130,369.80,843,778,0
351140,371.75,843,777,0
351150,373.97,843,778,0
351160,376.16,843,776,0
351170,378.17,843,778,0
351180,379.92,843,777,0
351191,381.40,843,778,0
351201,382.69,843,778,0
351211,383.51,843,778,0
351221,384.17,843,778,0
351232,384.59,843,777,0
351241,384.97,843,778,0
351251,385.20,843,777,0
351261,385.48,843,778,0
351271,385.55,843,777,0
351281,385.73,843,777,0
351291,385.72,843,777,0
351301,385.81,843,778,0
351311,385.69,843,778,0
351321,385.53,843,777,0
351331,385.07,843,778,0
351341,384.71,843,778,0
351351,384.32,843,777,0
351361,384.70,843,777,0
351371,386.46,843,777,0
351381,390.99,843,778,0
351391,399.40,843,777,0
351401,413.29,843,778,0
351420,433.18,843,776,0
351423,459.95,843,779,0
351432,492.75,843,776,0
351442,530.24,843,778,0
351452,569.30,843,776,0
351462,607.48,843,778,0
351472,642.01,843,776,0
351482,670.72,843,778,0
351492,691.20,843,777,0
351502,702.24,843,778,0
351512,702.98,843,776,0
351522,694.46,843,778,0
351532,677.52,843,776,0
351542,653.41,843,778,0
351552,623.50,843,776,0
351562,590.18,843,778,0
351572,554.94,843,775,0
351582,520.50,843,778,0
351592,487.86,843,776,0
351602,458.42,843,778,0
351612,432.49,843,775,0
351622,411.17,843,778,0
351632,393.81,843,776,0
351642,381.05,843,778,0
351652,371.74,843,775,0
351662,366.37,843,778,0
351672,364.25,843,776,0
351682,365.50,843,778,0
351692,369.08,843,775,0
351703,375.14,843,778,0
351713,382.56,843,774,0
351723,391.43,843,778,0
351733,400.43,843,773,0
351744,409.52,843,778,0
351753,417.55,843,774,0
351763,424.67,843,778,0
351773,429.53,843,773,0
351783,432.67,843,778,0
351793,433.37,843,774,0
351803,432.53,843,778,0
351813,429.41,843,773,0
351823,425.09,843,778,0
351833,419.06,843,774,0
351843,412.83,843,778,0
351853,405.89,843,773,0
351863,399.37,843,778,0
351873,392.74,843,774,0
351883,386.95,843,778,0
351893,381.44,843,773,0
351903,377.15,843,778,0
351913,373.38,843,773,0
351923,370.91,843,778,0
351933,368.83,843,773,0
351943,367.90,843,778,0
351953,367.33,843,773,0
351963,367.87,843,778,0
351973,368.51,843,773,0
351983,369.90,843,778,0
351993,371.13,843,773,0
352003,372.89,843,778,0
352013,374.42,843,773,0
352023,376.35,843,778,0
352033,377.70,843,773,0
352044,379.51,843,778,0
352054,380.81,843,772,0
352064,382.54,843,778,0
352074,383.84,843,772,0
352084,385.34,843,778,0
352094,386.40,843,772,0
352104,387.65,843,778,0
352114,388.27,843,772,0
352124,389.09,843,778,0
352134,389.19,843,772,0
352144,389.43,843,778,0
352154,388.96,843,772,0
352164,388.67,843,778,0
352174,388.13,843,772,0
352184,388.60,843,778,0
352194,390.48,843,772,0
352204,395.99,843,778,0
352215,405.90,843,772,0
352225,422.43,843,778,0
352244,445.57,824,777,0
352247,476.43,824,779,0
352257,513.11,824,773,0
352267,552.94,824,778,0
352277,592.68,824,774,0
352287,630.28,824,778,0
352297,663.24,824,775,0
352307,690.60,824,778,0
352317,708.89,824,774,0
352327,717.58,824,778,0
352337,717.11,824,775,0
352347,708.37,824,778,0
352357,691.50,824,774,0
352367,667.27,824,778,0
352377,636.20,824,775,0
352387,601.60,824,778,0
352397,565.25,824,774,0
352407,529.47,824,778,0
352417,495.30,824,775,0
352428,464.44,824,778,0
352438,437.31,824,776,0
352448,414.59,824,778,0
352458,396.24,824,777,0
352468,382.32,824,778,0
352478,372.58,824,776,0
352488,366.88,824,778,0
352498,364.82,824,776,0
352508,366.03,824,778,0
352518,369.88,824,776,0
352528,375.87,824,778,0
352538,383.50,824,776,0
352548,392.13,824,778,0
352558,401.14,824,776,0
352568,409.88,824,778,0
352578,417.85,824,776,0
352588,424.66,824,778,0
352599,429.74,824,777,0
352609,432.90,824,778,0
352619,434.13,824,778,0
352629,433.36,824,777,0
352640,430.73,824,778,0
352649,426.56,824,778,0
352659,421.12,824,778,0
352669,414.70,824,777,0
352679,407.89,824,778,0
352689,400.85,824,778,0
352699,394.08,824,778,0
352709,387.59,824,777,0
352719,381.80,824,778,0
352729,376.76,824,778,0
352739,372.84,824,778,0
352749,369.76,824,777,0
352759,367.73,824,778,0
352769,366.49,824,778,0
352779,366.30,824,777,0
352789,366.76,824,777,0
352799,367.86,824,777,0
352809,369.15,824,777,0
352819,370.82,824,777,0
352829,372.59,824,777,0
352839,374.77,824,777,0
352849,376.85,824,777,0
352859,379.08,824,778,0
352869,381.20,824,777,0
352879,383.58,824,778,0
352889,385.64,824,777,0
352899,387.63,824,778,0
352909,389.16,824,777,0
352919,390.57,824,778,0
352929,391.34,824,777,0
352940,391.97,824,778,0
352950,391.89,824,776,0
352960,391.71,824,778,0
352970,390.85,824,775,0
352980,390.04,824,778,0
352990,389.17,824,776,0
353000,389.38,824,778,0
353010,391.32,824,775,0
353020,397.10,824,778,0
353030,407.74,824,776,0
353040,425.35,824,778,0
353059,450.14,815,777,0
353062,482.80,815,778,0
353071,520.70,815,774,0
353081,561.12,815,778,0
353091,601.03,815,774,0
353101,638.26,815,778,0
353111,670.45,815,774,0
353121,696.42,815,778,0
353131,714.34,815,774,0
353141,724.14,815,778,0
353152,725.47,815,773,0
353161,719.03,815,778,0
353171,704.40,815,774,0
353181,682.25,815,778,0
353191,652.61,815,773,0
353201,617.67,815,778,0
353211,579.45,815,774,0
353221,541.17,815,778,0
353231,503.75,815,773,0
353241,469.67,815,778,0
353251,439.17,815,773,0
353261,413.70,815,778,0
353271,392.54,815,773,0
353281,376.52,815,778,0
353291,364.71,815,773,0
353301,357.72,815,778,0
353311,354.46,815,773,0
353321,355.35,815,778,0
353331,359.10,815,773,0
353341,365.80,815,778,0
353351,374.13,815,773,0
353361,384.29,815,778,0
353371,394.58,815,773,0
353381,404.99,815,778,0
353391,414.08,815,773,0
353401,422.07,815,778,0
353411,427.92,815,773,0
353421,431.93,815,778,0
353431,433.28,815,773,0
353441,432.85,815,778,0
353452,430.07,815,772,0
353462,425.93,815,778,0
353472,420.00,815,772,0
353482,413.44,815,778,0
353492,406.07,815,771,0
353502,398.80,815,778,0
353512,391.23,815,772,0
353522,384.48,815,778,0
353532,378.08,815,771,0
353542,373.13,815,778,0
353552,368.76,815,772,0
353562,365.79,815,778,0
353572,363.41,815,771,0
353582,362.47,815,778,0
353592,361.99,815,772,0
353602,362.51,815,778,0
353612,363.08,815,771,0
353623,364.39,815,778,0
353633,365.60,815,771,0
353643,367.48,815,778,0
353653,369.09,815,771,0
353664,371.12,815,778,0
353673,372.88,815,772,0
353683,375.02,815,778,0
353693,376.86,815,771,0
353703,378.79,815,778,0
353713,380.14,815,772,0
353723,381.55,815,778,0
353733,382.37,815,771,0
353743,383.29,815,778,0
353753,383.55,815,771,0
353763,383.81,815,778,0
353773,383.44,815,771,0
353783,383.18,815,778,0
353793,382.27,815,771,0
353803,381.72,815,778,0
353813,381.24,815,771,0
353823,382.76,815,778,0
353833,386.77,815,772,0
353843,395.41,815,778,0
353853,409.69,815,772,0
353863,431.68,815,778,0
353883,461.31,823,777,0
353886,498.03,823,777,0
353895,538.18,823,775,0
353905,579.35,823,778,0
353915,618.80,823,776,0
353925,654.35,823,778,0
353935,683.86,823,775,0
353945,706.40,823,778,0
353955,720.85,823,776,0
353965,727.50,823,778,0
353975,725.93,823,775,0
353985,716.10,823,778,0
353995,697.94,823,776,0
354006,671.86,823,777,0
354015,638.64,823,775,0
354025,600.48,823,778,0
354035,559.75,823,776,0
354045,519.37,823,777,0
354055,481.24,823,775,0
354065,447.14,823,778,0
354075,417.74,823,775,0
354085,393.48,823,777,0
354095,374.43,823,775,0
354105,360.76,823,778,0
354115,352.09,823,775,0
354125,348.16,823,778,0
354135,348.16,823,774,0
354145,351.92,823,777,0
354155,358.63,823,776,0
354165,367.53,823,778,0
354176,377.91,823,776,0
354185,388.91,823,777,0
354195,399.65,823,776,0
354205,409.74,823,778,0
354215,418.26,823,776,0
354225,425.00,823,777,0
354235,429.54,823,776,0
354245,431.82,823,777,0
354255,431.83,823,776,0
354265,429.91,823,777,0
354275,426.12,823,775,0
354285,421.37,823,778,0
354295,415.77,823,776,0
354305,409.67,823,777,0
354315,403.34,823,776,0
354325,397.15,823,778,0
354335,391.15,823,776,0
354345,385.53,823,777,0
354355,380.23,823,776,0
354365,375.40,823,778,0
354375,371.25,823,776,0
354385,367.79,823,777,0
354395,365.20,823,776,0
354405,363.64,823,778,0
354415,363.02,823,776,0
354425,363.14,823,778,0
354435,363.83,823,776,0
354445,365.16,823,778,0
354455,367.00,823,776,0
354465,369.02,823,777,0
354476,371.15,823,777,0
354486,373.34,823,778,0
354496,375.68,823,777,0
354506,378.00,823,777,0
354516,380.27,823,778,0
354526,382.38,823,778,0
354536,384.41,823,778,0
354546,385.96,823,777,0
354556,387.38,823,778,0
354566,388.21,823,777,0
354576,388.83,823,777,0
354586,388.88,823,777,0
354596,388.66,823,778,0
354606,388.21,823,777,0
354616,388.23,823,777,0
354626,389.45,823,777,0
354636,393.43,823,778,0
354647,401.48,823,777,0
354657,415.70,823,778,0
354667,437.04,823,776,0
354686,466.43,804,775,0
354690,502.56,804,773,0
354699,542.38,804,778,0
354709,583.06,804,773,0
354719,622.13,804,778,0
354729,657.02,804,772,0
354739,686.07,804,778,0
354749,707.95,804,773,0
354759,722.84,804,778,0
354769,730.04,804,772,0
354779,729.86,804,778,0
354789,721.54,804,773,0
354799,705.27,804,778,0
354809,680.80,804,772,0
354819,649.36,804,778,0
354829,611.71,804,773,0
354839,571.77,804,778,0
354849,530.95,804,772,0
354860,492.31,804,778,0
354870,456.73,804,772,0
354880,426.13,804,778,0
354890,399.99,804,772,0
354900,379.46,804,778,0
354910,363.64,804,772,0
354920,353.38,804,778,0
354930,347.48,804,772,0
354940,346.43,804,778,0
354950,348.88,804,772,0
354960,354.96,804,778,0
354970,363.15,804,771,0
354980,373.44,804,778,0
354990,384.15,804,772,0
355000,395.25,804,778,0
355010,405.24,804,772,0
355020,414.26,804,778,0
355031,421.08,804,771,0
355041,425.90,804,778,0
355051,428.03,804,771,0
355061,428.11,804,778,0
355072,425.67,804,772,0
355081,421.61,804,778,0
355091,415.69,804,772,0
355101,409.05,804,778,0
355111,401.54,804,772,0
355121,394.18,804,778,0
355131,386.67,804,772,0
355141,380.08,804,778,0
355151,373.97,804,772,0
355161,369.22,804,777,0
355171,365.17,804,772,0
355181,362.50,804,778,0
355191,360.51,804,772,0
355201,359.76,804,777,0
355211,359.49,804,772,0
355221,360.24,804,778,0
355231,361.20,804,772,0
355241,362.85,804,777,0
355251,364.57,804,772,0
355261,366.80,804,778,0
355271,368.87,804,772,0
355281,371.27,804,777,0
355291,373.33,804,772,0
355301,375.59,804,778,0
355311,377.38,804,772,0
355321,379.24,804,777,0
355331,380.54,804,772,0
355341,381.92,804,778,0
355351,382.72,804,772,0
355361,383.44,804,777,0
355372,383.65,804,773,0
355382,383.84,804,777,0
355392,383.42,804,774,0
355402,383.04,804,777,0
355412,382.47,804,775,0
355422,382.58,804,777,0
355432,383.82,804,774,0
355442,387.86,804,777,0
355452,396.05,804,775,0
355462,410.18,804,778,0
355472,431.34,804,774,0
355491,460.64,805,773,0
355494,496.79,805,778,0
355503,536.97,805,778,0
355513,578.12,805,776,0
355523,617.68,805,777,0
355533,653.39,805,776,0
355543,683.36,805,778,0
355553,706.05,805,776,0
355563,721.94,805,777,0
355573,733.06,805,777,0
355584,738.61,805,778,0
355593,737.91,805,776,0
355603,730.40,805,777,0
355613,715.58,805,776,0
355623,693.55,805,777,0
355633,664.54,805,775,0
355643,629.32,805,777,0
355653,590.74,805,777,0
355663,551.22,805,777,0
355673,512.79,805,776,0
355683,477.24,805,777,0
355693,445.58,805,776,0
355703,418.54,805,777,0
355713,396.13,805,775,0
355723,378.65,805,777,0
355733,366.07,805,776,0
355743,358.46,805,778,0
355753,355.37,805,777,0
355763,356.33,805,778,0
355773,360.64,805,776,0
355783,367.74,805,777,0
355793,376.64,805,777,0
355803,386.57,805,777,0
355813,396.25,805,776,0
355823,405.13,805,777,0
355833,412.55,805,777,0
355843,418.21,805,777,0
355853,421.79,805,776,0
355863,423.01,805,777,0
355873,421.89,805,777,0
355884,418.84,805,777,0
355894,414.26,805,777,0
355904,408.35,805,777,0
355914,401.78,805,778,0
355924,394.77,805,776,0
355934,388.15,805,777,0
355944,382.02,805,777,0
355954,376.66,805,778,0
355964,371.92,805,777,0
355974,368.30,805,777,0
355984,365.51,805,777,0
355994,363.77,805,778,0
356004,362.73,805,777,0
356014,362.64,805,777,0
356024,363.22,805,778,0
356034,364.69,805,778,0
356044,366.50,805,777,0
356055,368.75,805,777,0
356065,370.97,805,776,0
356075,373.38,805,778,0
356085,375.49,805,775,0
356096,377.66,805,778,0
356105,379.39,805,776,0
356115,381.20,805,778,0
356125,382.47,805,775,0
356135,383.74,805,778,0
356145,384.42,805,776,0
356155,384.98,805,778,0
356165,384.77,805,775,0
356175,384.37,805,778,0
356185,383.27,805,776,0
356195,382.16,805,778,0
356205,380.61,805,775,0
356215,379.49,805,778,0
356225,378.83,805,776,0
356235,380.16,805,778,0
356245,384.06,805,775,0
356255,392.70,805,778,0
356265,407.15,805,774,0
356275,429.04,805,778,0
356294,458.56,803,777,0
356297,495.16,803,780,0
356306,535.44,803,773,0
356316,577.01,803,779,0
356326,616.78,803,774,0
356336,652.67,803,779,0
356346,682.64,803,774,0
356356,705.72,803,779,0
356366,721.92,803,774,0
356376,732.74,803,779,0
356386,736.76,803,773,0
356396,733.96,803,779,0
356406,723.39,803,774,0
356416,705.19,803,778,0
356426,679.12,803,773,0
356436,646.08,803,778,0
356446,607.10,803,774,0
356456,566.18,803,779,0
356466,524.77,803,773,0
356476,485.75,803,779,0
356486,450.00,803,774,0
356496,419.23,803,778,0
356506,393.10,803,773,0
356516,372.50,803,779,0
356526,356.62,803,774,0
356536,346.24,803,778,0
356546,340.16,803,773,0
356556,338.87,803,778,0
356567,340.97,803,773,0
356577,346.72,803,778,0
356587,354.48,803,772,0
356597,364.28,803,778,0
356608,374.39,803,772,0
356617,384.95,803,778,0
356627,394.31,803,772,0
356637,402.66,803,779,0
356647,408.76,803,772,0
356657,413.12,803,778,0
356667,414.80,803,772,0
356677,414.73,803,779,0
356687,412.45,803,772,0
356697,408.97,803,778,0
356707,403.92,803,772,0
356717,398.46,803,779,0
356727,392.19,803,772,0
356737,386.31,803,778,0
356747,380.26,803,772,0
356757,375.00,803,778,0
356767,370.03,803,772,0
356777,366.29,803,779,0
356787,362.95,803,772,0
356797,360.90,803,778,0
356807,359.30,803,772,0
356817,358.74,803,778,0
356827,358.39,803,772,0
356837,358.96,803,779,0
356847,359.61,803,772,0
356857,361.02,803,778,0
356867,362.30,803,772,0
356877,364.22,803,779,0
356887,365.96,803,772,0
356897,368.15,803,778,0
356908,369.91,803,772,0
356918,371.82,803,779,0
356928,373.20,803,772,0
356938,374.77,803,778,0
356948,375.65,803,773,0
356958,376.70,803,778,0
356968,376.92,803,772,0
356978,377.16,803,779,0
356988,376.85,803,773,0
356998,376.73,803,779,0
357008,376.08,803,772,0
357018,375.84,803,778,0
357028,375.76,803,773,0
357038,377.46,803,779,0
357048,381.52,803,772,0
357058,390.11,803,778,0
357068,404.22,803,773,0
357079,426.05,803,779,0
357098,455.69,804,777,0
357101,492.56,804,779,0
357110,533.32,804,776,0
357121,575.39,804,779,0
357131,615.78,804,777,0
357141,652.36,804,778,0
357151,682.72,804,778,0
357161,705.91,804,778,0
357171,722.13,804,777,0
357181,731.31,804,778,0
357191,732.97,804,778,0
357201,726.55,804,778,0
357211,712.16,804,777,0
357221,689.82,804,778,0
357231,660.01,804,778,0
357241,623.32,804,778,0
357251,583.02,804,777,0
357261,541.74,804,778,0
357271,501.88,804,778,0
357281,464.80,804,778,0
357292,431.95,804,778,0
357302,403.81,804,778,0
357312,380.94,804,779,0
357322,363.08,804,777,0
357332,350.46,804,779,0
357342,342.74,804,778,0
357352,339.73,804,778,0
357362,340.62,804,777,0
357372,345.24,804,778,0
357382,352.54,804,778,0
357392,361.93,804,778,0
357402,372.11,804,777,0
357412,382.66,804,779,0
357422,392.49,804,778,0
357432,401.30,804,778,0
357442,408.03,804,777,0
357452,412.73,804,778,0
357463,414.74,804,776,0
357473,414.69,804,778,0
357483,412.13,804,776,0
357493,407.76,804,778,0
357504,401.57,804,775,0
357513,394.76,804,778,0
357523,387.16,804,775,0
357533,379.78,804,779,0
357543,372.43,804,775,0
357553,366.13,804,778,0
357563,360.56,804,775,0
357573,356.41,804,778,0
357583,352.99,804,775,0
357593,350.93,804,779,0
357603,349.67,804,775,0
357613,349.60,804,779,0
357623,349.93,804,775,0
357633,351.37,804,778,0
357643,353.01,804,775,0
357653,355.41,804,779,0
357663,357.73,804,775,0
357673,360.51,804,779,0
357683,363.06,804,775,0
357693,365.87,804,778,0
357703,368.09,804,775,0
357713,370.38,804,779,0
357723,371.89,804,776,0
357733,373.34,804,779,0
357743,374.01,804,775,0
357753,374.65,804,778,0
357763,374.67,804,775,0
357773,374.55,804,778,0
357783,373.70,804,775,0
357793,373.06,804,778,0
357804,372.10,804,774,0
357814,372.03,804,779,0
357824,372.88,804,773,0
357834,376.64,804,779,0
357844,384.46,804,772,0
357854,398.51,804,779,0
357864,419.36,804,773,0
357874,448.69,804,779,0
357894,485.30,795,777,0
357897,526.44,795,779,0
357906,568.78,795,772,0
357916,609.86,795,778,0
357926,647.02,795,772,0
357936,678.68,795,779,0
357946,702.99,795,772,0
357956,720.05,795,778,0
357966,730.75,795,772,0
357976,734.94,795,779,0
357986,731.70,795,772,0
357996,721.03,795,779,0
358006,702.38,795,772,0
358017,676.29,795,779,0
358027,643.21,795,773,0
358037,605.34,795,778,0
358047,564.87,795,774,0
358057,524.75,795,779,0
358067,486.34,795,773,0
358077,451.74,795,779,0
358087,421.30,795,774,0
358097,395.75,795,779,0
358107,374.79,795,773,0
358117,358.95,795,778,0
358127,347.69,795,774,0
358137,341.27,795,779,0
358147,338.75,795,773,0
358157,340.19,795,778,0
358167,344.46,795,774,0
358177,351.44,795,778,0
358188,359.84,795,775,0
358198,369.36,795,778,0
358208,378.76,795,775,0
358218,387.75,795,779,0
358228,395.37,795,777,0
358238,401.69,795,778,0
358248,405.85,795,776,0
358258,408.21,795,778,0
358268,408.36,795,777,0
358278,406.88,795,778,0
358288,403.75,795,776,0
358298,399.41,795,778,0
358308,394.06,795,777,0
358318,388.30,795,778,0
358328,382.29,795,776,0
358338,376.55,795,778,0
358348,371.07,795,777,0
358359,366.25,795,778,0
358369,362.15,795,777,0
358379,358.80,795,778,0
358389,356.38,795,778,0
358400,354.68,795,778,0
358409,353.79,795,777,0
358419,353.55,795,778,0
358429,353.90,795,778,0
358439,354.62,795,778,0
358449,355.76,795,777,0
358459,356.99,795,778,0
358469,358.45,795,778,0
358479,360.03,795,778,0
358489,361.86,795,777,0
358499,363.70,795,778,0
358509,365.81,795,778,0
358519,367.92,795,778,0
358529,370.13,795,777,0
358539,372.15,795,778,0
358549,373.99,795,778,0
358559,375.36,795,778,0
358569,376.46,795,778,0
358579,376.96,795,778,0
358589,377.06,795,778,0
358599,376.66,795,778,0
358609,376.07,795,778,0
358619,375.37,795,778,0
358629,375.26,795,778,0
358639,376.72,795,778,0
358649,381.31,795,778,0
358659,390.26,795,778,0
358669,405.57,795,778,0
358679,428.45,795,778,0
358699,459.69,805,777,0
358702,497.58,805,774,0
358711,538.98,805,779,0
358721,580.94,805,776,0
358731,621.16,805,779,0
358742,656.94,805,775,0
358751,686.49,805,779,0
358761,708.50,805,776,0
358771,723.91,805,779,0
358781,732.89,805,775,0
358791,735.37,805,779,0
358801,730.33,805,776,0
358811,717.67,805,778,0
358821,696.81,805,775,0
358831,668.63,805,779,0
358841,633.51,805,776,0
358851,594.19,805,778,0
358861,552.60,805,775,0
358871,511.92,805,779,0
358881,473.50,805,776,0
358891,439.37,805,779,0
358901,409.47,805,775,0
358912,384.77,805,779,0
358921,365.00,805,776,0
358931,350.77,805,778,0
358941,341.20,805,775,0
358951,336.68,805,778,0
358961,336.22,805,776,0
358971,339.84,805,778,0
358981,346.06,805,775,0
358991,354.74,805,778,0
359001,364.38,805,776,0
359011,374.81,805,778,0
359021,384.51,805,775,0
359031,393.53,805,778,0
359041,400.70,805,775,0
359051,406.23,805,778,0
359061,409.25,805,774,0
359071,410.33,805,778,0
359081,409.03,805,774,0
359091,406.24,805,778,0
359101,401.54,805,774,0
359111,395.98,805,778,0
359121,389.38,805,774,0
359131,382.80,805,778,0
359141,375.83,805,774,0
359151,369.41,805,778,0
359161,362.94,805,774,0
359171,357.47,805,778,0
359181,352.36,805,774,0
359191,348.40,805,778,0
359201,344.85,805,774,0
359212,342.54,805,779,0
359222,340.58,805,773,0
359232,339.89,805,778,0
359242,339.45,805,773,0
359252,340.04,805,779,0
359262,340.76,805,773,0
359272,342.33,805,778,0
359282,343.99,805,773,0
359292,346.44,805,778,0
359302,348.70,805,773,0
359312,351.54,805,778,0
359322,353.99,805,773,0
359332,356.91,805,778,0
359342,359.33,805,773,0
359352,361.93,805,778,0
359362,363.88,805,773,0
359372,365.98,805,778,0
359383,367.31,805,772,0
359393,368.59,805,778,0
359403,368.93,805,772,0
359413,369.38,805,778,0
359424,369.18,805,772,0
359433,369.21,805,778,0
359443,368.89,805,772,0
359453,369.74,805,778,0
359463,372.04,805,772,0
359473,377.90,805,778,0
359483,388.00,805,772,0
359493,404.76,805,778,0
359513,428.83,814,777,0
359516,461.71,814,778,0
359525,500.50,814,774,0
359535,542.56,814,778,0
359545,584.87,814,775,0
359555,625.11,814,778,0
359565,660.56,814,774,0
359575,689.66,814,778,0
359585,710.76,814,775,0
359596,725.53,814,778,0
359606,733.09,814,776,0
359616,732.98,814,778,0
359626,724.71,814,777,0
359636,708.17,814,778,0
359646,683.73,814,776,0
359656,652.06,814,778,0
359666,613.85,814,776,0
359676,572.71,814,778,0
359686,531.36,814,776,0
359696,492.03,814,778,0
359706,456.28,814,777,0
359716,425.00,814,778,0
359726,398.51,814,776,0
359736,377.23,814,778,0
359746,361.05,814,776,0
359756,349.85,814,778,0
359767,343.29,814,777,0
359777,341.02,814,778,0
359787,342.56,814,778,0
359797,347.40,814,778,0
359808,354.65,814,778,0
359817,363.63,814,778,0
359827,373.51,814,778,0
359837,383.64,814,778,0
359847,393.39,814,779,0
359857,402.10,814,778,0
359867,409.23,814,778,0
359877,414.30,814,778,0
359887,417.38,814,779,0
359897,418.30,814,778,0
359907,417.18,814,778,0
359917,414.04,814,778,0
359927,409.31,814,778,0
359937,403.26,814,778,0
359947,396.63,814,778,0
359957,389.62,814,778,0
359967,382.62,814,778,0
359977,375.66,814,777,0
359987,369.38,814,778,0
359997,363.95,814,778,0
360007,359.72,814,778,0
360017,356.38,814,778,0
360027,354.04,814,778,0
360037,352.61,814,778,0
360047,352.34,814,778,0
360057,352.71,814,778,0
360067,353.70,814,778,0
360077,355.16,814,778,0
360087,357.21,814,778,0
360097,359.33,814,778,0
360108,361.63,814,778,0
360118,363.72,814,777,0
360128,365.94,814,778,0
360138,367.72,814,776,0
360148,369.26,814,778,0
360158,370.21,814,777,0
360168,371.05,814,778,0
360178,371.42,814,776,0
360188,371.76,814,778,0
360198,371.66,814,777,0
360208,371.64,814,778,0
360218,371.19,814,776,0
360228,370.87,814,778,0
360238,370.40,814,777,0
360248,370.49,814,778,0
360258,371.37,814,776,0
360268,374.78,814,778,0
360279,381.74,814,775,0
360289,394.42,814,778,0
360299,413.79,814,775,0
360309,441.33,814,778,0
360329,476.41,816,777,0
360332,516.70,816,779,0
360341,558.92,816,773,0
360351,600.56,816,778,0
360361,638.79,816,772,0
360371,671.73,816,778,0
360381,697.61,816,772,0
360391,715.60,816,779,0
360401,724.93,816,772,0
360411,726.24,816,778,0
360421,718.97,816,772,0
360431,703.68,816,778,0
360441,680.20,816,772,0
360451,649.80,816,778,0
360461,613.47,816,772,0
360471,574.80,816,778,0
360481,535.18,816,772,0
360492,497.45,816,778,0
360502,462.39,816,772,0
360512,431.80,816,778,0
360522,405.20,816,772,0
360532,383.50,816,778,0
360542,366.08,816,772,0
360552,353.54,816,778,0
360562,345.11,816,772,0
360572,340.87,816,778,0
360582,339.88,816,772,0
360592,342.40,816,778,0
360602,347.25,816,772,0
360612,354.42,816,778,0
360622,362.52,816,772,0
360632,371.45,816,778,0
360642,380.10,816,772,0
360652,388.60,816,778,0
360663,395.66,816,773,0
360673,401.51,816,778,0
360683,405.30,816,774,0
360693,407.57,816,778,0
360704,407.74,816,775,0
360713,406.57,816,778,0
360723,403.53,816,774,0
360733,399.51,816,778,0
360743,394.35,816,775,0
360753,388.84,816,778,0
360763,382.85,816,774,0
360773,377.11,816,778,0
360783,371.42,816,775,0
360793,366.54,816,778,0
360803,362.05,816,774,0
360813,358.52,816,778,0
360823,355.66,816,775,0
360833,353.84,816,778,0
360843,352.64,816,774,0
360853,352.41,816,778,0
360863,352.76,816,774,0
360873,354.03,816,778,0
360883,355.61,816,774,0
360893,357.78,816,778,0
360903,360.16,816,774,0
360913,362.98,816,778,0
360923,365.65,816,774,0
360933,368.28,816,778,0
360943,370.47,816,774,0
360953,372.56,816,778,0
360963,374.10,816,774,0
360973,375.44,816,778,0
360983,376.21,816,774,0
360993,376.79,816,778,0
361004,376.90,816,776,0
361014,376.76,816,778,0
361024,376.27,816,776,0
361034,375.59,816,778,0
361044,374.81,816,777,0
361054,374.27,816,778,0
361064,374.40,816,776,0
361074,376.64,816,778,0
361084,382.36,816,777,0
361094,392.92,816,778,0
361104,409.70,816,776,0
361114,433.66,816,778,0
361134,464.92,805,777,0
361137,502.45,805,776,0
361146,543.11,805,778,0
361156,584.01,805,777,0
361166,622.75,805,778,0
361176,657.19,805,778,0
361186,684.31,805,778,0
361196,701.79,805,777,0
361206,708.71,805,778,0
361217,705.54,805,776,0
361227,693.16,805,778,0
361237,672.03,805,775,0
361247,643.26,805,778,0
361257,608.81,805,774,0
361267,571.71,805,778,0
361277,533.70,805,775,0
361287,497.23,805,778,0
361297,463.22,805,774,0
361307,433.37,805,778,0
361317,407.54,805,775,0
361327,386.64,805,778,0
361337,369.82,805,774,0
361347,357.70,805,778,0
361357,349.35,805,775,0
361367,345.13,805,778,0
361377,343.89,805,774,0
361388,345.98,805,778,0
361398,350.14,805,773,0
361408,356.61,805,778,0
361418,364.06,805,773,0
361428,372.53,805,778,0
361438,380.81,805,773,0
361448,389.01,805,778,0
361458,395.86,805,773,0
361468,401.73,805,778,0
361478,405.76,805,773,0
361488,408.40,805,778,0
361498,408.92,805,773,0
361508,408.22,805,778,0
361518,405.67,805,773,0
361528,402.38,805,778,0
361538,397.81,805,773,0
361548,392.98,805,778,0
361559,387.42,805,772,0
361569,382.28,805,778,0
361579,376.88,805,772,0
361589,372.29,805,778,0
361600,367.79,805,772,0
361609,364.42,805,778,0
361619,361.34,805,772,0
361629,359.44,805,778,0
361639,357.76,805,772,0
361649,357.19,805,778,0
361659,356.75,805,772,0
361669,357.17,805,778,0
361679,357.59,805,772,0
361689,358.61,805,778,0
361699,359.50,805,772,0
361709,360.98,805,778,0
361719,362.18,805,772,0
361729,363.84,805,778,0
361739,365.13,805,772,0
361749,366.72,805,778,0
361759,367.88,805,772,0
361769,369.24,805,778,0
361779,370.03,805,772,0
361789,371.05,805,778,0
361799,371.63,805,771,0
361809,372.56,805,778,0
361819,373.03,805,772,0
361829,373.79,805,778,0
361839,374.07,805,771,0
361849,374.74,805,778,0
361859,374.99,805,772,0
361869,375.93,805,778,0
361879,377.62,805,771,0
361889,381.98,805,778,0
361900,389.87,805,772,0
361910,403.50,805,778,0
361920,423.28,805,772,0
361939,450.49,806,772,0
361943,484.33,806,776,0
361951,523.23,806,778,0
361961,563.83,806,773,0
361971,603.74,806,778,0
361981,639.90,806,775,0
361991,669.72,806,778,0
362001,690.20,806,773,0
362011,700.21,806,778,0
362021,699.25,806,774,0
362031,688.76,806,778,0
362041,669.12,806,773,0
362051,641.87,806,778,0
362061,608.91,806,774,0
362071,573.11,806,778,0
362081,536.09,806,773,0
362091,500.32,806,778,0
362101,466.75,806,774,0
362112,437.08,806,778,0
362121,411.56,806,773,0
362131,390.82,806,778,0
362141,374.42,806,774,0
362151,362.59,806,778,0
362161,354.79,806,773,0
362171,350.95,806,778,0
362181,350.45,806,774,0
362191,353.02,806,778,0
362201,357.73,806,773,0
362211,364.54,806,778,0
362221,372.60,806,774,0
362231,381.68,806,778,0
362241,390.82,806,773,0
362251,399.79,806,778,0
362261,407.69,806,774,0
362271,414.47,806,778,0
362281,419.43,806,775,0
362291,422.69,806,778,0
362301,423.85,806,774,0
362311,423.30,806,778,0
362321,420.94,806,775,0
362331,417.61,806,778,0
362341,413.27,806,774,0
362351,408.48,806,778,0
362361,403.15,806,775,0
362371,397.83,806,778,0
362381,392.44,806,774,0
362391,387.38,806,778,0
362401,382.47,806,775,0
362412,378.17,806,778,0
362422,374.22,806,776,0
362432,371.02,806,777,0
362442,368.40,806,777,0
362452,366.57,806,778,0
362462,365.41,806,776,0
362472,364.99,806,778,0
362482,365.03,806,777,0
362492,365.67,806,778,0
362502,366.71,806,776,0
362512,368.08,806,778,0
362522,369.73,806,777,0
362532,371.35,806,778,0
362542,372.92,806,776,0
362552,374.53,806,778,0
362562,376.21,806,777,0
362572,377.78,806,778,0
362583,379.39,806,777,0
362593,380.77,806,778,0
362603,382.21,806,778,0
362613,383.35,806,777,0
362624,384.27,806,778,0
362633,384.70,806,778,0
362643,384.96,806,778,0
362653,384.89,806,777,0
362663,385.57,806,778,0
362673,387.62,806,778,0
362683,392.84,806,778,0
362693,402.49,806,777,0
362703,418.37,806,778,0
362713,441.06,806,778,0
362732,471.30,793,776,0
362735,507.68,793,774,0
362744,547.42,793,778,0
362754,587.58,793,776,0
362764,625.68,793,778,0
362774,659.37,793,775,0
362784,687.42,793,778,0
362795,706.41,793,775,0
362804,715.71,793,778,0
362814,715.46,793,775,0
362824,706.36,793,778,0
362834,688.43,793,775,0
362844,662.84,793,778,0
362854,630.10,793,776,0
362864,593.69,793,778,0
362874,555.08,793,774,0
362884,517.34,793,778,0
362894,481.75,793,775,0
362904,450.28,793,778,0
362914,422.90,793,774,0
362924,400.52,793,778,0
362934,382.66,793,775,0
362944,369.95,793,778,0
362954,361.31,793,774,0
362964,356.97,793,778,0
362974,355.99,793,775,0
362984,358.52,793,778,0
362994,363.34,793,775,0
363004,370.65,793,778,0
363014,379.07,793,775,0
363024,388.65,793,778,0
363034,398.14,793,775,0
363044,407.44,793,778,0
363054,415.49,793,775,0
363064,422.46,793,778,0
363074,427.34,793,774,0
363084,430.62,793,778,0
363095,431.59,793,774,0
363105,430.86,793,778,0
363115,428.11,793,773,0
363125,424.09,793,778,0
363136,418.62,793,772,0
363145,412.74,793,778,0
363155,406.09,793,773,0
363165,399.80,793,778,0
363175,393.43,793,772,0
363185,388.03,793,778,0
363195,382.97,793,773,0
363205,379.16,793,778,0
363215,375.73,793,772,0
363225,373.58,793,778,0
363235,371.69,793,773,0
363245,370.84,793,778,0
363255,370.12,793,772,0
363265,370.34,793,778,0
363275,370.58,793,773,0
363285,371.65,793,778,0
363295,372.57,793,772,0
363305,374.11,793,778,0
363315,375.54,793,773,0
363325,377.43,793,778,0
363335,378.97,793,772,0
363345,380.87,793,778,0
363355,382.28,793,773,0
363365,383.91,793,778,0
363375,384.97,793,772,0
363385,386.05,793,778,0
363395,386.46,793,773,0
363405,387.05,793,778,0
363415,386.91,793,772,0
363425,386.89,793,777,0
363436,386.37,793,772,0
363446,386.60,793,778,0
363456,387.53,793,771,0
363466,391.10,793,777,0
363476,398.01,793,771,0
363486,410.61,793,778,0
363496,429.54,793,772,0
363506,456.46,793,778,0
363526,490.65,793,777,0
363529,529.67,793,778,0
363538,570.23,793,773,0
363548,609.97,793,777,0
363558,646.28,793,774,0
363568,677.48,793,778,0
363578,701.85,793,773,0
363588,719.04,793,778,0
363598,728.41,793,774,0
363608,730.22,793,778,0
363618,723.98,793,773,0
363628,709.84,793,777,0
363638,687.78,793,774,0
363649,658.44,793,778,0
363659,622.61,793,774,0
363669,583.73,793,778,0
363679,543.99,793,776,0
363689,505.81,793,778,0
363699,470.64,793,774,0
363709,440.02,793,778,0
363719,414.26,793,775,0
363729,393.69,793,778,0
363739,378.10,793,774,0
363749,367.53,793,778,0
363759,361.45,793,775,0
363769,359.73,793,778,0
363779,361.44,793,774,0
363789,366.32,793,778,0
363799,373.47,793,775,0
363809,382.37,793,778,0
363820,392.03,793,776,0
363830,401.84,793,778,0
363840,410.89,793,777,0
363850,418.76,793,778,0
363860,424.92,793,777,0
363870,429.06,793,778,0
363880,431.10,793,777,0
363890,430.98,793,778,0
363900,429.02,793,777,0
363910,425.33,793,778,0
363920,420.43,793,777,0
363930,414.64,793,778,0
363940,408.32,793,777,0
363950,401.80,793,778,0
363960,395.39,793,777,0
363970,389.31,793,778,0
363980,383.95,793,777,0
363991,379.16,793,777,0
364001,375.09,793,778,0
364011,371.85,793,777,0
364021,369.45,793,778,0
364032,367.64,793,776,0
364041,366.64,793,778,0
364051,366.10,793,777,0
364061,366.29,793,778,0
364071,366.97,793,776,0
364081,368.35,793,778,0
364091,370.00,793,777,0
364101,372.36,793,778,0
364111,374.69,793,776,0
364121,377.31,793,778,0
364131,379.66,793,777,0
364141,381.95,793,778,0
364151,383.51,793,776,0
364161,384.77,793,778,0
364171,385.31,793,777,0
364181,385.65,793,778,0
364191,385.28,793,776,0
364201,384.77,793,778,0
364211,383.85,793,777,0
364221,383.30,793,778,0
364231,383.29,793,776,0
364241,385.39,793,778,0
364251,390.46,793,777,0
364261,400.74,793,778,0
364271,417.40,793,776,0
364281,442.09,793,778,0
364291,474.64,793,777,0
364310,513.02,785,776,0
364313,553.94,785,774,0
364322,595.06,785,778,0
364332,633.48,785,776,0
364342,667.15,785,778,0
364352,694.02,785,775,0
364362,713.56,785,778,0
364372,726.55,785,774,0
364382,733.07,785,778,0
364392,731.98,785,775,0
364402,723.03,785,778,0
364412,705.88,785,774,0
364422,681.18,785,778,0
364432,649.16,785,775,0
364442,611.44,785,778,0
364452,570.16,785,774,0
364462,529.02,785,778,0
364472,489.50,785,775,0
364482,453.73,785,778,0
364492,421.97,785,774,0
364503,395.62,785,778,0
364513,374.26,785,773,0
364523,358.67,785,778,0
364533,347.76,785,772,0
364544,342.21,785,778,0
364553,340.99,785,773,0
364563,344.29,785,778,0
364573,350.46,785,772,0
364583,359.54,785,778,0
364593,369.88,785,773,0
364603,381.49,785,778,0
364613,392.65,785,773,0
364623,403.39,785,778,0
364633,412.36,785,773,0
364643,419.84,785,778,0
364653,424.64,785,773,0
364663,427.53,785,778,0
364673,427.85,785,773,0
364683,426.48,785,778,0
364693,422.82,785,772,0
364703,417.90,785,778,0
364713,411.37,785,772,0
364723,404.66,785,778,0
364733,397.22,785,772,0
364743,390.30,785,778,0
364753,383.35,785,772,0
364763,377.63,785,778,0
364773,372.43,785,772,0
364783,368.61,785,778,0
364793,365.39,785,772,0
364803,363.60,785,778,0
364813,362.56,785,772,0
364823,362.95,785,778,0
364833,363.69,785,772,0
364844,365.41,785,778,0
364854,367.35,785,771,0
364864,370.07,785,778,0
364874,372.79,785,772,0
364884,375.73,785,778,0
364894,378.12,785,771,0
364904,380.61,785,778,0
364914,382.53,785,771,0
364924,384.47,785,778,0
364934,385.49,785,771,0
364944,386.33,785,778,0
364954,386.40,785,772,0
364964,386.32,785,778,0
364974,385.37,785,771,0
364984,384.57,785,778,0
364994,383.59,785,772,0
365004,383.97,785,778,0
365015,385.99,785,771,0
365025,391.87,785,778,0
365035,402.92,785,772,0
365045,421.67,785,778,0
365056,448.34,785,772,0
365065,483.17,785,778,0
365084,522.72,774,777,0
365087,564.59,774,778,0
365096,605.68,774,774,0
365106,643.66,774,778,0
365116,675.86,774,774,0
365126,701.02,774,778,0
365136,718.63,774,774,0
365146,730.95,774,778,0
365156,737.52,774,774,0
365166,737.45,774,778,0
365176,729.73,774,774,0
365186,714.38,774,778,0
365196,691.08,774,774,0
365206,660.50,774,778,0
365216,623.02,774,774,0
365227,581.70,774,778,0
365236,539.28,774,774,0
365246,498.52,774,778,0
365256,460.65,774,774,0
365266,427.28,774,778,0
365276,398.70,774,773,0
365286,375.65,774,778,0
365296,357.97,774,774,0
365306,345.76,774,778,0
365316,338.42,774,773,0
365326,336.02,774,778,0
365336,337.90,774,774,0
365346,343.67,774,778,0
365356,352.17,774,774,0
365366,362.71,774,778,0
365376,374.15,774,774,0
365386,385.98,774,778,0
365396,397.00,774,775,0
365406,406.77,774,778,0
365416,414.34,774,774,0
365426,419.72,774,778,0
365436,422.46,774,775,0
365446,422.97,774,778,0
365456,421.05,774,775,0
365466,417.18,774,778,0
365476,411.42,774,775,0
365486,404.74,774,778,0
365496,397.27,774,774,0
365506,389.69,774,778,0
365516,382.16,774,775,0
365527,375.17,774,778,0
365537,368.95,774,776,0
365547,363.86,774,778,0
365557,359.92,774,777,0
365568,357.11,774,778,0
365577,355.54,774,776,0
365587,355.08,774,778,0
365597,355.61,774,777,0
365607,356.97,774,778,0
365617,358.91,774,776,0
365627,361.29,774,778,0
365637,364.08,774,777,0
365647,366.92,774,778,0
365657,369.78,774,776,0
365667,372.50,774,778,0
365677,375.05,774,777,0
365687,377.31,774,778,0
365697,379.19,774,776,0
365707,380.63,774,778,0
365717,381.73,774,777,0
365727,382.32,774,778,0
365737,382.57,774,778,0
365747,382.31,774,777,0
365757,381.79,774,777,0
365767,381.04,774,778,0
365777,380.51,774,777,0
365787,380.70,774,778,0
365797,382.89,774,777,0
365807,388.58,774,778,0
365817,399.68,774,778,0
365827,417.56,774,778,0
365837,443.41,774,777,0
365856,477.61,772,776,0
365859,517.07,772,779,0
365868,558.88,772,778,0
365878,600.27,772,778,0
365888,638.59,772,777,0
365898,671.76,772,778,0
365908,698.06,772,776,0
365918,716.51,772,778,0
365928,729.47,772,777,0
365938,737.69,772,778,0
365948,739.62,772,776,0
365958,734.98,772,778,0
365968,722.94,772,777,0
365978,703.55,772,778,0
365988,676.47,772,776,0
365998,642.77,772,778,0
366008,603.67,772,777,0
366018,562.58,772,778,0
366028,521.26,772,776,0
366039,482.06,772,778,0
366049,445.95,772,776,0
366059,414.47,772,778,0
366069,387.33,772,775,0
366080,365.63,772,778,0
366089,349.15,772,776,0
366099,338.27,772,778,0
366109,332.36,772,775,0
366119,331.56,772,778,0
366129,334.82,772,776,0
366139,341.91,772,778,0
366149,351.06,772,775,0
366159,362.01,772,779,0
366169,373.24,772,776,0
366179,384.44,772,778,0
366189,394.16,772,775,0
366199,402.43,772,778,0
366209,408.30,772,776,0
366219,412.20,772,778,0
366229,413.47,772,775,0
366239,412.73,772,779,0
366249,409.59,772,774,0
366259,405.17,772,778,0
366269,399.21,772,775,0
366279,392.72,772,778,0
366289,385.47,772,774,0
366299,378.43,772,778,0
366309,371.53,772,775,0
366319,365.71,772,778,0
366329,360.36,772,774,0
366339,356.44,772,778,0
366349,353.22,772,775,0
366359,351.57,772,778,0
366369,350.67,772,774,0
366380,351.03,772,778,0
366390,351.66,772,773,0
366400,353.35,772,778,0
366410,355.00,772,773,0
366420,357.40,772,778,0
366430,359.51,772,773,0
366440,362.10,772,778,0
366450,364.26,772,773,0
366460,366.75,772,778,0
366470,368.67,772,773,0
366480,370.74,772,778,0
366490,372.06,772,773,0
366500,373.37,772,778,0
366510,373.95,772,773,0
366520,374.52,772,778,0
366530,374.28,772,773,0
366540,374.15,772,778,0
366551,373.42,772,772,0
366561,373.17,772,778,0
366571,373.03,772,772,0
366581,374.61,772,778,0
366592,378.37,772,772,0
366601,386.40,772,778,0
366611,399.39,772,772,0
366621,419.59,772,778,0
366631,446.71,772,772,0
366650,481.39,794,770,0
366653,520.66,794,774,0
366662,561.94,794,778,0
366672,602.29,794,772,0
366682,639.62,794,778,0
366692,671.57,794,772,0
366702,697.29,794,778,0
366712,713.53,794,772,0
366722,720.66,794,778,0
366732,718.62,794,772,0
366742,707.85,794,778,0
366752,688.31,794,772,0
366763,660.74,794,778,0
366772,625.98,794,772,0
366782,587.41,794,778,0
366792,546.53,794,772,0
366802,506.17,794,778,0
366812,467.81,794,772,0
366822,433.28,794,778,0
366832,402.90,794,772,0
366842,377.30,794,778,0
366852,356.12,794,772,0
366862,340.44,794,778,0
366872,329.51,794,772,0
366882,323.49,794,778,0
366892,321.37,794,771,0
366902,323.19,794,778,0
366912,327.89,794,772,0
366922,335.42,794,778,0
366932,344.17,794,773,0
366942,353.97,794,778,0
366952,363.58,794,772,0
366962,373.09,794,778,0
366972,381.25,794,773,0
366982,388.20,794,778,0
366992,392.90,794,772,0
367002,395.89,794,778,0
367012,396.61,794,773,0
367022,395.95,794,778,0
367032,393.48,794,772,0
367042,390.25,794,778,0
367052,385.85,794,772,0
367063,381.22,794,778,0
367073,376.10,794,774,0
367083,371.31,794,778,0
367093,366.46,794,774,0
367104,362.29,794,778,0
367113,358.39,794,774,0
367123,355.45,794,778,0
367133,353.21,794,774,0
367143,351.95,794,778,0
367153,351.28,794,774,0
367163,351.49,794,778,0
367173,352.12,794,774,0
367183,353.41,794,778,0
367193,354.96,794,774,0
367203,356.94,794,778,0
367213,359.02,794,774,0
367223,361.45,794,778,0
367233,363.68,794,774,0
367243,366.13,794,778,0
367253,368.32,794,774,0
367263,370.58,794,778,0
367273,372.55,794,776,0
367283,374.44,794,778,0
367293,375.85,794,774,0
367303,377.18,794,778,0
367313,377.98,794,775,0
367323,378.67,794,778,0
367333,378.82,794,774,0
367343,378.79,794,778,0
367353,378.42,794,775,0
367363,378.04,794,778,0
367373,377.73,794,774,0
367383,378.45,794,778,0
367393,381.19,794,776,0
367404,387.52,794,778,0
367414,398.80,794,776,0
367424,416.73,794,778,0
367443,442.06,793,777,0
367447,474.91,793,776,0
367455,513.30,793,778,0
367465,554.22,793,778,0
367475,594.95,793,778,0
367485,632.98,793,777,0
367495,666.12,793,778,0
367505,692.95,793,778,0
367515,710.80,793,778,0
367525,718.87,793,777,0
367535,717.97,793,778,0
367545,708.21,793,778,0
367555,690.14,793,778,0
367565,664.00,793,777,0
367575,631.04,793,777,0
367585,593.92,793,778,0
367595,555.37,793,778,0
367605,516.94,793,777,0
367616,480.79,793,778,0
367625,447.90,793,778,0
367635,419.56,793,778,0
367645,395.39,793,777,0
367655,376.03,793,778,0
367665,361.02,793,778,0
367675,350.60,793,778,0
367685,344.12,793,777,0
367695,341.56,793,778,0
367705,342.16,793,778,0
367715,345.80,793,778,0
367725,351.56,793,777,0
367735,359.19,793,778,0
367745,367.75,793,778,0
367755,376.91,793,778,0
367765,385.68,793,777,0
367775,393.83,793,778,0
367785,400.53,793,776,0
367795,405.81,793,778,0
367805,409.08,793,777,0
367815,410.69,793,778,0
367825,410.09,793,776,0
367835,408.09,793,778,0
367845,404.47,793,777,0
367855,400.00,793,778,0
367865,394.43,793,776,0
367875,388.73,793,778,0
367885,382.77,793,777,0
367895,377.48,793,778,0
367905,372.41,793,776,0
367916,368.13,793,778,0
367926,364.32,793,776,0
367936,361.69,793,778,0
367946,359.60,793,774,0
367956,358.61,793,778,0
367966,358.04,793,776,0
367976,358.37,793,778,0
367986,358.73,793,774,0
367996,359.88,793,778,0
368006,361.16,793,776,0
368016,363.13,793,778,0
368026,364.89,793,774,0
368036,367.11,793,778,0
368046,369.05,793,776,0
368056,371.48,793,778,0
368066,373.48,793,774,0
368076,375.48,793,778,0
368087,376.70,793,774,0
368097,377.65,793,778,0
368107,377.63,793,773,0
368117,377.44,793,778,0
368128,376.66,793,772,0
368137,376.08,793,778,0
368147,375.16,793,773,0
368157,374.89,793,778,0
368167,375.57,793,772,0
368177,378.74,793,778,0
368187,384.99,793,773,0
368197,396.56,793,778,0
368207,414.01,793,773,0
368217,438.74,793,778,0
368236,470.23,793,777,0
368239,507.83,793,780,0
368248,548.21,793,772,0
368258,588.99,793,778,0
368268,627.09,793,772,0
368278,660.84,793,778,0
368288,688.57,793,772,0
368299,708.80,793,778,0
368308,719.57,793,772,0
368318,721.67,793,778,0
368328,714.96,793,772,0
368338,700.10,793,778,0
368348,677.27,793,772,0
368358,647.40,793,778,0
368368,611.97,793,772,0
368378,574.18,793,778,0
368388,535.68,793,772,0
368398,498.96,793,778,0
368408,464.65,793,772,0
368418,434.32,793,778,0
368428,407.74,793,772,0
368438,385.75,793,778,0
368448,367.65,793,772,0
368458,354.21,793,778,0
368468,344.59,793,771,0
368478,339.40,793,778,0
368488,337.57,793,772,0
368498,339.45,793,778,0
368508,343.86,793,771,0
368518,351.14,793,778,0
368528,359.67,793,772,0
368538,369.41,793,778,0
368548,378.93,793,772,0
368558,388.25,793,778,0
368568,396.23,793,772,0
368578,403.19,793,778,0
368588,407.81,793,771,0
368599,410.69,793,778,0
368609,411.30,793,772,0
368619,410.18,793,778,0
368629,406.87,793,772,0
368640,402.41,793,778,0
368649,396.63,793,772,0
368659,390.70,793,778,0
368669,384.27,793,772,0
368679,378.32,793,778,0
368689,372.65,793,772,0
368699,368.21,793,778,0
368709,364.25,793,772,0
368719,361.43,793,778,0
368729,359.03,793,771,0
368739,357.65,793,778,0
368749,356.64,793,772,0
368759,356.41,793,778,0
368769,356.28,793,772,0
368779,357.10,793,778,0
368789,358.05,793,772,0
368799,359.67,793,778,0
368809,361.44,793,773,0
368819,363.62,793,778,0
368829,365.79,793,772,0
368839,368.25,793,778,0
368849,370.15,793,773,0
368859,372.25,793,778,0
368869,373.93,793,772,0
368879,375.67,793,778,0
368889,376.97,793,773,0
368899,378.30,793,778,0
368909,379.33,793,772,0
368919,380.43,793,778,0
368929,380.81,793,773,0
368940,381.08,793,778,0
368950,380.59,793,774,0
368960,380.07,793,778,0
368970,379.19,793,775,0
368980,378.36,793,778,0
368990,377.91,793,774,0
369000,379.31,793,778,0
369010,383.59,793,774,0
369020,392.67,793,778,0
369030,407.47,793,774,0
369049,429.70,813,773,0
369052,460.13,813,777,0
369061,497.46,813,778,0
369071,538.34,813,775,0
369081,579.94,813,778,0
369091,619.64,813,776,0
369101,655.45,813,778,0
369111,685.23,813,776,0
369121,707.62,813,778,0
369131,722.43,813,776,0
369141,729.63,813,778,0
369152,728.93,813,777,0
369161,720.46,813,778,0
369171,704.08,813,776,0
369181,679.93,813,778,0
369191,648.66,813,777,0
369201,611.91,813,778,0
369211,572.38,813,776,0
369221,532.71,813,778,0
369231,494.65,813,777,0
369241,460.00,813,778,0
369251,429.70,813,776,0
369261,404.25,813,778,0
369271,383.73,813,777,0
369281,368.34,813,778,0
369291,357.87,813,776,0
369301,351.91,813,778,0
369311,349.96,813,777,0
369321,351.60,813,778,0
369331,355.92,813,776,0
369341,362.50,813,778,0
369351,370.54,813,777,0
369361,379.46,813,778,0
369371,388.45,813,776,0
369381,396.76,813,778,0
369391,404.03,813,777,0
369401,409.98,813,778,0
369411,414.31,813,776,0
369421,417.01,813,778,0
369431,417.73,813,777,0
369441,416.70,813,778,0
369452,414.17,813,777,0
369462,410.35,813,778,0
369472,405.66,813,778,0
369482,400.15,813,777,0
369492,394.32,813,778,0
369502,388.44,813,778,0
369512,382.86,813,778,0
369522,377.72,813,777,0
369532,373.17,813,778,0
369542,369.44,813,778,0
369552,366.65,813,778,0
369562,364.57,813,777,0
369572,363.41,813,778,0
369582,362.95,813,778,0
369592,363.22,813,778,0
369602,363.92,813,777,0
369612,365.02,813,778,0
369623,366.17,813,777,0
369633,367.49,813,778,0
369643,368.54,813,776,0
369653,369.62,813,778,0
369664,370.25,813,775,0
369673,371.03,813,778,0
369683,371.45,813,776,0
369693,372.17,813,778,0
369703,372.51,813,775,0
369713,373.21,813,778,0
369723,373.71,813,776,0
369733,374.48,813,778,0
369743,374.94,813,775,0
369753,375.64,813,778,0
369763,375.79,813,776,0
369773,376.15,813,778,0
369783,375.85,813,775,0
369793,375.55,813,778,0
369803,374.87,813,776,0
369813,374.23,813,778,0
369823,373.13,813,775,0
369833,372.53,813,778,0
369843,372.46,813,776,0
369853,374.68,813,778,0
369863,379.87,813,775,0
369873,390.37,813,778,0
369892,406.84,843,777,0
369895,431.45,843,778,0
369904,463.71,843,774,0
369914,502.33,843,778,0
369924,543.84,843,774,0
369934,585.76,843,778,0
369944,625.05,843,773,0
369954,660.09,843,778,0
369964,688.43,843,774,0
369974,709.05,843,778,0
369984,720.26,843,773,0
369994,722.71,843,778,0
370004,716.24,843,773,0
370014,701.51,843,778,0
370024,678.43,843,773,0
370034,648.09,843,778,0
370044,611.33,843,773,0
370054,571.93,843,778,0
370064,531.54,843,773,0
370074,492.93,843,778,0
370084,456.74,843,773,0
370094,424.97,843,778,0
370104,397.43,843,773,0
370114,375.18,843,778,0
370124,357.34,843,773,0
370135,344.60,843,778,0
370145,335.89,843,772,0
370155,331.94,843,778,0
370165,331.48,843,772,0
370176,334.94,843,778,0
370185,340.79,843,772,0
370195,349.21,843,778,0
370205,358.79,843,772,0
370215,369.44,843,778,0
370225,379.63,843,772,0
370235,389.39,843,778,0
370245,397.20,843,772,0
370255,403.70,843,778,0
370265,407.82,843,772,0
370275,410.23,843,778,0
370285,410.25,843,772,0
370295,408.80,843,778,0
370305,405.35,843,772,0
370315,401.09,843,778,0
370325,395.53,843,772,0
370335,389.89,843,778,0
370345,383.62,843,772,0
370355,377.95,843,778,0
370365,372.14,843,772,0
370375,367.25,843,778,0
370385,362.72,843,772,0
370395,359.29,843,778,0
370405,356.29,843,772,0
370415,354.44,843,778,0
370425,352.90,843,772,0
370435,352.46,843,778,0
370445,352.19,843,772,0
370455,352.73,843,778,0
370465,353.28,843,772,0
370476,354.53,843,778,0
370486,355.74,843,772,0
370496,357.49,843,778,0
370506,359.01,843,772,0
370516,361.07,843,778,0
370526,362.68,843,772,0
370536,364.57,843,778,0
370546,365.77,843,772,0
370556,367.08,843,778,0
370566,367.96,843,772,0
370576,369.17,843,778,0
370586,369.98,843,772,0
370596,371.06,843,778,0
370606,371.81,843,772,0
370616,372.98,843,778,0
370626,373.80,843,772,0
370636,374.76,843,778,0
370647,375.09,843,773,0
370657,375.41,843,778,0
370667,375.33,843,774,0
370677,375.53,843,778,0
370688,376.31,843,774,0
370697,379.13,843,778,0
370707,385.01,843,774,0
370717,396.15,843,778,0
370737,413.72,844,777,0
370740,439.35,844,779,0
370749,472.97,844,777,0
370759,512.11,844,778,0
370769,553.73,844,778,0
370779,595.30,844,778,0
370789,633.95,844,777,0
370799,667.65,844,778,0
370809,694.50,844,778,0
370819,711.96,844,778,0
370829,719.86,844,777,0
370839,718.49,844,778,0
370849,708.01,844,777,0
370860,688.81,844,778,0
370870,661.69,844,778,0
370880,627.37,844,777,0
370890,588.90,844,778,0
370900,548.86,844,776,0
370910,509.82,844,778,0
370920,473.53,844,777,0
370930,441.48,844,778,0
370940,413.95,844,776,0
370950,391.64,844,778,0
370960,374.09,844,777,0
370970,361.51,844,778,0
370980,353.13,844,776,0
370990,349.06,844,778,0
371000,348.40,844,777,0
371010,351.19,844,778,0
371020,356.36,844,776,0
371031,363.84,844,778,0
371041,372.55,844,775,0
371051,382.37,844,778,0
371061,391.94,844,775,0
371072,401.26,844,778,0
371081,409.15,844,775,0
371091,415.75,844,778,0
371101,420.15,844,775,0
371111,422.64,844,778,0
371121,422.62,844,775,0
371131,420.93,844,778,0
371141,417.27,844,775,0
371151,412.56,844,778,0
371161,406.60,844,775,0
371171,400.21,844,778,0
371181,393.20,844,775,0
371191,386.67,844,778,0
371201,380.13,844,775,0
371211,374.43,844,778,0
371221,369.07,844,775,0
371231,364.72,844,778,0
371241,360.99,844,773,0
371251,358.64,844,778,0
371261,356.73,844,775,0
371271,356.00,844,778,0
371281,355.57,844,774,0
371291,356.21,844,778,0
371301,357.13,844,775,0
371311,358.81,844,778,0
371321,360.54,844,774,0
371331,362.90,844,778,0
371341,365.20,844,775,0
371351,368.06,844,778,0
371361,370.44,844,774,0
371372,373.05,844,778,0
371382,374.96,844,773,0
371392,376.90,844,778,0
371402,378.09,844,772,0
371412,379.22,844,778,0
371422,379.58,844,773,0
371432,380.01,844,778,0
371442,379.62,844,772,0
371452,379.39,844,778,0
371462,378.46,844,773,0
371472,377.89,844,778,0
371482,377.11,844,772,0
371492,377.33,844,778,0
371502,378.69,844,773,0
371512,383.33,844,778,0
371522,392.14,844,773,0
371532,407.49,844,778,0
371543,429.75,844,772,0
371562,460.13,826,771,0
371565,497.03,826,774,0
371574,537.82,826,778,0
371585,579.32,826,772,0
371595,619.17,826,778,0
371605,654.64,826,773,0
371615,684.28,826,778,0
371625,706.70,826,774,0
371635,720.63,826,778,0
371645,726.01,826,773,0
371655,723.05,826,778,0
371665,711.55,826,774,0
371675,692.23,826,778,0
371685,665.20,826,773,0
371695,631.54,826,778,0
371705,593.49,826,774,0
371715,554.47,826,778,0
371725,516.19,826,773,0
371735,480.90,826,778,0
371745,449.09,826,774,0
371756,422.06,826,778,0
371766,399.50,826,774,0
371776,381.87,826,778,0
371786,368.53,826,776,0
371796,359.67,826,778,0
371806,354.59,826,775,0
371816,353.30,826,778,0
371826,355.05,826,776,0
371836,359.66,826,778,0
371846,366.28,826,774,0
371856,374.38,826,778,0
371866,383.27,826,776,0
371876,392.40,826,778,0
371886,400.98,826,775,0
371896,408.62,826,778,0
371906,414.73,826,775,0
371916,419.27,826,778,0
371927,422.02,826,776,0
371937,422.83,826,777,0
371947,421.81,826,777,0
371957,419.16,826,778,0
371968,415.17,826,777,0
371977,410.19,826,778,0
371987,404.48,826,777,0
371997,398.29,826,778,0
372007,392.12,826,777,0
372017,386.17,826,778,0
372027,380.72,826,777,0
372037,375.87,826,778,0
372047,371.75,826,777,0
372057,368.44,826,778,0
372067,365.78,826,777,0
372077,363.66,826,778,0
372087,362.39,826,777,0
372097,361.80,826,777,0
372107,362.03,826,777,0
372117,362.84,826,778,0
372127,364.13,826,777,0
372137,365.85,826,778,0
372147,368.04,826,777,0
372157,370.21,826,778,0
372167,372.33,826,777,0
372177,374.08,826,777,0
372187,375.81,826,777,0
372197,377.45,826,778,0
372207,379.07,826,778,0
372217,380.42,826,778,0
372227,381.67,826,777,0
372237,382.75,826,778,0
372247,383.77,826,777,0
372257,384.31,826,778,0
372268,384.52,826,778,0
372278,384.19,826,777,0
372288,383.79,826,778,0
372298,383.12,826,776,0
372308,383.17,826,778,0
372318,384.54,826,777,0
372328,389.05,826,778,0
372338,398.12,826,776,0
372348,414.03,826,778,0
372358,437.25,826,777,0
372377,468.76,815,776,0
372380,506.33,815,775,0
372389,547.29,815,778,0
372399,588.56,815,776,0
372409,627.65,815,778,0
372419,661.87,815,775,0
372429,689.94,815,779,0
372439,710.66,815,776,0
372449,723.57,815,778,0
372459,728.29,815,775,0
372469,724.82,815,778,0
372480,712.74,815,774,0
372489,692.85,815,778,0
372499,665.17,815,775,0
372509,630.83,815,778,0
372519,591.80,815,774,0
372529,551.74,815,778,0
372539,512.43,815,775,0
372549,476.39,815,778,0
372559,443.87,815,774,0
372569,416.53,815,778,0
372579,393.82,815,775,0
372589,376.52,815,778,0
372599,363.68,815,774,0
372609,355.72,815,778,0
372619,351.73,815,775,0
372629,351.94,815,778,0
372639,355.00,815,774,0
372649,360.96,815,778,0
372659,368.64,815,775,0
372669,377.84,815,778,0
372679,387.18,815,774,0
372689,396.60,815,778,0
372699,404.91,815,775,0
372709,412.22,815,778,0
372719,417.60,815,774,0
372729,421.36,815,778,0
372739,422.92,815,775,0
372749,422.99,815,778,0
372759,420.94,815,774,0
372769,417.65,815,778,0
372780,412.74,815,773,0
372790,407.25,815,778,0
372800,400.79,815,773,0
372810,394.42,815,778,0
372820,387.78,815,772,0
372830,381.89,815,778,0
372840,376.18,815,772,0
372850,371.54,815,778,0
372860,367.39,815,772,0
372870,364.70,815,778,0
372880,362.69,815,773,0
372890,361.88,815,778,0
372900,361.53,815,772,0
372910,362.27,815,778,0
372920,363.18,815,773,0
372930,364.84,815,778,0
372940,366.22,815,772,0
372951,367.99,815,778,0
372961,369.41,815,772,0
372971,371.17,815,778,0
372981,372.41,815,772,0
372992,374.00,815,778,0
373001,375.11,815,772,0
373011,376.58,815,778,0
373021,377.56,815,772,0
373031,378.77,815,778,0
373041,379.35,815,772,0
373051,380.06,815,778,0
373061,380.13,815,772,0
373071,380.26,815,778,0
373081,379.75,815,772,0
373091,379.31,815,778,0
373101,378.32,815,772,0
373111,377.54,815,778,0
373121,376.69,815,772,0
373131,377.13,815,778,0
373141,379.32,815,771,0
373151,385.65,815,778,0
373161,397.11,815,772,0
373171,415.72,815,778,0
373190,441.78,813,777,0
373193,476.22,813,778,0
373202,515.79,813,773,0
373212,557.90,813,778,0
373222,599.16,813,772,0
373232,637.38,813,778,0
373242,670.27,813,773,0
373252,696.72,813,778,0
373262,715.40,813,772,0
373272,726.12,813,778,0
373282,728.40,813,773,0
373292,722.62,813,778,0
373302,708.34,813,772,0
373312,685.95,813,778,0
373322,655.75,813,773,0
373332,618.84,813,778,0
373342,578.22,813,772,0
373352,537.14,813,778,0
373362,496.90,813,773,0
373372,459.94,813,778,0
373382,427.04,813,772,0
373392,399.39,813,778,0
373402,376.69,813,773,0
373412,359.42,813,778,0
373422,346.78,813,772,0
373432,339.18,813,778,0
373442,335.69,813,773,0
373452,336.56,813,778,0
373463,340.63,813,774,0
373473,347.73,813,778,0
373483,356.47,813,774,0
373493,366.74,813,778,0
373504,377.40,813,776,0
373513,388.13,813,778,0
373523,397.73,813,775,0
373533,406.13,813,778,0
373543,412.60,813,776,0
373553,417.44,813,778,0
373563,420.18,813,775,0
373573,421.15,813,778,0
373583,420.21,813,776,0
373593,417.87,813,778,0
373603,413.93,813,775,0
373613,409.06,813,778,0
373623,403.26,813,776,0
373633,397.31,813,778,0
373643,391.13,813,775,0
373653,385.31,813,778,0
373663,379.69,813,776,0
373673,374.85,813,778,0
373683,370.61,813,775,0
373693,367.38,813,778,0
373703,364.87,813,776,0
373713,363.54,813,778,0
373723,363.08,813,775,0
373733,363.61,813,778,0
373743,364.93,813,776,0
373753,367.01,813,778,0
373763,369.45,813,775,0
373773,372.31,813,778,0
373783,375.00,813,776,0
373793,377.53,813,778,0
373804,379.73,813,777,0
373814,381.65,813,778,0
373824,383.26,813,777,0
373834,384.59,813,778,0
373844,385.53,813,778,0
373854,386.27,813,778,0
373864,386.75,813,777,0
373874,386.95,813,778,0
373884,386.92,813,778,0
373894,386.69,813,778,0
373904,386.27,813,777,0
373914,385.67,813,778,0
373924,385.47,813,778,0
373934,386.44,813,778,0
373944,390.30,813,777,0
373954,398.65,813,778,0
373964,413.46,813,778,0
373975,436.03,813,778,0
373994,467.27,804,776,0
373997,504.81,804,774,0
374006,545.93,804,778,0
374017,587.61,804,774,0
374027,627.15,804,778,0
374037,661.99,804,774,0
374047,690.32,804,778,0
374057,710.93,804,773,0
374067,724.49,804,778,0
374077,730.13,804,774,0
374087,727.86,804,778,0
374097,716.89,804,773,0
374107,698.11,804,778,0
374117,671.33,804,774,0
374127,637.55,804,778,0
374137,598.13,804,773,0
374147,557.12,804,778,0
374157,516.32,804,774,0
374167,478.64,804,778,0
374177,444.21,804,773,0
374188,414.83,804,778,0
374198,390.20,804,772,0
374208,371.11,804,778,0
374218,356.63,804,772,0
374228,347.19,804,778,0
374238,341.86,804,772,0
374248,341.13,804,778,0
374258,343.62,804,771,0
374268,349.56,804,778,0
374278,357.54,804,772,0
374288,367.70,804,778,0
374298,378.55,804,772,0
374308,389.96,804,778,0
374318,400.30,804,773,0
374328,409.81,804,778,0
374338,417.19,804,772,0
374348,422.75,804,778,0
374359,425.44,804,772,0
374369,426.08,804,778,0
374379,424.00,804,771,0
374389,420.31,804,778,0
374400,414.73,804,772,0
374409,408.34,804,778,0
374419,401.00,804,771,0
374429,393.75,804,778,0
374439,386.37,804,772,0
374449,379.79,804,778,0
374459,373.59,804,771,0
374469,368.66,804,778,0
374479,364.35,804,772,0
374489,361.46,804,778,0
374499,359.26,804,771,0
374509,358.37,804,778,0
374519,358.13,804,772,0
374529,358.95,804,778,0
374539,360.04,804,772,0
374549,362.08,804,778,0
374559,364.11,804,772,0
374569,366.87,804,778,0
374579,369.26,804,772,0
374589,371.93,804,778,0
374599,374.31,804,772,0
374609,376.83,804,778,0
374619,378.81,804,772,0
374629,380.79,804,778,0
374639,381.97,804,772,0
374649,383.14,804,778,0
374659,383.65,804,772,0
374669,384.14,804,778,0
374679,383.93,804,772,0
374689,383.91,804,778,0
374700,384.02,804,773,0
374710,385.99,804,778,0
374720,390.83,804,774,0
374730,401.00,804,778,0
374740,417.67,804,774,0
374750,442.63,804,778,0
374760,475.78,804,774,0
374779,514.72,785,773,0
374782,556.29,785,778,0
374791,597.94,785,778,0
374801,636.66,785,775,0
374811,670.23,785,778,0
374821,696.91,785,776,0
374831,715.83,785,778,0
374841,729.08,785,775,0
374851,738.36,785,778,0
374861,742.24,785,776,0
374871,739.98,785,778,0
374881,730.69,785,775,0
374891,714.11,785,778,0
374901,690.25,785,776,0
374912,659.44,785,778,0
374921,622.54,785,775,0
374931,582.86,785,778,0
374941,542.58,785,776,0
374951,504.00,785,778,0
374961,468.43,785,775,0
374971,437.10,785,778,0
374981,410.37,785,776,0
374991,388.49,785,778,0
375001,371.24,785,775,0
375011,358.87,785,778,0
375021,351.15,785,776,0
375031,347.93,785,777,0
375041,348.51,785,775,0
375051,352.64,785,778,0
375061,359.26,785,776,0
375071,367.84,785,778,0
375081,377.49,785,777,0
375091,387.29,785,778,0
375101,396.41,785,776,0
375111,404.30,785,778,0
375121,410.38,785,777,0
375131,414.60,785,778,0
375141,416.65,785,776,0
375151,416.54,785,778,0
375161,414.36,785,777,0
375171,410.57,785,778,0
375181,405.43,785,776,0
375191,399.30,785,778,0
375201,392.52,785,777,0
375212,385.59,785,778,0
375222,378.90,785,777,0
375232,372.63,785,778,0
375242,367.00,785,778,0
375252,362.16,785,778,0
375262,358.42,785,778,0
375272,355.64,785,778,0
375282,353.99,785,778,0
375292,353.09,785,777,0
375302,353.32,785,777,0
375312,354.25,785,778,0
375322,356.06,785,778,0
375332,358.32,785,777,0
375342,361.14,785,777,0
375352,364.05,785,778,0
375362,367.21,785,778,0
375372,370.19,785,777,0
375383,373.13,785,778,0
375393,375.49,785,777,0
375403,377.49,785,778,0
375413,378.93,785,776,0
375424,379.93,785,778,0
375433,380.34,785,777,0
375443,380.41,785,778,0
375453,380.03,785,776,0
375463,380.15,785,778,0
375473,381.18,785,777,0
375483,384.68,785,778,0
375493,392.15,785,776,0
375503,405.95,785,778,0
375513,427.01,785,777,0
375523,456.70,785,779,0
375533,493.35,785,776,0
375553,534.22,773,775,0
375556,576.19,773,773,0
375565,616.85,773,779,0
375575,653.15,773,773,0
375585,683.54,773,778,0
375596,706.30,773,772,0
375606,722.28,773,779,0
375616,732.61,773,772,0
375626,736.76,773,778,0
375636,733.40,773,772,0
375646,722.78,773,779,0
375656,704.16,773,772,0
375666,678.14,773,778,0
375676,644.76,773,772,0
375686,606.17,773,778,0
375696,564.55,773,772,0
375706,523.37,773,778,0
375716,483.62,773,772,0
375726,447.65,773,778,0
375736,415.69,773,772,0
375746,388.91,773,778,0
375756,366.65,773,771,0
375767,349.96,773,778,0
375777,338.14,773,772,0
375787,331.71,773,778,0
375797,329.66,773,772,0
375808,332.20,773,778,0
375817,338.27,773,772,0
375827,347.62,773,778,0
375837,358.58,773,772,0
375847,370.62,773,778,0
375857,382.22,773,772,0
375867,393.30,773,778,0
375877,402.38,773,772,0
375887,409.55,773,778,0
375897,413.89,773,772,0
375907,416.02,773,778,0
375917,415.59,773,772,0
375927,413.14,773,778,0
375937,408.47,773,772,0
375947,402.84,773,778,0
375957,396.25,773,772,0
375967,389.74,773,778,0
375977,383.22,773,773,0
375987,377.54,773,778,0
375997,372.58,773,772,0
376007,369.02,773,778,0
376017,366.18,773,773,0
376027,364.59,773,778,0
376037,363.60,773,772,0
376047,363.59,773,778,0
376057,363.97,773,773,0
376067,365.31,773,778,0
376077,366.76,773,772,0
376087,368.84,773,778,0
376097,370.82,773,773,0
376108,373.15,773,778,0
376118,375.33,773,774,0
376128,377.55,773,778,0
376138,379.31,773,775,0
376148,380.89,773,778,0
376158,381.82,773,774,0
376168,382.60,773,778,0
376178,382.89,773,775,0
376188,382.93,773,778,0
376198,382.61,773,774,0
376208,382.12,773,778,0
376218,381.53,773,775,0
376228,381.24,773,778,0
376238,381.38,773,774,0
376248,383.11,773,778,0
376258,387.49,773,774,0
376268,396.64,773,778,0
376279,412.22,773,776,0
376289,435.86,773,778,0
376299,468.13,773,777,0
376318,506.49,766,776,0
376322,547.96,766,779,0
376331,590.01,766,777,0
376341,629.74,766,778,0
376351,664.70,766,777,0
376361,692.82,766,778,0
376371,712.89,766,777,0
376381,726.94,766,778,0
376391,736.77,766,777,0
376401,741.64,766,778,0
376411,740.42,766,777,0
376421,732.32,766,778,0
376431,716.58,766,776,0
376441,693.35,766,778,0
376451,662.95,766,777,0
376461,625.98,766,778,0
376471,584.84,766,776,0
376481,542.50,766,778,0
376492,500.82,766,776,0
376502,462.13,766,778,0
376512,427.21,766,775,0
376522,397.23,766,778,0
376532,372.22,766,774,0
376542,353.08,766,778,0
376552,339.17,766,775,0
376562,331.11,766,778,0
376572,327.86,766,774,0
376582,329.62,766,778,0
376592,334.83,766,775,0
376602,343.32,766,778,0
376612,353.56,766,774,0
376622,365.30,766,778,0
376632,376.87,766,775,0
376642,388.05,766,778,0
376652,397.38,766,774,0
376663,404.98,766,778,0
376673,409.87,766,773,0
376683,412.48,766,778,0
376693,412.12,766,772,0
376704,409.81,766,778,0
376713,405.33,766,773,0
376723,399.79,766,778,0
376733,392.82,766,773,0
376743,385.68,766,778,0
376753,378.06,766,773,0
376763,371.23,766,778,0
376773,364.60,766,773,0
376783,359.19,766,778,0
376793,354.29,766,773,0
376803,351.03,766,778,0
376813,348.54,766,772,0
376823,347.52,766,778,0
376833,347.11,766,773,0
376843,348.15,766,778,0
376853,349.60,766,773,0
376863,352.08,766,778,0
376873,354.50,766,772,0
376883,357.69,766,778,0
376893,360.70,766,772,0
376903,364.22,766,778,0
376913,367.07,766,772,0
376923,369.96,766,778,0
376933,372.03,766,773,0
376943,374.08,766,778,0
376953,375.13,766,772,0
376963,376.03,766,778,0
376973,375.94,766,773,0
376983,375.78,766,778,0
376993,374.86,766,772,0
377004,374.26,766,778,0
377014,373.58,766,772,0
377024,374.35,766,778,0
377034,377.25,766,772,0
377044,384.59,766,778,0
377054,397.10,766,772,0
377064,417.25,766,778,0
377074,445.42,766,772,0
377094,481.64,775,771,0
377097,522.46,775,776,0
377106,565.09,775,778,0
377116,606.42,775,774,0
377126,644.52,775,778,0
377136,676.72,775,773,0
377146,701.71,775,778,0
377156,719.19,775,774,0
377166,731.39,775,778,0
377176,737.92,775,773,0
377186,738.07,775,778,0
377196,730.94,775,774,0
377206,716.34,775,778,0
377217,694.12,775,775,0
377227,664.69,775,778,0
377237,628.57,775,776,0
377247,588.41,775,778,0
377257,546.72,775,777,0
377267,506.00,775,778,0
377277,467.56,775,776,0
377287,432.80,775,778,0
377297,402.31,775,777,0
377307,376.63,775,778,0
377317,355.95,775,776,0
377327,340.50,775,778,0
377337,329.98,775,777,0
377347,324.41,775,778,0
377357,323.35,775,776,0
377367,326.28,775,778,0
377377,332.41,775,776,0
377388,340.90,775,778,0
377398,350.83,775,778,0
377408,361.30,775,778,0
377418,371.54,775,778,0
377428,380.59,775,778,0
377438,388.13,775,778,0
377448,393.57,775,778,0
377458,397.00,775,778,0
377468,398.07,775,778,0
377478,397.37,775,778,0
377488,394.86,775,778,0
377498,391.17,775,778,0
377508,386.15,775,777,0
377518,380.49,775,777,0
377528,374.43,775,778,0
377538,368.69,775,778,0
377548,363.17,775,778,0
377559,358.36,775,778,0
377569,354.22,775,777,0
377579,351.33,775,778,0
377589,349.26,775,776,0
377600,348.19,775,779,0
377609,347.71,775,777,0
377619,348.05,775,778,0
377629,348.68,775,776,0
377639,350.02,775,778,0
377649,351.51,775,777,0
377659,353.63,775,778,0
377669,355.71,775,776,0
377679,358.24,775,778,0
377689,360.57,775,777,0
377699,363.18,775,778,0
377709,365.40,775,776,0
377719,367.68,775,778,0
377729,369.49,775,777,0
377739,371.31,775,778,0
377749,372.51,775,776,0
377759,373.55,775,778,0
377769,373.95,775,776,0
377779,374.22,775,778,0
377789,373.77,775,776,0
377799,373.15,775,778,0
377809,372.03,775,775,0
377819,371.25,775,778,0
377829,370.92,775,776,0
377839,372.83,775,778,0
377849,377.90,775,775,0
377859,388.17,775,778,0
377869,404.62,775,776,0
377888,428.78,795,774,0
377891,460.26,795,773,0
377900,498.54,795,778,0
377910,539.90,795,774,0
377920,581.68,795,778,0
377930,621.12,795,774,0
377940,656.27,795,778,0
377950,685.20,795,774,0
377960,705.58,795,778,0
377970,715.39,795,773,0
377980,715.70,795,778,0
377990,706.88,795,774,0
378000,689.82,795,778,0
378010,664.58,795,773,0
378020,632.40,795,778,0
378030,595.68,795,774,0
378040,557.63,795,778,0
378050,519.64,795,773,0
378060,483.96,795,778,0
378071,450.93,795,773,0
378081,422.15,795,778,0
378091,397.12,795,772,0
378101,376.64,795,778,0
378112,359.82,795,772,0
378121,347.40,795,778,0
378131,338.37,795,772,0
378141,333.41,795,778,0
378151,331.45,795,772,0
378161,332.77,795,778,0
378171,336.05,795,772,0
378181,341.69,795,778,0
378191,348.43,795,772,0
378201,356.53,795,778,0
378211,364.56,795,772,0
378221,372.70,795,778,0
378231,379.86,795,772,0
378241,386.42,795,778,0
378251,391.22,795,772,0
378261,394.71,795,778,0
378271,395.83,795,772,0
378281,395.45,795,778,0
378291,393.04,795,772,0
378301,389.56,795,778,0
378311,384.42,795,772,0
378321,378.98,795,778,0
378331,372.73,795,772,0
378341,366.94,795,778,0
378351,361.13,795,772,0
378361,356.33,795,778,0
378371,352.08,795,772,0
378381,349.35,795,778,0
378391,347.23,795,772,0
378401,346.56,795,778,0
378412,346.57,795,771,0
378422,347.72,795,778,0
378432,349.26,795,772,0
378442,351.63,795,778,0
378452,354.01,795,772,0
378462,356.92,795,778,0
378472,359.52,795,772,0
378482,362.32,795,778,0
378492,364.62,795,772,0
378502,367.05,795,778,0
378512,368.92,795,772,0
378522,370.83,795,778,0
378532,372.21,795,772,0
378542,373.90,795,778,0
378552,375.13,795,772,0
378562,376.59,795,778,0
378572,377.57,795,771,0
378583,378.69,795,778,0
378593,379.34,795,773,0
378603,380.05,795,778,0
378613,380.08,795,773,0
378624,380.01,795,778,0
378633,379.37,795,773,0
378643,378.61,795,778,0
378653,377.49,795,773,0
378663,376.95,795,778,0
378673,377.40,795,773,0
378683,380.53,795,778,0
378693,387.45,795,773,0
378703,400.26,795,778,0
378713,419.64,795,773,0
378732,446.87,844,772,0
378735,481.37,844,777,0
378744,520.94,844,778,0
378754,562.32,844,775,0
378764,603.02,844,778,0
378774,640.17,844,776,0
378784,672.35,844,778,0
378795,696.84,844,776,0
378804,711.85,844,778,0
378814,717.08,844,776,0
378824,713.24,844,778,0
378834,700.57,844,776,0
378844,679.91,844,778,0
378854,651.70,844,775,0
378864,617.80,844,778,0
378874,580.58,844,776,0
378884,542.65,844,778,0
378894,505.81,844,775,0
378904,471.92,844,778,0
378914,441.65,844,776,0
378924,415.70,844,778,0
378934,394.19,844,775,0
378944,377.16,844,778,0
378954,364.34,844,777,0
378964,355.62,844,778,0
378974,350.42,844,775,0
378984,348.67,844,778,0
378994,349.97,844,776,0
379004,353.96,844,778,0
379014,359.93,844,775,0
379024,367.19,844,778,0
379034,375.06,844,776,0
379044,383.32,844,778,0
379054,391.15,844,775,0
379064,398.18,844,778,0
