Time,PPG,IBI,GSR,GSR_Event
839168,367.27,913,761,0
839177,365.22,913,754,0
839187,365.19,913,761,0
839197,367.02,913,755,0
839207,370.36,913,761,0
839217,374.79,913,754,0
839227,379.96,913,761,0
839237,388.37,913,756,0
839247,397.13,913,761,0
839257,405.79,913,753,0
839267,413.52,913,761,0
839277,420.10,913,755,0
839287,424.87,913,761,0
839297,427.78,913,754,0
839307,428.70,913,761,0
839317,427.85,913,755,0
839327,425.62,913,761,0
839337,422.52,913,756,0
839347,418.85,913,761,0
839357,415.21,913,755,0
839367,411.59,913,761,0
839377,408.11,913,756,0
839387,404.78,913,761,0
839397,401.63,913,755,0
839407,398.53,913,761,0
839417,396.35,913,757,0
839427,394.83,913,761,0
839437,393.94,913,756,0
839447,393.44,913,761,0
839457,393.35,913,757,0
839468,393.33,913,761,0
839478,393.75,913,758,0
839488,393.39,913,761,0
839498,392.76,913,759,0
839508,391.76,913,761,0
839518,391.02,913,758,0
839528,390.54,913,761,0
839538,390.51,913,759,0
839548,390.44,913,761,0
839558,390.69,913,758,0
839568,390.87,913,761,0
839578,391.30,913,759,0
839588,391.42,913,761,0
839598,391.55,913,758,0
839608,391.56,913,761,0
839618,391.82,913,759,0
839628,392.00,913,761,0
839639,392.52,913,760,0
839649,392.92,913,761,0
839659,393.76,913,761,0
839669,396.44,913,762,0
839680,401.20,913,763,0
839689,406.49,913,762,0
839699,411.83,913,762,0
839709,416.34,913,761,0
839719,420.39,913,762,0
839729,423.19,913,762,0
839739,424.16,913,763,0
839758,422.91,844,763,0
839761,423.07,844,765,0
839770,425.79,844,760,0
839780,432.92,844,763,0
839790,444.95,844,759,0
839800,463.43,844,764,0
839810,487.00,844,760,0
839820,516.10,844,764,0
839830,547.36,844,759,0
839840,579.78,844,764,0
839851,610.27,844,757,0
839860,637.32,844,764,0
839870,657.92,844,758,0
839880,671.49,844,764,0
839890,676.06,844,757,0
839900,672.35,844,763,0
839910,659.86,844,758,0
839920,640.79,844,764,0
839930,615.65,844,757,0
839940,587.17,844,763,0
839950,556.09,844,758,0
839960,525.21,844,763,0
839970,494.93,844,757,0
839980,467.44,844,763,0
839990,442.45,844,758,0
840000,421.40,844,763,0
840010,403.58,844,757,0
840020,389.99,844,763,0
840030,379.75,844,758,0
840040,373.44,844,764,0
840050,369.79,844,756,0
840060,369.47,844,763,0
840070,371.21,844,758,0
840080,375.48,844,763,0
840090,380.99,844,757,0
840100,388.02,844,763,0
840110,395.30,844,758,0
840120,403.27,844,763,0
840130,410.35,844,756,0
840140,417.23,844,763,0
840151,422.69,844,755,0
840161,427.41,844,763,0
840171,430.29,844,755,0
840181,432.26,844,763,0
840192,432.61,844,753,0
840201,432.43,844,763,0
840211,430.80,844,755,0
840221,428.37,844,763,0
840231,424.62,844,754,0
840241,420.83,844,764,0
840251,416.60,844,755,0
840261,412.60,844,764,0
840271,408.22,844,754,0
840281,404.30,844,764,0
840291,400.48,844,755,0
840301,397.55,844,763,0
840311,394.60,844,754,0
840321,392.11,844,764,0
840331,389.50,844,755,0
840341,387.68,844,763,0
840351,385.93,844,754,0
840361,385.10,844,764,0
840371,384.34,844,755,0
840381,384.28,844,763,0
840391,384.28,844,754,0
840401,384.93,844,763,0
840411,385.46,844,755,0
840421,386.52,844,764,0
840431,387.18,844,754,0
840441,388.16,844,763,0
840451,388.92,844,755,0
840461,390.15,844,763,0
840471,391.09,844,754,0
840481,392.26,844,764,0
840492,393.21,844,754,0
840502,394.48,844,763,0
840512,395.41,844,754,0
840522,396.57,844,764,0
840532,397.81,844,754,0
840542,399.54,844,764,0
840552,401.01,844,754,0
840562,402.42,844,764,0
840572,403.41,844,754,0
840582,404.44,844,764,0
840592,404.87,844,754,0
840602,404.48,844,764,0
840612,403.31,844,754,0
840622,401.97,844,764,0
840632,400.44,844,754,0
840642,399.88,844,764,0
840652,401.03,844,754,0
840663,405.48,844,764,0
840682,414.55,924,763,0
840685,429.86,924,765,0
840694,451.93,924,758,0
840705,480.79,924,764,0
840715,515.10,924,759,0
840725,552.27,924,764,0
840735,589.64,924,760,0
840745,624.85,924,764,0
840755,655.37,924,759,0
840765,678.57,924,764,0
840775,693.19,924,760,0
840785,698.02,924,764,0
840795,694.15,924,758,0
840805,682.06,924,764,0
840815,662.37,924,760,0
840825,635.86,924,763,0
840835,605.13,924,759,0
840845,571.88,924,764,0
840855,538.31,924,760,0
840865,505.48,924,763,0
840876,475.08,924,761,0
840886,447.84,924,763,0
840896,424.70,924,762,0
840906,405.51,924,763,0
840916,390.48,924,763,0
840926,379.07,924,763,0
840936,371.63,924,762,0
840946,367.67,924,763,0
840956,367.43,924,763,0
840966,370.04,924,763,0
840976,375.43,924,762,0
840986,382.67,924,763,0
840996,391.86,924,763,0
841006,401.67,924,763,0
841016,411.76,924,762,0
841026,420.96,924,763,0
841036,429.24,924,763,0
841047,435.64,924,762,0
841057,440.59,924,763,0
841067,443.29,924,761,0
841077,444.40,924,763,0
841088,443.38,924,759,0
841097,441.08,924,763,0
841107,437.16,924,761,0
841117,432.48,924,763,0
841127,426.51,924,759,0
841137,420.48,924,763,0
841147,413.78,924,761,0
841157,407.50,924,763,0
841167,401.14,924,758,0
841177,395.87,924,763,0
841187,391.11,924,761,0
841197,387.65,924,763,0
841207,384.84,924,759,0
841217,384.12,924,764,0
841227,384.34,924,761,0
841237,385.91,924,764,0
841247,387.35,924,759,0
841257,389.26,924,764,0
841267,390.85,924,761,0
841277,392.70,924,764,0
841287,393.30,924,759,0
841297,393.68,924,764,0
841307,393.31,924,761,0
841317,393.13,924,764,0
841327,392.36,924,758,0
841337,391.95,924,764,0
841347,391.11,924,761,0
841357,390.82,924,764,0
841367,390.32,924,759,0
841377,390.39,924,764,0
841388,390.28,924,757,0
841398,390.88,924,764,0
841408,391.17,924,755,0
841418,391.98,924,764,0
841428,392.33,924,755,0
841438,393.13,924,764,0
841448,393.22,924,755,0
841458,393.71,924,764,0
841468,393.63,924,755,0
841478,394.00,924,764,0
841488,393.78,924,755,0
841498,393.76,924,764,0
841508,393.10,924,755,0
841518,392.94,924,764,0
841528,392.75,924,756,0
841538,394.24,924,764,0
841548,397.72,924,755,0
841559,405.48,924,764,0
841578,418.41,896,763,0
841581,438.56,896,763,0
841590,465.65,896,754,0
841601,499.52,896,764,0
841611,536.91,896,754,0
841621,575.51,896,764,0
841631,612.56,896,755,0
841641,646.12,896,764,0
841651,673.94,896,754,0
841661,694.44,896,764,0
841671,705.80,896,754,0
841681,708.73,896,763,0
841691,703.62,896,754,0
841701,690.84,896,764,0
841711,670.53,896,754,0
841721,643.33,896,763,0
841731,610.91,896,754,0
841741,575.93,896,763,0
841751,539.99,896,754,0
841761,504.98,896,763,0
841772,472.29,896,755,0
841782,443.27,896,763,0
841792,418.42,896,756,0
841802,398.41,896,763,0
841812,383.11,896,757,0
841822,372.67,896,764,0
841832,366.38,896,756,0
841842,363.87,896,763,0
841852,364.63,896,758,0
841862,368.30,896,763,0
841872,373.95,896,756,0
841882,382.11,896,765,0
841892,393.43,896,759,0
841902,406.63,896,765,0
841912,420.41,896,758,0
841922,433.49,896,765,0
841932,445.09,896,759,0
841943,454.36,896,765,0
841953,460.12,896,761,0
841963,461.03,896,765,0
841973,458.23,896,762,0
841984,452.42,896,765,0
841993,444.88,896,760,0
842003,436.05,896,764,0
842013,426.95,896,762,0
842023,417.79,896,765,0
842033,409.11,896,760,0
842043,401.02,896,764,0
842053,394.07,896,762,0
842063,388.01,896,765,0
842073,383.29,896,760,0
842083,379.60,896,765,0
842093,377.11,896,762,0
842103,375.32,896,764,0
842113,374.32,896,760,0
842123,373.80,896,764,0
842133,373.99,896,762,0
842143,374.46,896,764,0
842153,375.44,896,763,0
842163,376.42,896,764,0
842173,377.71,896,762,0
842183,378.95,896,764,0
842193,380.51,896,763,0
842203,381.90,896,764,0
842213,383.30,896,762,0
842223,384.37,896,764,0
842233,385.37,896,763,0
842243,386.29,896,764,0
842253,387.40,896,762,0
842263,388.10,896,764,0
842273,388.84,896,763,0
842284,389.23,896,764,0
842294,389.68,896,764,0
842304,389.77,896,763,0
842314,390.01,896,764,0
842324,389.79,896,762,0
842334,389.86,896,764,0
842344,389.47,896,763,0
842354,389.37,896,765,0
842364,388.83,896,762,0
842374,388.84,896,764,0
842384,388.50,896,763,0
842394,388.52,896,764,0
842404,388.19,896,762,0
842414,388.22,896,764,0
842424,387.86,896,764,0
842434,388.33,896,764,0
842444,389.34,896,762,0
842455,392.80,896,764,0
842465,399.59,896,760,0
842475,411.97,896,765,0
842485,430.49,896,759,0
842505,456.57,926,757,0
842508,489.36,926,755,0
842517,526.79,926,765,0
842527,565.68,926,755,0
842537,603.75,926,765,0
842547,638.24,926,755,0
842557,667.82,926,764,0
842567,690.46,926,755,0
842577,704.42,926,764,0
842587,709.74,926,755,0
842597,707.03,926,765,0
842607,696.14,926,755,0
842617,677.67,926,764,0
842627,651.71,926,755,0
842637,620.08,926,764,0
842647,584.66,926,755,0
842657,548.16,926,764,0
842668,511.81,926,754,0
842678,478.10,926,764,0
842688,447.51,926,754,0
842698,421.64,926,764,0
842708,400.02,926,754,0
842718,383.39,926,765,0
842728,370.97,926,754,0
842738,363.31,926,764,0
842748,359.32,926,754,0
842758,359.18,926,764,0
842768,361.65,926,754,0
842778,366.64,926,764,0
842788,373.22,926,754,0
842798,381.17,926,764,0
842808,389.52,926,754,0
842818,398.02,926,764,0
842828,405.99,926,754,0
842839,413.36,926,764,0
842849,419.51,926,755,0
842859,424.41,926,764,0
842869,427.72,926,755,0
842880,429.39,926,764,0
842889,429.44,926,755,0
842899,428.02,926,764,0
842909,425.02,926,755,0
842919,420.90,926,764,0
842929,415.66,926,755,0
842939,409.85,926,764,0
842949,403.89,926,755,0
842959,398.05,926,764,0
842969,392.42,926,755,0
842979,387.45,926,764,0
842989,383.07,926,755,0
842999,379.67,926,764,0
843009,377.02,926,754,0
843019,375.13,926,764,0
843029,373.89,926,755,0
843039,373.41,926,764,0
843049,373.50,926,756,0
843059,374.12,926,764,0
843069,375.07,926,755,0
843079,376.34,926,764,0
843089,377.73,926,756,0
843099,379.27,926,764,0
843109,380.60,926,755,0
843119,381.84,926,764,0
843129,382.83,926,756,0
843139,383.78,926,764,0
843149,384.32,926,755,0
843159,384.61,926,764,0
843169,384.81,926,756,0
843180,385.13,926,764,0
843190,385.39,926,757,0
843200,385.70,926,764,0
843210,386.05,926,759,0
843220,386.59,926,764,0
843230,387.31,926,757,0
843240,387.90,926,764,0
843250,388.49,926,759,0
843260,388.90,926,764,0
843270,389.36,926,757,0
843280,389.55,926,764,0
843290,389.81,926,759,0
843300,389.87,926,764,0
843310,389.82,926,757,0
843320,389.53,926,763,0
843330,389.20,926,759,0
843340,388.71,926,764,0
843351,388.24,926,760,0
843361,388.08,926,763,0
843371,389.69,926,761,0
843381,394.20,926,763,0
843392,403.39,926,762,0
843401,418.45,926,763,0
843420,440.47,916,763,0
843423,469.86,916,760,0
843432,505.43,916,764,0
843442,543.96,916,763,0
843452,582.93,916,764,0
843462,619.59,916,763,0
843472,652.11,916,764,0
843482,678.78,916,763,0
843492,698.47,916,764,0
843502,709.35,916,763,0
843512,712.24,916,764,0
843522,707.24,916,763,0
843532,694.87,916,764,0
843542,674.77,916,763,0
843552,647.79,916,764,0
843563,614.55,916,761,0
843572,578.77,916,764,0
843582,541.68,916,763,0
843592,505.65,916,764,0
843602,471.51,916,761,0
843612,441.40,916,764,0
843622,415.35,916,763,0
843632,394.50,916,764,0
843642,377.94,916,761,0
843652,366.51,916,764,0
843662,359.25,916,763,0
843672,356.51,916,764,0
843682,357.05,916,761,0
843692,360.98,916,764,0
843702,367.03,916,763,0
843712,375.29,916,764,0
843722,384.29,916,761,0
843732,394.23,916,764,0
843742,403.59,916,762,0
843752,412.50,916,764,0
843762,419.85,916,761,0
843772,426.15,916,764,0
843782,430.52,916,763,0
843792,433.54,916,764,0
843802,434.32,916,761,0
843812,433.75,916,764,0
843822,431.55,916,763,0
843832,428.52,916,764,0
843842,423.86,916,761,0
843852,418.63,916,764,0
843863,412.36,916,759,0
843873,406.34,916,764,0
843883,400.15,916,757,0
843893,394.62,916,764,0
843904,389.20,916,756,0
843913,385.03,916,764,0
843923,381.29,916,757,0
843933,378.89,916,764,0
843943,376.69,916,756,0
843953,375.67,916,764,0
843963,374.78,916,757,0
843973,374.89,916,764,0
843983,375.05,916,756,0
843993,376.02,916,764,0
844003,376.92,916,757,0
844013,378.44,916,764,0
844023,379.51,916,756,0
844033,381.24,916,764,0
844043,382.58,916,757,0
844053,384.25,916,764,0
844063,385.29,916,756,0
844073,386.53,916,764,0
844083,387.23,916,757,0
844093,388.19,916,764,0
844103,388.39,916,756,0
844113,388.70,916,764,0
844123,388.32,916,757,0
844133,388.22,916,763,0
844143,387.64,916,756,0
844153,387.45,916,764,0
844163,386.80,916,757,0
844173,386.65,916,763,0
844183,386.32,916,756,0
844193,386.61,916,764,0
844204,386.60,916,755,0
844214,386.98,916,763,0
844224,386.98,916,754,0
844234,387.20,916,763,0
844244,386.89,916,754,0
844254,386.79,916,763,0
844264,386.21,916,754,0
844274,386.23,916,764,0
844284,386.68,916,754,0
844294,388.96,916,763,0
844304,393.86,916,754,0
844314,403.46,916,764,0
844324,418.45,916,754,0
844343,440.39,923,753,0
844346,469.28,923,755,0
844355,504.30,923,764,0
844365,542.35,923,754,0
844375,581.08,923,763,0
844385,617.70,923,754,0
844395,650.40,923,763,0
844405,677.50,923,754,0
844416,697.96,923,763,0
844425,710.10,923,753,0
844435,714.36,923,764,0
844445,710.48,923,753,0
844455,698.72,923,764,0
844465,679.35,923,753,0
844475,652.84,923,763,0
844485,619.72,923,753,0
844495,582.95,923,763,0
844505,544.48,923,753,0
844515,507.00,923,763,0
844525,471.69,923,753,0
844535,440.20,923,764,0
844545,413.09,923,753,0
844555,391.17,923,763,0
844565,374.19,923,753,0
844575,362.52,923,763,0
844585,355.59,923,754,0
844595,353.48,923,764,0
844605,355.01,923,753,0
844615,359.89,923,763,0
844625,367.13,923,753,0
844635,376.39,923,763,0
844645,386.69,923,753,0
844655,397.54,923,763,0
844665,407.96,923,754,0
844675,417.70,923,763,0
844685,425.93,923,753,0
844695,432.68,923,763,0
844705,437.32,923,753,0
844716,440.14,923,763,0
844726,440.70,923,754,0
844736,439.37,923,763,0
844746,436.22,923,755,0
844756,431.82,923,763,0
844766,426.09,923,754,0
844776,419.81,923,763,0
844786,412.96,923,755,0
844796,406.16,923,763,0
844806,399.56,923,754,0
844816,393.60,923,763,0
844826,388.28,923,755,0
844836,383.91,923,763,0
844846,380.38,923,754,0
844856,377.69,923,763,0
844866,375.73,923,755,0
844876,374.52,923,763,0
844887,373.94,923,756,0
844897,373.83,923,763,0
844907,374.27,923,757,0
844917,375.17,923,763,0
844928,376.49,923,759,0
844937,378.14,923,763,0
844947,379.99,923,757,0
844957,383.46,923,765,0
844967,388.51,923,760,0
844977,394.14,923,764,0
844987,399.71,923,759,0
844997,404.86,923,764,0
845007,409.40,923,760,0
845017,413.18,923,764,0
845027,414.45,923,759,0
845037,413.33,923,764,0
845047,410.75,923,760,0
845057,407.09,923,764,0
845067,403.12,923,759,0
845077,399.01,923,764,0
845087,395.24,923,760,0
845097,391.74,923,764,0
845107,388.99,923,758,0
845117,386.72,923,764,0
845127,385.30,923,760,0
845137,384.27,923,764,0
845147,383.89,923,758,0
845157,383.45,923,764,0
845167,383.49,923,760,0
845177,383.77,923,764,0
845187,385.30,923,758,0
845197,389.28,923,764,0
845207,397.34,923,760,0
845217,410.87,923,764,0
845228,431.78,923,761,0
845238,460.39,923,764,0
845248,495.71,923,763,0
845267,534.76,924,762,0
845271,574.64,924,764,0
845279,612.85,924,764,0
845289,647.14,924,764,0
845299,675.43,924,762,0
845309,696.73,924,764,0
845319,711.59,924,764,0
845329,719.77,924,764,0
845339,720.48,924,762,0
845349,713.78,924,764,0
845359,699.28,924,764,0
845369,677.46,924,764,0
845379,648.23,924,762,0
845389,612.59,924,764,0
845399,573.24,924,763,0
845409,533.52,924,764,0
845419,494.88,924,762,0
845429,459.69,924,764,0
845440,428.50,924,760,0
845449,402.89,924,764,0
845459,382.39,924,762,0
845469,367.70,924,764,0
845479,357.89,924,760,0
845489,353.34,924,764,0
845499,352.55,924,762,0
845509,355.73,924,764,0
845519,361.38,924,760,0
845529,369.62,924,764,0
845539,378.91,924,762,0
845549,389.31,924,764,0
845559,399.24,924,760,0
845569,409.03,924,764,0
845579,417.29,924,761,0
845589,424.40,924,764,0
845599,429.25,924,760,0
845609,432.52,924,764,0
845619,433.52,924,762,0
845629,433.24,924,764,0
845639,430.94,924,760,0
845649,427.57,924,764,0
845659,422.73,924,762,0
845669,417.45,924,764,0
845679,411.15,924,760,0
845689,404.80,924,764,0
845699,397.96,924,761,0
845709,391.76,924,764,0
845719,385.57,924,759,0
845729,380.52,924,764,0
845740,375.82,924,758,0
845750,372.49,924,764,0
845760,369.64,924,756,0
845770,368.25,924,764,0
845780,367.36,924,755,0
845790,367.85,924,764,0
845800,368.45,924,756,0
845810,369.86,924,764,0
845820,371.15,924,755,0
845830,373.16,924,764,0
845840,374.70,924,755,0
845850,376.42,924,764,0
845860,377.53,924,755,0
845870,378.96,924,764,0
845880,379.83,924,755,0
845890,381.04,924,764,0
845900,381.75,924,755,0
845911,382.81,924,764,0
845921,383.56,924,754,0
845931,384.46,924,764,0
845941,384.92,924,754,0
845952,385.89,924,764,0
845961,386.35,924,754,0
845971,387.15,924,764,0
845981,387.40,924,754,0
845991,387.84,924,764,0
846001,387.80,924,754,0
846011,387.95,924,764,0
846021,387.62,924,754,0
846031,387.56,924,764,0
846041,386.88,924,754,0
846051,386.40,924,764,0
846061,385.64,924,754,0
846071,385.19,924,764,0
846081,384.58,924,754,0
846091,384.92,924,764,0
846101,386.61,924,754,0
846111,391.70,924,764,0
846121,401.35,924,753,0
846131,417.36,924,764,0
846150,440.48,883,763,0
846153,472.09,883,764,0
846162,509.01,883,754,0
846172,548.73,883,764,0
846182,588.37,883,753,0
846192,625.50,883,764,0
846202,657.88,883,754,0
846212,684.14,883,764,0
846222,702.70,883,754,0
846232,715.69,883,764,0
846242,722.34,883,753,0
846252,722.54,883,764,0
846262,715.43,883,754,0
846272,700.82,883,763,0
846282,678.67,883,754,0
846292,649.50,883,764,0
846302,613.95,883,753,0
846312,575.31,883,764,0
846322,535.57,883,754,0
846332,497.34,883,764,0
846342,462.14,883,754,0
846352,431.41,883,764,0
846362,405.36,883,753,0
846372,384.60,883,764,0
846382,368.82,883,754,0
846392,358.11,883,764,0
846402,351.82,883,753,0
846412,349.82,883,763,0
846423,351.20,883,754,0
846433,355.73,883,763,0
846443,362.24,883,755,0
846453,370.48,883,763,0
846464,379.55,883,756,0
846473,388.99,883,763,0
846483,397.86,883,755,0
846493,406.09,883,763,0
846503,413.18,883,756,0
846513,418.99,883,763,0
846523,423.07,883,755,0
846533,425.28,883,763,0
846543,425.79,883,756,0
846553,424.83,883,763,0
846563,422.09,883,755,0
846573,417.99,883,763,0
846583,412.77,883,756,0
846593,406.88,883,763,0
846603,400.62,883,755,0
846613,394.30,883,763,0
846623,388.25,883,756,0
846633,382.86,883,763,0
846643,378.15,883,755,0
846653,374.33,883,763,0
846663,371.45,883,756,0
846673,369.51,883,763,0
846683,368.46,883,755,0
846693,368.15,883,763,0
846703,368.58,883,756,0
846713,369.56,883,763,0
846723,370.85,883,755,0
846733,372.35,883,763,0
846743,374.35,883,756,0
846753,376.56,883,763,0
846764,378.66,883,757,0
846774,380.43,883,763,0
846784,382.15,883,759,0
846794,383.77,883,763,0
846804,385.38,883,760,0
846814,386.43,883,763,0
846824,386.98,883,759,0
846834,387.29,883,763,0
846844,387.55,883,761,0
846854,387.55,883,763,0
846864,387.47,883,759,0
846874,386.95,883,763,0
846884,386.45,883,760,0
846894,385.97,883,763,0
846904,385.51,883,759,0
846914,384.88,883,763,0
846924,384.40,883,760,0
846935,383.73,883,763,0
846945,383.38,883,762,0
846955,382.84,883,763,0
846965,382.37,883,762,0
846976,382.00,883,763,0
846985,382.22,883,762,0
846995,382.45,883,763,0
847005,383.26,883,763,0
847015,384.55,883,763,0
847025,387.73,883,762,0
847035,393.73,883,763,0
847045,404.48,883,763,0
847055,421.09,883,763,0
847074,444.98,924,762,0
847077,476.27,924,758,0
847086,512.92,924,764,0
847096,552.07,924,760,0
847106,591.31,924,764,0
847116,627.86,924,762,0
847126,659.61,924,764,0
847136,685.02,924,760,0
847147,703.31,924,764,0
847156,716.07,924,762,0
847166,722.61,924,764,0
847176,721.74,924,760,0
847186,713.50,924,764,0
847196,697.45,924,762,0
847206,674.09,924,763,0
847216,643.46,924,760,0
847226,606.55,924,764,0
847236,566.19,924,762,0
847246,525.97,924,763,0
847256,488.27,924,761,0
847266,455.57,924,765,0
847276,427.80,924,763,0
847286,405.75,924,764,0
847296,388.68,924,761,0
847306,376.99,924,764,0
847316,369.58,924,759,0
847326,365.59,924,764,0
847336,363.40,924,761,0
847346,363.84,924,764,0
847356,365.90,924,759,0
847366,370.17,924,764,0
847376,375.35,924,761,0
847386,381.76,924,764,0
847396,387.96,924,759,0
847406,394.53,924,764,0
847416,399.94,924,761,0
847426,404.89,924,764,0
847436,408.18,924,759,0
847447,410.57,924,764,0
847457,411.13,924,757,0
847467,411.00,924,764,0
847477,409.16,924,756,0
847488,406.63,924,764,0
847497,402.84,924,757,0
847507,398.69,924,764,0
847517,393.77,924,756,0
847527,389.04,924,764,0
847537,383.88,924,757,0
847547,379.38,924,764,0
847557,374.85,924,756,0
847567,371.21,924,764,0
847577,367.85,924,757,0
847587,365.53,924,764,0
847597,363.45,924,756,0
847607,362.37,924,764,0
847617,361.57,924,757,0
847627,361.92,924,764,0
847637,362.50,924,756,0
847647,364.06,924,764,0
847657,365.33,924,755,0
847667,367.20,924,764,0
847677,365.51,924,756,0
847687,366.26,924,767,0
847697,368.92,924,756,0
847707,371.99,924,763,0
847717,372.21,924,757,0
847727,374.85,924,768,0
847737,380.98,924,756,0
847747,391.01,924,767,0
847757,398.85,924,755,0
847767,402.88,924,762,0
847777,403.39,924,753,0
847788,403.83,924,765,0
847798,401.99,924,762,0
847808,397.41,924,761,0
847818,391.67,924,756,0
847828,383.71,924,761,0
847838,374.97,924,754,0
847848,369.32,924,765,0
847858,363.01,924,754,0
847868,355.55,924,761,0
847878,345.53,924,752,0
847888,334.53,924,758,0
847898,325.67,924,747,0
847908,321.01,924,759,0
847918,317.88,924,750,0
847928,319.46,924,767,0
847938,337.96,924,754,0
847948,370.33,924,772,0
847959,409.70,924,759,0
847969,455.18,924,772,0
847979,503.12,924,761,0
847998,553.66,924,751,0
848002,592.80,924,759,0
848011,614.76,924,765,0
848021,625.42,924,755,0
848031,635.19,924,767,0
848041,638.39,924,761,0
848051,637.55,924,763,0
848061,628.25,924,741,0
848071,624.15,924,764,0
848081,621.06,924,754,0
848091,615.00,924,762,0
848101,601.97,924,754,0
848111,585.44,924,758,0
848121,566.06,924,753,0
848131,554.09,924,764,0
848141,544.25,924,751,0
848151,530.37,924,758,0
848161,514.10,924,754,0
848172,492.73,924,761,0
848182,469.28,924,755,0
848192,441.85,924,765,0
848202,413.48,924,758,0
848212,383.34,924,754,0
848222,357.14,924,757,0
848232,335.75,924,760,0
848242,331.41,924,763,0
848252,335.96,924,764,0
848262,346.77,924,758,0
848272,358.41,924,760,0
848282,368.62,924,755,0
848292,381.46,924,758,0
848302,394.48,924,755,0
848312,395.58,924,760,0
848322,395.88,924,756,0
848332,399.38,924,760,0
848343,401.11,924,759,0
848353,408.41,924,756,0
848363,413.77,924,767,0
848373,417.78,924,758,0
848384,421.75,924,758,0
848393,419.21,924,758,0
848403,415.97,924,759,0
848413,422.50,924,762,0
848423,437.82,924,770,0
848433,461.49,924,770,0
848443,490.96,924,772,0
848453,518.70,924,770,0
848463,550.67,924,773,0
848473,574.51,924,759,0
848483,595.02,924,778,0
848493,609.67,924,761,0
848503,616.58,924,788,0
848513,623.57,924,788,0
848523,638.31,924,787,0
848533,655.70,924,788,0
848552,680.61,554,786,0
848556,695.55,554,780,0
848564,703.70,554,788,0
848574,704.26,554,784,0
848584,691.97,554,788,0
848594,667.76,554,782,0
848604,633.64,554,788,0
848614,590.63,554,784,0
848624,543.94,554,788,0
848634,495.92,554,782,0
848644,451.16,554,788,0
848654,411.25,554,784,0
848664,378.13,554,788,0
848674,351.69,554,782,0
848684,332.54,554,788,0
848694,319.78,554,784,0
848704,313.46,554,788,0
848714,311.95,554,782,0
848724,314.88,554,788,0
848734,320.62,554,784,0
848744,328.70,554,788,0
848754,337.71,554,782,0
848764,347.57,554,788,0
848774,356.91,554,784,0
848784,365.68,554,788,0
848794,372.98,554,782,0
848804,379.24,554,788,0
848814,383.75,554,784,0
848824,387.21,554,788,0
848834,388.95,554,782,0
848844,389.69,554,788,0
848855,389.23,554,780,0
848865,388.35,554,788,0
848875,386.74,554,779,0
848885,385.32,554,788,0
848896,384.45,554,779,0
848905,386.03,554,788,0
848915,391.25,554,779,0
848925,402.70,554,788,0
848935,421.61,554,779,0
848945,449.32,554,788,0
848955,485.27,554,779,0
848965,526.42,554,788,0
848975,569.58,554,779,0
848985,612.18,554,788,0
848995,650.99,554,779,0
849014,683.95,462,778,0
849017,709.51,462,778,0
849026,727.44,462,788,0
849036,739.18,462,778,0
849046,743.97,462,788,0
849056,740.94,462,777,0
849067,729.81,462,788,0
849076,710.50,462,778,0
849086,683.18,462,788,0
849096,648.15,462,777,0
849106,607.14,462,788,0
849116,563.42,462,778,0
849126,520.10,462,788,0
849136,478.88,462,777,0
849146,441.72,462,788,0
849156,409.36,462,778,0
849166,382.98,462,788,0
849176,362.29,462,777,0
849186,347.54,462,788,0
849196,337.99,462,778,0
849206,333.88,462,788,0
849216,334.13,462,777,0
849226,338.63,462,788,0
849236,346.03,462,778,0
849246,356.05,462,788,0
849256,367.26,462,777,0
849266,379.44,462,788,0
849276,391.31,462,778,0
849286,402.44,462,788,0
849296,411.83,462,778,0
849306,419.51,462,788,0
849316,424.88,462,777,0
849326,428.35,462,788,0
849336,429.27,462,778,0
849346,428.25,462,788,0
849356,425.17,462,778,0
849367,420.79,462,788,0
849377,414.98,462,778,0
849387,408.52,462,788,0
849397,401.38,462,778,0
849408,394.41,462,788,0
849417,387.43,462,778,0
849427,381.17,462,788,0
849437,375.33,462,778,0
849447,370.43,462,788,0
849457,366.19,462,778,0
849467,362.92,462,788,0
849477,360.46,462,778,0
849487,359.03,462,788,0
849497,358.30,462,778,0
849507,358.51,462,788,0
849517,359.30,462,778,0
849527,360.88,462,788,0
849537,362.76,462,778,0
849547,365.02,462,788,0
849557,367.15,462,778,0
849567,369.25,462,788,0
849577,371.15,462,779,0
849587,373.03,462,788,0
849597,374.44,462,778,0
849607,375.51,462,788,0
849617,376.17,462,779,0
849627,376.89,462,788,0
849637,377.31,462,778,0
849647,377.60,462,788,0
849657,377.64,462,779,0
849667,377.74,462,788,0
849677,377.95,462,778,0
849687,378.26,462,788,0
849697,378.44,462,779,0
849708,378.78,462,788,0
849718,379.15,462,780,0
849728,379.53,462,788,0
849738,379.84,462,781,0
849748,379.98,462,788,0
849758,380.03,462,780,0
849768,380.02,462,788,0
849778,379.97,462,782,0
849788,379.76,462,788,0
849798,379.49,462,780,0
849808,379.52,462,788,0
849818,380.18,462,782,0
849828,382.27,462,788,0
849838,386.94,462,780,0
849848,395.96,462,788,0
849858,411.36,462,782,0
849878,434.52,863,781,0
849881,466.51,863,788,0
849890,505.06,863,788,0
849900,547.08,863,787,0
849910,590.00,863,788,0
849921,630.97,863,788,0
849931,667.32,863,787,0
849941,697.14,863,788,0
849951,718.70,863,785,0
849961,733.70,863,788,0
849971,741.46,863,787,0
849981,741.75,863,788,0
849991,733.77,863,785,0
850001,717.60,863,788,0
850011,693.33,863,787,0
850021,661.60,863,788,0
850031,622.85,863,785,0
850041,580.90,863,788,0
850051,537.98,863,787,0
850061,497.10,863,788,0
850071,459.32,863,785,0
850081,426.26,863,788,0
850092,398.20,863,784,0
850102,376.15,863,788,0
850112,359.44,863,781,0
850122,348.38,863,788,0
850132,342.05,863,780,0
850142,340.71,863,788,0
850152,343.02,863,782,0
850162,348.93,863,788,0
850172,357.01,863,780,0
850182,367.16,863,788,0
850192,377.91,863,781,0
850202,389.17,863,788,0
850212,399.62,863,780,0
850222,409.42,863,788,0
850232,417.39,863,781,0
850242,423.79,863,788,0
850252,427.71,863,780,0
850263,430.03,863,788,0
850273,429.93,863,779,0
850283,428.37,863,788,0
850293,424.79,863,779,0
850304,420.18,863,788,0
850313,414.30,863,779,0
850323,408.29,863,788,0
850333,401.56,863,779,0
850343,395.18,863,788,0
850353,388.61,863,779,0
850363,382.77,863,788,0
850373,377.27,863,778,0
850383,372.73,863,788,0
850393,368.61,863,779,0
850403,365.64,863,788,0
850413,363.26,863,779,0
850423,362.03,863,788,0
850433,361.29,863,779,0
850443,361.55,863,788,0
850453,362.03,863,779,0
850463,363.26,863,788,0
850473,364.51,863,778,0
850483,366.24,863,788,0
850493,367.76,863,779,0
850503,369.50,863,788,0
850513,370.94,863,778,0
850523,372.71,863,788,0
850533,374.00,863,778,0
850543,375.46,863,788,0
850553,376.52,863,778,0
850563,377.74,863,788,0
850573,378.63,863,779,0
850583,379.60,863,788,0
850593,380.06,863,778,0
850604,380.73,863,788,0
850614,381.15,863,778,0
850624,381.71,863,788,0
850634,382.05,863,778,0
850644,382.55,863,789,0
850654,382.81,863,778,0
850664,383.38,863,788,0
850674,383.61,863,778,0
850684,383.86,863,788,0
850694,383.77,863,778,0
850704,383.67,863,788,0
850714,383.25,863,778,0
850724,383.18,863,788,0
850734,383.64,863,778,0
850744,386.45,863,788,0
850754,393.00,863,778,0
850764,405.60,863,788,0
850775,425.82,863,778,0
850794,454.84,917,777,0
850797,491.49,917,784,0
850806,533.00,917,788,0
850817,576.20,917,782,0
850827,618.31,917,788,0
850837,656.45,917,784,0
850847,688.33,917,788,0
850857,712.53,917,785,0
850867,729.47,917,788,0
850877,741.29,917,783,0
850887,746.60,917,788,0
850897,744.62,917,785,0
850907,734.83,917,788,0
850917,716.93,917,783,0
850927,690.93,917,788,0
850937,657.53,917,785,0
850947,617.60,917,788,0
850957,574.86,917,783,0
850967,531.96,917,788,0
850977,491.30,917,785,0
850988,454.48,917,788,0
850998,422.88,917,786,0
851008,396.77,917,788,0
851018,376.23,917,787,0
851028,361.12,917,788,0
851038,351.31,917,786,0
851048,346.07,917,788,0
851058,345.15,917,787,0
851068,347.51,917,788,0
851078,352.80,917,786,0
851088,360.06,917,788,0
851098,368.87,917,787,0
851108,378.21,917,788,0
851118,387.79,917,786,0
851128,396.81,917,788,0
851138,405.22,917,787,0
851148,412.23,917,788,0
851159,417.95,917,788,0
851169,421.56,917,787,0
851179,423.66,917,788,0
851189,423.68,917,785,0
851200,422.06,917,788,0
851209,418.57,917,787,0
851219,413.94,917,788,0
851229,408.09,917,785,0
851239,401.93,917,788,0
851249,395.18,917,787,0
851259,388.74,917,788,0
851269,382.39,917,785,0
851279,376.96,917,788,0
851289,372.04,917,787,0
851299,368.22,917,788,0
851309,365.11,917,785,0
851319,363.15,917,788,0
851329,361.82,917,786,0
851339,361.53,917,788,0
851349,361.58,917,785,0
851359,362.48,917,788,0
851369,363.45,917,783,0
851379,365.03,917,788,0
851389,366.52,917,785,0
851399,368.42,917,788,0
851409,370.01,917,783,0
851419,371.76,917,789,0
851429,372.99,917,785,0
851439,374.32,917,788,0
851449,375.08,917,783,0
851459,376.00,917,788,0
851469,376.34,917,785,0
851479,376.80,917,788,0
851489,376.73,917,783,0
851500,376.90,917,788,0
851510,376.76,917,781,0
851520,376.96,917,788,0
851530,377.01,917,780,0
851540,377.40,917,789,0
851550,377.58,917,781,0
851560,378.26,917,788,0
851570,378.65,917,780,0
851580,379.40,917,788,0
851590,379.71,917,781,0
851600,380.14,917,788,0
851610,380.14,917,780,0
851620,380.14,917,788,0
851630,379.54,917,781,0
851640,379.16,917,788,0
851650,378.82,917,780,0
851660,380.24,917,788,0
851671,384.37,917,779,0
851681,393.82,917,788,0
851691,410.20,917,778,0
851710,435.21,916,777,0
851714,469.39,916,779,0
851723,509.86,916,788,0
851733,553.32,916,778,0
851743,597.11,916,788,0
851753,638.09,916,779,0
851763,673.81,916,788,0
851773,702.32,916,778,0
851783,722.32,916,788,0
851793,736.33,916,779,0
851803,745.27,916,788,0
851813,747.93,916,778,0
851823,743.41,916,788,0
851833,731.07,916,779,0
851843,710.95,916,788,0
851853,683.07,916,778,0
851863,648.12,916,788,0
851873,607.58,916,778,0
851884,564.94,916,788,0
851894,522.78,916,779,0
851904,483.33,916,788,0
851914,447.88,916,781,0
851924,417.70,916,788,0
851934,392.89,916,779,0
851944,373.81,916,788,0
851954,360.02,916,781,0
851964,351.36,916,788,0
851974,347.18,916,780,0
851984,346.95,916,788,0
851994,349.93,916,781,0
852004,355.69,916,788,0
852014,363.33,916,780,0
852024,372.19,916,788,0
852034,381.47,916,781,0
852044,390.76,916,788,0
852055,399.49,916,782,0
852065,407.14,916,788,0
852075,413.40,916,784,0
852085,417.91,916,788,0
852096,420.76,916,785,0
852105,421.91,916,788,0
852115,421.42,916,784,0
852125,419.37,916,788,0
852135,416.00,916,785,0
852145,411.41,916,788,0
852155,406.10,916,784,0
852165,400.29,916,788,0
852175,394.37,916,785,0
852185,388.56,916,788,0
852195,383.16,916,784,0
852205,378.23,916,788,0
852215,374.00,916,785,0
852225,370.57,916,788,0
852235,367.92,916,784,0
852245,365.97,916,788,0
852255,364.82,916,785,0
852265,364.19,916,788,0
852275,364.30,916,784,0
852285,364.77,916,788,0
852295,365.65,916,785,0
852305,366.79,916,788,0
852315,368.26,916,784,0
852325,369.77,916,788,0
852335,371.43,916,785,0
852345,372.88,916,788,0
852355,374.38,916,784,0
852365,375.76,916,788,0
852375,377.08,916,785,0
852385,378.00,916,788,0
852396,378.81,916,786,0
852406,379.38,916,788,0
852416,379.91,916,787,0
852426,380.28,916,788,0
852436,380.58,916,788,0
852446,380.79,916,788,0
852456,381.20,916,787,0
852466,381.40,916,788,0
852476,381.79,916,788,0
852486,381.98,916,788,0
852496,382.37,916,787,0
852506,382.65,916,788,0
852516,383.05,916,788,0
852526,383.25,916,788,0
852536,383.60,916,788,0
852546,383.59,916,788,0
852556,383.72,916,788,0
852567,383.37,916,786,0
852577,383.09,916,788,0
852587,382.72,916,784,0
852597,383.66,916,788,0
852608,386.93,916,783,0
852617,394.71,916,788,0
852627,408.55,916,784,0
852646,430.59,936,782,0
852649,461.53,936,779,0
852658,499.73,936,788,0
852668,541.81,936,781,0
852678,585.07,936,788,0
852688,626.53,936,780,0
852698,663.70,936,788,0
852708,694.22,936,781,0
852718,716.65,936,788,0
852728,732.36,936,780,0
852738,742.36,936,788,0
852748,745.43,936,781,0
852758,741.14,936,788,0
852768,728.67,936,780,0
852779,708.28,936,788,0
852788,680.00,936,781,0
852798,644.73,936,788,0
852808,603.88,936,780,0
852818,561.27,936,788,0
852828,519.02,936,781,0
852838,479.80,936,788,0
852848,444.50,936,779,0
852858,414.52,936,788,0
852868,389.68,936,781,0
852878,370.79,936,788,0
852888,356.97,936,780,0
852898,348.32,936,788,0
852908,343.85,936,781,0
852918,343.55,936,788,0
852928,346.26,936,779,0
852938,352.10,936,788,0
852948,359.44,936,779,0
852958,368.39,936,788,0
852968,377.66,936,779,0
852978,387.45,936,788,0
852988,396.49,936,779,0
852998,405.00,936,788,0
853008,411.77,936,779,0
853018,417.24,936,788,0
853028,420.72,936,779,0
853038,422.86,936,788,0
853048,422.86,936,779,0
853058,421.53,936,788,0
853068,418.33,936,779,0
853079,414.20,936,788,0
853089,408.91,936,778,0
853099,403.15,936,788,0
853109,396.68,936,778,0
853120,390.52,936,788,0
853129,384.41,936,778,0
853139,379.14,936,788,0
853149,374.13,936,778,0
853159,370.19,936,788,0
853169,366.88,936,777,0
853179,364.77,936,788,0
853189,363.30,936,777,0
853199,362.82,936,788,0
853209,362.70,936,777,0
853219,363.61,936,788,0
853229,364.88,936,778,0
853239,366.85,936,788,0
853249,368.78,936,777,0
853259,370.90,936,788,0
853269,372.69,936,777,0
853279,374.62,936,788,0
853289,376.07,936,777,0
853299,377.25,936,788,0
853309,377.73,936,777,0
853319,378.07,936,788,0
853329,378.00,936,777,0
853339,378.05,936,788,0
853349,377.73,936,777,0
853359,377.60,936,788,0
853369,377.46,936,777,0
853379,377.88,936,788,0
853389,378.30,936,778,0
853399,378.98,936,788,0
853409,379.50,936,777,0
853420,380.29,936,788,0
853430,380.89,936,778,0
853440,381.48,936,788,0
853450,381.72,936,778,0
853460,382.02,936,788,0
853470,382.14,936,778,0
853480,382.27,936,788,0
853490,382.06,936,778,0
853500,381.70,936,788,0
853510,381.02,936,778,0
853520,380.37,936,788,0
853530,379.79,936,778,0
853540,380.24,936,788,0
853550,382.57,936,778,0
853560,389.00,936,788,0
853570,401.17,936,778,0
853590,420.96,943,778,0
853593,449.47,943,785,0
853602,486.10,943,788,0
853612,527.47,943,783,0
853622,571.00,943,788,0
853633,613.43,943,785,0
853643,652.26,943,788,0
853653,685.14,943,786,0
853663,710.30,943,788,0
853673,726.88,943,787,0
853683,735.14,943,788,0
853693,735.01,943,786,0
853703,726.18,943,788,0
853713,708.90,943,787,0
853723,683.64,943,788,0
853733,650.92,943,786,0
853743,612.29,943,788,0
853753,570.80,943,787,0
853763,529.03,943,788,0
853773,489.42,943,786,0
853783,453.17,943,788,0
853793,421.49,943,787,0
853804,394.86,943,788,0
853814,374.11,943,788,0
853824,358.78,943,787,0
853834,348.99,943,788,0
853844,343.85,943,786,0
853854,343.29,943,788,0
853864,346.25,943,787,0
853874,352.65,943,788,0
853884,361.15,943,785,0
853894,371.52,943,788,0
853904,382.34,943,787,0
853914,393.59,943,788,0
853924,404.17,943,785,0
853934,413.98,943,788,0
853944,422.00,943,787,0
853954,428.34,943,788,0
853964,432.31,943,785,0
853975,434.49,943,788,0
853985,434.34,943,783,0
853995,432.61,943,788,0
854005,428.96,943,782,0
854016,424.13,943,788,0
854025,418.09,943,783,0
854035,411.68,943,788,0
854045,404.62,943,781,0
854055,397.96,943,788,0
854065,391.33,943,783,0
854075,385.66,943,788,0
854085,380.45,943,781,0
854095,376.37,943,788,0
854105,372.92,943,783,0
854115,370.76,943,788,0
854125,369.07,943,781,0
854135,368.41,943,788,0
854145,368.07,943,783,0
854155,368.65,943,788,0
854165,369.31,943,781,0
854175,370.59,943,788,0
854185,371.57,943,780,0
854195,372.98,943,788,0
854205,374.06,943,781,0
854215,375.33,943,788,0
854225,376.09,943,780,0
854235,377.09,943,788,0
854245,377.79,943,781,0
854255,378.88,943,788,0
854265,379.56,943,780,0
854275,380.68,943,788,0
854285,381.46,943,781,0
854295,382.61,943,788,0
854305,383.28,943,780,0
854316,384.10,943,788,0
854326,384.58,943,779,0
854336,385.27,943,788,0
854346,385.44,943,778,0
854356,385.70,943,788,0
854366,385.44,943,779,0
854376,385.40,943,788,0
854386,385.02,943,778,0
854396,384.71,943,788,0
854406,384.07,943,779,0
854416,383.62,943,788,0
854426,383.18,943,778,0
854436,383.98,943,788,0
854446,386.52,943,779,0
854456,392.96,943,788,0
854466,404.46,943,778,0
854486,423.18,896,777,0
854489,449.91,896,779,0
854498,484.82,896,788,0
854508,524.82,896,778,0
854518,567.30,896,788,0
854529,609.00,896,779,0
854539,647.70,896,788,0
854549,680.83,896,780,0
854559,706.17,896,788,0
854569,721.29,896,781,0
854579,726.90,896,788,0
854589,723.29,896,780,0
854599,710.86,896,788,0
854609,689.94,896,781,0
854619,661.42,896,788,0
854629,626.66,896,779,0
854639,588.49,896,788,0
854649,548.83,896,781,0
854659,510.18,896,788,0
854669,474.08,896,780,0
854679,441.92,896,788,0
854689,414.17,896,781,0
854700,391.28,896,788,0
854710,373.36,896,782,0
854720,360.57,896,788,0
854730,352.68,896,784,0
854740,349.39,896,788,0
854750,350.22,896,782,0
854760,354.48,896,788,0
854770,361.71,896,784,0
854780,371.10,896,788,0
854790,381.87,896,782,0
854800,392.92,896,788,0
854810,403.79,896,784,0
854820,413.75,896,788,0
854830,422.35,896,782,0
854840,429.11,896,788,0
854850,434.00,896,784,0
854860,436.92,896,788,0
854871,438.01,896,785,0
854881,437.02,896,787,0
854891,434.40,896,786,0
854901,430.34,896,788,0
854912,425.31,896,787,0
854921,419.43,896,787,0
854931,413.22,896,786,0
854941,406.85,896,788,0
854951,400.85,896,787,0
854961,395.15,896,788,0
854971,390.14,896,786,0
854981,385.68,896,788,0
854991,382.22,896,787,0
855001,379.28,896,788,0
855011,376.97,896,786,0
855021,375.09,896,788,0
855031,374.04,896,787,0
855041,373.60,896,788,0
855051,373.93,896,786,0
855061,374.47,896,788,0
855071,375.48,896,787,0
855081,376.71,896,787,0
855091,378.43,896,786,0
855101,379.97,896,788,0
855111,381.61,896,787,0
855121,382.88,896,787,0
855131,384.20,896,787,0
855141,385.39,896,788,0
855151,386.81,896,787,0
855161,387.98,896,787,0
855171,389.36,896,787,0
855181,390.49,896,788,0
855191,391.80,896,787,0
855201,392.72,896,788,0
855212,393.58,896,788,0
855222,393.83,896,786,0
855232,393.97,896,788,0
855242,393.55,896,784,0
855252,392.96,896,788,0
855262,392.03,896,786,0
855272,391.68,896,788,0
855282,392.20,896,784,0
855292,395.61,896,788,0
855302,403.01,896,786,0
855312,416.72,896,788,0
855331,437.68,846,787,0
855334,467.47,846,789,0
855343,504.19,846,783,0
855353,545.10,846,788,0
855363,586.94,846,781,0
855373,627.38,846,788,0
855383,663.56,846,783,0
855393,693.87,846,788,0
855403,716.32,846,781,0
855413,731.52,846,788,0
855424,739.00,846,779,0
855433,739.13,846,788,0
855443,731.16,846,781,0
855453,715.30,846,788,0
855463,691.34,846,780,0
855473,660.34,846,788,0
855483,622.99,846,781,0
855493,582.75,846,788,0
855503,541.38,846,780,0
855513,501.80,846,788,0
855523,465.09,846,781,0
855533,433.05,846,788,0
855543,405.43,846,779,0
855553,383.32,846,788,0
855563,366.34,846,780,0
855573,354.88,846,788,0
855583,347.93,846,779,0
855593,345.89,846,788,0
855603,347.47,846,781,0
855613,352.81,846,788,0
855623,360.50,846,779,0
855633,370.38,846,788,0
855643,381.02,846,781,0
855653,392.24,846,788,0
855663,402.58,846,779,0
855673,412.27,846,788,0
855683,420.07,846,781,0
855693,426.44,846,788,0
855703,430.51,846,779,0
855713,432.75,846,788,0
855724,432.78,846,779,0
855734,431.14,846,788,0
855744,427.41,846,778,0
855754,422.53,846,788,0
855764,416.28,846,778,0
855774,409.60,846,788,0
855784,402.35,846,778,0
855794,395.52,846,788,0
855804,388.85,846,778,0
855814,383.32,846,788,0
855824,378.47,846,778,0
855834,374.90,846,788,0
855844,372.10,846,778,0
855854,370.53,846,788,0
855864,369.47,846,778,0
855874,369.41,846,788,0
855884,369.55,846,778,0
855895,370.37,846,788,0
855905,371.33,846,777,0
855915,372.77,846,788,0
855925,374.21,846,778,0
855936,375.86,846,788,0
855945,377.32,846,778,0
855955,378.85,846,788,0
855965,380.18,846,778,0
855975,381.46,846,788,0
855985,382.39,846,777,0
855995,383.26,846,788,0
856005,383.82,846,778,0
856015,384.43,846,788,0
856025,384.78,846,777,0
856035,385.01,846,788,0
856045,384.97,846,777,0
856055,384.98,846,788,0
856065,384.64,846,777,0
856075,384.49,846,788,0
856085,384.26,846,778,0
856095,384.31,846,788,0
856105,384.17,846,778,0
856115,384.16,846,788,0
856125,384.29,846,778,0
856135,385.74,846,788,0
856145,389.55,846,778,0
856155,397.36,846,788,0
856165,410.79,846,777,0
856184,431.98,853,777,0
856187,462.03,853,783,0
856196,499.35,853,788,0
856206,540.77,853,779,0
856216,583.36,853,788,0
856226,624.48,853,780,0
856236,661.66,853,788,0
856246,692.54,853,779,0
856256,715.43,853,788,0
856266,731.42,853,780,0
856276,741.28,853,788,0
856286,744.45,853,779,0
856296,740.33,853,788,0
856306,728.49,853,780,0
856316,708.67,853,788,0
856326,681.34,853,779,0
856336,647.25,853,788,0
856346,608.39,853,780,0
856356,567.52,853,788,0
856366,527.12,853,779,0
856376,489.37,853,788,0
856386,455.66,853,780,0
856396,426.62,853,788,0
856407,402.60,853,781,0
856417,383.52,853,788,0
856427,369.39,853,783,0
856437,359.80,853,788,0
856448,354.42,853,784,0
856457,352.97,853,788,0
856467,354.82,853,783,0
856477,359.24,853,788,0
856487,365.81,853,785,0
856497,373.93,853,788,0
856507,382.82,853,783,0
856517,391.79,853,788,0
856527,400.34,853,785,0
856537,408.21,853,788,0
856547,414.92,853,783,0
856557,420.17,853,788,0
856567,423.72,853,785,0
856577,425.65,853,788,0
856587,425.97,853,783,0
856597,424.61,853,788,0
856607,421.77,853,785,0
856617,417.55,853,788,0
856627,412.50,853,783,0
856637,406.74,853,788,0
856647,400.60,853,785,0
856657,394.38,853,788,0
856667,388.52,853,783,0
856677,383.05,853,788,0
856687,378.49,853,785,0
856697,374.53,853,788,0
856707,371.50,853,783,0
856717,369.34,853,788,0
856727,368.08,853,785,0
856737,367.37,853,788,0
856748,367.43,853,786,0
856758,367.86,853,788,0
856768,368.76,853,787,0
856778,369.82,853,788,0
856788,371.37,853,788,0
856798,372.85,853,788,0
856808,374.61,853,787,0
856818,375.97,853,788,0
856828,377.35,853,788,0
856838,378.40,853,788,0
856848,379.48,853,787,0
856858,380.15,853,788,0
856868,380.79,853,788,0
856878,380.98,853,788,0
856888,381.37,853,787,0
856898,381.52,853,788,0
856908,382.01,853,788,0
856919,382.30,853,787,0
856929,382.68,853,788,0
856939,382.91,853,785,0
856949,383.28,853,788,0
856960,383.37,853,783,0
856969,383.64,853,788,0
856979,383.58,853,785,0
856989,384.09,853,788,0
856999,385.01,853,783,0
857009,388.05,853,788,0
857019,394.33,853,785,0
857029,406.32,853,788,0
857049,424.91,864,787,0
857052,452.41,864,788,0
857061,487.64,864,779,0
857071,528.16,864,788,0
857081,570.67,864,778,0
857091,612.73,864,788,0
857101,651.21,864,779,0
857111,684.36,864,788,0
857121,709.67,864,778,0
857132,727.42,864,788,0
857142,739.38,864,778,0
857152,745.05,864,788,0
857162,743.32,864,777,0
857172,734.01,864,788,0
857182,716.91,864,778,0
857192,692.38,864,788,0
857202,660.51,864,777,0
857212,622.64,864,788,0
857222,581.52,864,778,0
857232,540.44,864,788,0
857242,501.00,864,777,0
857252,465.05,864,788,0
857262,433.28,864,778,0
857272,406.84,864,788,0
857282,385.46,864,777,0
857292,369.46,864,788,0
857303,358.10,864,777,0
857313,351.42,864,788,0
857323,348.68,864,777,0
857333,349.68,864,788,0
857344,353.46,864,778,0
857353,359.84,864,788,0
857363,367.69,864,777,0
857373,376.87,864,788,0
857383,386.33,864,778,0
857393,395.66,864,788,0
857403,403.99,864,778,0
857413,411.07,864,788,0
857423,416.32,864,778,0
857433,419.95,864,788,0
857443,421.55,864,778,0
857453,421.47,864,788,0
857463,419.70,864,778,0
857473,416.75,864,788,0
857483,412.67,864,777,0
857493,407.97,864,788,0
857503,402.75,864,778,0
857513,397.38,864,788,0
857523,392.04,864,778,0
857533,387.01,864,788,0
857543,382.17,864,778,0
857553,378.00,864,788,0
857563,374.23,864,778,0
857573,371.12,864,788,0
857583,368.51,864,778,0
857593,366.51,864,788,0
857603,365.03,864,778,0
857613,364.34,864,788,0
857623,364.02,864,778,0
857633,364.44,864,788,0
857644,365.30,864,779,0
857654,366.71,864,788,0
857664,368.47,864,780,0
857674,370.56,864,788,0
857684,372.62,864,782,0
857694,374.70,864,788,0
857704,376.42,864,780,0
857714,377.79,864,788,0
857724,378.88,864,782,0
857734,379.65,864,788,0
857744,380.18,864,780,0
857754,380.68,864,788,0
857764,380.99,864,782,0
857774,381.34,864,788,0
857784,381.62,864,780,0
857794,381.99,864,788,0
857804,382.34,864,782,0
857815,382.49,864,788,0
857825,382.47,864,783,0
857835,382.37,864,788,0
857845,382.22,864,785,0
857856,381.94,864,788,0
857865,381.49,864,783,0
857875,381.21,864,788,0
857885,381.92,864,785,0
857895,384.52,864,788,0
857905,390.66,864,784,0
857915,401.95,864,788,0
857925,420.35,864,785,0
857945,446.82,896,784,0
857948,481.80,896,788,0
857957,522.02,896,787,0
857967,564.65,896,788,0
857977,606.80,896,785,0
857987,645.95,896,788,0
857997,679.65,896,787,0
858007,706.37,896,788,0
858017,725.07,896,785,0
858028,736.19,896,788,0
858038,739.14,896,783,0
858048,733.95,896,788,0
858058,720.21,896,781,0
858068,698.46,896,788,0
858078,668.84,896,783,0
858088,632.33,896,788,0
858098,591.30,896,781,0
858108,549.30,896,788,0
858118,508.15,896,783,0
858128,470.13,896,788,0
858138,435.89,896,781,0
858148,407.04,896,788,0
858158,383.41,896,783,0
858168,365.76,896,788,0
858178,353.23,896,781,0
858188,346.05,896,788,0
858199,343.21,896,780,0
858209,344.86,896,788,0
858219,349.44,896,779,0
858229,356.85,896,788,0
858240,365.77,896,778,0
858249,375.95,896,788,0
858259,386.04,896,779,0
858269,396.10,896,788,0
858279,404.85,896,778,0
858289,412.74,896,788,0
858299,418.60,896,779,0
858309,422.88,896,788,0
858319,424.97,896,778,0
858329,425.67,896,788,0
858339,424.48,896,779,0
858349,422.07,896,788,0
858359,417.93,896,778,0
858369,413.11,896,788,0
858379,407.25,896,779,0
858389,401.39,896,788,0
858399,395.19,896,778,0
858409,389.43,896,788,0
858419,383.82,896,779,0
858429,378.98,896,788,0
858439,374.75,896,778,0
858449,371.48,896,788,0
858459,368.55,896,779,0
858469,366.59,896,788,0
858479,365.08,896,778,0
858489,364.59,896,788,0
858499,364.50,896,779,0
858509,365.12,896,788,0
858519,366.11,896,778,0
858529,367.92,896,788,0
858540,369.74,896,778,0
858550,371.79,896,788,0
858560,373.53,896,778,0
858570,375.43,896,788,0
858580,376.88,896,777,0
858590,378.29,896,788,0
858600,379.19,896,778,0
858610,379.99,896,788,0
858620,380.59,896,778,0
858630,381.19,896,788,0
858640,381.47,896,778,0
858650,381.93,896,788,0
858660,382.12,896,777,0
858670,382.51,896,788,0
858680,382.75,896,777,0
858690,383.08,896,788,0
858700,383.23,896,777,0
858711,383.54,896,788,0
858721,383.60,896,778,0
858731,383.80,896,788,0
858741,383.65,896,778,0
858752,383.45,896,788,0
858761,382.93,896,778,0
858771,383.04,896,788,0
858781,384.40,896,779,0
858791,388.74,896,788,0
858801,397.26,896,778,0
858811,412.05,896,788,0
858830,434.36,886,787,0
858833,465.07,886,789,0
858842,502.72,886,779,0
858852,544.20,886,788,0
858862,586.44,886,780,0
858872,626.98,886,788,0
858882,663.20,886,780,0
858892,693.27,886,788,0
858902,715.43,886,780,0
858912,728.20,886,788,0
858923,731.96,886,782,0
858932,727.25,886,788,0
858942,714.02,886,780,0
858952,692.46,886,788,0
858962,663.05,886,782,0
858972,627.29,886,788,0
858982,587.78,886,781,0
858992,547.04,886,788,0
859002,506.79,886,782,0
859012,469.18,886,788,0
859022,435.61,886,780,0
859032,406.93,886,788,0
859042,383.34,886,782,0
859052,365.19,886,788,0
859062,352.41,886,780,0
859072,344.87,886,788,0
859082,342.08,886,782,0
859092,343.47,886,788,0
859102,348.30,886,780,0
859112,355.88,886,788,0
859122,365.39,886,782,0
859132,376.07,886,788,0
859142,387.11,886,780,0
859152,397.83,886,788,0
859162,407.74,886,782,0
859172,416.43,886,788,0
859182,423.46,886,780,0
859192,428.72,886,788,0
859202,432.06,886,782,0
859212,433.42,886,788,0
859223,432.82,886,784,0
859233,430.26,886,788,0
859243,426.28,886,785,0
859253,421.10,886,788,0
859264,415.20,886,786,0
859273,408.75,886,788,0
859283,402.27,886,785,0
859293,395.93,886,788,0
859303,390.34,886,786,0
859313,385.18,886,788,0
859323,380.84,886,785,0
859333,377.16,886,788,0
859343,374.50,886,786,0
859353,372.63,886,788,0
859363,371.59,886,785,0
859373,371.07,886,788,0
859383,371.26,886,786,0
859393,371.87,886,788,0
859403,372.94,886,785,0
859413,374.07,886,788,0
859423,375.38,886,786,0
859433,376.59,886,788,0
859443,377.91,886,785,0
859453,379.10,886,788,0
859463,380.31,886,786,0
859473,381.29,886,788,0
859483,382.19,886,785,0
859493,382.86,886,788,0
859503,383.80,886,786,0
859513,384.63,886,788,0
859523,385.60,886,785,0
859533,386.32,886,788,0
859543,387.08,886,786,0
859553,387.74,886,788,0
859564,388.46,886,787,0
859574,388.84,886,787,0
859584,389.02,886,788,0
859594,388.67,886,786,0
859604,388.42,886,788,0
859614,388.13,886,788,0
859624,388.95,886,788,0
859634,391.66,886,786,0
859644,398.32,886,788,0
859654,410.18,886,788,0
859673,429.50,843,786,0
859676,456.86,843,780,0
859685,492.30,843,788,0
859695,532.37,843,785,0
859705,574.52,843,788,0
859715,615.59,843,783,0
859725,653.47,843,788,0
859735,685.56,843,785,0
859745,710.50,843,788,0
859755,726.94,843,783,0
859765,735.14,843,788,0
859776,734.80,843,781,0
859785,726.59,843,788,0
859795,710.13,843,783,0
859805,685.92,843,788,0
859815,654.10,843,781,0
859825,616.91,843,788,0
859835,576.74,843,783,0
859845,536.53,843,788,0
859855,497.24,843,781,0
859865,461.34,843,788,0
859875,429.27,843,782,0
859885,402.49,843,788,0
859895,380.61,843,781,0
859905,364.40,843,788,0
859915,353.05,843,782,0
859925,346.95,843,788,0
859935,344.91,843,780,0
859945,347.21,843,788,0
859955,352.37,843,783,0
859965,360.19,843,788,0
859975,369.26,843,780,0
859985,379.64,843,788,0
859995,389.95,843,782,0
860005,400.25,843,788,0
860015,409.09,843,780,0
860025,416.78,843,788,0
860035,422.41,843,782,0
860045,426.40,843,788,0
860055,427.95,843,780,0
860065,427.93,843,788,0
860076,425.76,843,779,0
860086,422.40,843,788,0
860096,417.48,843,778,0
860106,412.02,843,788,0
860116,405.76,843,778,0
860126,399.79,843,788,0
860136,393.68,843,778,0
860146,388.25,843,788,0
860156,383.20,843,778,0
860166,379.28,843,788,0
860176,375.81,843,778,0
860186,373.51,843,788,0
860196,371.60,843,778,0
860206,370.56,843,788,0
860216,369.71,843,779,0
860226,369.58,843,788,0
860236,369.54,843,778,0
860247,370.19,843,788,0
860257,370.82,843,777,0
860267,371.86,843,788,0
860277,372.93,843,777,0
860288,374.45,843,788,0
860297,375.82,843,777,0
860307,377.37,843,788,0
860317,378.50,843,777,0
860327,379.77,843,788,0
860337,380.61,843,777,0
860347,381.37,843,788,0
860357,381.77,843,777,0
860367,382.23,843,788,0
860377,382.37,843,778,0
860387,382.78,843,788,0
860397,382.84,843,777,0
860407,383.19,843,788,0
860417,383.22,843,777,0
860427,383.41,843,788,0
860437,383.29,843,778,0
860447,383.33,843,788,0
860457,383.32,843,777,0
860467,384.29,843,788,0
860477,387.12,843,777,0
860487,394.03,843,788,0
860497,406.40,843,777,0
860516,426.04,843,777,0
860519,453.84,843,780,0
860528,489.72,843,788,0
860538,530.47,843,779,0
860548,573.27,843,788,0
860558,614.98,843,778,0
860568,653.04,843,788,0
860578,685.39,843,779,0
860588,710.47,843,788,0
860598,728.03,843,778,0
860608,738.39,843,788,0
860618,741.10,843,779,0
860628,736.01,843,788,0
860638,723.02,843,778,0
860648,702.32,843,788,0
860658,674.11,843,778,0
860668,639.02,843,788,0
860678,599.93,843,778,0
860688,559.75,843,788,0
860698,520.35,843,779,0
860708,483.43,843,788,0
860718,450.13,843,778,0
860728,421.63,843,788,0
860738,398.17,843,778,0
860748,379.74,843,787,0
860759,366.01,843,780,0
860769,357.10,843,788,0
860779,352.40,843,781,0
860789,351.55,843,787,0
860800,353.70,843,782,0
860809,358.37,843,788,0
860819,364.78,843,780,0
860829,372.51,843,788,0
860839,380.76,843,782,0
860849,389.19,843,788,0
860859,397.10,843,781,0
860869,404.19,843,788,0
860879,410.26,843,782,0
860889,415.11,843,788,0
860899,418.29,843,781,0
860909,419.96,843,788,0
860919,420.19,843,782,0
860929,419.19,843,788,0
860939,416.90,843,781,0
860949,413.42,843,788,0
860959,409.01,843,782,0
860969,404.16,843,788,0
860979,398.97,843,781,0
860989,393.75,843,788,0
860999,388.68,843,782,0
861009,384.06,843,788,0
861019,380.02,843,781,0
861029,376.63,843,788,0
861039,373.91,843,782,0
861049,371.88,843,788,0
861059,370.42,843,781,0
861069,369.52,843,788,0
861079,369.19,843,782,0
861089,369.35,843,788,0
861100,370.06,843,784,0
861110,371.03,843,788,0
861120,372.35,843,785,0
861130,373.70,843,788,0
861140,375.16,843,786,0
861150,376.48,843,788,0
861160,377.75,843,785,0
861170,378.68,843,788,0
861180,379.59,843,786,0
861190,380.32,843,788,0
861200,381.21,843,786,0
861210,381.96,843,788,0
861220,382.87,843,786,0
861230,383.77,843,788,0
861240,384.74,843,786,0
861250,385.37,843,788,0
861260,385.95,843,786,0
861271,386.13,843,788,0
861281,386.35,843,788,0
861291,386.12,843,787,0
861301,385.78,843,788,0
861312,385.08,843,786,0
861321,384.84,843,788,0
861331,385.14,843,787,0
861341,387.72,843,788,0
861351,393.63,843,786,0
861361,405.18,843,788,0
861380,423.56,864,787,0
861383,450.82,864,787,0
861392,486.10,864,782,0
861402,526.70,864,788,0
861412,569.30,864,784,0
861422,611.34,864,788,0
861432,650.02,864,783,0
861442,683.27,864,788,0
861452,708.91,864,785,0
861462,726.93,864,788,0
861472,737.07,864,783,0
861483,739.28,864,788,0
861492,733.41,864,785,0
861502,719.66,864,788,0
861512,697.69,864,783,0
861522,668.34,864,788,0
861532,632.02,864,785,0
861542,592.37,864,788,0
861552,551.38,864,782,0
861562,511.49,864,788,0
861572,473.97,864,785,0
861582,440.90,864,788,0
861592,412.38,864,783,0
861602,389.30,864,788,0
861612,371.08,864,785,0
861622,358.37,864,788,0
861632,350.24,864,783,0
861642,346.83,864,788,0
861652,346.92,864,781,0
861662,350.50,864,788,0
861672,356.22,864,784,0
861682,363.83,864,788,0
861692,372.07,864,787,0
861702,380.96,864,788,0
861712,389.54,864,784,0
861722,397.91,864,788,0
861732,404.79,864,780,0
861742,410.68,864,788,0
861752,414.98,864,782,0
861762,418.20,864,788,0
861772,419.64,864,780,0
861783,419.70,864,788,0
861793,417.95,864,779,0
861803,415.39,864,788,0
861813,411.55,864,778,0
861824,407.27,864,788,0
861833,402.22,864,779,0
861843,397.31,864,788,0
861853,392.12,864,778,0
861863,387.50,864,788,0
861873,382.89,864,779,0
861883,379.19,864,788,0
861893,375.79,864,778,0
861903,373.37,864,788,0
861913,371.29,864,779,0
861923,370.17,864,788,0
861933,369.31,864,778,0
861943,369.34,864,788,0
861953,369.41,864,779,0
861963,370.15,864,788,0
861973,370.66,864,778,0
861983,371.62,864,788,0
861993,372.38,864,778,0
862003,373.63,864,788,0
862013,374.60,864,778,0
862023,375.84,864,788,0
862033,376.74,864,778,0
862043,378.06,864,788,0
862053,379.03,864,778,0
862063,380.13,864,788,0
862073,380.65,864,778,0
862083,381.31,864,788,0
862093,381.65,864,778,0
862103,382.18,864,788,0
862113,381.96,864,780,0
862124,381.80,864,788,0
862134,381.39,864,778,0
862144,381.36,864,788,0
862154,381.08,864,777,0
862164,381.05,864,788,0
862174,380.61,864,777,0
862184,380.77,864,788,0
862194,380.88,864,777,0
862204,381.47,864,788,0
862214,382.66,864,777,0
862224,386.49,864,788,0
862234,394.40,864,777,0
862254,408.85,873,776,0
862257,431.27,873,781,0
862266,462.47,873,788,0
862276,500.56,873,780,0
862286,542.91,873,788,0
862296,586.22,873,778,0
862306,627.81,873,788,0
862316,664.81,873,781,0
862326,694.91,873,788,0
862337,717.05,873,780,0
862347,730.92,873,788,0
862357,736.56,873,781,0
862367,733.82,873,788,0
862377,722.69,873,783,0
862387,703.41,873,788,0
862397,676.24,873,781,0
862407,641.63,873,788,0
862417,601.97,873,783,0
862427,560.06,873,788,0
862437,518.60,873,781,0
862447,479.46,873,788,0
862457,443.97,873,783,0
862467,413.25,873,788,0
862477,387.97,873,781,0
862487,368.35,873,788,0
862497,354.40,873,782,0
862508,345.71,873,788,0
862518,341.94,873,784,0
862528,342.43,873,788,0
862538,346.54,873,785,0
862548,353.41,873,788,0
862558,362.37,873,784,0
862568,372.63,873,788,0
862578,383.50,873,785,0
862588,393.94,873,788,0
862598,403.68,873,784,0
862608,412.01,873,788,0
862618,418.99,873,786,0
862628,423.92,873,788,0
862638,426.90,873,783,0
862648,427.75,873,788,0
862658,427.01,873,786,0
862668,424.48,873,788,0
862679,420.82,873,787,0
862689,415.86,873,787,0
862699,410.63,873,788,0
862709,404.87,873,788,0
862720,399.38,873,788,0
862729,393.87,873,788,0
862739,388.98,873,787,0
862749,384.36,873,787,0
862759,380.73,873,788,0
862769,377.43,873,788,0
862779,375.11,873,788,0
862789,373.02,873,786,0
862799,371.86,873,788,0
862809,371.04,873,788,0
862819,371.12,873,788,0
862829,371.30,873,785,0
862839,372.06,873,788,0
862849,372.64,873,787,0
862859,373.69,873,788,0
862869,374.51,873,788,0
862879,375.69,873,788,0
862889,376.47,873,785,0
862899,377.66,873,787,0
862909,378.49,873,786,0
862919,379.71,873,788,0
862929,380.57,873,784,0
862939,381.60,873,788,0
862949,382.19,873,787,0
862959,382.95,873,788,0
862969,383.13,873,785,0
862979,383.48,873,788,0
862989,383.34,873,785,0
862999,383.54,873,788,0
863009,383.37,873,783,0
863020,383.73,873,788,0
863030,383.81,873,782,0
863040,384.17,873,788,0
863050,384.16,873,781,0
863060,384.46,873,788,0
863070,384.23,873,781,0
863080,384.42,873,788,0
863090,383.87,873,781,0
863100,384.08,873,788,0
863110,384.95,873,781,0
863120,388.95,873,788,0
863130,397.24,873,779,0
863150,412.38,896,777,0
863153,435.50,896,777,0
863162,467.83,896,788,0
863172,506.45,896,778,0
863182,549.09,896,788,0
863192,592.22,896,778,0
863202,633.34,896,788,0
863212,669.54,896,777,0
863222,698.69,896,788,0
863233,719.70,896,777,0
863243,732.26,896,788,0
863253,736.17,896,776,0
863263,731.45,896,788,0
863273,717.90,896,776,0
863283,696.11,896,788,0
863293,666.21,896,777,0
863303,629.16,896,788,0
863313,587.71,896,776,0
863323,545.03,896,788,0
863333,503.23,896,777,0
863343,464.55,896,788,0
863353,429.76,896,776,0
863363,400.39,896,788,0
863373,376.27,896,776,0
863383,358.06,896,788,0
863393,345.31,896,777,0
863404,338.15,896,788,0
863414,335.75,896,777,0
863424,337.84,896,788,0
863434,343.33,896,778,0
863444,351.93,896,788,0
863454,362.28,896,777,0
863464,373.94,896,788,0
863474,385.70,896,776,0
863484,397.15,896,788,0
863494,407.35,896,777,0
863504,416.07,896,788,0
863514,422.95,896,778,0
863524,427.89,896,788,0
863534,430.63,896,776,0
863544,431.47,896,788,0
863554,430.30,896,776,0
863564,427.51,896,788,0
863575,423.11,896,778,0
863585,417.51,896,788,0
863595,411.36,896,780,0
863605,404.82,896,788,0
863616,398.27,896,782,0
863625,392.11,896,788,0
863635,386.63,896,780,0
863645,382.16,896,788,0
863655,378.60,896,781,0
863665,375.80,896,788,0
863675,373.93,896,779,0
863685,372.71,896,788,0
863695,372.11,896,779,0
863705,371.99,896,788,0
863715,372.21,896,777,0
863725,372.66,896,788,0
863735,373.36,896,778,0
863745,373.94,896,788,0
863755,374.51,896,777,0
863765,375.05,896,788,0
863775,375.68,896,779,0
863785,376.33,896,788,0
863795,377.22,896,777,0
863805,378.09,896,788,0
863815,379.27,896,776,0
863825,380.60,896,788,0
863835,382.01,896,778,0
863845,383.33,896,788,0
863855,384.60,896,778,0
863865,385.62,896,788,0
863875,386.42,896,778,0
863885,387.07,896,788,0
863895,387.65,896,781,0
863905,388.05,896,788,0
863916,388.34,896,784,0
863926,388.32,896,787,0
863936,388.18,896,785,0
863946,387.91,896,788,0
863956,387.64,896,786,0
863966,387.06,896,788,0
863976,386.57,896,779,0
863986,386.23,896,788,0
863996,387.40,896,786,0
864006,390.84,896,788,0
864016,398.69,896,786,0
864035,412.62,886,785,0
864038,435.02,886,788,0
864047,465.49,886,787,0
864057,503.10,886,788,0
864067,544.51,886,786,0
864077,587.30,886,788,0
864087,628.27,886,787,0
864097,664.87,886,788,0
864107,694.44,886,787,0
864117,716.77,886,788,0
864128,730.12,886,785,0
864137,735.18,886,788,0
864147,731.53,886,787,0
864157,719.41,886,788,0
864167,698.55,886,784,0
864177,669.93,886,788,0
864187,633.73,886,788,0
864197,593.44,886,788,0
864207,550.75,886,784,0
864217,509.04,886,784,0
864227,469.64,886,788,0
864237,434.69,886,788,0
864247,404.19,886,785,0
864257,379.53,886,788,0
864267,360.26,886,788,0
864277,347.24,886,787,0
864287,339.15,886,786,0
864297,336.49,886,788,0
864307,337.97,886,787,0
864317,343.68,886,788,0
864327,352.13,886,784,0
864337,363.19,886,788,0
864347,375.14,886,786,0
864357,387.78,886,788,0
864367,399.59,886,787,0
864377,410.81,886,788,0
864387,420.21,886,787,0
864397,427.91,886,788,0
864407,432.95,886,786,0
864417,436.22,886,788,0
864428,437.27,886,782,0
864438,436.85,886,788,0
864448,434.28,886,781,0
864458,430.59,886,788,0
864468,425.49,886,778,0
864478,420.11,886,788,0
864488,413.82,886,780,0
864498,407.62,886,788,0
864508,401.05,886,780,0
864518,395.25,886,788,0
864528,389.47,886,781,0
864538,384.70,886,788,0
864548,380.25,886,779,0
864558,377.13,886,788,0
864568,374.48,886,783,0
864578,373.05,886,787,0
864588,371.71,886,778,0
864599,371.58,886,788,0
864609,371.71,886,777,0
864619,372.78,886,788,0
864629,373.66,886,777,0
864640,375.13,886,788,0
864649,376.34,886,779,0
864659,378.21,886,788,0
864669,379.60,886,777,0
864679,381.44,886,788,0
864689,382.59,886,778,0
864699,384.08,886,788,0
864709,385.17,886,777,0
864719,386.45,886,788,0
864729,387.26,886,778,0
864739,388.29,886,788,0
864749,388.76,886,777,0
864759,389.43,886,788,0
864769,389.48,886,777,0
864779,389.68,886,788,0
864789,389.30,886,777,0
864799,389.08,886,788,0
864809,388.63,886,776,0
864819,389.17,886,788,0
864829,391.30,886,777,0
864839,397.64,886,788,0
864849,409.23,886,777,0
864859,428.41,886,788,0
864878,455.46,843,787,0
864881,490.76,843,788,0
864890,530.95,843,775,0
864900,573.48,843,788,0
864910,614.91,843,775,0
864920,652.91,843,788,0
864930,685.08,843,776,0
864940,710.25,843,788,0
864950,727.88,843,775,0
864960,738.50,843,788,0
864970,741.31,843,776,0
864980,736.07,843,788,0
864990,722.51,843,776,0
865000,700.84,843,788,0
865010,671.23,843,776,0
865020,634.48,843,788,0
865030,592.93,843,777,0
865040,550.05,843,788,0
865050,507.91,843,776,0
865060,468.81,843,788,0
865070,433.68,843,776,0
865080,403.99,843,788,0
865090,379.82,843,776,0
865100,361.75,843,788,0
865111,349.31,843,775,0
865121,342.57,843,788,0
865131,340.60,843,775,0
865141,343.29,843,788,0
865152,349.33,843,777,0
865161,358.28,843,788,0
865171,368.86,843,776,0
865181,380.65,843,788,0
865191,392.63,843,776,0
865201,404.22,843,788,0
865211,414.57,843,777,0
865221,423.49,843,788,0
865231,430.33,843,778,0
865241,435.20,843,788,0
865251,437.50,843,777,0
865261,437.56,843,788,0
865271,435.55,843,777,0
865281,431.96,843,788,0
865291,426.96,843,776,0
865301,421.23,843,788,0
865311,414.69,843,778,0
865321,408.14,843,788,0
865331,401.58,843,777,0
865341,395.32,843,788,0
865351,389.23,843,777,0
865361,383.76,843,788,0
865371,378.90,843,777,0
865381,375.16,843,788,0
865391,372.37,843,776,0
865401,370.63,843,788,0
865411,369.84,843,777,0
865421,370.02,843,788,0
865431,370.74,843,778,0
865441,372.10,843,788,0
865452,373.53,843,779,0
865462,375.13,843,788,0
865472,376.72,843,781,0
865482,378.35,843,788,0
865492,380.08,843,782,0
865502,381.95,843,788,0
865512,383.55,843,780,0
865522,385.14,843,788,0
865532,386.60,843,782,0
865542,387.96,843,788,0
865552,389.04,843,781,0
865562,389.76,843,788,0
865572,390.17,843,781,0
865582,390.42,843,788,0
865592,390.51,843,780,0
865602,390.27,843,788,0
865612,389.93,843,782,0
865623,389.74,843,788,0
865633,390.89,843,783,0
865643,394.56,843,788,0
865653,402.84,843,785,0
865664,417.72,843,788,0
865673,440.64,843,784,0
865692,472.38,814,784,0
865695,510.79,814,788,0
865704,552.64,814,787,0
865714,595.31,814,787,0
865724,635.71,814,788,0
865734,671.20,814,788,0
865744,699.98,814,787,0
865754,720.73,814,786,0
865764,735.21,814,788,0
865774,744.96,814,788,0
865784,748.32,814,788,0
865794,744.84,814,787,0
865804,733.53,814,788,0
865814,714.34,814,787,0
865824,687.07,814,787,0
865835,652.55,814,788,0
865844,611.67,814,788,0
865854,568.40,814,787,0
865864,524.69,814,787,0
865874,483.56,814,788,0
865884,446.06,814,788,0
865894,413.99,814,788,0
865904,387.25,814,788,0
865914,366.69,814,787,0
865924,351.78,814,788,0
865934,342.76,814,787,0
865944,338.59,814,788,0
865954,339.27,814,788,0
865964,343.52,814,788,0
865974,351.12,814,781,0
865984,360.51,814,788,0
865994,371.54,814,787,0
866004,382.78,814,785,0
866014,394.08,814,787,0
866024,404.21,814,787,0
866034,413.28,814,788,0
866044,420.09,814,787,0
866054,425.21,814,785,0
866064,427.85,814,787,0
866074,428.83,814,788,0
866084,427.51,814,785,0
866094,424.92,814,787,0
866104,420.53,814,788,0
866114,415.48,814,788,0
866124,409.38,814,784,0
866135,403.35,814,788,0
866145,396.99,814,783,0
866155,391.08,814,788,0
866165,385.05,814,782,0
866176,379.98,814,788,0
866185,375.49,814,784,0
866195,372.34,814,788,0
866205,369.80,814,781,0
866215,368.53,814,788,0
866225,367.94,814,782,0
866235,368.64,814,788,0
866245,369.57,814,781,0
866255,371.20,814,788,0
866265,372.68,814,783,0
866275,374.49,814,788,0
866285,375.71,814,781,0
866295,377.13,814,788,0
866305,377.95,814,783,0
866315,379.16,814,788,0
866325,379.97,814,782,0
866335,380.97,814,788,0
866345,381.62,814,779,0
866355,382.80,814,788,0
866365,383.68,814,781,0
866375,384.93,814,788,0
866385,385.51,814,780,0
866395,386.26,814,788,0
866405,386.48,814,781,0
866415,386.85,814,788,0
866425,386.51,814,780,0
866435,386.44,814,788,0
866445,386.22,814,781,0
866455,387.74,814,788,0
866465,391.68,814,779,0
866476,401.03,814,788,0
866486,416.96,814,778,0
866496,442.22,814,788,0
866515,476.14,823,787,0
866519,516.17,823,788,0
866527,559.10,823,777,0
866537,602.53,823,788,0
866547,642.96,823,777,0
866557,678.16,823,788,0
866567,705.41,823,777,0
866577,724.49,823,788,0
866587,737.84,823,776,0
866597,747.19,823,788,0
866607,752.79,823,777,0
866617,753.02,823,788,0
866627,746.16,823,776,0
866637,731.58,823,788,0
866647,709.04,823,777,0
866657,678.90,823,788,0
866667,641.30,823,776,0
866677,598.22,823,788,0
866688,552.77,823,776,0
866697,508.57,823,788,0
866707,467.30,823,777,0
866717,430.78,823,788,0
866727,399.60,823,777,0
866737,374.82,823,788,0
866747,356.06,823,777,0
866757,343.49,823,788,0
866767,336.23,823,776,0
866777,334.14,823,788,0
866787,336.20,823,778,0
866797,342.18,823,788,0
866807,350.53,823,777,0
866817,360.83,823,788,0
866827,371.98,823,777,0
866837,383.64,823,788,0
866847,394.76,823,776,0
866857,404.99,823,788,0
866867,413.14,823,777,0
866877,419.65,823,788,0
866887,423.70,823,777,0
866897,425.85,823,788,0
866907,425.42,823,777,0
866917,423.28,823,788,0
866927,419.21,823,776,0
866937,414.13,823,788,0
866947,407.92,823,776,0
866957,401.56,823,788,0
866967,394.66,823,776,0
866977,388.34,823,788,0
866988,382.15,823,776,0
866998,376.79,823,788,0
867008,372.05,823,776,0
867018,368.35,823,788,0
867028,365.42,823,776,0
867038,363.66,823,788,0
867048,362.52,823,777,0
867058,362.28,823,788,0
867068,362.54,823,777,0
867078,363.41,823,788,0
867088,364.53,823,776,0
867098,366.04,823,788,0
867108,367.53,823,777,0
867118,369.21,823,788,0
867128,370.91,823,777,0
867138,372.82,823,788,0
867148,374.63,823,777,0
867159,376.54,823,788,0
867169,378.14,823,777,0
867179,379.72,823,788,0
867189,381.09,823,779,0
867200,382.22,823,788,0
867209,383.01,823,778,0
867219,383.57,823,788,0
867229,383.65,823,780,0
867239,383.67,823,788,0
867249,383.47,823,778,0
867259,383.16,823,788,0
867269,382.90,823,779,0
867279,383.36,823,788,0
867289,385.69,823,775,0
867299,392.08,823,788,0
867309,404.53,823,778,0
867319,425.16,823,788,0
867338,454.94,823,787,0
867341,492.33,823,788,0
867350,534.32,823,780,0
867360,578.19,823,788,0
867371,620.82,823,784,0
867380,659.27,823,788,0
867390,690.91,823,780,0
867400,714.33,823,788,0
867410,730.73,823,781,0
867420,742.21,823,788,0
867430,750.25,823,781,0
867440,755.87,823,788,0
867450,756.94,823,783,0
867460,751.82,823,788,0
867470,739.27,823,781,0
867480,718.53,823,788,0
867490,689.74,823,784,0
867500,653.35,823,788,0
867510,610.04,823,783,0
867520,563.49,823,788,0
867530,516.84,823,784,0
867540,472.70,823,788,0
867550,433.19,823,782,0
867560,399.32,823,788,0
867570,371.84,823,783,0
867580,350.93,823,788,0
867590,336.55,823,778,0
867600,328.24,823,788,0
867610,325.68,823,783,0
867620,327.84,823,788,0
867630,334.01,823,781,0
867640,343.05,823,788,0
867650,354.01,823,780,0
867660,365.83,823,788,0
867671,377.88,823,783,0
867681,389.06,823,788,0
867691,399.11,823,786,0
867701,407.09,823,788,0
867712,413.24,823,787,0
867721,416.85,823,788,0
867731,418.40,823,784,0
867741,417.63,823,788,0
867751,415.22,823,787,0
867761,411.12,823,788,0
867771,406.11,823,784,0
867781,399.87,823,788,0
867791,393.73,823,787,0
867801,387.39,823,788,0
867811,381.44,823,786,0
867821,375.61,823,788,0
867831,370.63,823,788,0
867841,366.32,823,788,0
867851,363.18,823,786,0
867861,360.56,823,788,0
867871,359.23,823,788,0
867881,358.65,823,787,0
867891,359.18,823,786,0
867901,359.94,823,788,0
867911,361.42,823,788,0
867921,362.88,823,787,0
867931,364.80,823,786,0
867941,366.36,823,788,0
867951,368.05,823,788,0
867961,369.28,823,787,0
867971,370.74,823,786,0
867981,371.72,823,788,0
867991,372.92,823,788,0
868001,373.67,823,788,0
868012,374.63,823,788,0
868022,375.30,823,786,0
868032,376.28,823,788,0
868042,376.88,823,783,0
868052,377.77,823,788,0
868062,378.31,823,785,0
868072,379.03,823,788,0
868082,379.15,823,782,0
868092,379.49,823,788,0
868102,379.43,823,785,0
868112,379.77,823,788,0
868122,379.54,823,782,0
868132,379.64,823,788,0
868142,379.79,823,785,0
868152,381.78,823,788,0
868162,386.43,823,782,0
868172,396.76,823,788,0
868192,414.15,854,787,0
868195,441.83,854,788,0
868204,477.71,854,777,0
868214,519.33,854,788,0
868225,563.54,854,777,0
868235,607.78,854,788,0
868245,648.47,854,777,0
868255,683.22,854,788,0
868265,708.95,854,776,0
868275,726.97,854,788,0
868285,739.58,854,777,0
868295,748.40,854,788,0
868305,754.58,854,777,0
868315,757.71,854,788,0
868325,755.18,854,776,0
868335,745.70,854,788,0
868345,728.17,854,776,0
868355,702.75,854,788,0
868365,669.23,854,776,0
868375,628.49,854,788,0
868385,582.10,854,776,0
868396,534.54,854,788,0
868406,488.22,854,776,0
868416,446.03,854,788,0
868426,408.86,854,775,0
868436,378.26,854,788,0
868446,354.05,854,775,0
868456,336.98,854,788,0
868466,326.19,854,775,0
868476,321.63,854,788,0
868486,321.96,854,776,0
868496,326.77,854,788,0
868506,334.68,854,776,0
868516,345.11,854,788,0
868526,356.56,854,776,0
868536,368.56,854,788,0
868546,380.01,854,776,0
868556,390.46,854,788,0
868567,399.07,854,776,0
868577,405.78,854,788,0
868587,410.17,854,778,0
868597,412.48,854,788,0
868608,412.63,854,779,0
868617,410.94,854,788,0
868627,407.57,854,778,0
868637,402.99,854,788,0
868647,397.46,854,778,0
868657,391.54,854,788,0
868667,385.42,854,778,0
868677,379.47,854,788,0
868687,373.88,854,779,0
868697,368.99,854,788,0
868707,364.84,854,778,0
868717,361.54,854,788,0
868727,358.94,854,779,0
868737,357.33,854,788,0
868747,356.41,854,778,0
868757,356.25,854,788,0
868767,356.60,854,779,0
868777,357.24,854,788,0
868787,358.11,854,778,0
868797,359.36,854,788,0
868807,360.75,854,779,0
868817,362.07,854,788,0
868827,363.16,854,778,0
868837,364.19,854,788,0
868847,365.33,854,777,0
868857,366.52,854,788,0
868867,367.52,854,777,0
868877,368.43,854,788,0
868887,369.50,854,778,0
868897,370.77,854,787,0
868908,372.12,854,780,0
868918,373.54,854,788,0
868928,375.01,854,781,0
868938,376.55,854,788,0
868948,378.01,854,783,0
868958,379.34,854,788,0
868968,380.52,854,781,0
868978,381.35,854,787,0
868988,381.80,854,778,0
868998,381.73,854,788,0
869008,381.34,854,776,0
869018,380.51,854,788,0
869028,379.50,854,776,0
869038,378.36,854,788,0
869048,378.26,854,776,0
869058,380.75,854,788,0
869068,388.28,854,780,0
869079,402.94,854,788,0
869098,426.79,906,787,0
869101,460.41,906,782,0
869110,500.87,906,788,0
869121,545.18,906,786,0
869131,590.38,906,787,0
869141,633.13,906,782,0
869151,670.55,906,788,0
869161,700.17,906,779,0
869171,720.90,906,787,0
869181,735.42,906,784,0
869191,745.62,906,788,0
869201,752.72,906,782,0
869211,756.02,906,787,0
869221,752.97,906,784,0
869231,742.65,906,788,0
869241,723.81,906,780,0
869251,696.95,906,787,0
869261,661.87,906,784,0
869271,619.78,906,788,0
869281,572.57,906,778,0
869292,525.00,906,788,0
869302,478.97,906,776,0
869312,437.75,906,788,0
869322,401.48,906,775,0
869332,372.20,906,788,0
869342,349.04,906,779,0
869352,333.25,906,788,0
869362,323.28,906,778,0
869372,319.72,906,788,0
869382,320.62,906,780,0
869392,326.31,906,788,0
869402,334.53,906,779,0
869412,345.56,906,788,0
869422,357.26,906,777,0
869432,369.91,906,788,0
869442,381.51,906,776,0
869452,392.54,906,788,0
869463,401.25,906,775,0
869473,408.38,906,788,0
869483,412.68,906,776,0
869493,415.09,906,788,0
869504,414.80,906,775,0
869513,413.02,906,788,0
869523,409.07,906,775,0
869533,404.46,906,788,0
869543,398.63,906,775,0
869553,392.82,906,788,0
869563,386.40,906,775,0
869573,380.54,906,788,0
869583,374.59,906,775,0
869593,369.74,906,788,0
869603,365.02,906,776,0
869613,361.46,906,788,0
869623,358.23,906,776,0
869633,356.32,906,788,0
869643,354.77,906,776,0
869653,354.41,906,788,0
869663,354.16,906,775,0
869673,354.97,906,788,0
869683,355.66,906,776,0
869693,357.18,906,788,0
869703,358.50,906,775,0
869713,360.28,906,788,0
869723,361.74,906,776,0
869733,363.66,906,788,0
869743,365.00,906,775,0
869753,366.76,906,788,0
869763,367.82,906,775,0
869773,369.12,906,788,0
869783,369.77,906,775,0
869793,370.69,906,788,0
869804,371.13,906,775,0
869814,371.82,906,788,0
869824,372.22,906,776,0
869834,372.92,906,788,0
869844,373.20,906,775,0
869854,373.91,906,788,0
869864,374.15,906,775,0
869874,374.71,906,787,0
869884,375.14,906,775,0
869894,375.74,906,788,0
869904,376.07,906,775,0
869914,376.61,906,788,0
869924,376.86,906,775,0
869934,377.58,906,788,0
869944,378.87,906,775,0
869954,382.76,906,788,0
869964,390.93,906,775,0
869975,406.13,906,788,0
869994,429.62,896,787,0
869997,462.90,896,788,0
870006,502.66,896,780,0
870017,546.35,896,788,0
870027,590.73,896,782,0
870037,632.94,896,788,0
870047,669.86,896,785,0
870057,699.56,896,788,0
870067,720.39,896,781,0
870077,734.97,896,788,0
870087,745.18,896,781,0
870097,749.93,896,788,0
870107,748.19,896,782,0
870117,738.79,896,788,0
870127,721.20,896,783,0
870137,695.21,896,788,0
870147,661.50,896,779,0
870157,620.55,896,788,0
870167,575.73,896,781,0
870177,529.74,896,788,0
870188,485.63,896,784,0
870198,445.11,896,788,0
870208,410.07,896,786,0
870218,380.65,896,788,0
870228,357.61,896,788,0
870238,340.50,896,788,0
870248,329.59,896,786,0
870258,324.10,896,787,0
870268,323.98,896,788,0
870278,327.76,896,788,0
870288,335.16,896,786,0
870298,344.80,896,788,0
870308,356.39,896,788,0
870318,368.36,896,788,0
870328,380.21,896,786,0
870338,390.77,896,788,0
870348,400.27,896,788,0
870359,407.69,896,787,0
870369,413.35,896,788,0
870379,416.50,896,787,0
870389,417.81,896,788,0
870400,416.84,896,782,0
870409,414.49,896,788,0
870419,410.18,896,785,0
870429,405.03,896,788,0
870439,398.72,896,781,0
870449,392.46,896,788,0
870459,385.85,896,784,0
870469,379.98,896,788,0
870479,374.12,896,782,0
870489,369.41,896,788,0
870499,365.09,896,784,0
870509,362.02,896,788,0
870519,359.27,896,782,0
870529,357.69,896,788,0
870539,356.50,896,784,0
870549,356.52,896,788,0
870559,356.62,896,782,0
870569,357.59,896,788,0
870579,358.57,896,785,0
870589,360.29,896,788,0
870599,361.79,896,783,0
870609,363.74,896,788,0
870619,365.31,896,784,0
870629,367.28,896,788,0
870639,368.82,896,782,0
870649,370.59,896,788,0
870659,371.83,896,785,0
870669,373.38,896,788,0
870679,374.34,896,782,0
870689,375.56,896,788,0
870700,376.17,896,780,0
870710,376.97,896,788,0
870720,377.20,896,778,0
870730,377.87,896,787,0
870740,377.99,896,778,0
870750,378.47,896,788,0
870760,378.33,896,778,0
870770,378.61,896,788,0
870780,378.39,896,778,0
870790,378.61,896,788,0
870800,378.04,896,778,0
870810,377.73,896,787,0
870820,377.21,896,778,0
870830,378.13,896,788,0
870840,381.22,896,779,0
870850,389.30,896,788,0
870860,403.57,896,778,0
870880,426.75,886,777,0
870883,459.70,886,777,0
870892,499.60,886,788,0
870902,543.18,886,776,0
870913,587.83,886,788,0
870923,630.18,886,777,0
870933,667.80,886,788,0
870943,698.07,886,776,0
870953,719.35,886,788,0
870963,734.25,886,774,0
870973,744.63,886,788,0
870983,749.50,886,774,0
870993,747.81,886,788,0
871003,738.65,886,775,0
871013,721.65,886,788,0
871023,696.34,886,775,0
871033,663.41,886,788,0
871043,623.30,886,776,0
871053,579.28,886,788,0
871063,534.16,886,775,0
871073,490.65,886,788,0
871084,450.47,886,775,0
871094,415.49,886,788,0
871104,385.98,886,776,0
871114,362.67,886,788,0
871124,345.50,886,778,0
871134,334.25,886,788,0
871144,328.18,886,776,0
871154,326.84,886,788,0
871164,329.50,886,778,0
871174,335.52,886,788,0
871184,343.77,886,775,0
871194,353.56,886,788,0
871204,364.11,886,776,0
871214,374.70,886,788,0
871224,384.48,886,775,0
871234,392.99,886,788,0
871244,399.98,886,775,0
871255,405.51,886,788,0
871265,409.09,886,775,0
871275,410.73,886,788,0
871285,410.69,886,776,0
871296,409.24,886,788,0
871305,406.51,886,774,0
871315,402.76,886,788,0
871325,398.16,886,775,0
871335,393.10,886,788,0
871345,387.92,886,774,0
871355,382.80,886,788,0
871365,378.02,886,777,0
871375,373.64,886,788,0
871385,369.85,886,774,0
871395,366.55,886,788,0
871405,363.99,886,776,0
871415,362.06,886,788,0
871425,360.84,886,778,0
871435,360.29,886,788,0
871445,360.33,886,776,0
871455,360.70,886,788,0
871465,361.44,886,778,0
871475,362.42,886,788,0
871485,363.58,886,776,0
871495,364.69,886,788,0
871505,365.81,886,776,0
871515,366.98,886,788,0
871525,368.10,886,775,0
871535,369.10,886,788,0
871545,369.93,886,779,0
871555,370.55,886,788,0
871565,371.20,886,775,0
871575,371.61,886,788,0
871585,371.86,886,780,0
871596,371.86,886,788,0
871606,372.03,886,783,0
871616,372.11,886,788,0
871626,372.50,886,778,0
871636,372.74,886,788,0
871646,373.24,886,783,0
871656,373.73,886,788,0
871666,374.54,886,782,0
871676,375.15,886,788,0
871686,375.92,886,780,0
871696,376.33,886,788,0
871706,376.87,886,780,0
871716,377.17,886,788,0
871726,377.97,886,780,0
871736,379.87,886,788,0
871746,385.01,886,780,0
871756,395.16,886,788,0
871776,412.56,896,787,0
871779,438.45,896,778,0
871788,473.37,896,788,0
871798,514.06,896,781,0
871809,557.88,896,788,0
871819,601.55,896,779,0
871829,642.23,896,788,0
871839,677.26,896,779,0
871849,704.78,896,788,0
871859,724.05,896,779,0
871869,736.33,896,788,0
871879,740.56,896,778,0
871889,736.96,896,788,0
871899,724.93,896,779,0
871909,704.98,896,788,0
871919,676.83,896,777,0
871929,641.65,896,788,0
871939,600.91,896,778,0
871949,558.73,896,788,0
871959,516.38,896,778,0
871969,476.79,896,788,0
871980,440.43,896,776,0
871990,409.53,896,788,0
872000,383.53,896,775,0
872010,363.48,896,788,0
872020,348.55,896,776,0
872030,339.26,896,788,0
872040,334.25,896,776,0
872050,333.96,896,788,0
872060,336.72,896,776,0
872070,342.67,896,788,0
872080,350.10,896,774,0
872090,359.16,896,788,0
872100,368.37,896,775,0
872110,378.16,896,788,0
872120,386.94,896,775,0
872130,395.10,896,788,0
872140,401.50,896,775,0
872151,406.96,896,788,0
872161,410.32,896,774,0
872171,412.62,896,788,0
872181,412.82,896,774,0
872192,411.93,896,788,0
872201,409.34,896,775,0
872211,406.02,896,788,0
872221,401.52,896,775,0
872231,396.90,896,788,0
872241,391.62,896,776,0
872251,386.55,896,788,0
872261,381.41,896,775,0
872271,376.92,896,788,0
872281,372.61,896,776,0
872291,369.21,896,788,0
872301,366.15,896,776,0
872311,363.75,896,788,0
872321,361.72,896,774,0
872331,360.69,896,788,0
872341,360.01,896,775,0
872351,360.14,896,788,0
872361,360.27,896,774,0
872371,361.00,896,788,0
872381,361.86,896,776,0
872391,363.10,896,788,0
872401,364.01,896,774,0
872411,365.21,896,788,0
872421,366.13,896,775,0
872431,367.21,896,788,0
872441,367.96,896,776,0
872451,368.83,896,788,0
872461,369.31,896,776,0
872471,369.99,896,788,0
872481,370.42,896,776,0
872492,370.98,896,788,0
872502,371.41,896,776,0
872512,371.98,896,788,0
872522,372.45,896,776,0
872532,373.18,896,788,0
872542,373.72,896,776,0
872552,374.32,896,788,0
872562,374.70,896,776,0
872572,375.22,896,788,0
872582,375.49,896,776,0
872592,375.90,896,788,0
872602,376.10,896,776,0
872612,376.29,896,788,0
872622,376.46,896,776,0
872632,377.56,896,788,0
872642,380.57,896,775,0
872652,387.51,896,788,0
872672,399.66,896,787,0
872675,419.00,896,787,0
872684,445.66,896,782,0
872694,479.36,896,788,0
872705,518.72,896,784,0
872715,560.76,896,788,0
872725,602.23,896,784,0
872735,640.14,896,788,0
872745,670.95,896,787,0
872755,692.70,896,788,0
872765,704.10,896,785,0
872775,704.28,896,788,0
872785,694.43,896,787,0
872795,675.40,896,788,0
872805,648.84,896,785,0
872815,616.44,896,788,0
872825,580.78,896,787,0
872835,543.60,896,788,0
872845,507.25,896,781,0
872855,472.85,896,788,0
872865,441.91,896,785,0
872876,414.68,896,787,0
872886,392.23,896,784,0
872896,373.91,896,788,0
872906,360.39,896,787,0
872916,350.80,896,784,0
872926,345.46,896,782,0
872936,343.35,896,787,0
872946,344.79,896,788,0
872956,348.41,896,783,0
872966,354.46,896,783,0
872976,361.48,896,787,0
872986,369.91,896,788,0
872996,378.29,896,785,0
873006,386.99,896,785,0
873016,394.62,896,786,0
873026,401.72,896,787,0
873036,407.16,896,783,0
873047,411.70,896,788,0
873057,414.19,896,779,0
873067,415.80,896,788,0
873077,415.35,896,780,0
873088,414.13,896,788,0
873097,411.22,896,780,0
873107,407.94,896,788,0
873117,403.41,896,781,0
873127,399.22,896,788,0
873137,394.27,896,780,0
873147,389.94,896,788,0
873157,385.29,896,780,0
873167,381.69,896,788,0
873177,378.10,896,782,0
873187,375.84,896,788,0
873197,373.44,896,777,0
873207,371.98,896,788,0
873217,370.57,896,779,0
873227,370.02,896,788,0
873237,369.24,896,780,0
873247,369.30,896,788,0
873257,368.82,896,776,0
873267,369.09,896,788,0
873277,368.81,896,780,0
873287,368.91,896,788,0
873297,368.68,896,777,0
873307,369.12,896,788,0
873317,368.95,896,779,0
873327,369.40,896,788,0
873337,369.45,896,778,0
873347,370.47,896,788,0
873357,371.36,896,780,0
873367,372.79,896,788,0
873377,373.80,896,778,0
873388,375.53,896,788,0
873398,376.87,896,778,0
873408,378.58,896,788,0
873418,379.69,896,775,0
873428,381.07,896,788,0
873438,381.86,896,776,0
873448,382.85,896,788,0
873458,382.98,896,775,0
873468,383.24,896,788,0
873478,382.91,896,777,0
873488,382.85,896,788,0
873498,382.04,896,776,0
873508,381.47,896,788,0
873518,380.90,896,777,0
873528,382.26,896,788,0
873538,386.12,896,777,0
873558,394.62,885,775,0
873561,408.83,885,777,0
873570,430.22,885,788,0
873580,458.06,885,776,0
873590,491.98,885,788,0
873601,529.36,885,777,0
873611,567.82,885,788,0
873621,603.83,885,777,0
873631,634.23,885,788,0
873641,656.62,885,778,0
873651,670.10,885,788,0
873661,673.54,885,777,0
873671,667.51,885,788,0
873681,652.70,885,775,0
873691,630.93,885,788,0
873701,603.78,885,775,0
873711,573.25,885,788,0
873721,540.86,885,777,0
873731,508.63,885,788,0
873741,477.67,885,776,0
873751,449.40,885,788,0
873761,424.21,885,777,0
873772,402.89,885,788,0
873782,385.44,885,775,0
873792,372.06,885,788,0
873802,362.70,885,779,0
873812,357.18,885,788,0
873822,354.94,885,778,0
873832,355.90,885,788,0
873842,359.49,885,775,0
873852,365.47,885,788,0
873862,373.04,885,776,0
873872,381.52,885,788,0
873882,390.49,885,779,0
873892,399.51,885,788,0
873902,407.80,885,776,0
873912,414.85,885,788,0
873922,420.42,885,775,0
873932,424.50,885,788,0
873943,426.92,885,775,0
873953,427.67,885,788,0
873963,427.17,885,775,0
873973,425.49,885,788,0
873984,423.20,885,775,0
873993,420.05,885,788,0
874003,416.48,885,780,0
874013,412.48,885,788,0
874023,408.48,885,776,0
874033,404.18,885,788,0
874043,400.05,885,776,0
874053,395.84,885,788,0
874063,392.11,885,778,0
874073,388.65,885,788,0
874083,385.88,885,775,0
874093,383.39,885,788,0
874103,381.60,885,775,0
874113,380.26,885,788,0
874123,379.63,885,776,0
874133,379.23,885,788,0
874143,379.33,885,779,0
874153,379.44,885,788,0
874163,380.13,885,775,0
874173,380.86,885,788,0
874183,381.97,885,779,0
874193,382.92,885,788,0
874203,384.19,885,775,0
874213,385.08,885,788,0
874223,386.12,885,776,0
874233,386.90,885,788,0
874243,387.79,885,775,0
874253,388.54,885,788,0
874263,389.36,885,778,0
874273,389.90,885,787,0
874284,390.66,885,776,0
874294,391.23,885,788,0
874304,391.93,885,778,0
874314,392.17,885,787,0
874324,392.37,885,786,0
874334,392.65,885,788,0
874344,393.91,885,784,0
874354,396.64,885,788,0
874364,402.75,885,785,0
874374,412.64,885,788,0
874384,428.17,885,784,0
874403,449.25,846,786,0
874406,476.52,846,788,0
874415,508.25,846,786,0
874425,543.15,846,788,0
874435,577.56,846,784,0
874445,609.83,846,788,0
874455,636.67,846,788,0
874465,656.48,846,788,0
874475,667.01,846,781,0
874485,668.81,846,788,0
874496,661.28,846,778,0
874505,646.58,846,788,0
874515,625.02,846,782,0
874525,598.91,846,788,0
874535,569.33,846,781,0
874545,538.80,846,788,0
874555,507.75,846,783,0
874565,478.59,846,788,0
874575,451.07,846,780,0
874585,427.09,846,788,0
874595,406.19,846,785,0
874605,389.68,846,788,0
874615,376.53,846,782,0
874625,367.80,846,785,0
874635,362.25,846,782,0
874645,360.63,846,788,0
874655,361.47,846,781,0
874665,365.40,846,788,0
874675,370.81,846,785,0
874685,378.19,846,788,0
874695,386.02,846,782,0
874705,394.72,846,788,0
874715,402.94,846,784,0
874725,411.10,846,788,0
874735,417.72,846,779,0
874745,423.71,846,788,0
874755,427.96,846,782,0
874765,431.10,846,788,0
874775,432.10,846,782,0
874785,432.03,846,788,0
874796,430.05,846,778,0
874806,427.59,846,788,0
874816,423.56,846,776,0
874826,419.23,846,788,0
874836,413.93,846,778,0
874846,408.98,846,788,0
874856,403.59,846,779,0
874866,399.00,846,788,0
874876,394.24,846,778,0
874886,390.61,846,788,0
874896,387.17,846,778,0
874906,384.98,846,788,0
874916,383.06,846,777,0
874926,382.22,846,788,0
874936,381.56,846,778,0
874946,381.86,846,788,0
874956,382.07,846,776,0
874967,382.99,846,788,0
874977,383.55,846,777,0
874987,384.54,846,788,0
874997,385.20,846,776,0
875008,386.12,846,788,0
875017,386.60,846,777,0
875027,387.45,846,788,0
875037,387.91,846,777,0
875047,388.88,846,788,0
875057,389.48,846,776,0
875067,390.36,846,788,0
875077,390.85,846,776,0
875087,391.67,846,788,0
875097,391.98,846,776,0
875107,392.50,846,788,0
875117,392.44,846,775,0
875127,392.82,846,788,0
875137,393.39,846,776,0
875147,395.71,846,788,0
875157,400.30,846,776,0
875167,409.38,846,788,0
875177,423.45,846,776,0
875187,443.85,846,788,0
875206,470.08,803,787,0
875209,502.24,803,788,0
875218,538.21,803,776,0
875228,575.82,803,788,0
875238,611.53,803,775,0
875248,643.17,803,788,0
875258,667.89,803,776,0
875268,684.68,803,788,0
875278,691.68,803,775,0
875288,689.16,803,788,0
875298,677.41,803,775,0
875308,658.26,803,788,0
875318,632.72,803,775,0
875328,603.11,803,788,0
875338,570.59,803,775,0
875348,537.54,803,788,0
875358,505.11,803,775,0
875368,475.08,803,788,0
875378,447.80,803,775,0
875388,424.37,803,788,0
875398,404.80,803,775,0
875408,389.52,803,788,0
875418,378.09,803,775,0
875428,370.69,803,788,0
875438,366.54,803,776,0
875448,365.69,803,788,0
875458,367.29,803,775,0
875468,371.36,803,788,0
875479,377.16,803,775,0
875489,384.53,803,788,0
875499,392.38,803,775,0
875509,400.63,803,788,0
875520,408.41,803,776,0
875529,415.87,803,788,0
875539,422.08,803,775,0
875549,427.03,803,788,0
875559,430.19,803,776,0
875569,431.98,803,788,0
875579,432.24,803,775,0
875589,431.31,803,788,0
875599,428.99,803,775,0
875609,425.86,803,788,0
875619,421.92,803,775,0
875629,417.74,803,788,0
875639,413.36,803,775,0
875649,409.10,803,788,0
875659,404.78,803,774,0
875669,400.86,803,788,0
875679,397.00,803,775,0
875689,393.62,803,788,0
875699,390.52,803,775,0
875709,388.00,803,788,0
875719,385.99,803,775,0
875729,384.66,803,788,0
875739,383.69,803,775,0
875749,383.44,803,788,0
875759,383.61,803,775,0
875769,384.24,803,788,0
875779,384.90,803,775,0
875789,385.74,803,788,0
875799,386.72,803,775,0
875809,387.96,803,788,0
875820,389.26,803,776,0
875830,390.42,803,788,0
875840,391.45,803,776,0
875850,392.47,803,788,0
875860,393.36,803,776,0
875870,394.11,803,788,0
875880,394.55,803,776,0
875890,394.60,803,788,0
875900,394.38,803,775,0
875910,393.88,803,788,0
875920,393.53,803,776,0
875930,393.84,803,788,0
875940,395.99,803,776,0
875950,401.26,803,788,0
875960,411.30,803,776,0
875970,427.54,803,788,0
875980,450.73,803,776,0
876000,480.56,794,776,0
876003,516.39,794,787,0
876012,555.49,794,788,0
876022,595.11,794,784,0
876033,632.45,794,788,0
876043,664.59,794,787,0
876053,688.75,794,786,0
876063,703.83,794,788,0
876073,707.99,794,780,0
876083,702.64,794,787,0
876093,688.18,794,785,0
876103,666.18,794,788,0
876113,637.71,794,783,0
876123,605.78,794,786,0
876133,571.35,794,787,0
876143,537.26,794,787,0
876153,503.92,794,782,0
876163,473.60,794,786,0
876173,446.21,794,785,0
876183,423.22,794,786,0
876193,403.61,794,781,0
876204,388.60,794,788,0
876214,377.10,794,779,0
876224,370.00,794,788,0
876234,365.93,794,777,0
876244,365.57,794,788,0
876254,367.45,794,778,0
876264,372.20,794,788,0
876274,378.06,794,778,0
876284,385.62,794,788,0
876294,393.15,794,782,0
876304,401.25,794,788,0
876314,408.29,794,780,0
876324,415.06,794,788,0
876334,420.23,794,781,0
876344,424.70,794,788,0
876354,427.11,794,777,0
876364,428.66,794,788,0
876375,428.12,794,776,0
876385,426.84,794,788,0
876395,423.93,794,775,0
876405,420.61,794,788,0
876416,416.10,794,775,0
876425,411.74,794,788,0
876435,406.63,794,775,0
876445,402.03,794,788,0
876455,397.09,794,775,0
876465,392.91,794,788,0
876475,388.65,794,775,0
876485,385.50,794,788,0
876495,382.61,794,775,0
876505,381.01,794,788,0
876515,379.68,794,776,0
876525,379.39,794,788,0
876535,379.23,794,775,0
876545,380.06,794,788,0
876555,380.73,794,775,0
876565,382.18,794,788,0
876575,383.07,794,776,0
876585,384.59,794,788,0
876595,385.70,794,776,0
876605,387.29,794,788,0
876615,388.27,794,774,0
876625,389.65,794,788,0
876635,390.18,794,775,0
876645,391.11,794,788,0
876655,391.29,794,776,0
876665,391.81,794,788,0
876675,391.56,794,776,0
876685,391.65,794,788,0
876695,391.07,794,775,0
876705,391.05,794,788,0
876716,391.29,794,775,0
876726,393.73,794,788,0
876736,398.91,794,775,0
876746,409.22,794,788,0
876756,425.19,794,774,0
876766,448.23,794,788,0
876785,477.69,785,787,0
876788,513.44,785,788,0
876797,552.61,785,775,0
876807,592.54,785,788,0
876817,630.31,785,775,0
876827,663.43,785,788,0
876837,689.01,785,775,0
876847,705.94,785,788,0
876857,712.47,785,775,0
876867,709.29,785,788,0
876877,696.90,785,775,0
876887,676.57,785,788,0
876897,649.36,785,775,0
876907,617.54,785,788,0
876917,582.62,785,775,0
876928,546.95,785,788,0
876937,511.91,785,775,0
876947,479.45,785,788,0
876957,449.91,785,774,0
876967,424.53,785,788,0
876977,403.28,785,775,0
876987,386.65,785,788,0
876997,374.20,785,775,0
877007,366.00,785,787,0
877017,361.28,785,775,0
877027,360.08,785,788,0
877037,361.47,785,775,0
877047,365.40,785,788,0
877057,370.90,785,776,0
877067,377.96,785,788,0
877077,385.64,785,776,0
877087,393.81,785,788,0
877097,401.49,785,775,0
877107,408.67,785,788,0
877117,414.81,785,775,0
877127,419.93,785,788,0
877137,423.51,785,776,0
877147,425.71,785,788,0
877157,426.18,785,775,0
877167,425.44,785,788,0
877177,423.42,785,776,0
877187,420.47,785,788,0
877197,416.39,785,775,0
877207,411.73,785,788,0
877217,406.62,785,775,0
877228,401.76,785,788,0
877238,396.95,785,775,0
877248,392.59,785,788,0
877258,388.56,785,776,0
877268,385.48,785,788,0
877278,382.89,785,775,0
877288,380.99,785,788,0
877298,379.54,785,775,0
877308,378.69,785,788,0
877318,378.27,785,774,0
877328,378.40,785,788,0
877338,378.80,785,774,0
877348,379.63,785,788,0
877358,380.60,785,774,0
877368,381.79,785,788,0
877378,383.05,785,775,0
877388,384.37,785,788,0
877399,385.58,785,775,0
877409,386.69,785,788,0
877419,387.69,785,777,0
877429,388.55,785,788,0
877440,389.20,785,775,0
877449,389.74,785,788,0
877459,390.03,785,775,0
877469,390.15,785,788,0
877479,390.19,785,775,0
877489,390.09,785,788,0
877499,389.94,785,775,0
877509,389.74,785,788,0
877519,389.95,785,778,0
877529,391.29,785,788,0
877539,394.85,785,774,0
877549,402.01,785,788,0
877559,414.48,785,778,0
877569,433.28,785,788,0
877588,459.16,803,787,0
877591,491.86,803,788,0
877600,529.83,803,780,0
877611,570.08,803,788,0
877620,609.83,803,775,0
877630,646.48,803,788,0
877640,678.14,803,777,0
877650,701.79,803,788,0
877660,715.91,803,775,0
877670,719.71,803,788,0
877680,714.14,803,775,0
877690,699.57,803,788,0
877700,676.98,803,777,0
877710,647.12,803,788,0
877720,612.71,803,779,0
877730,575.34,803,788,0
877740,537.57,803,775,0
877750,500.75,803,788,0
877760,466.93,803,778,0
877770,436.48,803,788,0
877780,410.62,803,783,0
877790,389.22,803,788,0
877800,373.00,803,781,0
877810,361.34,803,788,0
877820,354.68,803,781,0
877830,351.95,803,788,0
877840,353.29,803,776,0
877850,357.58,803,788,0
877860,364.60,803,776,0
877870,373.21,803,788,0
877880,383.05,803,780,0
877890,392.80,803,788,0
877900,402.51,803,784,0
877911,410.93,803,788,0
877921,418.15,803,787,0
877931,423.42,803,788,0
877941,427.06,803,785,0
877952,428.59,803,785,0
877961,428.67,803,786,0
877971,426.84,803,787,0
877981,424.14,803,787,0
877991,420.03,803,785,0
878001,415.52,803,785,0
878011,410.26,803,788,0
878021,405.30,803,785,0
878031,400.02,803,786,0
878041,395.47,803,781,0
878051,391.00,803,786,0
878061,387.57,803,787,0
878071,384.36,803,787,0
878081,382.07,803,782,0
878091,380.03,803,788,0
878101,379.12,803,786,0
878111,378.31,803,784,0
878121,378.26,803,788,0
878131,378.23,803,788,0
878141,378.93,803,786,0
878151,379.55,803,786,0
878161,380.67,803,788,0
878171,381.37,803,788,0
878181,382.54,803,785,0
878191,383.24,803,786,0
878201,384.32,803,787,0
878211,384.91,803,788,0
878221,385.71,803,786,0
878231,385.93,803,787,0
878241,386.55,803,787,0
878252,386.60,803,782,0
878262,387.19,803,788,0
878272,387.30,803,779,0
878282,388.07,803,788,0
878292,388.43,803,778,0
878302,389.42,803,788,0
878312,389.76,803,779,0
878322,390.52,803,788,0
878332,390.45,803,777,0
878342,390.62,803,788,0
878352,390.00,803,781,0
878362,390.09,803,788,0
878372,390.40,803,778,0
878382,393.33,803,788,0
878392,399.27,803,780,0
878402,411.06,803,788,0
878422,428.87,833,787,0
878425,454.75,833,788,0
878434,487.61,833,776,0
878444,526.21,833,788,0
878454,566.99,833,775,0
878465,607.67,833,788,0
878475,645.14,833,774,0
878485,678.01,833,788,0
878495,702.09,833,775,0
878505,716.21,833,788,0
878515,719.83,833,774,0
878525,714.10,833,788,0
878535,699.24,833,775,0
878545,676.07,833,788,0
878555,645.15,833,775,0
878565,609.79,833,788,0
878575,571.71,833,775,0
878585,533.44,833,788,0
878595,496.11,833,775,0
878605,461.96,833,788,0
878615,431.67,833,775,0
878625,406.23,833,788,0
878636,385.37,833,774,0
878646,369.79,833,788,0
878656,358.84,833,775,0
878666,352.80,833,788,0
878676,350.72,833,774,0
878686,352.39,833,788,0
878696,356.99,833,775,0
878706,364.06,833,788,0
878716,372.57,833,775,0
878726,382.17,833,788,0
878736,391.89,833,775,0
878746,401.40,833,788,0
878756,409.85,833,775,0
878766,417.22,833,788,0
878776,422.86,833,775,0
878786,426.93,833,788,0
878796,429.09,833,775,0
878807,429.58,833,788,0
878817,428.25,833,775,0
878827,425.73,833,788,0
878837,421.78,833,776,0
878848,417.09,833,788,0
878857,411.58,833,775,0
878867,405.88,833,788,0
878877,400.21,833,775,0
878887,394.92,833,788,0
878897,390.02,833,775,0
878907,385.77,833,788,0
878917,382.19,833,775,0
878927,379.44,833,788,0
878937,377.33,833,775,0
878947,375.95,833,788,0
878957,375.11,833,775,0
878967,374.77,833,788,0
878977,374.80,833,775,0
878987,375.29,833,788,0
878997,376.06,833,775,0
879007,377.11,833,788,0
879017,378.24,833,775,0
879027,379.67,833,788,0
879037,381.09,833,776,0
879047,382.57,833,788,0
879057,383.85,833,776,0
879067,385.10,833,788,0
879077,386.18,833,775,0
879087,387.07,833,788,0
879097,387.74,833,776,0
879107,388.29,833,788,0
879117,388.84,833,776,0
879127,389.36,833,788,0
879137,389.81,833,775,0
879148,390.17,833,788,0
879158,390.55,833,777,0
879168,390.72,833,788,0
879178,390.85,833,776,0
879188,390.64,833,788,0
879198,390.36,833,776,0
879208,390.17,833,788,0
879218,390.80,833,777,0
879228,393.22,833,788,0
879238,399.07,833,775,0
879248,409.89,833,788,0
879267,427.41,846,787,0
879270,452.44,846,787,0
879279,484.88,846,776,0
879289,522.97,846,788,0
879299,563.82,846,780,0
879309,604.55,846,788,0
879319,642.57,846,777,0
879329,675.66,846,788,0
879339,701.09,846,778,0
879349,716.62,846,788,0
879360,722.00,846,781,0
879369,717.85,846,788,0
879379,704.99,846,782,0
879389,683.52,846,788,0
879399,654.52,846,786,0
879409,619.78,846,788,0
879419,582.13,846,784,0
879429,543.35,846,788,0
879439,505.66,846,786,0
879449,470.19,846,788,0
879459,438.80,846,782,0
879469,411.65,846,788,0
879479,389.68,846,784,0
879489,372.59,846,788,0
879499,360.80,846,782,0
879509,353.53,846,788,0
879519,350.93,846,784,0
879529,351.94,846,788,0
879539,356.46,846,778,0
879549,363.18,846,788,0
879559,372.04,846,783,0
879569,381.63,846,788,0
879579,391.90,846,782,0
879589,401.48,846,788,0
879599,410.55,846,783,0
879609,418.06,846,788,0
879619,424.17,846,780,0
879629,428.15,846,788,0
879639,430.55,846,783,0
879649,430.90,846,788,0
879660,429.86,846,779,0
879670,426.94,846,784,0
879680,423.23,846,788,0
879690,418.23,846,781,0
879700,412.98,846,788,0
879710,407.11,846,783,0
879720,401.51,846,788,0
879730,395.66,846,781,0
879740,390.70,846,788,0
879750,385.82,846,787,0
879760,382.19,846,788,0
879770,378.79,846,786,0
879780,376.58,846,788,0
879790,374.61,846,785,0
879800,374.00,846,788,0
879810,373.57,846,785,0
879820,374.13,846,788,0
879831,374.56,846,782,0
879841,375.93,846,788,0
879851,377.03,846,778,0
879861,378.86,846,788,0
879872,380.19,846,776,0
879881,382.02,846,788,0
879891,383.30,846,779,0
879901,384.97,846,788,0
879911,385.88,846,775,0
879921,387.16,846,788,0
879931,387.79,846,777,0
879941,388.89,846,788,0
879951,389.22,846,775,0
879961,390.05,846,788,0
879971,390.08,846,777,0
879981,390.48,846,788,0
879991,390.17,846,775,0
880001,390.29,846,788,0
880011,389.73,846,780,0
880021,390.07,846,787,0
880031,390.95,846,775,0
880041,395.29,846,788,0
880051,403.22,846,779,0
880061,417.64,846,788,0
880071,438.70,846,777,0
880091,468.24,823,776,0
880094,504.55,823,775,0
880103,545.19,823,788,0
880113,586.49,823,775,0
880123,626.63,823,788,0
880133,662.48,823,775,0
880143,692.59,823,788,0
880153,714.96,823,775,0
880163,728.34,823,788,0
880173,732.87,823,775,0
880183,729.01,823,788,0
880193,716.45,823,775,0
880203,695.87,823,788,0
880214,667.37,823,775,0
880223,632.54,823,788,0
880233,593.38,823,775,0
880243,553.02,823,788,0
880253,512.94,823,774,0
880263,475.89,823,788,0
880273,442.19,823,774,0
880283,413.68,823,788,0
880293,389.82,823,774,0
880303,371.66,823,788,0
880313,358.22,823,775,0
880323,350.05,823,788,0
880333,346.05,823,774,0
880343,346.55,823,788,0
880353,349.99,823,775,0
880363,356.59,823,788,0
880373,364.90,823,775,0
880384,375.04,823,788,0
880393,385.44,823,774,0
880403,396.07,823,788,0
880413,405.56,823,774,0
880423,414.35,823,788,0
880433,421.19,823,774,0
880443,426.66,823,788,0
880453,429.76,823,774,0
880463,431.33,823,788,0
880473,430.59,823,774,0
880483,428.61,823,788,0
880493,424.70,823,774,0
880503,419.90,823,788,0
880513,413.80,823,774,0
880523,407.73,823,788,0
880533,401.17,823,774,0
880543,395.21,823,788,0
880553,389.32,823,774,0
880563,384.51,823,788,0
880573,380.15,823,775,0
880583,377.07,823,788,0
880593,374.43,823,774,0
880603,373.06,823,788,0
880613,372.06,823,775,0
880623,372.08,823,788,0
880633,372.27,823,774,0
880643,373.39,823,788,0
880653,374.43,823,774,0
880663,376.06,823,788,0
880673,377.46,823,774,0
880684,379.33,823,788,0
880694,380.90,823,775,0
880704,382.73,823,788,0
880714,384.14,823,774,0
880724,385.81,823,788,0
880734,387.07,823,774,0
880744,388.33,823,788,0
880754,388.96,823,774,0
880764,389.45,823,788,0
880774,389.44,823,775,0
880784,389.48,823,788,0
880794,388.99,823,774,0
880804,388.65,823,788,0
880814,388.50,823,775,0
880824,390.02,823,788,0
880834,394.13,823,774,0
880844,403.05,823,788,0
880855,417.95,823,774,0
880865,440.81,823,788,0
880875,471.68,823,775,0
880894,509.32,804,774,0
880898,550.45,804,777,0
880907,592.53,804,788,0
880917,632.44,804,774,0
880927,667.97,804,788,0
880937,696.95,804,778,0
880947,718.56,804,788,0
880957,732.58,804,776,0
880967,738.79,804,788,0
880977,737.05,804,777,0
880987,727.31,804,788,0
880997,709.52,804,775,0
881007,683.78,804,788,0
881017,650.76,804,777,0
881027,612.34,804,788,0
881037,571.44,804,775,0
881047,530.21,804,788,0
881057,490.89,804,778,0
881068,454.84,804,788,0
881078,423.56,804,778,0
881088,397.29,804,788,0
881098,376.63,804,782,0
881108,361.23,804,788,0
881118,351.39,804,777,0
881128,346.13,804,788,0
881138,345.49,804,784,0
881148,348.30,804,788,0
881158,354.38,804,784,0
881168,362.28,804,788,0
881178,371.93,804,786,0
881188,382.02,804,788,0
881198,392.51,804,781,0
881208,402.17,804,788,0
881218,410.99,804,782,0
881228,417.98,804,788,0
881239,423.52,804,786,0
881249,426.83,804,788,0
881259,428.55,804,785,0
881269,427.87,804,786,0
881280,425.77,804,788,0
881289,421.90,804,788,0
881299,417.38,804,788,0
881309,411.70,804,784,0
881319,405.96,804,788,0
881329,399.67,804,786,0
881339,394.16,804,788,0
881349,388.62,804,786,0
881359,384.19,804,787,0
881369,379.94,804,787,0
881379,376.91,804,787,0
881389,374.28,804,784,0
881399,372.87,804,788,0
881409,371.71,804,787,0
881419,371.67,804,788,0
881429,371.68,804,786,0
881439,372.68,804,787,0
881449,373.55,804,780,0
881459,375.01,804,787,0
881469,376.16,804,785,0
881479,377.83,804,788,0
881489,379.04,804,783,0
881499,380.74,804,787,0
881509,381.89,804,785,0
881519,383.42,804,788,0
881529,384.41,804,781,0
881539,385.79,804,787,0
881549,386.58,804,785,0
881559,387.73,804,788,0
881569,388.03,804,784,0
881580,388.45,804,788,0
881590,388.14,804,780,0
881600,388.19,804,788,0
881610,387.62,804,777,0
881620,387.95,804,788,0
881630,388.99,804,780,0
881640,393.28,804,788,0
881650,401.72,804,779,0
881660,417.24,804,788,0
881670,440.01,804,780,0
881689,472.02,795,778,0
881692,510.11,795,776,0
881701,551.99,795,788,0
881711,594.34,795,778,0
881721,634.78,795,788,0
881731,670.12,795,775,0
881741,699.18,795,788,0
881751,720.04,795,775,0
881761,734.64,795,788,0
881771,744.82,795,775,0
881781,749.68,795,788,0
881792,747.54,795,775,0
881801,738.60,795,788,0
881811,721.66,795,775,0
881821,697.33,795,788,0
881831,665.30,795,775,0
881841,626.94,795,788,0
881851,584.49,795,775,0
881861,541.96,795,788,0
881871,500.23,795,775,0
881881,462.40,795,788,0
881891,428.55,795,775,0
881901,400.57,795,788,0
881911,377.51,795,775,0
881921,360.82,795,788,0
881931,349.00,795,775,0
881941,342.87,795,788,0
881951,340.72,795,775,0
881961,343.12,795,788,0
881971,348.10,795,776,0
881981,356.13,795,788,0
881991,365.17,795,775,0
882001,375.79,795,788,0
882011,386.01,795,776,0
882021,396.25,795,788,0
882031,404.88,795,776,0
882041,412.58,795,788,0
882051,417.90,795,777,0
882061,421.66,795,788,0
882071,422.62,795,775,0
882081,422.13,795,788,0
882092,419.39,795,775,0
882102,415.63,795,788,0
882112,410.34,795,775,0
882122,404.75,795,788,0
882132,398.48,795,775,0
882142,392.72,795,788,0
882152,386.76,795,775,0
882162,381.74,795,788,0
882172,376.89,795,775,0
882182,373.23,795,788,0
882192,369.99,795,775,0
882202,367.68,795,788,0
882212,365.72,795,775,0
882222,364.95,795,788,0
882232,364.49,795,775,0
882242,365.03,795,788,0
882252,365.49,795,774,0
882263,366.67,795,788,0
882273,368.06,795,775,0
882283,370.05,795,788,0
882293,371.88,795,775,0
882304,374.02,795,788,0
882313,375.90,795,775,0
882323,378.11,795,788,0
882333,379.97,795,774,0
882343,381.78,795,787,0
882353,383.17,795,774,0
882363,384.49,795,788,0
882373,385.12,795,774,0
882383,385.51,795,787,0
882393,385.36,795,775,0
882403,385.29,795,788,0
882413,384.86,795,774,0
882423,384.47,795,788,0
882433,383.69,795,775,0
882443,383.31,795,788,0
882453,382.92,795,775,0
882463,383.16,795,788,0
882473,384.40,795,774,0
882483,388.48,795,788,0
882493,396.82,795,775,0
882503,411.96,795,788,0
882523,435.33,833,787,0
882526,468.27,833,788,0
882535,507.49,833,776,0
882545,550.24,833,788,0
882555,593.63,833,776,0
882565,635.01,833,788,0
882575,671.44,833,777,0
882585,700.66,833,788,0
882595,721.16,833,774,0
882605,735.51,833,788,0
882615,745.56,833,775,0
882625,752.59,833,788,0
882635,756.40,833,775,0
882646,754.87,833,788,0
882655,746.81,833,776,0
882665,731.26,833,788,0
882675,707.70,833,775,0
882685,676.29,833,788,0
882695,637.72,833,775,0
882705,593.83,833,788,0
882715,548.15,833,776,0
882725,503.19,833,788,0
882735,461.39,833,775,0
882745,424.59,833,788,0
882755,393.81,833,776,0
882765,369.27,833,788,0
882775,351.15,833,776,0
882785,339.23,833,788,0
882795,333.38,833,775,0
882805,332.75,833,788,0
882816,336.60,833,775,0
882825,343.83,833,788,0
882835,353.52,833,775,0
882845,364.68,833,788,0
882855,376.56,833,776,0
882865,388.14,833,788,0
882875,398.72,833,775,0
882885,407.64,833,788,0
882895,414.64,833,775,0
882905,419.64,833,788,0
882915,422.40,833,775,0
882925,422.97,833,788,0
882935,421.52,833,776,0
882945,418.36,833,788,0
882955,413.84,833,775,0
882965,408.27,833,788,0
882975,402.06,833,775,0
882985,395.57,833,788,0
882995,389.10,833,774,0
883005,382.94,833,788,0
883015,377.35,833,775,0
883025,372.53,833,788,0
883035,368.51,833,775,0
883045,365.40,833,788,0
883055,363.22,833,776,0
883065,362.00,833,788,0
883075,361.57,833,775,0
883085,361.83,833,788,0
883095,362.65,833,775,0
883105,363.91,833,788,0
883116,365.44,833,776,0
883126,367.02,833,788,0
883136,368.77,833,777,0
883146,370.47,833,788,0
883156,372.26,833,776,0
883166,373.81,833,788,0
883176,375.37,833,777,0
883186,376.58,833,788,0
883196,377.91,833,778,0
883206,378.84,833,788,0
883216,379.79,833,777,0
883226,380.36,833,788,0
883236,380.94,833,781,0
883246,381.26,833,788,0
883256,381.70,833,777,0
883266,381.83,833,788,0
883276,382.14,833,780,0
883287,382.14,833,788,0
883297,382.23,833,781,0
883307,382.07,833,788,0
883317,382.27,833,786,0
883328,383.09,833,788,0
883337,386.10,833,776,0
883347,392.63,833,788,0
883357,405.55,833,782,0
883377,426.30,854,785,0
883380,457.58,854,788,0
883389,495.77,854,776,0
883399,538.31,854,788,0
883409,582.27,854,775,0
883419,625.13,854,788,0
883429,663.49,854,778,0
883439,695.19,854,788,0
883449,717.37,854,775,0
883459,732.95,854,788,0
883469,743.85,854,776,0
883479,751.52,854,788,0
883489,756.81,854,775,0
883500,758.58,854,788,0
883510,753.99,854,776,0
883520,742.21,854,788,0
883530,721.70,854,774,0
883540,692.95,854,788,0
883550,655.85,854,775,0
883560,611.80,854,788,0
883570,562.91,854,775,0
883580,514.13,854,788,0
883590,467.20,854,775,0
883600,425.66,854,788,0
883610,389.72,854,775,0
883620,361.22,854,788,0
883630,339.29,854,776,0
883640,325.11,854,788,0
883650,317.15,854,775,0
883660,315.90,854,788,0
883671,319.32,854,775,0
883681,327.49,854,788,0
883691,338.27,854,774,0
883701,351.48,854,788,0
883712,364.88,854,775,0
883721,378.46,854,788,0
883731,390.36,854,774,0
883741,401.10,854,788,0
883751,409.25,854,774,0
883761,415.56,854,788,0
883771,418.99,854,774,0
883781,420.58,854,788,0
883791,419.59,854,775,0
883801,417.14,854,788,0
883811,412.64,854,775,0
883821,407.35,854,788,0
883831,400.73,854,775,0
883841,394.08,854,788,0
883851,386.94,854,775,0
883861,380.62,854,788,0
883871,374.65,854,775,0
883881,369.78,854,788,0
883891,365.43,854,775,0
883901,362.39,854,788,0
883911,359.91,854,774,0
883921,358.83,854,788,0
883931,358.06,854,775,0
883941,358.30,854,788,0
883951,358.73,854,775,0
883961,360.01,854,788,0
883971,361.12,854,775,0
883981,362.80,854,788,0
883991,364.19,854,774,0
884001,366.02,854,788,0
884012,367.34,854,774,0
884022,369.00,854,788,0
884032,370.15,854,774,0
884042,371.65,854,788,0
884052,372.78,854,774,0
884062,374.09,854,788,0
884072,375.01,854,775,0
884082,376.08,854,788,0
884092,376.74,854,774,0
884102,377.29,854,788,0
884112,377.20,854,774,0
884122,377.14,854,788,0
884132,376.67,854,774,0
884142,376.43,854,788,0
884152,375.96,854,774,0
884162,375.80,854,788,0
884172,375.52,854,774,0
884183,375.70,854,788,0
884193,375.84,854,775,0
884203,377.04,854,788,0
884213,379.99,854,774,0
884224,387.02,854,788,0
884233,399.31,854,775,0
884252,419.75,876,774,0
884255,450.25,876,777,0
884264,488.41,876,788,0
884274,531.01,876,775,0
884284,575.45,876,788,0
884294,618.56,876,775,0
884304,657.99,876,789,0
884314,690.78,876,775,0
884324,714.25,876,788,0
884334,730.67,876,775,0
884344,742.17,876,788,0
884354,750.22,876,775,0
884364,755.85,876,788,0
884374,757.01,876,776,0
884384,751.52,876,788,0
884395,737.99,876,775,0
884404,716.01,876,788,0
884414,685.28,876,775,0
884424,646.11,876,787,0
884434,599.23,876,776,0
884444,548.59,876,788,0
884454,498.06,876,775,0
884464,450.55,876,787,0
884474,408.09,876,775,0
884484,372.45,876,788,0
884494,344.54,876,775,0
884504,324.62,876,787,0
884514,312.48,876,775,0
884524,307.66,876,788,0
884534,309.31,876,776,0
884544,316.33,876,788,0
884554,327.33,876,777,0
884564,341.07,876,788,0
884574,356.39,876,776,0
884584,372.05,876,788,0
884594,386.86,876,775,0
884604,399.97,876,788,0
884614,410.57,876,775,0
884624,418.54,876,788,0
884634,423.56,876,774,0
884644,425.84,876,788,0
884654,425.54,876,774,0
884664,422.98,876,788,0
884674,418.70,876,775,0
884684,413.18,876,788,0
884695,406.74,876,775,0
884705,399.87,876,788,0
884715,392.84,876,776,0
884725,385.82,876,788,0
884736,379.31,876,777,0
884745,373.43,876,788,0
884755,368.50,876,774,0
884765,364.32,876,788,0
884775,361.27,876,777,0
884785,358.96,876,788,0
884795,357.64,876,776,0
884805,356.98,876,788,0
884815,357.11,876,776,0
884825,357.72,876,788,0
884835,358.88,876,775,0
884845,360.16,876,788,0
884855,361.78,876,776,0
884865,363.48,876,788,0
884875,365.35,876,775,0
884885,367.00,876,788,0
884895,368.71,876,777,0
884905,370.26,876,788,0
884915,371.81,876,776,0
884925,373.19,876,788,0
884935,374.59,876,777,0
884945,375.62,876,788,0
884955,376.67,876,775,0
884965,377.41,876,788,0
884975,378.19,876,778,0
884985,378.65,876,788,0
884995,379.05,876,775,0
885005,379.17,876,788,0
885015,379.29,876,776,0
885025,379.07,876,788,0
885036,378.97,876,778,0
885046,378.98,876,788,0
885056,380.35,876,781,0
885066,384.23,876,788,0
885076,393.04,876,781,0
885086,408.28,876,788,0
885105,432.15,853,787,0
885108,465.49,853,776,0
885117,505.33,853,788,0
885127,548.60,853,788,0
885137,592.65,853,785,0
885147,634.16,853,784,0
885157,670.88,853,787,0
885167,700.27,853,786,0
885177,720.89,853,784,0
885187,735.32,853,786,0
885197,745.43,853,787,0
885207,752.50,853,788,0
885217,754.19,853,785,0
885227,748.31,853,784,0
885237,734.16,853,787,0
885248,710.80,853,782,0
885257,679.10,853,784,0
885267,639.08,853,787,0
885277,591.92,853,787,0
885287,541.37,853,785,0
885297,491.93,853,784,0
885307,445.54,853,787,0
885317,405.00,853,787,0
885327,370.33,853,786,0
885337,343.23,853,783,0
885347,323.06,853,786,0
885357,310.70,853,787,0
885367,304.62,853,783,0
885377,305.08,853,785,0
885387,310.41,853,788,0
885397,320.49,853,786,0
885407,333.20,853,786,0
885417,348.35,853,788,0
885427,363.80,853,788,0
885437,379.42,853,786,0
885447,393.31,853,785,0
885457,405.60,853,788,0
885467,414.94,853,786,0
885477,421.90,853,787,0
885487,425.44,853,785,0
885497,426.64,853,788,0
885507,424.95,853,787,0
885517,421.53,853,786,0
885527,415.89,853,787,0
885537,409.45,853,788,0
885548,401.60,853,782,0
885558,393.96,853,788,0
885568,385.83,853,776,0
885578,378.64,853,788,0
885588,371.59,853,776,0
885598,365.97,853,788,0
885608,360.75,853,777,0
885618,357.27,853,788,0
885628,354.15,853,774,0
885638,352.73,853,788,0
885648,351.48,853,776,0
885658,351.59,853,788,0
885668,351.67,853,775,0
885678,352.84,853,788,0
885688,353.70,853,778,0
885698,355.38,853,788,0
885708,356.51,853,776,0
885719,358.24,853,788,0
885729,359.41,853,776,0
885739,361.17,853,788,0
885749,362.28,853,774,0
885760,363.91,853,788,0
885769,365.01,853,775,0
885779,366.63,853,788,0
885789,367.69,853,775,0
885799,369.07,853,788,0
885809,369.69,853,775,0
885819,370.77,853,788,0
885829,371.14,853,775,0
885839,371.87,853,788,0
885849,371.78,853,775,0
885859,372.19,853,788,0
885869,372.09,853,776,0
885879,372.62,853,788,0
885889,372.95,853,775,0
885899,375.15,853,788,0
885909,379.56,853,775,0
885919,389.25,853,788,0
885929,405.08,853,774,0
885948,429.57,843,775,0
885951,463.13,843,775,0
885960,503.37,843,788,0
885970,546.80,843,775,0
885980,591.09,843,788,0
885990,632.76,843,775,0
886000,669.61,843,788,0
886010,699.17,843,775,0
886020,720.12,843,788,0
886030,734.78,843,775,0
886040,745.05,843,788,0
886050,749.70,843,775,0
886060,747.99,843,788,0
886070,738.22,843,775,0
886080,720.16,843,788,0
886090,693.28,843,775,0
886100,658.27,843,788,0
886110,615.63,843,775,0
886120,568.98,843,788,0
886130,520.69,843,774,0
886140,474.37,843,788,0
886150,431.53,843,775,0
886160,394.64,843,788,0
886170,363.85,843,774,0
886180,340.11,843,788,0
886190,322.89,843,775,0
886200,312.59,843,788,0
886210,308.04,843,775,0
886220,309.27,843,788,0
886231,314.42,843,774,0
886241,323.38,843,788,0
886251,334.28,843,774,0
886261,346.84,843,788,0
886272,359.62,843,774,0
886281,372.50,843,788,0
886291,383.97,843,775,0
886301,394.13,843,788,0
886311,401.89,843,774,0
886321,407.80,843,788,0
886331,411.07,843,774,0
886341,412.16,843,788,0
886351,410.74,843,775,0
886361,407.74,843,788,0
886371,402.97,843,774,0
886381,397.41,843,788,0
886391,390.86,843,774,0
886401,384.34,843,788,0
886411,377.73,843,774,0
886421,371.81,843,788,0
886431,366.21,843,775,0
886441,361.65,843,788,0
886451,357.55,843,774,0
886461,354.69,843,788,0
886471,352.47,843,774,0
886481,351.30,843,788,0
886491,350.52,843,774,0
886501,350.62,843,788,0
886511,350.99,843,774,0
886521,352.11,843,788,0
886531,353.11,843,774,0
886541,354.49,843,788,0
886551,355.80,843,774,0
886561,357.44,843,788,0
886572,358.90,843,775,0
886582,360.43,843,788,0
886592,361.67,843,775,0
886602,363.10,843,788,0
886612,364.23,843,774,0
886622,365.27,843,788,0
886632,365.83,843,774,0
886642,366.40,843,788,0
886652,366.84,843,775,0
886662,367.23,843,788,0
886672,367.29,843,774,0
886682,367.37,843,788,0
886692,367.30,843,775,0
886702,367.51,843,788,0
886712,367.53,843,774,0
886722,367.54,843,788,0
886732,367.77,843,775,0
886743,368.61,843,788,0
886753,370.65,843,776,0
886763,375.30,843,788,0
886773,384.17,843,776,0
886793,399.07,844,775,0
886796,422.02,844,786,0
886805,453.17,844,788,0
886815,491.61,844,780,0
886825,534.15,844,788,0
886835,577.99,844,780,0
886845,620.17,844,788,0
886855,658.26,844,781,0
886865,689.51,844,787,0
886875,712.97,844,779,0
886885,726.78,844,788,0
886895,731.65,844,783,0
886905,727.30,844,788,0
886915,714.35,844,780,0
886925,692.73,844,788,0
886935,663.11,844,780,0
886945,626.09,844,788,0
886956,585.05,844,783,0
886966,541.79,844,786,0
886976,499.47,844,786,0
886986,459.17,844,787,0
886996,423.25,844,788,0
887006,392.10,844,788,0
887016,366.87,844,785,0
887026,346.94,844,782,0
887036,333.24,844,788,0
887046,324.47,844,788,0
887056,320.94,844,787,0
887066,321.05,844,787,0
887076,324.85,844,788,0
887086,330.94,844,788,0
887096,339.44,844,786,0
887106,348.69,844,786,0
887116,359.03,844,787,0
887127,368.79,844,784,0
887137,378.41,844,788,0
887147,386.47,844,779,0
887157,393.62,844,788,0
887168,398.49,844,776,0
887177,402.16,844,788,0
887187,403.57,844,777,0
887197,403.83,844,788,0
887207,401.91,844,778,0
887217,399.32,844,788,0
887227,395.11,844,781,0
887237,390.79,844,788,0
887247,385.41,844,780,0
887257,380.32,844,788,0
887267,374.86,844,782,0
887277,370.36,844,788,0
887287,365.75,844,778,0
887297,362.36,844,788,0
887307,359.16,844,782,0
887317,357.27,844,788,0
887327,355.48,844,780,0
887337,354.73,844,788,0
887347,354.04,844,784,0
887357,354.37,844,788,0
887367,354.47,844,779,0
887377,355.45,844,788,0
887387,356.08,844,780,0
887397,357.43,844,788,0
887407,358.33,844,782,0
887417,359.86,844,788,0
887427,360.89,844,782,0
887437,362.42,844,788,0
887447,363.28,844,778,0
887457,364.57,844,788,0
887468,365.21,844,776,0
887478,366.35,844,788,0
887488,366.76,844,776,0
887498,367.52,844,788,0
887508,367.70,844,775,0
887518,368.39,844,788,0
887528,368.40,844,776,0
887538,369.01,844,788,0
887548,368.96,844,775,0
887558,369.49,844,788,0
887568,369.39,844,775,0
887578,369.78,844,788,0
887588,369.55,844,776,0
887598,369.94,844,788,0
887608,369.66,844,776,0
887618,370.32,844,788,0
887628,371.47,844,775,0
887639,375.57,844,788,0
887649,382.94,844,775,0
887668,396.07,876,774,0
887671,415.55,876,775,0
887681,442.47,876,788,0
887691,475.24,876,775,0
887701,513.06,876,788,0
887711,552.51,876,775,0
887721,591.19,876,788,0
887731,625.37,876,774,0
887741,652.39,876,788,0
887751,669.97,876,774,0
887761,677.44,876,788,0
887771,674.56,876,774,0
887781,662.35,876,788,0
887791,641.72,876,775,0
887801,614.50,876,788,0
887811,582.38,876,774,0
887821,548.07,876,788,0
887831,513.07,876,775,0
887841,479.11,876,788,0
887852,447.32,876,775,0
887862,418.98,876,788,0
887872,394.73,876,774,0
887882,375.01,876,788,0
887892,359.45,876,775,0
887902,348.34,876,788,0
887912,341.04,876,775,0
887922,337.56,876,788,0
887932,337.35,876,775,0
887942,340.07,876,788,0
887952,345.02,876,774,0
887962,351.79,876,788,0
887972,359.65,876,774,0
887982,368.37,876,788,0
887992,377.04,876,775,0
888002,385.43,876,788,0
888012,392.84,876,775,0
888023,399.15,876,788,0
888033,403.99,876,775,0
888043,407.34,876,788,0
888053,409.16,876,775,0
888064,409.54,876,788,0
888073,408.57,876,775,0
888083,406.38,876,788,0
888093,403.31,876,775,0
888103,399.66,876,788,0
888113,395.73,876,776,0
888123,391.57,876,788,0
888133,387.59,876,776,0
888143,383.72,876,788,0
888153,380.34,876,775,0
888163,377.19,876,788,0
888173,374.39,876,775,0
888183,372.05,876,788,0
888193,370.19,876,775,0
888203,368.76,876,788,0
888213,367.93,876,775,0
888223,367.57,876,788,0
888233,367.83,876,777,0
888243,368.44,876,788,0
888253,369.29,876,775,0
888263,370.27,876,788,0
888273,371.48,876,776,0
888283,372.62,876,788,0
888293,373.59,876,775,0
888303,374.40,876,788,0
888313,375.09,876,775,0
888323,375.58,876,788,0
888333,376.09,876,775,0
888343,376.49,876,788,0
888353,376.90,876,776,0
888364,377.32,876,788,0
888374,377.78,876,776,0
888384,378.36,876,788,0
888394,379.15,876,777,0
888404,379.79,876,788,0
888414,380.41,876,776,0
888424,380.85,876,788,0
888434,381.32,876,777,0
888444,381.61,876,788,0
888454,381.86,876,777,0
888464,381.86,876,788,0
888474,382.07,876,775,0
888484,381.96,876,788,0
888494,382.15,876,775,0
888504,382.87,876,788,0
888514,385.40,876,776,0
888524,390.72,876,788,0
888535,400.45,876,778,0
888554,415.27,886,778,0
888557,437.05,886,787,0
888566,464.59,886,781,0
888577,497.50,886,788,0
888587,533.01,886,779,0
888597,569.13,886,788,0
888607,602.09,886,777,0
888617,629.97,886,788,0
888627,649.39,886,779,0
888637,660.37,886,788,0
888647,661.16,886,776,0
888657,653.31,886,788,0
888667,636.93,886,778,0
888677,614.58,886,788,0
888687,586.94,886,776,0
888697,556.78,886,788,0
888707,524.79,886,777,0
888717,493.95,886,788,0
888727,464.18,886,777,0
888737,437.47,886,788,0
888748,413.46,886,775,0
888758,393.78,886,788,0
888768,377.56,886,775,0
888778,365.86,886,788,0
888788,357.50,886,774,0
888798,353.45,886,788,0
888808,352.07,886,775,0
888818,354.24,886,788,0
888828,358.11,886,774,0
888838,364.33,886,788,0
888848,371.30,886,775,0
888858,379.40,886,788,0
888868,387.12,886,774,0
888878,395.19,886,788,0
888888,402.03,886,774,0
888898,408.45,886,788,0
888908,413.16,886,774,0
888919,417.01,886,788,0
888929,419.15,886,774,0
888939,420.39,886,788,0
888949,419.97,886,774,0
888960,418.91,886,788,0
888969,416.62,886,774,0
888979,413.95,886,788,0
888989,410.37,886,774,0
888999,406.66,886,788,0
889009,402.39,886,774,0
889019,398.50,886,788,0
889029,394.28,886,773,0
889039,390.51,886,788,0
889049,386.67,886,774,0
889059,383.64,886,788,0
889069,380.92,886,774,0
889079,379.23,886,788,0
889089,377.79,886,774,0
889099,377.38,886,788,0
889109,377.18,886,773,0
889119,377.77,886,788,0
889129,378.40,886,774,0
889139,379.48,886,788,0
889149,380.36,886,774,0
889159,381.45,886,788,0
889169,382.30,886,774,0
889179,383.41,886,788,0
889189,384.19,886,773,0
889199,385.07,886,788,0
889209,385.65,886,774,0
889219,386.44,886,788,0
889229,386.91,886,774,0
889239,387.54,886,788,0
889249,387.85,886,774,0
889260,388.45,886,788,0
889270,388.74,886,774,0
889280,389.12,886,788,0
889290,389.04,886,774,0
889300,389.11,886,788,0
889310,388.74,886,774,0
889320,388.47,886,788,0
889330,388.29,886,774,0
889340,389.27,886,788,0
889350,392.19,886,774,0
889360,398.82,886,788,0
889370,410.27,886,774,0
889390,428.02,835,773,0
889393,452.61,835,775,0
889402,483.59,835,788,0
