Time,PPG,IBI,GSR,GSR_Event
3819159,346.45,623,752,0
3819169,335.43,623,754,0
3819180,324.84,623,753,0
3819190,314.56,623,754,0
3819200,305.95,623,753,0
3819210,298.38,623,754,0
3819220,292.65,623,754,0
3819230,293.06,623,754,0
3819240,299.47,623,753,0
3819250,308.67,623,754,0
3819260,320.34,623,754,0
3819270,332.28,623,754,0
3819280,344.54,623,753,0
3819290,355.09,623,753,0
3819300,364.54,623,753,0
3819310,371.45,623,754,0
3819320,377.01,623,753,0
3819330,380.14,623,753,0
3819340,382.15,623,754,0
3819351,382.15,623,754,0
3819361,381.63,623,754,0
3819371,379.82,623,753,0
3819381,378.33,623,754,0
3819392,375.96,623,753,0
3819401,374.08,623,754,0
3819411,371.49,623,753,0
3819421,369.76,623,754,0
3819431,367.64,623,755,0
3819441,366.68,623,754,0
3819451,365.53,623,753,0
3819461,366.23,623,754,0
3819471,368.13,623,753,0
3819481,373.45,623,754,0
3819491,381.67,623,753,0
3819501,395.36,623,754,0
3819511,413.72,623,753,0
3819521,438.36,623,754,0
3819531,467.52,623,753,0
3819541,501.27,623,754,0
3819551,536.50,623,753,0
3819561,572.27,623,755,0
3819571,604.76,623,753,0
3819590,633.16,652,754,0
3819593,656.17,652,755,0
3819602,674.50,652,756,0
3819612,685.88,652,754,0
3819622,691.10,652,756,0
3819632,688.80,652,755,0
3819642,680.89,652,756,0
3819652,666.78,652,754,0
3819662,647.09,652,756,0
3819672,620.49,652,755,0
3819682,590.34,652,756,0
3819692,556.85,652,754,0
3819702,523.34,652,756,0
3819712,489.34,652,755,0
3819722,457.82,652,756,0
3819732,428.05,652,754,0
3819742,402.79,652,756,0
3819752,380.61,652,755,0
3819762,363.50,652,756,0
3819772,349.89,652,754,0
3819782,341.65,652,756,0
3819792,336.57,652,755,0
3819802,336.10,652,756,0
3819812,337.83,652,754,0
3819822,342.76,652,756,0
3819832,348.49,652,755,0
3819842,356.02,652,756,0
3819852,362.87,652,754,0
3819863,370.37,652,756,0
3819873,376.21,652,755,0
3819883,381.81,652,756,0
3819893,385.21,652,754,0
3819904,388.06,652,756,0
3819913,388.60,652,755,0
3819923,388.72,652,756,0
3819933,386.62,652,754,0
3819943,384.38,652,756,0
3819953,380.53,652,755,0
3819963,377.12,652,756,0
3819973,372.58,652,754,0
3819983,368.89,652,756,0
3819993,364.51,652,754,0
3820003,361.44,652,757,0
3820013,357.97,652,754,0
3820023,355.71,652,756,0
3820033,353.09,652,755,0
3820043,351.87,652,756,0
3820053,350.15,652,754,0
3820063,349.59,652,756,0
3820073,348.98,652,755,0
3820083,350.32,652,757,0
3820093,352.41,652,754,0
3820103,357.69,652,756,0
3820113,365.58,652,755,0
3820123,378.52,652,757,0
3820133,395.72,652,755,0
3820143,418.95,652,757,0
3820153,446.31,652,755,0
3820163,478.40,652,757,0
3820182,511.97,592,755,0
3820185,545.79,592,758,0
3820194,577.22,592,755,0
3820204,605.66,592,757,0
3820214,627.62,592,755,0
3820224,643.16,592,756,0
3820234,650.36,592,755,0
3820244,650.51,592,757,0
3820254,643.50,592,755,0
3820264,630.62,592,756,0
3820274,611.45,592,755,0
3820284,588.56,592,757,0
3820294,562.29,592,755,0
3820304,535.12,592,756,0
3820314,506.84,592,755,0
3820324,479.42,592,757,0
3820334,452.51,592,755,0
3820344,428.23,592,756,0
3820354,405.83,592,755,0
3820364,386.85,592,757,0
3820375,370.48,592,755,0
3820385,358.08,592,756,0
3820395,348.80,592,754,0
3820405,343.55,592,757,0
3820416,341.15,592,755,0
3820425,342.14,592,756,0
3820435,345.01,592,754,0
3820445,350.02,592,756,0
3820455,355.80,592,754,0
3820465,362.50,592,756,0
3820475,368.82,592,754,0
3820485,374.88,592,757,0
3820495,379.84,592,755,0
3820505,384.00,592,756,0
3820515,386.57,592,754,0
3820525,388.20,592,757,0
3820535,388.23,592,754,0
3820545,387.47,592,756,0
3820555,385.40,592,754,0
3820565,382.84,592,757,0
3820575,379.42,592,754,0
3820585,375.99,592,756,0
3820595,372.14,592,754,0
3820605,368.50,592,756,0
3820615,364.83,592,754,0
3820625,361.67,592,756,0
3820635,358.51,592,754,0
3820645,356.09,592,756,0
3820655,353.75,592,754,0
3820665,351.94,592,756,0
3820675,350.33,592,754,0
3820685,349.46,592,756,0
3820695,349.23,592,754,0
3820705,350.49,592,756,0
3820716,353.43,592,754,0
3820726,359.39,592,756,0
3820736,369.04,592,754,0
3820746,383.30,592,755,0
3820756,402.50,592,755,0
3820766,426.82,592,756,0
3820776,455.42,592,754,0
3820786,487.39,592,756,0
3820806,520.96,623,755,0
3820809,553.24,623,757,0
3820818,583.47,623,755,0
3820828,608.40,623,755,0
3820838,627.18,623,755,0
3820848,638.35,623,756,0
3820858,641.68,623,755,0
3820868,636.72,623,755,0
3820878,625.44,623,755,0
3820888,607.18,623,755,0
3820898,584.71,623,755,0
3820908,558.19,623,755,0
3820918,529.93,623,755,0
3820929,500.21,623,755,0
3820939,471.60,623,755,0
3820949,443.95,623,755,0
3820959,419.37,623,756,0
3820969,397.23,623,755,0
3820979,379.33,623,755,0
3820989,364.57,623,755,0
3820999,354.76,623,756,0
3821009,347.93,623,755,0
3821019,345.47,623,755,0
3821029,345.24,623,755,0
3821039,348.43,623,755,0
3821049,352.84,623,755,0
3821059,359.62,623,755,0
3821069,366.42,623,755,0
3821079,374.48,623,755,0
3821089,381.49,623,755,0
3821100,388.72,623,756,0
3821110,394.03,623,755,0
3821120,398.95,623,756,0
3821130,401.54,623,755,0
3821140,403.52,623,756,0
3821150,403.28,623,755,0
3821160,402.68,623,756,0
3821170,400.20,623,755,0
3821180,398.00,623,756,0
3821190,394.61,623,755,0
3821200,392.07,623,756,0
3821210,388.41,623,755,0
3821220,385.54,623,756,0
3821230,381.78,623,755,0
3821240,378.97,623,756,0
3821250,375.13,623,755,0
3821260,372.09,623,756,0
3821271,368.03,623,755,0
3821281,365.24,623,756,0
3821291,362.17,623,755,0
3821301,361.22,623,756,0
3821312,361.28,623,755,0
3821321,365.10,623,756,0
3821331,371.75,623,755,0
3821341,383.96,623,757,0
3821351,400.60,623,755,0
3821361,423.43,623,756,0
3821371,450.26,623,755,0
3821381,481.64,623,757,0
3821391,514.19,623,755,0
3821410,547.48,605,753,0
3821413,577.03,605,756,0
3821422,602.82,605,757,0
3821432,621.73,605,755,0
3821442,634.41,605,756,0
3821452,638.70,605,755,0
3821462,636.31,605,757,0
3821472,626.19,605,755,0
3821483,611.52,605,756,0
3821492,591.48,605,754,0
3821502,569.00,605,757,0
3821512,543.50,605,755,0
3821522,517.72,605,756,0
3821532,491.11,605,755,0
3821542,466.05,605,757,0
3821552,441.73,605,755,0
3821562,420.08,605,756,0
3821572,399.96,605,755,0
3821582,383.34,605,757,0
3821592,369.01,605,755,0
3821602,358.55,605,756,0
3821612,350.63,605,755,0
3821622,346.67,605,757,0
3821632,345.10,605,755,0
3821642,346.82,605,756,0
3821652,349.96,605,755,0
3821662,355.37,605,757,0
3821672,361.00,605,755,0
3821682,367.82,605,756,0
3821692,373.79,605,755,0
3821702,379.94,605,757,0
3821712,384.46,605,755,0
3821722,388.56,605,756,0
3821732,390.79,605,755,0
3821742,392.74,605,757,0
3821752,392.78,605,755,0
3821762,392.46,605,756,0
3821772,390.61,605,755,0
3821783,388.80,605,757,0
3821793,385.86,605,755,0
3821803,383.03,605,756,0
3821813,379.29,605,754,0
3821824,376.08,605,757,0
3821833,372.45,605,755,0
3821843,369.70,605,757,0
3821853,366.83,605,755,0
3821863,364.74,605,757,0
3821873,362.68,605,755,0
3821883,361.74,605,757,0
3821893,361.26,605,754,0
3821903,362.64,605,757,0
3821913,365.36,605,755,0
3821923,371.43,605,757,0
3821933,381.03,605,755,0
3821943,396.02,605,757,0
3821953,415.68,605,755,0
3821963,441.24,605,757,0
3821973,471.08,605,755,0
3821983,504.91,605,757,0
3822003,539.87,592,756,0
3822006,573.64,592,757,0
3822015,604.17,592,755,0
3822025,630.05,592,756,0
3822035,649.15,592,755,0
3822045,661.06,592,757,0
3822055,664.90,592,755,0
3822065,661.07,592,756,0
3822075,651.02,592,755,0
3822085,634.99,592,757,0
3822095,614.25,592,755,0
3822105,589.79,592,757,0
3822115,562.94,592,755,0
3822125,534.84,592,757,0
3822135,506.69,592,755,0
3822145,479.10,592,756,0
3822155,453.01,592,755,0
3822166,428.92,592,756,0
3822175,407.60,592,755,0
3822185,389.12,592,757,0
3822195,374.04,592,755,0
3822205,362.37,592,756,0
3822215,354.33,592,755,0
3822225,349.56,592,756,0
3822235,348.15,592,755,0
3822245,349.35,592,756,0
3822255,352.93,592,755,0
3822265,358.18,592,756,0
3822275,364.85,592,755,0
3822285,372.10,592,756,0
3822295,379.57,592,755,0
3822305,386.47,592,756,0
3822315,392.71,592,755,0
3822325,397.60,592,756,0
3822336,401.15,592,755,0
3822345,402.99,592,757,0
3822355,403.38,592,755,0
3822365,402.19,592,756,0
3822375,399.86,592,755,0
3822385,396.48,592,756,0
3822395,392.60,592,755,0
3822405,388.05,592,756,0
3822415,383.49,592,755,0
3822425,378.93,592,757,0
3822435,374.71,592,755,0
3822445,370.60,592,756,0
3822455,367.07,592,755,0
3822465,363.92,592,756,0
3822475,361.68,592,755,0
3822485,359.93,592,756,0
3822495,359.31,592,755,0
3822505,359.86,592,756,0
3822515,362.77,592,755,0
3822525,368.33,592,756,0
3822535,377.74,592,755,0
3822545,391.53,592,756,0
3822555,410.62,592,755,0
3822565,434.95,592,756,0
3822575,464.36,592,755,0
3822585,497.21,592,756,0
3822595,532.12,592,755,0
3822614,566.58,612,754,0
3822617,598.21,612,756,0
3822626,625.06,612,756,0
3822636,645.61,612,756,0
3822646,658.16,612,756,0
3822656,662.70,612,755,0
3822666,658.63,612,756,0
3822676,647.47,612,756,0
3822686,630.01,612,756,0
3822696,607.72,612,755,0
3822706,581.36,612,756,0
3822716,553.44,612,756,0
3822726,524.42,612,756,0
3822736,496.35,612,755,0
3822746,469.03,612,756,0
3822756,444.25,612,756,0
3822766,421.59,612,756,0
3822776,402.26,612,755,0
3822786,385.55,612,756,0
3822796,372.74,612,756,0
3822807,362.92,612,756,0
3822817,357.20,612,755,0
3822827,354.27,612,756,0
3822837,355.13,612,756,0
3822848,358.13,612,755,0
3822857,363.79,612,756,0
3822867,370.07,612,755,0
3822877,377.76,612,756,0
3822887,384.82,612,755,0
3822897,392.25,612,756,0
3822907,398.04,612,755,0
3822917,403.52,612,756,0
3822927,406.88,612,755,0
3822937,409.74,612,756,0
3822947,410.50,612,756,0
3822957,410.61,612,756,0
3822967,408.46,612,755,0
3822977,405.83,612,756,0
3822987,401.55,612,756,0
3822997,397.40,612,756,0
3823007,391.97,612,756,0
3823017,387.18,612,756,0
3823027,381.90,612,756,0
3823037,377.86,612,756,0
3823047,373.36,612,756,0
3823057,369.91,612,756,0
3823067,366.16,612,756,0
3823077,363.93,612,756,0
3823087,361.81,612,756,0
3823097,361.91,612,756,0
3823107,363.22,612,755,0
3823117,368.34,612,756,0
3823127,376.68,612,756,0
3823137,390.49,612,756,0
3823148,408.77,612,755,0
3823158,433.10,612,756,0
3823168,461.44,612,755,0
3823178,494.31,612,757,0
3823188,528.37,612,755,0
3823207,562.98,593,754,0
3823210,593.88,593,756,0
3823219,621.22,593,757,0
3823229,641.17,593,754,0
3823239,654.06,593,756,0
3823249,657.60,593,755,0
3823259,653.56,593,757,0
3823269,640.96,593,755,0
3823279,623.23,593,756,0
3823289,599.33,593,755,0
3823299,573.09,593,757,0
3823309,544.18,593,754,0
3823319,515.84,593,756,0
3823329,487.34,593,755,0
3823339,461.36,593,757,0
3823349,436.61,593,754,0
3823360,415.38,593,757,0
3823369,396.15,593,755,0
3823379,380.98,593,757,0
3823389,368.13,593,754,0
3823399,359.65,593,757,0
3823409,353.67,593,755,0
3823419,351.84,593,757,0
3823429,351.97,593,755,0
3823439,355.50,593,757,0
3823449,359.98,593,755,0
3823459,366.67,593,757,0
3823469,373.15,593,755,0
3823479,380.69,593,756,0
3823489,387.13,593,755,0
3823499,393.90,593,757,0
3823509,398.82,593,755,0
3823519,403.59,593,756,0
3823529,406.20,593,755,0
3823539,408.45,593,756,0
3823549,408.49,593,755,0
3823559,408.13,593,756,0
3823569,405.56,593,755,0
3823579,402.99,593,757,0
3823589,398.54,593,755,0
3823599,394.30,593,756,0
3823609,388.73,593,755,0
3823619,383.88,593,756,0
3823629,378.13,593,755,0
3823639,373.46,593,756,0
3823649,368.14,593,755,0
3823660,364.11,593,756,0
3823670,359.92,593,755,0
3823680,357.42,593,756,0
3823690,355.41,593,755,0
3823700,356.06,593,756,0
3823710,358.52,593,755,0
3823720,365.27,593,756,0
3823730,375.43,593,754,0
3823740,391.42,593,756,0
3823750,411.99,593,755,0
3823760,438.74,593,756,0
3823770,469.29,593,755,0
3823780,503.87,593,756,0
3823790,538.80,593,755,0
3823809,573.57,602,753,0
3823812,603.91,602,755,0
3823821,629.91,602,756,0
3823831,648.15,602,755,0
3823841,659.12,602,756,0
3823851,661.06,602,754,0
3823861,655.64,602,756,0
3823872,642.38,602,754,0
3823881,624.18,602,756,0
3823891,600.51,602,754,0
3823901,574.13,602,756,0
3823911,545.42,602,754,0
3823921,516.75,602,756,0
3823931,488.11,602,754,0
3823941,461.51,602,756,0
3823951,436.37,602,754,0
3823961,414.32,602,756,0
3823971,394.63,602,754,0
3823981,378.54,602,756,0
3823991,365.01,602,754,0
3824001,355.41,602,756,0
3824011,348.47,602,754,0
3824021,345.11,602,756,0
3824031,344.09,602,754,0
3824041,345.91,602,756,0
3824051,349.32,602,754,0
3824061,354.71,602,756,0
3824071,360.50,602,754,0
3824081,367.29,602,756,0
3824091,373.76,602,754,0
3824101,380.26,602,756,0
3824111,385.50,602,754,0
3824121,389.81,602,756,0
3824131,392.44,602,754,0
3824141,394.19,602,756,0
3824151,394.05,602,754,0
3824161,393.05,602,755,0
3824172,390.59,602,754,0
3824182,387.76,602,756,0
3824192,384.02,602,754,0
3824202,380.20,602,755,0
3824212,375.94,602,754,0
3824222,372.27,602,756,0
3824232,368.38,602,754,0
3824242,364.88,602,755,0
3824252,361.23,602,754,0
3824262,358.12,602,756,0
3824272,355.08,602,754,0
3824282,352.49,602,755,0
3824292,350.33,602,754,0
3824302,349.63,602,756,0
3824312,350.85,602,754,0
3824322,355.53,602,755,0
3824332,364.37,602,754,0
3824343,378.49,602,756,0
3824353,398.27,602,754,0
3824363,423.77,602,755,0
3824373,454.23,602,754,0
3824384,488.23,602,755,0
3824402,523.56,593,754,0
3824405,556.78,593,755,0
3824414,587.36,593,755,0
3824424,612.49,593,755,0
3824434,631.12,593,755,0
3824444,641.71,593,755,0
3824454,644.37,593,754,0
3824464,638.99,593,755,0
3824474,627.93,593,754,0
3824484,610.38,593,755,0
3824494,588.75,593,754,0
3824504,563.50,593,755,0
3824514,536.78,593,754,0
3824524,509.16,593,755,0
3824534,482.45,593,754,0
3824544,456.52,593,755,0
3824555,432.71,593,754,0
3824564,410.72,593,755,0
3824574,391.73,593,754,0
3824584,375.14,593,755,0
3824594,362.11,593,754,0
3824604,351.67,593,755,0
3824614,344.78,593,754,0
3824624,340.56,593,755,0
3824634,339.58,593,754,0
3824644,340.73,593,755,0
3824654,344.46,593,754,0
3824664,349.33,593,755,0
3824674,355.96,593,754,0
3824684,363.00,593,755,0
3824694,370.46,593,754,0
3824704,377.18,593,755,0
3824714,383.60,593,754,0
3824724,388.47,593,755,0
3824734,392.57,593,754,0
3824744,394.89,593,755,0
3824754,396.29,593,754,0
3824764,396.12,593,755,0
3824774,395.36,593,754,0
3824784,393.19,593,755,0
3824794,390.73,593,754,0
3824804,387.21,593,755,0
3824814,383.81,593,754,0
3824824,379.88,593,755,0
3824834,376.40,593,755,0
3824844,372.60,593,755,0
3824855,369.59,593,754,0
3824865,366.50,593,755,0
3824875,364.25,593,755,0
3824885,361.77,593,755,0
3824896,360.26,593,755,0
3824905,358.85,593,755,0
3824915,359.07,593,755,0
3824925,360.29,593,755,0
3824935,364.75,593,754,0
3824945,372.02,593,755,0
3824955,384.14,593,755,0
3824965,400.34,593,755,0
3824975,422.31,593,754,0
3824985,448.15,593,755,0
3824995,478.23,593,755,0
3825005,509.49,593,755,0
3825025,541.31,622,753,0
3825028,569.38,622,755,0
3825037,594.21,622,756,0
3825047,612.36,622,754,0
3825057,624.38,622,755,0
3825068,628.04,622,754,0
3825078,624.90,622,756,0
3825088,614.09,622,754,0
3825098,598.85,622,755,0
3825108,577.68,622,754,0
3825118,553.90,622,756,0
3825128,527.15,622,754,0
3825138,500.27,622,755,0
3825148,472.72,622,754,0
3825158,447.09,622,756,0
3825168,422.59,622,754,0
3825178,401.46,622,755,0
3825188,382.25,622,754,0
3825198,366.92,622,756,0
3825208,354.08,622,754,0
3825218,345.19,622,755,0
3825228,338.62,622,754,0
3825239,335.95,622,755,0
3825249,335.36,622,753,0
3825259,337.91,622,755,0
3825269,341.62,622,754,0
3825280,347.44,622,756,0
3825289,353.61,622,754,0
3825299,361.05,622,755,0
3825309,367.72,622,754,0
3825319,374.45,622,756,0
3825329,379.54,622,754,0
3825339,384.22,622,755,0
3825349,387.03,622,754,0
3825359,389.20,622,756,0
3825369,389.31,622,754,0
3825379,388.83,622,756,0
3825389,386.66,622,754,0
3825399,384.27,622,755,0
3825409,380.46,622,754,0
3825419,376.85,622,755,0
3825429,372.27,622,754,0
3825439,368.12,622,755,0
3825449,363.32,622,754,0
3825459,359.50,622,755,0
3825469,355.66,622,753,0
3825479,353.45,622,756,0
3825489,351.73,622,753,0
3825499,352.41,622,755,0
3825509,355.12,622,753,0
3825519,362.11,622,755,0
3825529,372.66,622,754,0
3825539,388.58,622,755,0
3825549,408.63,622,754,0
3825559,433.99,622,756,0
3825569,462.40,622,754,0
3825580,493.53,622,755,0
3825590,524.05,622,753,0
3825609,553.14,585,752,0
3825612,577.65,585,754,0
3825622,597.21,585,755,0
3825631,609.66,585,754,0
3825641,615.21,585,755,0
3825651,613.09,585,753,0
3825661,604.36,585,755,0
3825671,589.38,585,753,0
3825681,570.11,585,755,0
3825691,547.28,585,754,0
3825701,522.47,585,755,0
3825711,496.74,585,753,0
3825721,471.53,585,755,0
3825731,447.42,585,754,0
3825741,425.52,585,756,0
3825751,405.78,585,753,0
3825761,388.74,585,755,0
3825771,374.46,585,754,0
3825781,363.22,585,755,0
3825792,354.84,585,754,0
3825801,349.75,585,756,0
3825811,347.25,585,754,0
3825821,347.43,585,755,0
3825831,349.70,585,753,0
3825841,353.95,585,755,0
3825851,359.32,585,754,0
3825861,365.57,585,755,0
3825871,371.91,585,754,0
3825881,378.20,585,756,0
3825891,383.67,585,754,0
3825901,388.18,585,756,0
3825911,391.47,585,753,0
3825921,393.69,585,755,0
3825931,394.51,585,753,0
3825941,394.27,585,756,0
3825951,392.69,585,753,0
3825961,390.30,585,755,0
3825971,386.95,585,754,0
3825981,383.02,585,755,0
3825991,378.52,585,753,0
3826001,373.99,585,755,0
3826011,369.28,585,753,0
3826021,364.99,585,755,0
3826031,361.14,585,753,0
3826041,358.14,585,755,0
3826051,356.13,585,754,0
3826061,356.05,585,756,0
3826071,358.26,585,753,0
3826081,363.75,585,755,0
3826092,373.04,585,754,0
3826102,386.96,585,755,0
3826112,406.08,585,754,0
3826122,430.19,585,755,0
3826132,458.42,585,754,0
3826142,489.15,585,755,0
3826152,520.60,585,754,0
3826171,550.94,562,753,0
3826174,577.83,562,755,0
3826183,599.57,562,755,0
3826193,615.25,562,754,0
3826203,623.49,562,755,0
3826213,624.93,562,754,0
3826223,619.59,562,755,0
3826233,608.27,562,754,0
3826243,591.95,562,755,0
3826253,571.91,562,754,0
3826263,548.83,562,755,0
3826273,524.58,562,754,0
3826283,499.25,562,755,0
3826293,474.36,562,754,0
3826304,449.95,562,755,0
3826313,427.68,562,754,0
3826323,407.21,562,755,0
3826333,389.62,562,754,0
3826343,374.35,562,755,0
3826353,362.80,562,754,0
3826363,354.24,562,755,0
3826373,349.63,562,754,0
3826383,347.55,562,755,0
3826393,348.50,562,754,0
3826403,351.22,562,755,0
3826413,356.43,562,754,0
3826423,362.39,562,755,0
3826433,369.38,562,754,0
3826443,376.21,562,754,0
3826453,383.39,562,754,0
3826463,389.53,562,755,0
3826473,395.29,562,754,0
3826483,399.36,562,755,0
3826493,402.64,562,754,0
3826503,404.07,562,755,0
3826513,404.74,562,755,0
3826523,403.74,562,755,0
3826533,402.32,562,755,0
3826543,399.52,562,755,0
3826553,396.54,562,755,0
3826563,392.69,562,755,0
3826573,389.14,562,755,0
3826583,384.81,562,755,0
3826593,380.93,562,755,0
3826604,376.62,562,755,0
3826614,372.83,562,755,0
3826624,368.64,562,755,0
3826634,365.53,562,755,0
3826644,363.19,562,754,0
3826654,363.47,562,755,0
3826664,366.20,562,755,0
3826674,373.60,562,755,0
3826684,385.46,562,754,0
3826694,403.67,562,755,0
3826704,426.74,562,755,0
3826714,455.49,562,755,0
3826724,487.40,562,754,0
3826734,521.74,562,755,0
3826744,555.03,562,755,0
3826763,586.44,592,753,0
3826766,611.55,592,755,0
3826775,631.53,592,755,0
3826785,643.37,592,754,0
3826795,648.31,592,755,0
3826805,645.01,592,754,0
3826816,635.32,592,755,0
3826825,618.81,592,754,0
3826835,599.11,592,755,0
3826845,574.69,592,753,0
3826855,548.81,592,755,0
3826865,520.84,592,754,0
3826875,493.59,592,755,0
3826885,466.54,592,753,0
3826895,442.29,592,755,0
3826905,419.88,592,754,0
3826915,401.31,592,755,0
3826925,385.19,592,753,0
3826935,373.39,592,755,0
3826945,364.27,592,754,0
3826955,359.43,592,755,0
3826965,356.78,592,754,0
3826975,357.70,592,755,0
3826985,359.85,592,754,0
3826995,364.52,592,755,0
3827005,369.55,592,754,0
3827015,376.20,592,755,0
3827025,382.23,592,754,0
3827035,388.89,592,755,0
3827045,393.98,592,753,0
3827055,399.17,592,755,0
3827065,402.50,592,754,0
3827075,405.52,592,755,0
3827085,406.44,592,754,0
3827095,406.95,592,755,0
3827105,405.29,592,754,0
3827116,403.41,592,755,0
3827126,399.77,592,753,0
3827136,396.15,592,755,0
3827146,390.92,592,753,0
3827156,386.14,592,755,0
3827166,380.27,592,753,0
3827176,375.52,592,755,0
3827186,370.26,592,754,0
3827196,366.28,592,755,0
3827206,361.91,592,754,0
3827216,359.15,592,755,0
3827226,356.41,592,753,0
3827236,355.90,592,755,0
3827246,356.36,592,753,0
3827256,360.45,592,755,0
3827266,367.64,592,754,0
3827276,380.65,592,755,0
3827287,398.33,592,753,0
3827297,422.53,592,755,0
3827307,451.13,592,754,0
3827317,484.52,592,755,0
3827328,519.12,592,753,0
3827346,554.14,583,752,0
3827349,585.34,583,754,0
3827358,612.54,583,755,0
3827368,632.39,583,753,0
3827378,645.35,583,755,0
3827388,649.40,583,753,0
3827398,646.11,583,755,0
3827408,634.93,583,753,0
3827418,618.71,583,755,0
3827428,596.77,583,753,0
3827438,571.94,583,755,0
3827448,544.10,583,753,0
3827458,516.04,583,755,0
3827468,487.53,583,753,0
3827478,460.63,583,755,0
3827488,434.81,583,753,0
3827499,412.11,583,755,0
3827508,391.68,583,753,0
3827518,375.19,583,755,0
3827528,361.50,583,753,0
3827538,352.14,583,755,0
3827548,345.80,583,753,0
3827558,343.59,583,755,0
3827568,343.80,583,753,0
3827578,347.07,583,755,0
3827588,351.59,583,753,0
3827598,358.19,583,755,0
3827608,364.99,583,753,0
3827618,372.58,583,755,0
3827628,379.13,583,753,0
3827638,385.78,583,755,0
3827648,390.94,583,753,0
3827658,395.63,583,755,0
3827668,398.49,583,753,0
3827678,400.61,583,755,0
3827688,400.86,583,753,0
3827698,400.39,583,755,0
3827708,398.04,583,753,0
3827718,395.41,583,755,0
3827728,391.48,583,753,0
3827738,387.39,583,755,0
3827748,382.43,583,753,0
3827758,378.14,583,755,0
3827768,373.60,583,753,0
3827778,369.99,583,755,0
3827788,366.27,583,753,0
3827799,363.61,583,755,0
3827809,361.29,583,753,0
3827819,360.47,583,755,0
3827829,360.76,583,753,0
3827840,363.96,583,755,0
3827849,369.97,583,753,0
3827859,380.57,583,755,0
3827869,395.70,583,753,0
3827879,416.53,583,755,0
3827889,441.96,583,753,0
3827899,471.80,583,755,0
3827909,503.79,583,753,0
3827919,536.72,583,755,0
3827938,567.66,592,754,0
3827941,594.12,592,756,0
3827950,614.83,592,753,0
3827960,628.85,592,755,0
3827970,635.07,592,753,0
3827980,633.85,592,755,0
3827990,625.02,592,753,0
3828000,609.76,592,755,0
3828011,590.03,592,753,0
3828020,566.28,592,755,0
3828030,539.75,592,753,0
3828040,511.71,592,755,0
3828050,483.13,592,753,0
3828060,455.49,592,755,0
3828070,429.41,592,753,0
3828080,405.42,592,755,0
3828090,384.16,592,753,0
3828100,366.24,592,755,0
3828110,351.86,592,753,0
3828120,341.31,592,755,0
3828130,334.49,592,753,0
3828140,331.52,592,755,0
3828150,332.00,592,753,0
3828160,335.39,592,755,0
3828170,341.10,592,753,0
3828180,348.44,592,754,0
3828190,356.75,592,753,0
3828200,365.40,592,755,0
3828210,373.64,592,753,0
3828220,381.12,592,754,0
3828230,387.47,592,753,0
3828240,392.43,592,755,0
3828250,395.86,592,753,0
3828260,397.61,592,755,0
3828270,397.77,592,753,0
3828280,396.90,592,755,0
3828290,395.00,592,753,0
3828300,392.26,592,755,0
3828311,388.97,592,753,0
3828321,385.29,592,755,0
3828331,381.56,592,753,0
3828341,377.58,592,754,0
3828352,373.63,592,753,0
3828361,369.80,592,755,0
3828371,366.35,592,753,0
3828381,362.86,592,754,0
3828391,359.94,592,753,0
3828401,357.39,592,754,0
3828411,356.07,592,754,0
3828421,355.84,592,754,0
3828431,357.99,592,753,0
3828441,362.70,592,754,0
3828451,371.49,592,753,0
3828461,384.72,592,754,0
3828471,403.66,592,753,0
3828481,427.76,592,755,0
3828491,456.85,592,754,0
3828501,489.04,592,754,0
3828511,523.27,592,753,0
3828531,556.96,592,752,0
3828534,587.79,592,755,0
3828543,613.48,592,754,0
3828553,633.18,592,754,0
3828563,644.95,592,754,0
3828573,649.21,592,754,0
3828583,644.99,592,754,0
3828593,633.89,592,754,0
3828603,616.31,592,753,0
3828613,594.19,592,754,0
3828623,567.69,592,754,0
3828633,539.63,592,753,0
3828643,509.91,592,754,0
3828653,481.22,592,754,0
3828663,453.00,592,754,0
3828673,427.63,592,754,0
3828683,404.04,592,754,0
3828694,384.27,592,754,0
3828703,367.09,592,754,0
3828713,354.08,592,753,0
3828723,343.90,592,754,0
3828733,338.01,592,754,0
3828743,334.62,592,754,0
3828753,334.99,592,753,0
3828763,337.05,592,753,0
3828773,341.75,592,754,0
3828783,347.10,592,754,0
3828793,353.93,592,753,0
3828803,360.25,592,753,0
3828813,367.29,592,754,0
3828823,372.86,592,754,0
3828833,378.26,592,753,0
3828843,381.87,592,753,0
3828853,385.08,592,754,0
3828864,386.34,592,753,0
3828873,387.27,592,753,0
3828883,386.24,592,753,0
3828893,385.18,592,754,0
3828903,382.64,592,753,0
3828913,380.35,592,753,0
3828923,377.03,592,753,0
3828933,374.36,592,754,0
3828943,371.00,592,753,0
3828953,368.51,592,754,0
3828963,365.40,592,753,0
3828973,363.40,592,754,0
3828983,360.96,592,753,0
3828993,359.65,592,754,0
3829003,358.17,592,754,0
3829013,357.90,592,754,0
3829023,357.55,592,754,0
3829033,358.97,592,754,0
3829043,360.91,592,754,0
3829053,365.52,592,754,0
3829063,372.09,592,753,0
3829073,382.99,592,754,0
3829083,397.40,592,754,0
3829093,417.33,592,754,0
3829103,441.36,592,754,0
3829113,470.48,592,754,0
3829132,502.05,602,752,0
3829135,534.95,602,755,0
3829144,566.38,602,753,0
3829154,595.71,602,755,0
3829164,619.62,602,753,0
3829174,637.87,602,754,0
3829184,647.76,602,753,0
3829194,650.49,602,755,0
3829204,645.42,602,753,0
3829214,633.93,602,754,0
3829224,615.48,602,753,0
3829234,592.92,602,754,0
3829244,566.16,602,753,0
3829254,538.47,602,754,0
3829264,509.31,602,753,0
3829274,481.45,602,754,0
3829284,454.01,602,753,0
3829294,429.71,602,754,0
3829304,407.17,602,753,0
3829314,388.39,602,754,0
3829324,371.77,602,752,0
3829335,359.11,602,754,0
3829345,348.96,602,753,0
3829355,343.02,602,754,0
3829365,339.41,602,752,0
3829376,339.72,602,754,0
3829385,341.77,602,753,0
3829395,346.77,602,754,0
3829405,352.62,602,752,0
3829415,360.24,602,754,0
3829425,367.41,602,753,0
3829435,375.13,602,754,0
3829445,381.26,602,752,0
3829455,387.31,602,754,0
3829465,391.20,602,753,0
3829475,394.53,602,754,0
3829485,395.53,602,752,0
3829495,395.93,602,754,0
3829505,394.19,602,753,0
3829515,392.25,602,754,0
3829525,388.45,602,752,0
3829535,384.88,602,754,0
3829545,380.16,602,753,0
3829555,376.13,602,754,0
3829565,371.20,602,752,0
3829575,367.24,602,754,0
3829585,362.71,602,753,0
3829595,359.67,602,754,0
3829605,356.47,602,753,0
3829615,354.83,602,754,0
3829625,353.25,602,753,0
3829635,353.69,602,754,0
3829645,354.98,602,753,0
3829655,359.32,602,755,0
3829665,365.56,602,753,0
3829676,376.37,602,755,0
3829686,390.70,602,752,0
3829696,410.98,602,755,0
3829706,435.75,602,753,0
3829716,465.96,602,755,0
3829726,498.46,602,753,0
3829745,533.08,613,752,0
3829748,566.05,613,754,0
3829757,596.89,613,755,0
3829767,622.17,613,753,0
3829777,641.53,613,755,0
3829787,652.60,613,753,0
3829797,656.41,613,755,0
3829807,651.96,613,753,0
3829817,641.13,613,755,0
3829827,623.26,613,753,0
3829837,600.47,613,755,0
3829847,573.24,613,753,0
3829857,544.28,613,755,0
3829867,513.94,613,753,0
3829877,484.26,613,755,0
3829888,455.55,613,753,0
3829897,430.10,613,755,0
3829907,407.57,613,753,0
3829917,389.27,613,755,0
3829927,374.28,613,753,0
3829937,363.78,613,755,0
3829947,356.60,613,753,0
3829957,353.38,613,755,0
3829967,352.84,613,753,0
3829977,355.63,613,754,0
3829987,359.98,613,753,0
3829997,366.29,613,755,0
3830007,372.84,613,753,0
3830017,380.22,613,755,0
3830027,386.93,613,753,0
3830037,393.42,613,755,0
3830047,398.31,613,753,0
3830057,402.37,613,755,0
3830067,404.62,613,754,0
3830077,406.10,613,755,0
3830087,405.77,613,754,0
3830097,404.56,613,755,0
3830107,401.65,613,754,0
3830117,398.32,613,755,0
3830127,393.77,613,753,0
3830137,389.04,613,755,0
3830147,383.33,613,753,0
3830157,378.09,613,755,0
3830167,372.66,613,753,0
3830177,368.05,613,755,0
3830188,363.53,613,753,0
3830198,360.07,613,755,0
3830208,356.97,613,753,0
3830218,354.79,613,754,0
3830228,353.01,613,753,0
3830238,352.36,613,755,0
3830248,352.08,613,753,0
3830258,352.83,613,754,0
3830268,354.60,613,753,0
3830278,358.45,613,755,0
3830288,364.78,613,753,0
3830298,374.88,613,754,0
3830308,389.10,613,753,0
3830318,408.44,613,755,0
3830328,432.61,613,753,0
3830338,461.87,613,755,0
3830348,494.78,613,753,0
3830368,530.25,623,752,0
3830371,565.06,623,755,0
3830380,597.53,623,754,0
3830390,625.57,623,754,0
3830401,647.47,623,755,0
3830411,661.81,623,754,0
3830421,667.74,623,754,0
3830431,665.42,623,754,0
3830441,655.52,623,755,0
3830451,639.08,623,754,0
3830461,616.73,623,754,0
3830471,590.62,623,755,0
3830481,561.29,623,754,0
3830491,531.16,623,754,0
3830501,500.51,623,754,0
3830511,471.60,623,754,0
3830521,444.16,623,754,0
3830531,419.99,623,754,0
3830541,398.43,623,754,0
3830551,380.95,623,754,0
3830561,366.61,623,754,0
3830572,356.61,623,754,0
3830582,349.44,623,754,0
3830592,346.31,623,754,0
3830602,345.74,623,754,0
3830612,348.78,623,754,0
3830622,353.64,623,754,0
3830632,361.08,623,754,0
3830642,369.03,623,754,0
3830652,378.36,623,755,0
3830662,386.87,623,754,0
3830672,395.35,623,754,0
3830682,401.85,623,754,0
3830692,407.38,623,754,0
3830702,410.35,623,754,0
3830712,412.22,623,754,0
3830722,411.72,623,754,0
3830732,410.61,623,755,0
3830743,407.64,623,753,0
3830753,404.66,623,755,0
3830763,400.43,623,753,0
3830773,396.62,623,755,0
3830784,391.85,623,753,0
3830793,387.78,623,754,0
3830803,383.09,623,753,0
3830813,379.46,623,755,0
3830823,375.38,623,753,0
3830833,372.61,623,754,0
3830843,369.47,623,753,0
3830853,367.66,623,755,0
3830863,365.36,623,753,0
3830873,364.27,623,754,0
3830883,362.90,623,753,0
3830893,363.32,623,755,0
3830903,364.38,623,753,0
3830913,368.55,623,754,0
3830923,375.20,623,753,0
3830933,387.18,623,755,0
3830943,403.46,623,753,0
3830953,426.16,623,755,0
3830963,453.16,623,754,0
3830973,485.12,623,755,0
3830983,518.94,623,754,0
3831003,554.27,634,752,0
3831006,586.68,634,754,0
3831015,616.13,634,755,0
3831025,638.98,634,753,0
3831035,655.44,634,755,0
3831045,663.32,634,753,0
3831055,664.00,634,755,0
3831065,656.11,634,753,0
3831075,642.58,634,755,0
3831085,622.56,634,753,0
3831095,598.82,634,755,0
3831105,571.32,634,753,0
3831115,542.98,634,755,0
3831126,513.50,634,753,0
3831135,485.75,634,755,0
3831145,458.91,634,753,0
3831155,435.19,634,755,0
3831165,413.54,634,753,0
3831175,395.80,634,755,0
3831185,380.65,634,753,0
3831195,369.87,634,755,0
3831205,361.81,634,753,0
3831215,357.84,634,755,0
3831225,356.04,634,753,0
3831235,357.70,634,755,0
3831245,360.75,634,753,0
3831255,366.10,634,755,0
3831265,371.42,634,753,0
3831275,377.77,634,755,0
3831285,383.11,634,753,0
3831296,388.73,634,755,0
3831305,392.80,634,753,0
3831315,396.76,634,755,0
3831325,398.97,634,753,0
3831335,401.00,634,755,0
3831345,401.13,634,753,0
3831355,401.17,634,755,0
3831365,399.71,634,753,0
3831375,398.17,634,755,0
3831385,395.16,634,753,0
3831395,392.33,634,754,0
3831405,388.33,634,753,0
3831415,384.89,634,755,0
3831425,380.55,634,753,0
3831435,376.96,634,755,0
3831445,372.90,634,753,0
3831455,370.01,634,755,0
3831465,366.84,634,753,0
3831475,365.00,634,755,0
3831485,362.94,634,753,0
3831495,362.32,634,755,0
3831505,361.84,634,753,0
3831515,363.56,634,755,0
3831525,366.69,634,753,0
3831535,373.77,634,755,0
3831545,384.17,634,753,0
3831555,400.19,634,755,0
3831565,420.75,634,753,0
3831575,447.44,634,755,0
3831585,477.99,634,753,0
3831605,512.32,603,752,0
3831608,546.64,603,754,0
3831617,580.31,603,755,0
3831627,610.00,603,753,0
3831638,634.81,603,755,0
3831647,652.14,603,753,0
3831657,662.17,603,755,0
3831667,663.40,603,753,0
3831677,657.24,603,755,0
3831687,643.54,603,753,0
3831697,624.18,603,755,0
3831707,599.78,603,753,0
3831717,572.33,603,755,0
3831727,542.62,603,753,0
3831737,512.82,603,755,0
3831747,483.47,603,753,0
3831757,455.95,603,755,0
3831767,430.29,603,753,0
3831777,407.92,603,755,0
3831787,388.57,603,753,0
3831797,373.01,603,755,0
3831808,360.84,603,753,0
3831817,352.74,603,755,0
3831827,347.89,603,753,0
3831837,346.64,603,755,0
3831847,347.90,603,753,0
3831857,351.75,603,755,0
3831867,356.97,603,753,0
3831877,363.32,603,755,0
3831887,369.57,603,753,0
3831897,375.91,603,755,0
3831907,381.34,603,753,0
3831917,386.12,603,755,0
3831927,389.30,603,753,0
3831937,391.61,603,755,0
3831947,392.37,603,753,0
3831957,392.43,603,755,0
3831967,391.36,603,753,0
3831977,389.75,603,755,0
3831987,387.25,603,753,0
3831997,384.78,603,755,0
3832007,381.72,603,753,0
3832017,378.84,603,755,0
3832027,375.63,603,753,0
3832037,372.74,603,755,0
3832047,369.73,603,753,0
3832057,367.16,603,755,0
3832067,364.41,603,753,0
3832077,362.36,603,755,0
3832087,360.58,603,752,0
3832097,360.15,603,755,0
3832108,361.00,603,753,0
3832118,364.56,603,755,0
3832128,371.38,603,753,0
3832138,382.79,603,755,0
3832148,399.10,603,753,0
3832158,420.97,603,755,0
3832168,447.46,603,753,0
3832178,477.92,603,755,0
3832188,510.69,603,753,0
3832207,543.87,602,752,0
3832210,574.85,602,755,0
3832219,602.02,602,755,0
3832229,623.49,602,754,0
3832239,638.13,602,755,0
3832249,645.25,602,753,0
3832259,644.40,602,755,0
3832269,636.18,602,754,0
3832279,621.60,602,755,0
3832289,601.28,602,753,0
3832299,576.55,602,754,0
3832309,549.13,602,754,0
3832320,520.25,602,754,0
3832329,491.67,602,753,0
3832339,464.00,602,755,0
3832349,438.50,602,754,0
3832359,415.51,602,754,0
3832369,395.81,602,753,0
3832379,379.41,602,755,0
3832389,366.77,602,754,0
3832399,357.33,602,754,0
3832409,351.57,602,753,0
3832419,348.74,602,755,0
3832429,348.99,602,754,0
3832439,351.39,602,754,0
3832449,355.82,602,753,0
3832459,361.40,602,755,0
3832469,367.97,602,754,0
3832479,374.41,602,754,0
3832489,381.14,602,754,0
3832499,387.31,602,755,0
3832509,393.05,602,754,0
3832519,397.40,602,754,0
3832529,400.63,602,754,0
3832539,402.37,602,754,0
3832549,403.11,602,754,0
3832559,402.01,602,754,0
3832569,399.95,602,754,0
3832579,396.79,602,755,0
3832589,393.17,602,754,0
3832599,388.75,602,754,0
3832609,384.41,602,754,0
3832620,379.79,602,754,0
3832630,375.82,602,754,0
3832640,371.72,602,754,0
3832650,368.33,602,754,0
3832660,365.23,602,754,0
3832670,363.62,602,754,0
3832680,362.79,602,754,0
3832690,364.27,602,754,0
3832700,368.04,602,754,0
3832710,375.83,602,754,0
3832720,387.54,602,755,0
3832730,404.86,602,754,0
3832740,426.93,602,754,0
3832750,454.25,602,754,0
3832760,484.78,602,755,0
3832770,517.89,602,754,0
3832790,550.71,582,753,0
3832793,581.22,582,755,0
3832802,607.08,582,754,0
3832812,627.67,582,755,0
3832822,640.84,582,754,0
3832833,647.19,582,755,0
3832843,645.29,582,754,0
3832853,636.97,582,755,0
3832863,622.41,582,753,0
3832873,603.26,582,755,0
3832883,579.48,582,754,0
3832893,553.84,582,755,0
3832903,526.03,582,754,0
3832913,498.72,582,755,0
3832923,471.20,582,754,0
3832933,446.11,582,755,0
3832943,422.42,582,753,0
3832953,402.15,582,755,0
3832963,384.02,582,754,0
3832973,369.96,582,755,0
3832983,358.57,582,753,0
3832993,351.59,582,755,0
3833004,347.21,582,754,0
3833014,346.85,582,755,0
3833024,348.26,582,753,0
3833034,352.68,582,755,0
3833044,357.88,582,753,0
3833054,364.82,582,755,0
3833064,371.09,582,753,0
3833074,377.70,582,755,0
3833084,382.72,582,753,0
3833094,387.56,582,755,0
3833104,390.35,582,753,0
3833114,392.47,582,755,0
3833124,392.46,582,754,0
3833134,392.06,582,755,0
3833144,389.90,582,753,0
3833154,387.79,582,755,0
3833164,384.08,582,753,0
3833175,380.63,582,755,0
3833185,376.24,582,753,0
3833195,372.48,582,755,0
3833205,368.22,582,753,0
3833216,364.86,582,755,0
3833225,361.00,582,753,0
3833235,358.39,582,755,0
3833245,355.53,582,753,0
3833255,353.74,582,755,0
3833265,351.76,582,753,0
3833275,351.28,582,755,0
3833285,351.58,582,753,0
3833295,354.66,582,755,0
3833305,360.03,582,753,0
3833315,369.97,582,755,0
3833325,384.08,582,753,0
3833335,404.28,582,755,0
3833345,429.01,582,753,0
3833355,459.18,582,755,0
3833365,492.08,582,753,0
3833384,527.33,595,752,0
3833388,561.22,595,753,0
3833396,592.99,595,755,0
3833406,619.52,595,753,0
3833416,640.41,595,755,0
3833426,653.36,595,753,0
3833436,659.38,595,755,0
3833446,657.12,595,753,0
3833456,648.69,595,755,0
3833466,633.52,595,753,0
3833476,613.91,595,755,0
3833486,590.32,595,753,0
3833496,564.81,595,755,0
3833506,537.35,595,753,0
3833516,510.25,595,755,0
3833526,483.22,595,753,0
3833536,458.17,595,755,0
3833546,434.59,595,753,0
3833556,413.67,595,755,0
3833566,395.12,595,753,0
3833576,380.17,595,755,0
3833586,368.08,595,753,0
3833596,359.87,595,755,0
3833606,354.51,595,753,0
3833616,352.64,595,755,0
3833626,353.13,595,753,0
3833636,356.27,595,755,0
3833646,360.56,595,753,0
3833656,366.39,595,755,0
3833666,372.19,595,753,0
3833676,378.30,595,755,0
3833687,383.70,595,753,0
3833697,388.67,595,755,0
3833707,392.24,595,753,0
3833717,395.00,595,755,0
3833728,396.16,595,753,0
3833737,396.67,595,755,0
3833747,395.91,595,753,0
3833757,394.39,595,755,0
3833767,392.00,595,753,0
3833777,389.30,595,755,0
3833787,386.13,595,753,0
3833797,382.92,595,755,0
3833807,379.56,595,753,0
3833817,376.69,595,755,0
3833827,373.91,595,753,0
3833837,371.54,595,755,0
3833847,369.28,595,753,0
3833857,367.52,595,755,0
3833867,366.04,595,754,0
3833877,364.91,595,755,0
3833887,363.91,595,753,0
3833897,363.72,595,756,0
3833907,364.28,595,754,0
3833917,366.89,595,755,0
3833927,372.03,595,753,0
3833937,380.80,595,755,0
3833947,393.76,595,753,0
3833957,411.83,595,755,0
3833967,435.11,595,754,0
3833977,463.45,595,756,0
3833996,495.07,612,754,0
3833999,527.58,612,755,0
3834008,559.98,612,754,0
3834018,589.94,612,755,0
3834028,615.29,612,754,0
3834038,634.27,612,755,0
3834048,645.81,612,754,0
3834058,649.25,612,755,0
3834068,645.75,612,754,0
3834078,634.85,612,755,0
3834088,617.88,612,754,0
3834098,595.76,612,755,0
3834108,570.16,612,754,0
3834118,542.43,612,755,0
3834128,514.23,612,754,0
3834138,486.22,612,755,0
3834148,459.37,612,754,0
3834158,434.53,612,755,0
3834168,412.68,612,754,0
3834178,393.66,612,755,0
3834188,377.95,612,754,0
3834199,365.37,612,755,0
3834209,356.73,612,754,0
3834219,351.41,612,755,0
3834229,349.66,612,754,0
3834240,350.32,612,754,0
3834249,353.65,612,754,0
3834259,358.60,612,755,0
3834269,365.28,612,754,0
3834279,371.84,612,754,0
3834289,378.74,612,754,0
3834299,384.52,612,755,0
3834309,389.81,612,754,0
3834319,393.51,612,754,0
3834329,396.14,612,754,0
3834339,396.96,612,755,0
3834349,397.01,612,754,0
3834359,395.25,612,754,0
3834369,392.86,612,754,0
3834379,389.43,612,755,0
3834389,385.92,612,754,0
3834399,381.61,612,754,0
3834409,377.74,612,754,0
3834419,373.71,612,755,0
3834429,370.84,612,754,0
3834439,367.97,612,754,0
3834449,366.05,612,754,0
3834459,364.19,612,755,0
3834469,363.19,612,754,0
3834479,361.85,612,755,0
3834489,361.08,612,754,0
3834499,359.98,612,755,0
3834509,359.73,612,754,0
3834519,359.43,612,754,0
3834529,360.54,612,754,0
3834540,362.95,612,755,0
3834550,368.45,612,754,0
3834560,376.93,612,754,0
3834570,390.15,612,754,0
3834580,407.85,612,754,0
3834590,431.12,612,754,0
3834600,458.34,612,754,0
3834619,489.95,623,753,0
3834622,522.63,623,755,0
3834631,556.34,623,755,0
3834641,587.44,623,754,0
3834651,615.25,623,755,0
3834661,636.52,623,754,0
3834671,651.58,623,755,0
3834681,657.75,623,754,0
3834691,656.92,623,755,0
3834701,647.35,623,754,0
3834711,631.94,623,755,0
3834721,610.06,623,754,0
3834731,585.01,623,755,0
3834741,556.47,623,754,0
3834752,527.53,623,755,0
3834761,497.93,623,754,0
3834771,470.26,623,754,0
3834781,443.44,623,754,0
3834791,419.99,623,755,0
3834801,398.65,623,754,0
3834811,381.36,623,754,0
3834821,366.76,623,754,0
3834831,356.55,623,755,0
3834841,349.06,623,754,0
3834851,345.74,623,754,0
3834861,344.66,623,754,0
3834871,346.95,623,755,0
3834881,350.43,623,754,0
3834891,356.35,623,755,0
3834901,362.54,623,754,0
3834911,370.22,623,755,0
3834921,377.01,623,754,0
3834931,384.00,623,754,0
3834941,389.31,623,754,0
3834951,394.45,623,755,0
3834961,397.40,623,754,0
3834971,399.76,623,755,0
3834981,399.88,623,754,0
3834991,399.57,623,755,0
3835001,397.43,623,754,0
3835011,395.20,623,755,0
3835021,391.45,623,754,0
3835031,388.15,623,755,0
3835041,383.73,623,754,0
3835052,380.08,623,755,0
3835062,375.73,623,754,0
3835072,372.47,623,755,0
3835082,368.64,623,754,0
3835092,365.88,623,755,0
3835102,362.57,623,754,0
3835112,360.51,623,755,0
3835122,357.87,623,754,0
3835132,356.58,623,755,0
3835142,354.95,623,754,0
3835152,355.31,623,755,0
3835162,356.59,623,754,0
3835172,361.21,623,755,0
3835182,368.18,623,754,0
3835192,380.12,623,755,0
3835202,396.20,623,754,0
3835212,418.68,623,755,0
3835223,445.48,623,754,0
3835233,477.18,623,755,0
3835252,510.47,633,754,0
3835255,544.10,633,756,0
3835265,575.35,633,753,0
3835275,603.19,633,756,0
3835285,624.35,633,753,0
3835295,638.64,633,755,0
3835305,644.36,633,753,0
3835315,643.01,633,755,0
3835325,634.57,633,753,0
3835335,620.04,633,755,0
3835345,599.58,633,753,0
3835355,575.71,633,755,0
3835365,549.01,633,753,0
3835375,521.49,633,755,0
3835385,493.10,633,753,0
3835395,466.07,633,755,0
3835405,440.12,633,753,0
3835415,416.94,633,755,0
3835425,395.79,633,753,0
3835436,377.94,633,755,0
3835446,363.00,633,753,0
3835456,351.90,633,755,0
3835466,343.87,633,753,0
3835476,339.67,633,755,0
3835486,338.27,633,753,0
3835496,339.90,633,755,0
3835506,343.57,633,753,0
3835516,349.06,633,755,0
3835526,355.47,633,753,0
3835536,362.49,633,755,0
3835546,369.24,633,753,0
3835556,375.68,633,755,0
3835566,381.35,633,753,0
3835576,386.17,633,755,0
3835586,389.68,633,753,0
3835596,392.09,633,755,0
3835607,393.22,633,753,0
3835617,393.33,633,755,0
3835627,392.58,633,753,0
3835637,390.95,633,755,0
3835648,388.65,633,754,0
3835657,385.93,633,755,0
3835667,382.86,633,754,0
3835677,379.65,633,755,0
3835687,376.54,633,754,0
3835697,373.46,633,755,0
3835707,370.67,633,753,0
3835717,368.02,633,755,0
3835727,365.83,633,754,0
3835737,363.91,633,755,0
3835747,362.39,633,753,0
3835757,360.86,633,755,0
3835767,359.79,633,754,0
3835777,358.95,633,755,0
3835787,358.97,633,753,0
3835797,360.35,633,755,0
3835807,364.02,633,754,0
3835817,370.65,633,755,0
3835827,381.56,633,753,0
3835837,397.08,633,755,0
3835847,418.18,633,754,0
3835857,444.40,633,755,0
3835867,474.79,633,753,0
3835886,507.77,634,752,0
3835889,541.22,634,755,0
3835898,573.43,634,755,0
3835908,602.44,634,754,0
3835918,626.18,634,755,0
3835928,643.36,634,754,0
3835938,652.76,634,755,0
3835948,654.68,634,754,0
3835958,649.29,634,755,0
3835968,637.12,634,754,0
3835978,618.40,634,755,0
3835988,595.01,634,754,0
3835998,567.92,634,755,0
3836008,539.23,634,754,0
3836018,509.20,634,755,0
3836028,479.83,634,754,0
3836038,451.34,634,755,0
3836048,425.48,634,754,0
3836058,401.85,634,755,0
3836068,381.62,634,754,0
3836078,364.51,634,755,0
3836088,351.46,634,754,0
3836098,341.85,634,755,0
3836108,336.45,634,754,0
3836119,334.26,634,755,0
3836129,335.68,634,754,0
3836139,339.25,634,755,0
3836149,345.43,634,754,0
3836160,352.50,634,754,0
3836169,360.79,634,754,0
3836179,368.57,634,755,0
3836189,376.46,634,754,0
3836199,382.83,634,754,0
3836209,388.71,634,754,0
3836219,392.40,634,754,0
3836229,395.41,634,754,0
3836239,396.23,634,754,0
3836249,396.42,634,754,0
3836259,394.71,634,755,0
3836269,392.74,634,754,0
3836279,389.34,634,754,0
3836289,386.03,634,754,0
3836299,381.73,634,754,0
3836309,378.04,634,754,0
3836319,373.74,634,754,0
3836329,370.39,634,754,0
3836339,366.76,634,755,0
3836349,364.13,634,754,0
3836359,361.35,634,754,0
3836369,359.62,634,754,0
3836379,357.72,634,754,0
3836389,356.73,634,754,0
3836399,355.14,634,754,0
3836409,354.37,634,754,0
3836419,353.27,634,755,0
3836429,353.45,634,754,0
3836439,353.96,634,754,0
3836449,356.93,634,754,0
3836460,362.05,634,754,0
3836470,371.63,634,754,0
3836480,385.20,634,754,0
3836490,404.73,634,755,0
3836500,428.98,634,754,0
3836510,458.56,634,755,0
3836529,490.53,643,753,0
3836532,524.19,643,757,0
3836541,556.70,643,754,0
3836551,587.65,643,755,0
3836561,613.00,643,754,0
3836571,632.58,643,755,0
3836581,644.02,643,754,0
3836591,648.64,643,755,0
3836601,645.45,643,753,0
3836611,635.89,643,755,0
3836621,618.91,643,754,0
3836631,597.85,643,755,0
3836641,572.35,643,753,0
3836651,545.55,643,755,0
3836661,516.84,643,754,0
3836672,488.99,643,755,0
3836681,461.35,643,753,0
3836691,436.56,643,755,0
3836701,413.29,643,754,0
3836711,393.75,643,755,0
3836721,376.42,643,753,0
3836731,363.35,643,755,0
3836741,352.92,643,754,0
3836751,346.73,643,755,0
3836761,342.91,643,753,0
3836771,343.11,643,755,0
3836781,345.18,643,754,0
3836791,350.27,643,755,0
3836801,356.19,643,753,0
3836811,364.02,643,755,0
3836821,371.43,643,754,0
3836831,379.57,643,755,0
3836841,386.04,643,753,0
3836851,392.33,643,755,0
3836861,396.56,643,754,0
3836871,400.21,643,755,0
3836881,401.47,643,753,0
3836891,402.40,643,755,0
3836901,401.17,643,754,0
3836911,399.79,643,755,0
3836921,396.59,643,753,0
3836931,393.63,643,755,0
3836941,389.46,643,754,0
3836951,386.06,643,755,0
3836961,381.80,643,753,0
3836972,378.69,643,755,0
3836982,375.14,643,754,0
3836992,372.83,643,755,0
3837002,369.96,643,753,0
3837012,368.13,643,755,0
3837022,365.69,643,753,0
3837032,364.33,643,755,0
3837042,362.34,643,753,0
3837052,361.85,643,755,0
3837062,361.90,643,754,0
3837072,365.06,643,755,0
3837082,370.65,643,753,0
3837092,381.13,643,755,0
3837102,395.36,643,754,0
3837112,415.74,643,755,0
3837122,440.25,643,753,0
3837132,469.66,643,755,0
3837143,500.92,643,753,0
3837162,533.56,633,752,0
3837165,563.78,633,753,0
3837174,591.44,633,755,0
3837185,613.04,633,753,0
3837195,628.58,633,755,0
3837205,636.04,633,753,0
3837215,636.15,633,755,0
3837225,628.39,633,753,0
3837235,614.99,633,755,0
3837245,595.62,633,753,0
3837255,572.51,633,755,0
3837265,546.51,633,753,0
3837275,519.57,633,755,0
3837285,492.19,633,753,0
3837295,465.82,633,755,0
3837305,440.54,633,753,0
3837315,417.75,633,755,0
3837325,397.38,633,753,0
3837335,380.17,633,755,0
3837345,365.97,633,753,0
3837356,355.44,633,755,0
3837366,348.41,633,753,0
3837376,344.81,633,755,0
3837386,344.31,633,753,0
3837396,346.58,633,755,0
3837406,350.90,633,753,0
3837416,357.02,633,755,0
3837426,364.21,633,754,0
3837436,371.78,633,755,0
3837446,379.43,633,753,0
3837456,386.59,633,755,0
3837466,393.14,633,754,0
3837476,398.41,633,755,0
3837486,402.27,633,753,0
3837496,404.59,633,755,0
3837506,405.57,633,754,0
3837516,405.01,633,755,0
3837527,403.34,633,754,0
3837537,400.37,633,755,0
3837547,397.00,633,754,0
3837557,392.84,633,755,0
3837568,388.69,633,754,0
3837577,384.24,633,755,0
3837587,380.31,633,754,0
3837597,376.23,633,755,0
3837607,372.91,633,754,0
3837617,369.55,633,755,0
3837627,366.98,633,754,0
3837637,364.33,633,755,0
3837647,362.56,633,754,0
3837657,360.98,633,754,0
3837667,360.81,633,754,0
3837677,361.77,633,755,0
3837687,365.44,633,754,0
3837697,372.21,633,754,0
3837707,383.63,633,754,0
3837717,399.81,633,755,0
3837727,421.90,633,754,0
3837737,448.76,633,754,0
3837747,480.29,633,754,0
3837757,514.02,633,755,0
3837776,548.60,614,754,0
3837779,580.39,614,755,0
3837788,609.07,614,754,0
3837798,631.64,614,755,0
3837808,647.82,614,754,0
3837818,655.67,614,754,0
3837828,656.46,614,754,0
3837838,649.55,614,755,0
3837848,637.43,614,754,0
3837858,619.00,614,754,0
3837868,596.88,614,754,0
3837878,571.38,614,755,0
3837888,544.91,614,754,0
3837898,517.21,614,754,0
3837908,490.44,614,754,0
3837918,464.51,614,755,0
3837928,441.13,614,754,0
3837938,419.32,614,754,0
3837948,400.88,614,754,0
3837958,384.89,614,755,0
3837968,372.84,614,754,0
3837978,363.54,614,754,0
3837988,358.15,614,755,0
3837998,355.19,614,755,0
3838008,355.78,614,754,0
3838018,357.77,614,754,0
3838028,362.34,614,755,0
3838039,367.47,614,754,0
3838049,373.97,614,755,0
3838059,379.85,614,754,0
3838069,386.24,614,755,0
3838080,391.35,614,754,0
3838089,396.39,614,755,0
3838099,399.70,614,754,0
3838109,402.66,614,755,0
3838119,403.66,614,754,0
3838129,404.19,614,755,0
3838139,402.76,614,754,0
3838149,401.29,614,755,0
3838159,398.20,614,754,0
3838169,395.31,614,755,0
3838179,391.23,614,754,0
3838189,387.82,614,755,0
3838199,383.72,614,754,0
3838209,380.67,614,755,0
3838219,377.09,614,754,0
3838229,374.75,614,755,0
3838239,371.82,614,754,0
3838249,369.95,614,755,0
3838259,367.61,614,754,0
3838269,366.22,614,755,0
3838279,364.27,614,754,0
3838289,363.42,614,755,0
3838299,362.31,614,754,0
3838309,363.07,614,755,0
3838319,364.98,614,754,0
3838329,370.73,614,755,0
3838339,379.72,614,754,0
3838349,394.46,614,755,0
3838359,414.00,614,754,0
3838369,440.10,614,755,0
3838380,470.41,614,754,0
3838399,505.13,623,752,0
3838402,539.93,623,755,0
3838411,574.93,623,756,0
3838422,605.76,623,754,0
3838431,632.10,623,755,0
3838441,650.63,623,754,0
3838451,662.23,623,756,0
3838461,664.69,623,754,0
3838471,660.75,623,755,0
3838481,648.74,623,754,0
3838491,631.68,623,755,0
3838501,608.93,623,753,0
3838511,583.88,623,755,0
3838521,555.84,623,753,0
3838531,527.95,623,756,0
3838541,499.34,623,754,0
3838551,472.79,623,755,0
3838561,447.31,623,754,0
3838571,425.06,623,755,0
3838581,404.39,623,753,0
3838592,387.64,623,755,0
3838601,373.35,623,754,0
3838611,363.22,623,755,0
3838621,355.61,623,754,0
3838631,352.13,623,755,0
3838641,350.85,623,754,0
3838651,353.46,623,756,0
3838661,357.57,623,754,0
3838671,364.08,623,755,0
3838681,370.74,623,754,0
3838691,378.66,623,755,0
3838701,385.66,623,754,0
3838711,393.05,623,755,0
3838721,398.39,623,754,0
3838731,403.25,623,756,0
3838741,405.92,623,754,0
3838751,407.95,623,755,0
3838761,407.71,623,754,0
3838771,406.94,623,755,0
3838781,404.17,623,754,0
3838791,401.25,623,755,0
3838801,396.72,623,754,0
3838811,392.60,623,755,0
3838821,387.49,623,754,0
3838831,383.10,623,755,0
3838841,377.97,623,753,0
3838851,374.21,623,756,0
3838861,370.29,623,754,0
3838871,367.85,623,755,0
3838881,365.23,623,754,0
3838892,364.05,623,756,0
3838902,362.79,623,753,0
3838912,362.98,623,755,0
3838922,362.90,623,753,0
3838932,364.17,623,755,0
3838942,365.84,623,754,0
3838952,369.49,623,755,0
3838962,374.61,623,753,0
3838972,383.43,623,755,0
3838982,395.51,623,754,0
3838992,413.06,623,755,0
3839002,435.28,623,753,0
3839012,462.93,623,756,0
3839022,493.94,623,754,0
3839041,528.03,642,752,0
3839044,561.49,642,754,0
3839053,593.74,642,756,0
3839063,621.25,642,754,0
3839073,643.12,642,756,0
3839083,656.92,642,753,0
3839093,663.25,642,756,0
3839104,660.69,642,753,0
3839113,651.48,642,755,0
3839123,634.84,642,753,0
3839133,613.20,642,756,0
3839143,587.30,642,753,0
3839153,559.74,642,755,0
3839163,530.84,642,753,0
3839173,502.86,642,755,0
3839183,475.73,642,753,0
3839193,451.38,642,756,0
3839203,429.15,642,753,0
3839213,410.08,642,756,0
3839223,393.34,642,753,0
3839233,380.08,642,755,0
3839243,369.43,642,753,0
3839253,362.31,642,756,0
3839263,357.76,642,753,0
3839273,356.46,642,755,0
3839283,357.18,642,753,0
3839293,360.51,642,756,0
3839303,365.12,642,753,0
3839313,371.47,642,756,0
3839323,377.88,642,753,0
3839333,384.69,642,755,0
3839343,390.74,642,753,0
3839353,396.52,642,756,0
3839363,400.69,642,753,0
3839373,403.96,642,755,0
3839383,405.43,642,753,0
3839393,406.20,642,755,0
3839404,405.54,642,753,0
3839414,404.05,642,755,0
3839424,401.46,642,753,0
3839434,398.54,642,755,0
3839444,395.03,642,753,0
3839454,391.47,642,755,0
3839464,387.30,642,753,0
3839474,383.27,642,755,0
3839484,379.29,642,753,0
3839494,375.73,642,756,0
3839504,372.34,642,754,0
3839514,369.45,642,756,0
3839524,366.79,642,753,0
3839534,364.97,642,755,0
3839544,364.16,642,754,0
3839554,365.18,642,755,0
3839564,368.56,642,753,0
3839575,375.46,642,755,0
3839585,386.42,642,753,0
3839595,402.80,642,755,0
3839605,424.67,642,753,0
3839616,451.51,642,755,0
3839625,482.22,642,753,0
3839635,515.24,642,755,0
3839654,548.55,613,753,0
3839657,579.03,613,756,0
3839666,605.46,613,754,0
3839676,625.60,613,755,0
3839686,638.66,613,754,0
3839696,643.56,613,754,0
3839706,640.69,613,754,0
3839716,630.16,613,754,0
3839726,614.21,613,754,0
3839736,592.50,613,754,0
3839746,567.54,613,754,0
3839756,539.99,613,754,0
3839766,512.01,613,754,0
3839776,483.81,613,755,0
3839787,457.16,613,754,0
3839796,432.17,613,755,0
3839806,410.09,613,754,0
3839816,390.31,613,754,0
3839826,374.19,613,754,0
3839836,360.89,613,755,0
3839846,351.45,613,754,0
3839856,344.97,613,754,0
3839866,342.28,613,754,0
3839876,342.11,613,755,0
3839886,344.78,613,754,0
3839896,348.74,613,754,0
3839906,354.56,613,754,0
3839916,360.65,613,755,0
3839926,367.27,613,754,0
3839936,372.89,613,754,0
3839946,378.28,613,754,0
3839956,382.35,613,755,0
3839966,385.68,613,754,0
3839976,387.19,613,754,0
3839986,387.90,613,754,0
3839996,387.20,613,755,0
3840006,386.11,613,754,0
3840016,383.85,613,754,0
3840026,381.45,613,754,0
3840036,378.23,613,754,0
3840046,375.38,613,754,0
3840056,372.13,613,754,0
3840066,369.61,613,754,0
3840076,366.85,613,755,0
3840087,364.97,613,754,0
3840097,362.92,613,754,0
3840107,362.05,613,754,0
3840117,361.05,613,754,0
3840128,361.46,613,754,0
3840137,362.22,613,754,0
3840147,365.20,613,754,0
3840157,369.94,613,754,0
3840167,378.66,613,755,0
3840177,390.55,613,754,0
3840187,407.91,613,754,0
3840197,429.54,613,754,0
3840207,456.42,613,754,0
3840217,486.21,613,754,0
3840236,518.67,582,753,0
3840239,549.80,582,755,0
3840248,579.82,582,755,0
3840258,605.16,582,754,0
3840268,625.47,582,755,0
3840278,638.31,582,754,0
3840288,644.43,582,755,0
3840299,642.25,582,753,0
3840308,634.54,582,755,0
3840318,619.77,582,754,0
3840328,600.59,582,755,0
3840338,576.72,582,753,0
3840348,551.30,582,755,0
3840358,523.91,582,754,0
3840368,497.07,582,755,0
3840378,469.92,582,753,0
3840388,445.09,582,755,0
3840398,421.62,582,754,0
3840408,401.63,582,755,0
3840418,383.49,582,753,0
3840428,369.15,582,754,0
3840438,357.36,582,754,0
3840448,349.93,582,755,0
3840458,344.85,582,753,0
3840468,343.44,582,755,0
3840478,343.69,582,754,0
3840488,346.91,582,755,0
3840498,350.92,582,754,0
3840508,356.90,582,755,0
3840518,362.46,582,754,0
3840528,368.92,582,755,0
3840538,374.17,582,753,0
3840548,379.65,582,755,0
3840558,383.36,582,754,0
3840568,386.76,582,755,0
3840578,388.03,582,753,0
3840588,389.05,582,755,0
3840599,388.31,582,754,0
3840609,387.44,582,755,0
3840619,384.78,582,753,0
3840629,382.23,582,755,0
3840640,378.52,582,753,0
3840649,375.54,582,755,0
3840659,371.73,582,753,0
3840669,369.03,582,755,0
3840679,366.15,582,754,0
3840689,364.86,582,755,0
3840699,363.32,582,754,0
3840709,363.18,582,755,0
3840719,362.57,582,753,0
3840729,363.38,582,755,0
3840739,364.13,582,754,0
3840749,367.22,582,755,0
3840759,371.78,582,753,0
3840769,380.46,582,755,0
3840779,392.45,582,754,0
3840789,410.44,582,755,0
3840799,432.94,582,754,0
3840809,461.16,582,755,0
3840819,492.05,582,754,0
3840838,525.64,602,752,0
3840841,557.85,602,754,0
3840850,588.54,602,755,0
3840860,614.13,602,753,0
3840870,634.54,602,755,0
3840880,646.80,602,753,0
3840890,652.31,602,755,0
3840900,649.68,602,753,0
3840910,641.55,602,755,0
3840920,626.47,602,753,0
3840930,606.92,602,755,0
3840940,582.73,602,753,0
3840950,557.22,602,755,0
3840960,529.81,602,753,0
3840970,502.78,602,755,0
3840980,475.51,602,753,0
3840990,450.75,602,755,0
3841000,427.51,602,753,0
3841010,407.60,602,755,0
3841020,389.64,602,753,0
3841030,375.52,602,755,0
3841040,364.05,602,753,0
3841050,356.79,602,755,0
3841060,351.88,602,753,0
3841070,350.67,602,755,0
3841080,351.16,602,753,0
3841090,354.45,602,756,0
3841100,358.43,602,754,0
3841111,364.04,602,755,0
3841121,369.35,602,754,0
3841131,375.41,602,756,0
3841141,380.48,602,754,0
3841152,385.73,602,755,0
3841161,389.33,602,755,0
3841171,392.49,602,756,0
3841181,393.80,602,755,0
3841191,394.59,602,756,0
3841201,393.60,602,755,0
3841211,392.30,602,757,0
3841221,389.77,602,753,0
3841231,387.35,602,755,0
3841241,384.20,602,753,0
3841251,381.53,602,755,0
3841261,378.33,602,753,0
3841271,375.79,602,755,0
3841281,372.85,602,753,0
3841291,370.84,602,755,0
3841301,368.53,602,753,0
3841311,366.91,602,755,0
3841321,365.10,602,753,0
3841331,364.47,602,755,0
3841341,364.20,602,753,0
3841351,366.02,602,755,0
3841361,369.49,602,753,0
3841371,376.89,602,755,0
3841381,387.81,602,753,0
3841391,404.15,602,755,0
3841401,425.06,602,753,0
3841411,451.49,602,755,0
3841421,481.30,602,753,0
3841440,514.04,602,752,0
3841443,546.38,602,754,0
3841452,578.11,602,756,0
3841462,605.51,602,753,0
3841472,627.55,602,755,0
3841482,642.05,602,753,0
3841492,649.06,602,755,0
3841502,647.59,602,753,0
3841512,639.14,602,755,0
3841522,622.94,602,753,0
3841532,601.44,602,755,0
3841542,575.72,602,753,0
3841552,548.04,602,755,0
3841562,519.01,602,753,0
3841572,490.42,602,755,0
3841582,462.57,602,753,0
3841592,437.24,602,755,0
3841602,414.37,602,753,0
3841612,394.67,602,755,0
3841623,377.76,602,753,0
3841633,364.41,602,755,0
3841643,354.39,602,753,0
3841653,348.19,602,755,0
3841664,345.09,602,753,0
3841673,345.10,602,755,0
3841683,347.43,602,753,0
3841693,351.84,602,755,0
3841703,357.68,602,753,0
3841713,364.33,602,755,0
3841723,371.09,602,753,0
3841733,377.53,602,755,0
3841743,383.24,602,753,0
3841753,388.10,602,755,0
3841763,391.71,602,753,0
3841773,394.11,602,755,0
3841783,395.24,602,753,0
3841793,395.42,602,755,0
3841803,394.61,602,753,0
3841813,392.97,602,755,0
3841823,390.58,602,753,0
3841833,387.66,602,755,0
3841843,384.25,602,753,0
3841853,380.70,602,755,0
3841863,376.98,602,753,0
3841873,373.38,602,755,0
3841883,370.05,602,753,0
3841893,367.12,602,755,0
3841903,364.69,602,753,0
3841913,362.77,602,755,0
3841923,361.29,602,753,0
3841933,360.61,602,755,0
3841943,360.81,602,753,0
3841953,362.62,602,755,0
3841964,366.85,602,753,0
3841974,374.31,602,755,0
3841984,385.96,602,754,0
3841994,402.51,602,755,0
3842004,424.35,602,754,0
3842014,450.99,602,755,0
3842024,481.33,602,754,0
3842034,513.46,602,755,0
3842054,545.64,613,753,0
3842057,574.50,613,754,0
3842066,599.60,613,754,0
3842076,618.23,613,754,0
3842086,630.20,613,754,0
3842096,634.43,613,754,0
3842106,631.60,613,754,0
3842116,621.43,613,754,0
3842126,606.56,613,754,0
3842136,586.08,613,754,0
3842146,562.66,613,754,0
3842156,536.19,613,754,0
3842166,509.05,613,754,0
3842177,481.22,613,754,0
3842187,455.27,613,755,0
3842197,430.46,613,754,0
3842207,408.93,613,755,0
3842217,389.63,613,754,0
3842227,374.57,613,755,0
3842237,362.35,613,754,0
3842247,354.58,613,754,0
3842257,349.39,613,754,0
3842267,348.33,613,755,0
3842277,349.17,613,754,0
3842287,353.11,613,755,0
3842297,357.92,613,754,0
3842307,364.80,613,755,0
3842317,371.55,613,754,0
3842327,379.22,613,755,0
3842337,385.67,613,753,0
3842348,392.20,613,755,0
3842358,396.94,613,754,0
3842368,401.20,613,754,0
3842378,403.20,613,753,0
3842388,404.51,613,755,0
3842398,403.59,613,754,0
3842408,402.30,613,755,0
3842418,399.16,613,754,0
3842428,396.03,613,755,0
3842438,391.56,613,754,0
3842448,387.62,613,755,0
3842458,382.68,613,754,0
3842468,378.66,613,755,0
3842478,373.88,613,754,0
3842488,370.23,613,755,0
3842498,366.13,613,753,0
3842508,363.43,613,755,0
3842519,360.86,613,753,0
3842529,360.77,613,755,0
3842539,362.26,613,753,0
3842549,367.97,613,755,0
3842560,377.06,613,753,0
3842569,391.87,613,755,0
3842579,411.32,613,753,0
3842589,437.07,613,755,0
3842599,466.62,613,753,0
3842609,500.08,613,755,0
3842619,533.87,613,753,0
3842638,567.46,585,752,0
3842641,596.60,585,753,0
3842650,621.27,585,755,0
3842660,638.21,585,753,0
3842670,648.00,585,755,0
3842680,648.99,585,753,0
3842690,643.03,585,755,0
3842700,629.22,585,753,0
3842710,610.73,585,755,0
3842720,586.94,585,753,0
3842731,560.86,585,755,0
3842740,532.57,585,753,0
3842750,504.67,585,755,0
3842760,476.70,585,753,0
3842770,450.95,585,755,0
3842780,426.88,585,753,0
3842790,406.21,585,755,0
3842800,387.89,585,753,0
3842810,373.22,585,755,0
3842820,361.07,585,753,0
3842830,352.86,585,755,0
3842840,347.42,585,753,0
3842850,345.54,585,755,0
3842860,345.72,585,753,0
3842870,348.85,585,755,0
3842880,353.22,585,753,0
3842890,359.54,585,755,0
3842900,366.06,585,753,0
3842910,373.46,585,755,0
3842920,379.92,585,753,0
3842930,386.12,585,755,0
3842940,390.58,585,753,0
3842950,394.48,585,755,0
3842960,396.35,585,753,0
3842970,397.27,585,755,0
3842980,396.21,585,752,0
3842990,394.90,585,755,0
3843000,392.36,585,753,0
3843010,389.85,585,755,0
3843020,386.51,585,753,0
3843031,383.61,585,755,0
3843041,380.34,585,753,0
3843051,377.63,585,755,0
3843061,374.40,585,752,0
3843072,371.66,585,755,0
3843081,368.68,585,753,0
3843091,366.29,585,755,0
3843101,364.02,585,752,0
3843111,363.11,585,755,0
3843121,363.51,585,753,0
3843131,366.83,585,755,0
3843141,373.35,585,752,0
3843151,384.77,585,755,0
3843161,400.96,585,753,0
3843171,423.17,585,755,0
3843181,450.29,585,753,0
3843191,482.17,585,755,0
3843201,516.15,585,753,0
3843220,550.95,582,752,0
3843223,583.36,582,754,0
3843232,612.65,582,755,0
3843243,635.90,582,753,0
3843252,652.35,582,755,0
3843262,660.43,582,753,0
3843272,660.77,582,755,0
3843282,653.30,582,753,0
3843292,639.49,582,755,0
3843302,619.46,582,753,0
3843312,594.94,582,755,0
3843322,567.44,582,753,0
3843332,538.64,582,755,0
3843342,509.56,582,753,0
3843352,481.45,582,755,0
3843362,454.91,582,753,0
3843372,430.94,582,755,0
3843382,409.87,582,753,0
3843392,391.87,582,755,0
3843402,377.04,582,753,0
3843412,365.58,582,755,0
3843422,357.31,582,753,0
3843432,352.37,582,755,0
3843442,350.29,582,753,0
3843452,350.80,582,755,0
3843462,353.39,582,753,0
3843472,357.73,582,755,0
3843482,363.30,582,753,0
3843492,369.64,582,755,0
3843502,375.96,582,753,0
3843512,381.93,582,755,0
3843522,387.05,582,753,0
3843532,391.15,582,755,0
3843543,393.98,582,753,0
3843553,395.35,582,754,0
3843563,395.63,582,754,0
3843573,394.72,582,755,0
3843584,393.00,582,754,0
3843593,390.69,582,755,0
3843603,387.91,582,754,0
3843613,384.46,582,754,0
3843623,381.07,582,754,0
3843633,377.45,582,755,0
3843643,374.23,582,754,0
3843653,370.86,582,754,0
3843663,367.90,582,754,0
3843673,365.10,582,755,0
3843683,363.19,582,754,0
3843693,361.50,582,755,0
3843703,360.92,582,754,0
3843713,361.37,582,754,0
3843723,364.09,582,754,0
3843733,369.46,582,755,0
3843743,378.97,582,754,0
3843753,392.91,582,754,0
3843763,412.05,582,754,0
3843773,435.99,582,755,0
3843783,464.54,582,754,0
3843793,496.00,582,754,0
3843812,528.79,592,754,0
3843815,559.67,592,755,0
3843824,587.88,592,754,0
3843834,610.97,592,754,0
3843844,628.00,592,754,0
3843854,637.43,592,755,0
3843864,639.53,592,754,0
3843874,633.84,592,754,0
3843884,622.53,592,754,0
3843894,604.76,592,754,0
3843904,582.97,592,754,0
3843914,557.01,592,754,0
3843924,529.28,592,754,0
3843934,500.14,592,754,0
3843944,471.68,592,754,0
3843954,443.71,592,754,0
3843964,418.25,592,754,0
3843974,394.86,592,754,0
3843984,375.40,592,754,0
3843994,359.21,592,754,0
3844004,347.45,592,754,0
3844014,339.21,592,755,0
3844024,335.25,592,754,0
3844034,334.19,592,754,0
3844044,336.70,592,754,0
3844055,341.08,592,754,0
3844065,347.70,592,754,0
3844075,354.86,592,754,0
3844085,363.09,592,754,0
3844096,370.48,592,754,0
3844105,377.92,592,754,0
3844115,383.99,592,754,0
3844125,389.90,592,754,0
3844135,394.00,592,754,0
3844145,397.52,592,754,0
3844155,399.12,592,754,0
3844165,400.50,592,754,0
3844175,400.18,592,754,0
3844185,399.40,592,754,0
3844195,396.88,592,754,0
3844205,394.21,592,754,0
3844215,390.12,592,754,0
3844225,386.40,592,754,0
3844235,381.61,592,754,0
3844245,377.40,592,754,0
3844255,372.56,592,754,0
3844265,368.58,592,754,0
3844275,364.42,592,754,0
3844285,361.72,592,754,0
3844295,359.32,592,754,0
3844305,359.61,592,755,0
3844315,361.78,592,754,0
3844325,368.32,592,754,0
3844335,378.60,592,754,0
3844345,394.83,592,755,0
3844355,415.75,592,754,0
3844365,442.23,592,754,0
3844375,471.77,592,754,0
3844385,504.28,592,755,0
3844396,536.08,592,754,0
3844415,566.40,603,752,0
3844418,590.92,603,754,0
3844427,610.40,603,755,0
3844438,621.94,603,753,0
3844447,626.72,603,755,0
3844457,623.16,603,753,0
3844467,613.30,603,755,0
3844477,596.62,603,753,0
3844487,576.72,603,755,0
3844497,552.50,603,753,0
3844507,527.28,603,755,0
3844517,500.24,603,753,0
3844527,474.24,603,755,0
3844537,448.45,603,754,0
3844547,425.39,603,755,0
3844557,403.72,603,753,0
3844567,385.54,603,755,0
3844577,369.48,603,753,0
3844587,357.68,603,755,0
3844597,348.39,603,753,0
3844608,343.52,603,755,0
3844617,340.92,603,753,0
3844627,342.10,603,755,0
3844637,344.90,603,753,0
3844647,350.59,603,755,0
3844657,356.67,603,753,0
3844667,364.27,603,755,0
3844677,371.17,603,753,0
3844687,378.58,603,755,0
3844697,384.40,603,754,0
3844707,389.90,603,755,0
3844717,392.93,603,753,0
3844727,395.22,603,755,0
3844737,395.41,603,753,0
3844747,395.25,603,755,0
3844757,393.33,603,753,0
3844767,391.52,603,755,0
3844777,388.45,603,753,0
3844787,386.34,603,755,0
3844797,383.45,603,754,0
3844807,381.30,603,755,0
3844817,378.30,603,753,0
3844827,376.15,603,755,0
3844837,373.11,603,754,0
3844847,370.93,603,755,0
3844857,367.91,603,753,0
3844867,366.14,603,755,0
3844877,364.64,603,753,0
3844887,365.60,603,755,0
3844897,368.38,603,753,0
3844908,375.68,603,755,0
3844918,386.70,603,753,0
3844928,403.81,603,755,0
3844938,425.51,603,753,0
3844948,452.91,603,755,0
3844958,483.28,603,753,0
3844968,516.28,603,755,0
3844987,548.17,572,754,0
3844990,577.65,572,756,0
3844999,602.27,572,753,0
3845009,621.43,572,755,0
3845019,632.49,572,753,0
3845029,636.41,572,755,0
3845039,632.22,572,753,0
3845049,621.91,572,755,0
3845059,605.69,572,753,0
3845069,584.83,572,755,0
3845079,560.11,572,753,0
3845089,534.06,572,755,0
3845099,506.66,572,753,0
3845109,479.97,572,755,0
3845120,453.71,572,753,0
3845129,429.88,572,755,0
3845139,407.98,572,753,0
3845149,389.08,572,755,0
3845159,372.64,572,753,0
3845169,359.98,572,755,0
3845179,350.04,572,753,0
3845189,343.86,572,755,0
3845199,340.09,572,753,0
3845209,339.67,572,755,0
3845219,341.23,572,753,0
3845229,345.19,572,755,0
3845239,350.06,572,753,0
3845249,356.43,572,755,0
3845259,362.69,572,753,0
3845269,369.55,572,755,0
3845279,375.34,572,753,0
3845289,380.73,572,755,0
3845299,384.62,572,753,0
3845309,387.86,572,755,0
3845319,389.49,572,753,0
3845329,390.33,572,755,0
3845339,389.42,572,753,0
3845349,388.01,572,755,0
3845359,385.30,572,753,0
3845369,382.30,572,755,0
3845379,378.27,572,753,0
3845389,374.54,572,755,0
3845399,370.39,572,753,0
3845409,367.02,572,755,0
3845420,363.67,572,753,0
3845430,361.41,572,755,0
3845440,359.62,572,753,0
3845450,359.43,572,755,0
3845460,360.46,572,753,0
3845470,364.22,572,755,0
3845480,370.76,572,753,0
3845490,381.63,572,755,0
3845500,397.21,572,753,0
3845510,418.32,572,755,0
3845520,444.11,572,753,0
3845530,474.21,572,755,0
3845540,506.76,572,753,0
3845559,540.39,572,752,0
3845562,571.90,572,755,0
3845571,599.83,572,755,0
3845581,622.17,572,753,0
3845591,637.97,572,755,0
3845601,646.00,572,753,0
3845611,646.51,572,755,0
3845621,639.54,572,753,0
3845632,626.52,572,755,0
3845641,607.90,572,753,0
3845651,585.08,572,755,0
3845661,559.30,572,753,0
3845671,531.91,572,755,0
3845681,503.95,572,753,0
3845691,476.62,572,755,0
3845701,450.81,572,753,0
3845711,427.08,572,755,0
3845721,405.97,572,753,0
3845731,387.89,572,755,0
3845741,373.18,572,753,0
3845751,361.86,572,755,0
3845761,353.84,572,753,0
3845771,349.22,572,755,0
3845781,347.82,572,753,0
3845791,349.08,572,755,0
3845801,352.48,572,754,0
3845811,357.39,572,755,0
3845821,363.40,572,753,0
3845831,369.80,572,755,0
3845841,376.03,572,753,0
3845851,381.72,572,755,0
3845861,386.65,572,753,0
3845871,390.61,572,755,0
3845881,393.68,572,754,0
3845891,395.71,572,755,0
3845901,396.82,572,753,0
3845911,396.79,572,755,0
3845921,395.87,572,753,0
3845932,394.02,572,755,0
3845942,391.79,572,754,0
3845952,388.85,572,754,0
3845962,385.94,572,754,0
3845972,382.70,572,754,0
3845982,379.79,572,754,0
3845992,376.77,572,754,0
3846002,374.39,572,754,0
3846012,371.92,572,754,0
3846022,370.31,572,754,0
3846032,369.11,572,754,0
3846042,369.59,572,754,0
3846052,371.85,572,755,0
3846062,377.43,572,754,0
3846072,386.51,572,754,0
3846082,400.63,572,754,0
3846092,419.60,572,755,0
3846103,444.06,572,754,0
3846113,472.59,572,754,0
3846123,504.55,572,754,0
3846142,537.22,583,753,0
3846146,568.48,583,756,0
3846155,596.02,583,754,0
3846165,618.82,583,755,0
3846175,634.17,583,754,0
3846185,642.39,583,755,0
3846195,642.19,583,753,0
3846205,635.19,583,755,0
3846215,621.46,583,753,0
3846225,602.68,583,755,0
3846235,578.95,583,753,0
3846245,553.21,583,755,0
3846255,525.03,583,754,0
3846265,497.16,583,755,0
3846275,469.13,583,753,0
3846285,443.55,583,755,0
3846295,419.51,583,754,0
3846305,399.09,583,755,0
3846316,380.93,583,753,0
3846326,367.24,583,755,0
3846336,356.32,583,753,0
3846346,350.01,583,755,0
3846356,346.37,583,753,0
3846366,346.68,583,755,0
3846376,348.62,583,753,0
3846386,353.49,583,755,0
3846396,358.96,583,753,0
3846406,366.21,583,755,0
3846416,373.05,583,753,0
3846426,380.53,583,755,0
3846436,386.76,583,753,0
3846446,393.17,583,755,0
3846456,397.67,583,753,0
3846466,401.84,583,755,0
3846476,403.77,583,753,0
3846487,405.00,583,755,0
3846497,404.18,583,753,0
3846507,402.97,583,755,0
3846517,400.02,583,753,0
3846528,397.19,583,755,0
3846537,393.02,583,753,0
3846547,389.67,583,755,0
3846557,385.40,583,753,0
3846567,381.98,583,755,0
3846577,378.08,583,753,0
3846587,375.27,583,755,0
3846597,372.32,583,753,0
3846607,371.11,583,755,0
3846617,370.39,583,753,0
3846627,372.72,583,755,0
3846637,377.43,583,753,0
3846647,386.94,583,755,0
3846657,400.46,583,753,0
3846667,420.17,583,755,0
3846677,444.37,583,753,0
3846687,473.88,583,755,0
3846697,505.80,583,753,0
3846707,539.54,583,755,0
3846726,571.27,584,754,0
3846729,599.69,584,757,0
3846738,622.24,584,753,0
3846748,638.71,584,755,0
3846758,646.51,584,753,0
3846768,646.70,584,755,0
3846778,638.48,584,753,0
3846788,624.32,584,755,0
3846798,604.59,584,753,0
3846808,581.06,584,755,0
3846818,554.04,584,753,0
3846828,526.39,584,755,0
3846838,497.98,584,753,0
3846848,470.95,584,755,0
3846858,444.86,584,753,0
3846868,421.68,584,755,0
3846878,400.69,584,753,0
3846888,383.42,584,755,0
3846898,368.73,584,753,0
3846908,358.01,584,755,0
3846918,350.38,584,753,0
3846928,346.75,584,755,0
3846938,345.71,584,753,0
3846948,347.77,584,755,0
3846958,351.35,584,753,0
3846968,357.29,584,755,0
3846978,363.76,584,753,0
3846988,371.12,584,755,0
3846999,377.77,584,753,0
3847009,384.27,584,755,0
3847019,389.41,584,753,0
3847029,393.79,584,755,0
3847040,396.38,584,753,0
3847049,398.20,584,755,0
3847059,398.31,584,753,0
3847069,397.53,584,755,0
3847079,395.49,584,753,0
3847089,392.90,584,755,0
3847099,389.46,584,753,0
3847109,385.81,584,755,0
3847119,381.58,584,753,0
3847129,377.50,584,755,0
3847139,373.24,584,753,0
3847149,369.35,584,755,0
3847159,365.43,584,753,0
3847169,362.09,584,755,0
3847179,358.89,584,753,0
3847189,356.52,584,755,0
3847199,354.78,584,753,0
3847209,354.76,584,755,0
3847219,356.55,584,753,0
3847229,361.78,584,755,0
3847239,370.85,584,753,0
3847249,385.17,584,755,0
3847259,404.53,584,753,0
3847269,429.57,584,755,0
3847279,459.14,584,753,0
3847289,492.40,584,755,0
3847299,526.87,584,753,0
3847318,560.89,592,752,0
3847321,591.22,592,754,0
3847330,616.61,592,755,0
3847340,635.29,592,753,0
3847350,646.43,592,755,0
3847360,649.47,592,753,0
3847370,644.83,592,754,0
3847380,632.92,592,753,0
3847390,615.72,592,755,0
3847400,593.90,592,753,0
3847410,568.73,592,754,0
3847420,541.56,592,753,0
3847430,513.75,592,755,0
3847440,486.31,592,753,0
3847450,460.03,592,754,0
3847460,435.68,592,753,0
3847470,413.83,592,755,0
3847480,394.77,592,753,0
3847490,378.59,592,754,0
3847500,365.82,592,753,0
3847511,356.40,592,755,0
3847521,350.58,592,753,0
3847531,347.79,592,754,0
3847541,348.24,592,754,0
3847552,351.04,592,754,0
3847561,356.30,592,754,0
3847571,362.85,592,754,0
3847581,370.35,592,753,0
3847591,377.53,592,754,0
3847601,384.62,592,754,0
3847611,390.47,592,754,0
3847621,395.82,592,754,0
3847631,399.60,592,754,0
3847641,402.33,592,753,0
3847651,403.78,592,754,0
3847661,404.79,592,754,0
3847671,404.59,592,754,0
3847681,403.99,592,754,0
3847691,402.32,592,754,0
3847701,400.42,592,754,0
3847711,397.47,592,754,0
3847721,394.20,592,754,0
3847731,390.03,592,754,0
3847741,385.82,592,754,0
3847751,380.94,592,754,0
3847761,376.50,592,754,0
3847771,371.77,592,754,0
3847781,367.85,592,754,0
3847791,364.47,592,754,0
3847801,363.21,592,754,0
3847811,364.05,592,755,0
3847821,368.66,592,753,0
3847831,377.12,592,754,0
3847841,391.18,592,754,0
3847852,410.67,592,755,0
3847862,436.14,592,754,0
3847872,465.71,592,754,0
3847882,498.80,592,754,0
3847892,532.63,592,754,0
3847911,565.70,593,756,0
3847914,594.07,593,758,0
3847923,617.45,593,755,0
3847933,633.05,593,754,0
3847943,641.47,593,754,0
3847953,641.42,593,754,0
3847963,634.56,593,754,0
3847973,620.34,593,753,0
3847983,602.11,593,754,0
3847993,578.98,593,754,0
3848003,554.04,593,754,0
3848013,526.69,593,753,0
3848023,499.74,593,754,0
3848033,472.52,593,754,0
3848043,447.50,593,754,0
3848053,423.61,593,754,0
3848064,402.98,593,754,0
3848073,384.56,593,754,0
3848083,370.34,593,754,0
3848093,358.88,593,754,0
3848103,351.84,593,754,0
3848113,347.73,593,754,0
3848123,347.86,593,754,0
3848133,350.13,593,753,0
3848143,355.45,593,754,0
3848153,361.66,593,754,0
3848163,369.64,593,754,0
3848173,377.21,593,754,0
3848183,385.25,593,754,0
3848193,391.77,593,754,0
3848203,398.14,593,754,0
3848213,402.47,593,753,0
3848223,406.23,593,754,0
3848233,407.66,593,753,0
3848243,408.66,593,754,0
3848253,407.61,593,753,0
3848263,406.27,593,754,0
3848273,403.19,593,753,0
3848283,400.13,593,754,0
3848293,395.81,593,754,0
3848303,392.09,593,754,0
3848313,387.39,593,753,0
3848323,383.59,593,754,0
3848333,379.17,593,754,0
3848343,375.82,593,754,0
3848353,372.14,593,753,0
3848364,370.04,593,755,0
3848374,368.23,593,753,0
3848384,369.19,593,754,0
3848394,372.13,593,753,0
3848404,379.81,593,755,0
3848414,391.31,593,753,0
3848424,409.04,593,754,0
3848434,431.40,593,753,0
3848444,459.78,593,755,0
3848454,490.92,593,753,0
3848464,524.71,593,754,0
3848474,557.29,593,753,0
3848494,588.19,582,752,0
3848497,612.94,582,754,0
3848506,632.08,582,754,0
3848516,642.72,582,753,0
3848526,646.15,582,755,0
3848536,641.26,582,753,0
3848546,630.25,582,755,0
3848556,612.61,582,752,0
3848566,591.64,582,754,0
3848577,566.76,582,753,0
3848587,540.52,582,754,0
3848597,513.02,582,752,0
3848607,486.36,582,755,0
3848617,460.19,582,753,0
3848627,436.52,582,754,0
3848637,414.59,582,752,0
3848647,395.94,582,755,0
3848657,380.23,582,752,0
3848667,368.55,582,754,0
3848677,359.81,582,753,0
3848687,354.98,582,755,0
3848697,352.80,582,752,0
3848707,354.10,582,754,0
3848717,357.29,582,752,0
3848727,362.56,582,755,0
3848737,368.31,582,752,0
3848748,375.03,582,755,0
3848758,381.11,582,752,0
3848768,386.95,582,755,0
3848778,391.33,582,753,0
3848788,394.88,582,754,0
3848798,396.67,582,752,0
3848808,397.50,582,755,0
3848818,396.79,582,752,0
3848828,395.44,582,754,0
3848838,393.25,582,752,0
3848848,390.95,582,755,0
3848858,388.26,582,752,0
3848868,385.74,582,754,0
3848878,383.12,582,752,0
3848888,380.90,582,755,0
3848898,378.57,582,752,0
3848908,376.47,582,755,0
3848919,374.19,582,752,0
3848929,372.16,582,755,0
3848939,370.31,582,753,0
3848949,369.02,582,754,0
3848960,368.58,582,753,0
3848969,370.04,582,755,0
3848979,373.97,582,753,0
3848989,381.61,582,754,0
3848999,393.68,582,753,0
3849009,410.88,582,755,0
3849019,433.33,582,753,0
3849029,460.53,582,754,0
3849039,491.36,582,753,0
3849058,524.08,565,752,0
3849061,555.68,565,754,0
3849070,584.92,565,754,0
3849080,609.84,565,753,0
3849090,628.75,565,754,0
3849100,640.61,565,753,0
3849110,644.58,565,754,0
3849120,641.19,565,753,0
3849131,631.45,565,754,0
3849140,615.89,565,753,0
3849150,595.35,565,754,0
3849160,571.63,565,753,0
3849170,545.30,565,754,0
3849180,518.42,565,753,0
3849190,491.17,565,754,0
3849200,465.10,565,753,0
3849210,440.17,565,754,0
3849220,417.62,565,753,0
3849230,397.29,565,754,0
3849240,380.36,565,753,0
3849250,366.20,565,754,0
3849260,355.77,565,753,0
3849270,348.51,565,754,0
3849280,344.97,565,753,0
3849290,344.04,565,754,0
3849300,346.04,565,753,0
3849310,349.97,565,754,0
3849320,355.94,565,753,0
3849330,362.73,565,754,0
3849340,370.57,565,753,0
3849350,378.11,565,754,0
3849360,385.66,565,753,0
3849370,391.94,565,754,0
3849380,397.27,565,753,0
3849390,400.92,565,754,0
3849400,403.34,565,753,0
3849410,403.80,565,754,0
3849420,403.17,565,753,0
3849431,400.85,565,754,0
3849441,397.98,565,753,0
3849451,394.04,565,754,0
3849461,390.13,565,754,0
3849472,385.55,565,754,0
3849481,381.53,565,753,0
3849491,377.30,565,754,0
3849501,374.08,565,754,0
3849511,370.76,565,754,0
3849521,368.30,565,753,0
3849531,365.51,565,754,0
3849541,363.77,565,753,0
3849551,361.95,565,754,0
3849561,361.54,565,753,0
3849571,361.76,565,754,0
3849581,364.66,565,754,0
3849591,369.95,565,754,0
3849601,379.69,565,753,0
3849611,393.63,565,754,0
3849621,413.45,565,754,0
3849631,437.87,565,754,0
3849641,467.44,565,754,0
3849651,499.49,565,754,0
3849661,533.29,565,754,0
3849680,565.60,622,752,0
3849683,594.91,622,755,0
3849692,618.64,622,753,0
3849702,636.27,622,754,0
3849712,645.45,622,753,0
3849722,647.37,622,754,0
3849732,641.13,622,753,0
3849742,628.66,622,754,0
3849752,610.04,622,753,0
3849762,587.48,622,754,0
3849772,561.15,622,753,0
3849782,533.85,622,754,0
3849792,505.09,622,753,0
3849802,477.47,622,754,0
3849812,450.45,622,753,0
3849822,426.53,622,754,0
3849832,403.96,622,753,0
3849842,384.77,622,754,0
3849852,367.95,622,753,0
3849862,355.32,622,754,0
3849872,345.37,622,753,0
3849882,339.52,622,754,0
3849892,335.72,622,753,0
3849902,335.76,622,754,0
3849912,337.63,622,753,0
3849922,342.41,622,754,0
3849932,347.90,622,752,0
3849943,355.00,622,754,0
3849953,361.52,622,753,0
3849963,368.65,622,754,0
3849973,374.32,622,753,0
3849984,379.97,622,754,0
3849993,383.62,622,753,0
3850003,386.82,622,754,0
3850013,387.90,622,753,0
3850023,388.83,622,754,0
3850033,388.15,622,753,0
3850043,387.46,622,754,0
3850053,385.14,622,752,0
3850063,383.17,622,754,0
3850073,380.12,622,753,0
3850083,377.98,622,754,0
3850093,375.12,622,753,0
3850103,373.07,622,754,0
3850113,370.48,622,753,0
3850123,369.05,622,754,0
3850133,367.06,622,753,0
3850143,366.23,622,754,0
3850153,364.75,622,753,0
3850163,364.48,622,754,0
3850173,363.69,622,753,0
3850183,364.17,622,754,0
3850193,364.12,622,753,0
3850203,365.45,622,754,0
3850213,366.95,622,753,0
3850223,370.78,622,754,0
3850233,375.99,622,753,0
3850243,385.25,622,754,0
3850253,397.86,622,753,0
3850263,416.42,622,754,0
3850273,439.26,622,753,0
3850284,467.38,622,755,0
3850303,498.00,623,753,0
3850306,529.93,623,756,0
3850315,560.63,623,753,0
3850326,588.99,623,755,0
3850335,611.62,623,752,0
3850345,628.32,623,755,0
3850355,636.67,623,753,0
3850365,637.84,623,755,0
3850375,631.72,623,752,0
3850385,619.41,623,755,0
3850395,600.82,623,752,0
3850405,578.50,623,755,0
3850415,552.72,623,752,0
3850425,526.19,623,755,0
3850435,498.71,623,753,0
3850445,472.61,623,755,0
3850455,447.27,623,752,0
3850465,424.95,623,755,0
3850475,404.56,623,753,0
3850485,387.64,623,755,0
3850496,373.13,623,752,0
3850505,362.63,623,755,0
3850515,354.94,623,753,0
3850525,351.32,623,755,0
3850535,350.07,623,752,0
3850545,352.10,623,755,0
3850555,355.76,623,753,0
3850565,361.57,623,754,0
3850575,367.62,623,752,0
3850585,374.37,623,755,0
3850595,380.18,623,753,0
3850605,385.91,623,755,0
3850615,390.01,623,753,0
3850625,393.73,623,755,0
3850635,395.36,623,752,0
3850645,396.28,623,755,0
3850655,395.47,623,752,0
3850665,394.21,623,754,0
3850675,391.53,623,753,0
3850685,388.80,623,755,0
3850695,384.58,623,753,0
3850705,380.72,623,754,0
3850715,376.26,623,753,0
3850725,372.62,623,755,0
3850735,368.75,623,752,0
3850745,365.95,623,755,0
3850755,363.10,623,753,0
3850765,361.65,623,755,0
3850775,360.21,623,752,0
3850785,359.94,623,754,0
3850796,359.61,623,753,0
3850806,360.33,623,755,0
3850816,361.00,623,752,0
3850826,363.19,623,755,0
3850836,366.60,623,752,0
3850846,373.45,623,755,0
3850856,383.30,623,752,0
3850866,397.82,623,754,0
3850876,417.08,623,753,0
3850886,441.87,623,755,0
3850896,470.54,623,753,0
3850915,502.43,612,751,0
3850918,534.70,612,754,0
3850927,566.59,612,755,0
3850937,594.87,612,753,0
3850947,618.01,612,754,0
3850957,634.12,612,753,0
3850967,643.08,612,755,0
3850977,644.00,612,753,0
3850987,637.87,612,754,0
3850997,624.41,612,752,0
3851008,605.30,612,754,0
3851017,581.85,612,753,0
3851027,555.88,612,754,0
3851037,528.19,612,753,0
3851047,500.19,612,755,0
3851057,472.53,612,753,0
3851067,446.62,612,754,0
3851077,422.99,612,752,0
3851087,401.99,612,755,0
3851097,383.69,612,753,0
3851107,368.83,612,754,0
3851117,357.48,612,753,0
3851127,349.79,612,755,0
3851137,345.23,612,753,0
3851147,343.87,612,754,0
3851157,345.11,612,753,0
3851167,348.51,612,755,0
3851177,353.50,612,753,0
3851187,359.61,612,754,0
3851197,366.28,612,753,0
3851207,373.27,612,755,0
3851217,379.83,612,753,0
3851227,385.84,612,754,0
3851237,390.64,612,753,0
3851247,394.05,612,755,0
3851257,395.92,612,753,0
3851267,396.63,612,754,0
3851277,396.10,612,753,0
3851287,394.57,612,755,0
3851297,392.04,612,753,0
3851308,389.03,612,754,0
3851318,385.72,612,753,0
3851328,382.16,612,754,0
3851338,378.38,612,753,0
3851348,374.41,612,754,0
3851358,370.95,612,753,0
3851368,368.00,612,754,0
3851378,366.37,612,753,0
3851388,366.31,612,754,0
3851398,368.87,612,753,0
3851408,374.35,612,754,0
3851418,383.42,612,753,0
3851428,395.42,612,754,0
3851438,410.47,612,753,0
3851448,427.60,612,754,0
3851458,445.98,612,753,0
3851468,463.81,612,754,0
3851479,479.98,612,753,0
3851489,492.46,612,754,0
3851499,500.72,612,753,0
3851509,503.42,612,754,0
3851520,500.89,612,753,0
3851529,493.04,612,754,0
3851539,480.94,612,753,0
3851549,464.67,612,754,0
3851559,446.51,612,753,0
3851569,426.99,612,754,0
3851579,408.22,612,753,0
3851589,390.03,612,754,0
3851599,374.08,612,753,0
3851609,360.04,612,754,0
3851619,349.48,612,753,0
3851629,341.54,612,754,0
3851639,337.18,612,753,0
3851649,335.20,612,754,0
3851659,336.29,612,753,0
3851669,338.86,612,754,0
3851679,343.70,612,753,0
3851689,349.15,612,754,0
3851699,355.66,612,753,0
3851709,361.72,612,754,0
3851719,368.02,612,753,0
3851729,373.20,612,754,0
3851739,378.20,612,753,0
3851749,381.65,612,754,0
3851759,384.67,612,753,0
3851769,386.10,612,754,0
3851779,386.93,612,753,0
3851789,386.35,612,754,0
3851799,385.56,612,753,0
3851809,383.50,612,754,0
3851820,381.51,612,754,0
3851830,378.44,612,754,0
3851840,375.87,612,753,0
3851850,372.61,612,754,0
3851860,369.98,612,754,0
3851870,366.82,612,754,0
3851880,364.43,612,753,0
3851890,361.51,612,753,0
3851900,359.52,612,754,0
3851910,357.00,612,754,0
3851920,355.46,612,753,0
3851930,353.48,612,753,0
3851940,352.56,612,754,0
3851950,351.32,612,754,0
3851960,351.27,612,753,0
3851970,350.89,612,753,0
3851980,351.74,612,754,0
3851991,352.20,612,753,0
3852001,353.60,612,754,0
3852011,354.28,612,753,0
3852021,355.74,612,754,0
3852032,356.24,612,753,0
3852041,357.63,612,754,0
3852051,358.60,612,753,0
3852061,361.93,612,754,0
3852071,367.05,612,753,0
3852081,376.81,612,753,0
3852091,390.92,612,753,0
3852101,412.12,612,754,0
3852111,439.08,612,753,0
3852121,472.87,612,754,0
3852140,510.54,0,753,0
3852143,550.71,0,757,0
3852152,589.92,0,753,0
3852162,626.67,0,754,0
3852172,657.76,0,753,0
3852182,682.69,0,754,0
3852192,698.51,0,753,0
3852203,705.81,0,754,0
3852212,704.24,0,753,0
3852222,695.38,0,754,0
3852232,678.77,0,753,0
3852242,656.51,0,754,0
3852252,628.54,0,753,0
3852262,598.47,0,754,0
3852272,566.01,0,753,0
3852282,534.21,0,754,0
3852292,502.60,0,753,0
3852302,474.14,0,754,0
3852312,447.65,0,753,0
3852322,425.60,0,754,0
3852332,406.48,0,753,0
3852342,392.45,0,754,0
3852352,381.60,0,753,0
3852362,375.51,0,755,0
3852372,372.01,0,753,0
3852382,372.56,0,754,0
3852392,374.75,0,753,0
3852402,379.71,0,755,0
3852412,385.07,0,753,0
3852422,392.08,0,754,0
3852432,398.40,0,753,0
3852442,405.44,0,754,0
3852452,411.00,0,753,0
3852462,416.57,0,754,0
3852472,420.00,0,753,0
3852482,422.87,0,754,0
3852492,423.25,0,752,0
3852503,422.92,0,754,0
3852513,420.16,0,753,0
3852523,417.07,0,754,0
3852533,412.12,0,752,0
3852544,407.24,0,754,0
3852553,401.13,0,753,0
3852563,395.90,0,754,0
3852573,390.23,0,752,0
3852583,385.96,0,754,0
3852593,381.56,0,753,0
3852603,378.65,0,754,0
3852613,376.14,0,752,0
3852623,375.80,0,754,0
3852633,376.37,0,753,0
3852643,380.29,0,754,0
3852653,386.72,0,752,0
3852663,397.90,0,754,0
3852673,412.76,0,753,0
3852683,433.06,0,755,0
3852693,457.13,0,752,0
3852703,485.85,0,755,0
3852713,515.94,0,753,0
3852723,547.03,0,754,0
3852742,575.43,602,753,0
3852745,600.50,602,755,0
3852754,619.89,602,753,0
3852764,633.68,602,754,0
3852774,639.56,602,752,0
3852784,638.79,602,754,0
3852794,630.59,602,753,0
3852804,617.42,602,755,0
3852814,599.34,602,752,0
3852824,577.94,602,754,0
3852834,553.40,602,753,0
3852844,528.29,602,755,0
3852854,502.53,602,753,0
3852864,478.07,602,754,0
3852874,454.35,602,753,0
3852884,433.50,602,755,0
3852894,414.67,602,753,0
3852904,399.30,602,754,0
3852914,386.35,602,753,0
3852924,377.20,602,755,0
3852934,370.80,602,753,0
3852944,368.24,602,754,0
3852954,367.96,602,753,0
3852964,370.67,602,755,0
3852974,374.88,602,753,0
3852984,381.30,602,754,0
3852994,388.28,602,753,0
3853004,396.26,602,755,0
3853015,403.59,602,752,0
3853025,410.66,602,754,0
3853035,416.42,602,753,0
3853045,421.26,602,754,0
3853056,424.10,602,752,0
3853065,425.57,602,754,0
3853075,425.14,602,753,0
3853085,423.68,602,754,0
3853095,420.95,602,753,0
3853105,417.88,602,755,0
3853115,414.19,602,753,0
3853125,410.70,602,754,0
3853135,407.23,602,753,0
3853145,404.68,602,755,0
3853155,402.85,602,753,0
3853165,403.06,602,755,0
3853175,405.44,602,753,0
3853185,411.44,602,754,0
3853195,421.47,602,753,0
3853205,436.80,602,755,0
3853215,457.09,602,753,0
3853225,482.39,602,754,0
3853235,510.77,602,753,0
3853245,541.35,602,755,0
3853255,571.72,602,753,0
3853275,600.13,532,752,0
3853278,623.45,532,754,0
3853287,640.59,532,754,0
3853297,650.52,532,754,0
3853307,653.02,532,754,0
3853317,648.22,532,753,0
3853327,636.75,532,754,0
3853337,619.60,532,754,0
3853347,598.25,532,754,0
3853357,574.30,532,753,0
3853367,548.71,532,754,0
3853377,523.00,532,754,0
3853387,497.37,532,754,0
3853398,473.09,532,754,0
3853407,450.35,532,754,0
3853417,430.40,532,754,0
3853427,412.67,532,754,0
3853437,397.94,532,754,0
3853447,385.96,532,755,0
3853457,377.40,532,754,0
3853467,371.54,532,754,0
3853477,368.97,532,754,0
3853487,368.73,532,755,0
3853497,371.08,532,754,0
3853507,375.00,532,754,0
3853517,380.66,532,754,0
3853527,386.93,532,754,0
3853537,393.85,532,754,0
3853547,400.20,532,754,0
3853557,406.39,532,754,0
3853568,411.33,532,754,0
3853577,415.35,532,754,0
3853587,417.73,532,754,0
3853597,419.05,532,754,0
3853607,418.82,532,754,0
3853617,417.76,532,754,0
3853627,415.30,532,754,0
3853637,412.56,532,754,0
3853647,408.83,532,754,0
3853657,404.98,532,754,0
3853667,400.49,532,754,0
3853677,396.48,532,754,0
3853687,392.61,532,754,0
3853697,390.33,532,754,0
3853707,389.76,532,754,0
3853717,392.66,532,754,0
3853727,399.15,532,754,0
3853737,410.93,532,754,0
3853747,427.62,532,754,0
3853757,449.89,532,754,0
3853767,476.28,532,754,0
3853777,506.03,532,754,0
3853787,536.62,532,755,0
3853806,566.60,532,753,0
3853809,592.22,532,755,0
3853818,613.33,532,754,0
3853828,627.67,532,754,0
3853838,635.14,532,754,0
3853848,634.41,532,754,0
3853858,626.96,532,754,0
3853868,612.74,532,754,0
3853878,594.56,532,754,0
3853888,571.72,532,754,0
3853898,546.95,532,754,0
3853908,520.14,532,754,0
3853918,493.82,532,754,0
3853928,467.65,532,754,0
3853938,443.67,532,754,0
3853948,421.35,532,754,0
3853958,402.60,532,754,0
3853968,386.31,532,754,0
3853978,374.22,532,754,0
3853988,365.11,532,754,0
3853998,360.15,532,754,0
3854008,357.87,532,754,0
3854018,359.33,532,754,0
3854028,362.61,532,754,0
3854039,368.52,532,754,0
3854049,374.96,532,754,0
3854059,382.86,532,754,0
3854069,390.19,532,754,0
3854080,397.80,532,754,0
3854089,403.69,532,754,0
3854099,408.97,532,754,0
3854109,411.89,532,754,0
3854119,414.20,532,755,0
3854129,414.09,532,754,0
3854139,413.38,532,754,0
3854149,410.69,532,753,0
3854159,408.13,532,754,0
3854169,404.36,532,754,0
3854179,401.17,532,754,0
3854189,396.96,532,753,0
3854199,393.72,532,754,0
3854209,390.07,532,754,0
3854219,387.82,532,754,0
3854229,385.82,532,754,0
3854239,386.34,532,754,0
3854249,388.68,532,753,0
3854259,395.25,532,754,0
3854269,405.29,532,754,0
3854279,421.15,532,754,0
3854289,441.16,532,753,0
3854299,466.18,532,754,0
3854309,493.43,532,754,0
3854319,522.74,532,754,0
3854329,550.38,532,753,0
3854339,575.94,532,754,0
3854358,595.63,552,753,0
3854361,608.72,552,755,0
3854370,613.61,552,753,0
3854380,612.10,552,754,0
3854390,602.85,552,753,0
3854400,588.63,552,754,0
3854410,568.81,552,753,0
3854420,546.54,552,755,0
3854430,522.46,552,753,0
3854440,498.62,552,754,0
3854450,473.79,552,753,0
3854460,450.76,552,755,0
3854470,428.50,552,753,0
3854480,409.28,552,754,0
3854490,391.58,552,753,0
3854500,377.65,552,755,0
3854510,365.93,552,753,0
3854520,358.45,552,754,0
3854530,353.26,552,753,0
3854540,352.11,552,754,0
3854551,352.80,552,753,0
3854561,356.93,552,754,0
3854571,362.01,552,753,0
3854581,369.29,552,755,0
3854592,376.32,552,753,0
3854601,384.37,552,754,0
3854611,390.99,552,753,0
3854621,397.55,552,755,0
3854631,401.84,552,753,0
3854641,405.45,552,754,0
3854651,406.60,552,753,0
3854661,407.10,552,755,0
3854671,405.49,552,753,0
3854681,403.54,552,754,0
3854691,399.82,552,753,0
3854701,396.32,552,755,0
3854711,391.59,552,753,0
3854721,387.64,552,754,0
3854731,382.91,552,753,0
3854741,379.51,552,755,0
3854751,376.18,552,753,0
3854761,375.36,552,755,0
3854771,375.98,552,753,0
3854781,380.70,552,755,0
3854791,388.55,552,753,0
3854801,402.01,552,754,0
3854811,419.28,552,753,0
3854821,441.78,552,755,0
3854831,466.88,552,753,0
3854841,494.77,552,755,0
3854851,521.88,552,753,0
3854861,547.97,552,755,0
3854871,569.32,552,753,0
3854891,586.07,532,752,0
3854894,594.83,532,753,0
3854903,596.77,532,755,0
3854913,590.71,532,753,0
3854923,578.54,532,754,0
3854934,560.08,532,753,0
3854943,537.90,532,755,0
3854953,512.21,532,753,0
3854963,486.05,532,755,0
3854973,459.21,532,753,0
3854983,433.52,532,755,0
3854993,408.80,532,753,0
3855003,386.49,532,755,0
3855013,366.29,532,753,0
3855023,349.44,532,755,0
3855033,335.42,532,753,0
3855043,325.27,532,755,0
3855053,318.29,532,752,0
3855063,315.29,532,755,0
3855073,314.90,532,753,0
3855083,317.50,532,755,0
3855093,321.89,532,752,0
3855104,328.35,532,754,0
3855113,335.58,532,753,0
3855123,343.85,532,755,0
3855133,351.82,532,752,0
3855143,359.85,532,754,0
3855153,366.84,532,753,0
3855163,373.06,532,755,0
3855173,377.67,532,752,0
3855183,381.28,532,754,0
3855193,383.13,532,753,0
3855203,384.07,532,755,0
3855213,383.58,532,752,0
3855223,382.55,532,755,0
3855233,380.37,532,753,0
3855243,378.03,532,755,0
3855253,374.94,532,752,0
3855263,371.83,532,754,0
3855273,368.11,532,753,0
3855283,364.60,532,754,0
3855293,360.82,532,752,0
3855303,357.79,532,754,0
3855313,355.20,532,753,0
3855323,354.28,532,755,0
3855333,355.05,532,752,0
3855343,359.11,532,754,0
3855353,366.70,532,753,0
3855363,379.05,532,755,0
3855373,395.84,532,752,0
3855383,417.91,532,755,0
3855393,443.87,532,753,0
3855404,473.31,532,755,0
3855414,503.69,532,753,0
3855424,533.57,532,755,0
3855434,560.48,532,753,0
3855454,582.84,563,752,0
3855457,597.89,563,755,0
3855466,605.76,563,754,0
3855476,606.22,563,753,0
3855486,599.43,563,754,0
3855496,586.53,563,753,0
3855506,568.37,563,754,0
3855516,546.83,563,754,0
3855526,523.22,563,754,0
3855536,498.73,563,753,0
3855546,473.35,563,754,0
3855556,449.03,563,754,0
3855566,425.19,563,754,0
3855576,403.41,563,753,0
3855586,383.06,563,754,0
3855596,365.60,563,753,0
3855606,350.16,563,754,0
3855617,338.24,563,753,0
3855627,328.87,563,753,0
3855637,323.55,563,754,0
3855647,320.64,563,753,0
3855657,321.35,563,754,0
3855667,323.90,563,753,0
3855677,329.20,563,754,0
3855687,335.23,563,754,0
3855697,342.75,563,754,0
3855707,349.59,563,753,0
3855717,356.70,563,754,0
3855727,362.10,563,753,0
3855737,367.09,563,754,0
3855747,370.02,563,753,0
3855757,372.33,563,754,0
3855767,372.53,563,753,0
3855777,372.28,563,754,0
3855788,370.57,563,753,0
3855798,368.99,563,754,0
3855808,366.20,563,753,0
3855818,363.96,563,754,0
3855828,360.80,563,753,0
3855838,358.59,563,754,0
3855848,355.75,563,753,0
3855858,354.07,563,754,0
3855868,352.04,563,753,0
3855878,351.42,563,754,0
3855888,350.48,563,753,0
3855898,351.07,563,754,0
3855908,351.22,563,753,0
3855918,352.74,563,754,0
3855928,353.63,563,753,0
3855938,355.41,563,754,0
3855948,356.36,563,753,0
3855959,358.35,563,754,0
3855969,359.83,563,753,0
3855979,363.14,563,754,0
3855989,367.21,563,752,0
3856000,374.73,563,754,0
3856009,384.89,563,753,0
3856019,400.13,563,754,0
3856029,419.34,563,753,0
3856039,444.18,563,754,0
3856058,472.07,605,753,0
3856061,502.82,605,755,0
3856070,533.94,605,753,0
3856080,564.86,605,755,0
3856090,591.86,605,753,0
3856100,614.57,605,754,0
3856110,629.70,605,753,0
3856120,638.23,605,754,0
3856130,638.94,605,753,0
3856140,632.74,605,754,0
3856150,618.76,605,752,0
3856160,599.68,605,754,0
3856171,575.26,605,753,0
3856180,548.87,605,754,0
3856190,519.98,605,752,0
3856200,491.27,605,754,0
3856210,462.26,605,753,0
3856220,435.78,605,754,0
3856230,410.90,605,752,0
3856240,389.68,605,754,0
3856250,371.26,605,753,0
3856260,357.08,605,754,0
3856270,345.74,605,752,0
3856280,338.83,605,754,0
3856290,334.64,605,753,0
3856300,334.49,605,754,0
3856310,336.27,605,752,0
3856320,340.61,605,754,0
3856330,346.04,605,753,0
3856340,353.70,605,754,0
3856350,361.33,605,752,0
3856360,370.02,605,754,0
3856370,377.60,605,753,0
3856380,385.30,605,755,0
3856390,391.34,605,753,0
3856400,396.85,605,754,0
3856410,400.11,605,753,0
3856420,402.44,605,754,0
3856430,402.35,605,752,0
3856440,401.64,605,754,0
3856450,398.92,605,753,0
3856460,395.90,605,754,0
3856471,391.43,605,752,0
3856481,387.06,605,754,0
3856491,382.03,605,753,0
3856501,377.69,605,754,0
3856512,372.90,605,752,0
3856521,369.24,605,754,0
3856531,365.10,605,753,0
3856541,361.98,605,754,0
3856551,358.82,605,752,0
3856561,356.60,605,754,0
3856571,354.28,605,753,0
3856581,353.04,605,754,0
3856591,351.83,605,752,0
3856601,352.05,605,754,0
3856611,352.55,605,753,0
3856621,354.44,605,754,0
3856631,356.92,605,752,0
3856641,361.49,605,754,0
3856651,367.51,605,753,0
3856661,376.75,605,754,0
3856671,388.86,605,752,0
3856681,405.71,605,754,0
3856691,426.49,605,753,0
3856701,452.40,605,755,0
3856711,481.64,605,753,0
3856731,514.19,672,751,0
3856734,547.13,672,754,0
3856743,579.49,672,754,0
3856753,608.49,672,753,0
3856763,633.07,672,754,0
3856773,651.05,672,753,0
3856783,662.18,672,754,0
3856793,665.25,672,753,0
3856803,661.15,672,754,0
3856813,650.05,672,752,0
3856823,633.15,672,754,0
3856833,611.37,672,752,0
3856843,586.19,672,754,0
3856854,558.96,672,753,0
3856863,530.99,672,754,0
3856873,503.22,672,753,0
3856883,476.45,672,754,0
3856893,451.50,672,753,0
3856903,429.02,672,754,0
3856913,409.30,672,753,0
3856923,392.63,672,754,0
3856933,379.32,672,753,0
3856943,369.58,672,754,0
3856953,363.45,672,753,0
3856963,360.57,672,753,0
3856973,360.79,672,753,0
3856983,363.64,672,754,0
3856993,368.55,672,753,0
3857003,374.90,672,754,0
3857013,382.13,672,753,0
3857024,389.55,672,754,0
3857033,396.71,672,753,0
3857043,403.05,672,753,0
3857053,408.40,672,753,0
3857063,412.31,672,754,0
3857073,414.91,672,753,0
3857083,416.01,672,754,0
3857093,415.92,672,753,0
3857103,414.49,672,754,0
3857113,412.11,672,752,0
3857123,408.82,672,754,0
3857133,405.10,672,753,0
3857143,400.87,672,754,0
3857153,396.63,672,752,0
3857163,392.45,672,754,0
3857173,388.72,672,753,0
3857183,385.24,672,754,0
3857193,382.39,672,753,0
3857203,380.08,672,754,0
3857213,378.34,672,753,0
3857223,376.87,672,754,0
3857233,375.62,672,753,0
3857243,374.45,672,754,0
3857253,373.50,672,753,0
3857263,372.24,672,754,0
3857273,370.97,672,753,0
3857283,369.52,672,754,0
3857293,368.29,672,752,0
3857303,367.13,672,754,0
3857313,366.41,672,753,0
3857324,365.94,672,753,0
3857334,366.60,672,753,0
3857344,368.09,672,754,0
3857354,371.62,672,753,0
3857364,377.18,672,753,0
3857374,386.00,672,753,0
3857384,398.38,672,754,0
3857394,415.58,672,753,0
3857404,437.22,672,753,0
3857414,463.60,672,753,0
3857424,493.25,672,754,0
3857434,525.57,672,753,0
3857454,558.10,723,752,0
3857457,588.97,723,755,0
3857466,615.89,723,753,0
3857476,638.08,723,754,0
3857486,653.14,723,753,0
3857496,661.33,723,753,0
3857506,661.57,723,753,0
3857516,655.36,723,754,0
3857526,642.74,723,753,0
3857537,625.37,723,754,0
3857547,602.98,723,752,0
3857557,578.64,723,754,0
3857567,551.92,723,753,0
3857577,525.37,723,754,0
3857587,498.47,723,753,0
3857597,473.60,723,754,0
3857607,449.81,723,752,0
3857617,429.29,723,754,0
3857627,410.65,723,753,0
3857637,395.88,723,754,0
3857647,383.36,723,752,0
3857657,374.72,723,754,0
3857667,368.16,723,752,0
3857677,365.11,723,754,0
3857687,363.67,723,752,0
3857697,365.18,723,754,0
3857708,367.57,723,753,0
3857718,372.03,723,754,0
3857728,376.30,723,752,0
3857738,381.70,723,754,0
3857748,386.20,723,752,0
3857758,391.07,723,754,0
3857768,394.39,723,752,0
3857778,397.45,723,754,0
3857788,398.68,723,752,0
3857798,399.64,723,754,0
3857808,398.76,723,752,0
3857818,397.76,723,754,0
3857828,395.05,723,752,0
3857838,392.46,723,754,0
3857848,388.51,723,752,0
3857858,385.06,723,754,0
3857868,380.75,723,752,0
3857879,377.44,723,754,0
3857889,373.62,723,752,0
3857899,371.08,723,754,0
3857909,368.18,723,752,0
3857920,366.63,723,754,0
3857929,364.81,723,752,0
3857939,364.31,723,754,0
3857949,363.66,723,752,0
3857959,364.28,723,754,0
3857969,364.62,723,752,0
3857979,366.02,723,754,0
3857989,367.04,723,752,0
3857999,368.87,723,754,0
3858009,370.11,723,752,0
3858019,371.96,723,754,0
3858029,373.30,723,752,0
3858039,375.91,723,754,0
3858049,378.98,723,752,0
3858059,384.90,723,754,0
3858069,393.12,723,752,0
3858079,405.90,723,754,0
3858089,422.60,723,752,0
3858099,444.58,723,754,0
3858109,470.12,723,752,0
3858119,499.70,723,754,0
3858139,530.17,685,753,0
3858142,560.42,685,754,0
3858151,587.89,685,752,0
3858161,611.41,685,754,0
3858171,628.56,685,752,0
3858181,639.32,685,754,0
3858191,642.22,685,752,0
3858201,638.21,685,754,0
3858211,627.65,685,752,0
3858221,611.51,685,754,0
3858231,590.49,685,752,0
3858241,566.43,685,754,0
3858251,540.03,685,752,0
3858262,512.76,685,754,0
3858271,485.40,685,752,0
3858281,459.23,685,754,0
3858291,434.56,685,752,0
3858301,412.45,685,754,0
3858311,393.03,685,752,0
3858321,376.95,685,754,0
3858331,364.11,685,752,0
3858341,354.73,685,754,0
3858351,348.43,685,752,0
3858361,345.30,685,754,0
3858371,344.78,685,752,0
3858381,346.56,685,754,0
3858391,349.69,685,752,0
3858401,354.16,685,755,0
3858411,359.25,685,752,0
3858421,364.79,685,754,0
3858432,370.12,685,752,0
3858441,375.14,685,755,0
3858451,379.39,685,752,0
3858461,383.04,685,754,0
3858471,385.69,685,752,0
3858481,387.45,685,754,0
3858491,388.09,685,752,0
3858501,387.72,685,754,0
3858511,386.30,685,752,0
3858521,384.33,685,754,0
3858531,381.57,685,752,0
3858541,378.53,685,754,0
3858551,375.16,685,752,0
3858561,371.94,685,754,0
3858571,368.78,685,752,0
3858581,365.94,685,754,0
3858591,363.34,685,752,0
3858601,361.18,685,754,0
3858611,359.16,685,752,0
3858621,357.52,685,754,0
3858631,356.08,685,752,0
3858641,355.03,685,754,0
3858651,354.33,685,752,0
3858661,354.28,685,754,0
3858671,355.44,685,752,0
3858681,358.61,685,754,0
3858691,364.21,685,752,0
3858701,373.53,685,754,0
3858711,387.04,685,752,0
3858721,405.67,685,754,0
3858732,429.17,685,753,0
3858742,456.81,685,754,0
3858761,487.29,623,753,0
3858764,518.49,623,755,0
3858774,549.29,623,753,0
3858783,577.19,623,754,0
3858793,600.14,623,753,0
3858803,616.39,623,754,0
3858813,625.49,623,753,0
3858823,627.10,623,754,0
3858833,622.44,623,753,0
3858843,610.48,623,754,0
3858853,593.45,623,753,0
3858863,572.01,623,753,0
3858873,548.48,623,753,0
3858883,523.14,623,753,0
3858893,497.68,623,753,0
3858903,472.28,623,754,0
3858913,448.41,623,753,0
3858923,425.83,623,754,0
3858933,405.74,623,753,0
3858944,387.34,623,753,0
3858953,372.03,623,753,0
3858963,359.03,623,753,0
3858973,349.34,623,753,0
3858983,342.12,623,753,0
3858993,338.10,623,752,0
3859003,336.31,623,754,0
3859013,337.55,623,753,0
3859023,340.38,623,754,0
3859033,345.15,623,752,0
3859043,350.38,623,753,0
3859053,356.78,623,753,0
3859063,362.55,623,753,0
3859073,368.30,623,752,0
3859083,372.71,623,753,0
3859093,376.65,623,753,0
3859103,379.07,623,754,0
3859113,380.98,623,753,0
3859123,381.33,623,754,0
3859133,381.36,623,753,0
3859143,380.09,623,753,0
3859153,378.69,623,753,0
3859163,376.17,623,753,0
3859173,373.81,623,753,0
3859183,370.82,623,753,0
3859193,368.39,623,753,0
3859203,365.92,623,753,0
3859213,364.27,623,753,0
3859223,362.35,623,753,0
3859233,361.34,623,753,0
3859244,360.00,623,753,0
3859254,359.53,623,753,0
3859264,358.51,623,753,0
3859274,358.14,623,753,0
3859284,357.37,623,753,0
3859294,357.77,623,753,0
3859304,358.14,623,753,0
3859314,360.24,623,753,0
3859324,363.26,623,753,0
3859334,369.44,623,753,0
3859344,378.05,623,753,0
3859354,391.23,623,753,0
3859364,408.13,623,753,0
3859374,430.25,623,753,0
3859384,456.02,623,753,0
3859403,485.76,642,752,0
3859406,516.17,642,753,0
3859415,547.49,642,754,0
3859425,576.49,642,753,0
3859435,602.61,642,754,0
3859445,622.74,642,752,0
3859456,637.01,642,754,0
3859465,643.52,642,753,0
3859475,644.09,642,754,0
3859485,636.95,642,752,0
3859495,624.36,642,754,0
3859505,605.66,642,753,0
3859515,583.86,642,754,0
3859525,558.53,642,752,0
3859535,532.40,642,754,0
3859545,504.94,642,753,0
3859555,478.90,642,754,0
3859565,453.21,642,753,0
3859575,430.26,642,754,0
3859585,408.76,642,753,0
3859595,390.74,642,754,0
3859605,374.75,642,753,0
3859615,362.57,642,754,0
3859625,352.41,642,753,0
3859635,345.95,642,754,0
3859645,341.29,642,752,0
3859655,339.92,642,754,0
3859665,339.60,642,753,0
3859675,341.65,642,754,0
3859685,343.90,642,752,0
3859695,347.70,642,754,0
3859705,351.00,642,753,0
3859715,355.20,642,754,0
3859725,358.31,642,752,0
3859735,362.03,642,754,0
3859745,364.64,642,752,0
3859756,367.92,642,754,0
3859766,370.00,642,752,0
3859776,372.74,642,754,0
3859786,374.49,642,752,0
3859796,376.92,642,754,0
3859806,378.57,642,752,0
3859816,380.76,642,756,0
3859826,381.77,642,755,0
3859836,383.25,642,754,0
3859846,383.44,642,752,0
3859856,384.12,642,754,0
3859866,383.53,642,752,0
3859876,383.24,642,754,0
3859886,381.92,642,752,0
3859896,381.30,642,754,0
3859906,379.93,642,753,0
3859916,379.39,642,754,0
3859927,377.86,642,752,0
3859937,377.30,642,754,0
3859947,376.23,642,752,0
3859957,376.24,642,752,0
3859968,375.66,642,752,0
3859977,376.23,642,754,0
3859987,376.63,642,753,0
3859997,378.93,642,754,0
3860007,382.12,642,754,0
3860017,388.26,642,755,0
3860027,396.62,642,753,0
3860037,409.68,642,754,0
3860047,426.49,642,752,0
3860057,448.54,642,755,0
3860076,473.75,673,753,0
3860079,501.98,673,755,0
3860088,531.22,673,752,0
3860098,560.72,673,754,0
3860108,587.16,673,753,0
3860118,609.91,673,754,0
3860128,626.44,673,753,0
3860139,637.19,673,755,0
3860148,641.12,673,753,0
3860158,638.64,673,754,0
3860168,629.32,673,752,0
3860178,615.12,673,754,0
3860188,595.93,673,752,0
3860198,574.05,673,754,0
3860208,549.44,673,752,0
3860218,524.19,673,754,0
3860228,498.16,673,752,0
3860238,473.30,673,754,0
3860248,449.17,673,752,0
3860258,427.47,673,754,0
3860268,407.62,673,753,0
3860278,391.02,673,754,0
3860288,376.74,673,753,0
3860298,365.89,673,754,0
3860308,357.61,673,752,0
3860318,352.71,673,754,0
3860328,349.97,673,752,0
3860338,350.06,673,754,0
3860348,351.67,673,752,0
3860358,355.29,673,754,0
3860368,359.61,673,754,0
3860378,365.26,673,756,0
3860388,370.92,673,754,0
3860398,377.20,673,755,0
3860408,382.67,673,754,0
3860418,388.00,673,754,0
3860428,392.28,673,752,0
3860439,396.27,673,754,0
3860449,398.89,673,752,0
3860459,400.81,673,754,0
3860469,401.55,673,752,0
3860480,401.81,673,754,0
3860489,401.27,673,752,0
3860499,400.50,673,754,0
3860509,399.02,673,752,0
3860519,397.30,673,754,0
3860529,395.24,673,752,0
3860539,393.37,673,754,0
3860549,391.24,673,752,0
3860559,389.24,673,754,0
3860569,387.07,673,752,0
3860579,385.25,673,754,0
3860589,383.46,673,752,0
3860599,382.04,673,754,0
3860609,380.53,673,752,0
3860619,379.90,673,754,0
3860629,379.67,673,752,0
3860639,380.24,673,754,0
3860649,381.15,673,752,0
3860659,382.82,673,754,0
3860669,384.76,673,753,0
3860679,386.93,673,754,0
3860689,388.71,673,753,0
3860699,390.21,673,754,0
3860709,391.09,673,752,0
3860719,391.66,673,754,0
3860729,392.19,673,752,0
3860739,393.59,673,754,0
3860749,396.50,673,752,0
3860759,402.22,673,754,0
3860769,411.54,673,752,0
3860780,425.61,673,754,0
3860790,444.71,673,752,0
3860809,468.50,733,751,0
3860812,495.78,733,754,0
3860822,525.33,733,753,0
3860831,555.40,733,753,0
3860841,583.74,733,753,0
3860851,608.37,733,753,0
3860861,627.29,733,753,0
3860871,639.97,733,753,0
3860881,645.51,733,754,0
3860891,644.11,733,753,0
3860901,635.25,733,753,0
3860911,620.73,733,753,0
3860921,601.06,733,754,0
3860931,578.37,733,753,0
3860941,552.93,733,753,0
3860951,526.98,733,753,0
3860961,500.97,733,754,0
3860971,476.72,733,753,0
3860981,453.71,733,753,0
3860992,433.31,733,753,0
3861001,414.79,733,753,0
3861011,399.17,733,753,0
3861021,385.66,733,753,0
3861031,375.30,733,753,0
3861041,367.37,733,754,0
3861051,362.76,733,753,0
3861061,360.35,733,753,0
3861071,361.14,733,753,0
3861081,363.89,733,753,0
3861091,368.98,733,753,0
3861101,374.86,733,753,0
3861111,381.93,733,753,0
3861121,389.06,733,754,0
3861131,396.59,733,753,0
3861141,403.01,733,753,0
3861151,409.01,733,753,0
3861161,413.33,733,753,0
3861171,416.92,733,753,0
3861181,418.62,733,753,0
3861191,419.29,733,753,0
3861201,418.34,733,753,0
3861211,416.83,733,753,0
3861221,414.14,733,753,0
3861231,411.48,733,753,0
3861241,408.04,733,754,0
3861251,404.81,733,753,0
3861261,401.01,733,753,0
3861271,397.75,733,753,0
3861281,394.23,733,753,0
3861292,391.59,733,753,0
3861302,388.71,733,753,0
3861312,386.74,733,753,0
3861322,384.68,733,753,0
3861332,383.79,733,753,0
3861342,382.69,733,753,0
3861352,382.53,733,753,0
3861362,381.77,733,753,0
3861372,381.84,733,753,0
3861382,381.20,733,753,0
3861392,381.23,733,753,0
3861402,380.56,733,753,0
3861412,380.82,733,753,0
3861422,381.09,733,753,0
3861432,383.25,733,753,0
3861442,386.82,733,753,0
3861452,394.11,733,753,0
3861463,404.62,733,753,0
3861473,420.38,733,754,0
3861483,440.15,733,753,0
3861493,464.92,733,754,0
3861504,492.42,733,753,0
3861522,522.33,713,751,0
3861525,551.08,713,753,0
3861534,578.61,713,754,0
3861544,601.23,713,752,0
3861554,619.03,713,754,0
3861564,629.35,713,753,0
3861574,633.27,713,754,0
3861584,629.38,713,752,0
3861594,620.39,713,754,0
3861604,604.97,713,752,0
3861614,586.04,713,754,0
3861624,563.06,713,752,0
3861634,539.13,713,754,0
3861644,513.67,713,753,0
3861654,489.34,713,754,0
3861664,464.94,713,752,0
3861675,443.02,713,754,0
3861684,422.31,713,753,0
3861694,404.82,713,754,0
3861704,389.14,713,753,0
3861714,377.01,713,753,0
3861724,367.02,713,752,0
3861734,360.89,713,754,0
3861744,356.76,713,753,0
3861754,356.15,713,754,0
3861764,357.00,713,752,0
3861774,360.52,713,754,0
3861784,364.73,713,752,0
3861794,370.69,713,754,0
3861804,376.31,713,752,0
3861814,382.77,713,754,0
3861824,388.16,713,752,0
3861834,393.85,713,754,0
3861844,397.92,713,752,0
3861854,401.98,713,754,0
3861864,404.08,713,752,0
3861874,405.86,713,754,0
3861884,405.73,713,752,0
3861894,405.38,713,754,0
3861904,403.42,713,753,0
3861914,401.45,713,754,0
3861924,398.06,713,752,0
3861934,395.21,713,754,0
3861944,391.34,713,752,0
3861954,388.23,713,754,0
3861964,384.35,713,752,0
3861975,381.37,713,754,0
3861985,378.05,713,752,0
3861995,375.76,713,754,0
3862005,372.92,713,752,0
3862016,371.36,713,754,0
3862025,369.54,713,752,0
3862035,369.03,713,754,0
3862045,368.17,713,752,0
3862055,368.33,713,754,0
3862065,368.10,713,752,0
3862075,369.23,713,754,0
3862085,370.45,713,752,0
3862095,373.61,713,754,0
3862105,377.97,713,752,0
3862115,385.69,713,754,0
3862125,396.16,713,752,0
3862135,411.54,713,754,0
3862145,430.66,713,752,0
3862155,454.89,713,755,0
3862174,481.84,652,753,0
3862177,511.16,652,756,0
3862187,540.43,652,752,0
3862196,568.54,652,754,0
3862206,592.12,652,752,0
3862216,610.51,652,754,0
3862226,621.07,652,752,0
3862236,624.91,652,754,0
3862246,621.08,652,752,0
3862256,610.81,652,754,0
3862266,594.11,652,752,0
3862276,573.72,652,754,0
3862286,550.06,652,752,0
3862296,525.53,652,754,0
3862306,499.96,652,752,0
3862316,475.58,652,755,0
3862326,451.67,652,752,0
3862336,430.08,652,754,0
3862346,410.00,652,752,0
3862356,392.86,652,754,0
3862366,377.81,652,751,0
3862376,366.13,652,754,0
3862386,356.70,652,752,0
3862396,350.96,652,754,0
3862406,347.89,652,752,0
3862416,348.09,652,754,0
3862426,350.17,652,752,0
3862436,354.74,652,754,0
3862446,360.18,652,752,0
3862456,367.20,652,754,0
3862466,374.21,652,752,0
3862476,381.65,652,754,0
3862487,388.31,652,751,0
3862497,394.73,652,755,0
3862507,399.65,652,752,0
3862517,403.79,652,754,0
3862528,406.04,652,752,0
3862537,407.35,652,754,0
3862547,407.08,652,752,0
3862557,405.94,652,754,0
3862567,403.64,652,752,0
3862577,401.09,652,754,0
3862587,397.94,652,752,0
3862597,394.96,652,754,0
3862607,391.75,652,752,0
3862617,389.00,652,754,0
3862627,386.26,652,752,0
3862637,384.08,652,754,0
3862647,381.96,652,752,0
3862657,380.51,652,755,0
3862667,379.07,652,752,0
3862677,378.07,652,754,0
3862687,376.59,652,752,0
3862697,375.13,652,754,0
3862707,373.16,652,752,0
3862717,371.48,652,754,0
3862727,369.67,652,752,0
3862737,368.48,652,754,0
3862747,368.12,652,752,0
3862757,370.19,652,754,0
3862767,375.14,652,752,0
3862777,384.14,652,754,0
3862787,397.13,652,752,0
3862797,415.22,652,754,0
3862807,437.95,652,752,0
3862817,465.01,652,754,0
3862837,494.54,663,753,0
3862840,524.55,663,755,0
3862849,553.74,663,753,0
3862859,579.79,663,755,0
3862870,600.77,663,753,0
3862879,615.32,663,754,0
3862889,622.51,663,753,0
3862899,622.10,663,753,0
3862909,615.04,663,753,0
3862919,601.19,663,754,0
3862929,582.44,663,753,0
3862939,559.64,663,755,0
3862949,534.81,663,754,0
3862959,508.72,663,756,0
3862969,482.96,663,757,0
3862979,457.90,663,754,0
3862989,434.83,663,753,0
3862999,413.80,663,754,0
3863009,395.69,663,753,0
3863019,380.01,663,753,0
3863029,367.75,663,753,0
3863040,358.10,663,753,0
3863049,351.90,663,753,0
3863059,348.37,663,753,0
3863069,348.17,663,752,0
3863079,350.22,663,753,0
3863089,354.91,663,753,0
3863099,361.07,663,753,0
3863109,369.06,663,753,0
3863119,377.44,663,753,0
3863129,386.18,663,752,0
3863139,394.01,663,753,0
3863149,401.38,663,753,0
3863159,407.09,663,753,0
3863169,411.52,663,752,0
3863179,413.85,663,753,0
3863189,415.05,663,752,0
3863199,414.39,663,753,0
3863209,412.73,663,753,0
3863219,409.47,663,753,0
3863229,405.73,663,753,0
3863239,400.92,663,753,0
3863249,396.45,663,753,0
3863259,391.17,663,753,0
3863269,386.23,663,754,0
3863279,381.11,663,753,0
3863289,376.87,663,753,0
3863299,372.97,663,753,0
3863309,370.11,663,752,0
3863319,367.25,663,753,0
3863329,365.63,663,752,0
3863340,364.46,663,754,0
3863350,364.49,663,753,0
3863360,364.56,663,753,0
3863370,365.72,663,753,0
3863380,367.60,663,754,0
3863390,371.79,663,754,0
3863400,378.03,663,755,0
3863410,388.26,663,755,0
3863420,401.98,663,754,0
3863430,420.93,663,753,0
3863440,443.79,663,753,0
3863450,471.16,663,753,0
3863460,500.42,663,753,0
3863479,531.11,642,752,0
3863482,559.11,642,753,0
3863491,584.92,642,753,0
3863501,605.04,642,752,0
3863511,619.47,642,753,0
3863521,625.80,642,753,0
3863531,625.52,642,753,0
3863541,617.52,642,752,0
3863552,604.81,642,753,0
3863561,586.09,642,753,0
3863571,564.47,642,753,0
3863581,539.77,642,752,0
3863591,514.94,642,754,0
3863601,489.59,642,755,0
3863611,465.92,642,753,0
3863621,443.02,642,756,0
3863631,422.96,642,754,0
3863641,404.63,642,756,0
3863651,389.78,642,758,0
3863661,377.03,642,757,0
3863671,367.77,642,755,0
3863681,360.76,642,754,0
3863691,357.58,642,754,0
3863701,356.29,642,756,0
3863711,358.17,642,757,0
3863721,361.12,642,751,0
3863731,366.27,642,754,0
3863741,371.80,642,753,0
3863751,378.68,642,754,0
3863761,384.86,642,753,0
3863771,391.42,642,753,0
3863781,396.35,642,753,0
3863791,401.17,642,753,0
3863801,404.04,642,752,0
3863811,406.42,642,753,0
3863821,406.77,642,752,0
3863831,406.92,642,753,0
3863841,405.40,642,752,0
3863852,404.13,642,754,0
3863862,401.39,642,752,0
3863872,399.21,642,754,0
3863882,395.94,642,752,0
3863892,393.38,642,754,0
3863902,389.80,642,752,0
3863912,386.94,642,754,0
3863922,383.15,642,752,0
3863932,380.36,642,754,0
3863942,376.87,642,752,0
3863952,374.46,642,753,0
3863962,371.50,642,752,0
3863972,369.59,642,754,0
3863982,367.23,642,752,0
3863992,366.22,642,753,0
3864002,365.17,642,752,0
3864012,366.23,642,754,0
3864023,368.48,642,752,0
3864033,374.25,642,753,0
3864043,382.92,642,752,0
3864053,396.87,642,754,0
3864064,415.12,642,752,0
3864073,439.09,642,753,0
3864083,466.45,642,752,0
3864102,497.51,623,751,0
3864105,528.77,623,753,0
3864114,560.04,623,754,0
3864124,587.59,623,752,0
3864134,610.90,623,754,0
3864144,627.08,623,752,0
3864154,636.79,623,753,0
3864164,638.14,623,752,0
3864174,633.08,623,754,0
3864184,620.67,623,752,0
3864194,603.50,623,753,0
3864204,581.41,623,752,0
3864214,557.11,623,754,0
3864224,530.55,623,752,0
3864235,504.20,623,754,0
3864244,478.00,623,752,0
3864254,453.95,623,754,0
3864264,431.25,623,752,0
3864274,411.34,623,754,0
3864284,393.41,623,752,0
3864294,378.97,623,754,0
3864304,366.98,623,752,0
3864314,358.50,623,754,0
3864324,352.31,623,752,0
3864334,349.73,623,754,0
3864344,349.60,623,752,0
3864354,352.76,623,754,0
3864364,357.50,623,752,0
3864374,364.51,623,754,0
3864384,372.07,623,752,0
3864394,380.62,623,754,0
3864404,388.41,623,752,0
3864414,396.08,623,754,0
3864424,402.02,623,752,0
3864434,407.03,623,754,0
3864444,409.98,623,752,0
3864454,411.95,623,754,0
3864464,411.88,623,752,0
3864474,410.80,623,754,0
3864484,408.03,623,752,0
3864494,405.11,623,754,0
3864504,401.18,623,752,0
3864514,397.48,623,754,0
3864524,393.22,623,752,0
3864535,389.90,623,754,0
3864545,386.59,623,752,0
3864555,384.10,623,754,0
3864565,381.45,623,752,0
3864576,379.65,623,754,0
3864585,377.65,623,752,0
3864595,376.26,623,754,0
3864605,374.47,623,752,0
3864615,373.17,623,754,0
3864625,371.83,623,752,0
3864635,371.41,623,754,0
3864645,371.80,623,752,0
3864655,374.56,623,754,0
3864665,379.84,623,752,0
3864675,389.27,623,754,0
3864685,403.20,623,752,0
3864695,422.81,623,754,0
3864705,447.13,623,752,0
3864715,476.23,623,754,0
3864725,507.88,623,751,0
3864744,540.91,642,751,0
3864748,571.93,642,753,0
3864756,599.76,642,754,0
3864766,621.78,642,751,0
3864776,637.27,642,754,0
3864786,644.73,642,752,0
3864796,644.64,642,754,0
3864806,636.65,642,751,0
3864816,622.65,642,754,0
3864826,602.96,642,752,0
3864836,579.61,642,754,0
3864846,553.59,642,752,0
3864856,526.32,642,755,0
3864866,498.84,642,752,0
3864876,472.57,642,756,0
3864886,448.06,642,751,0
3864896,426.10,642,754,0
3864906,406.61,642,752,0
3864916,390.14,642,754,0
3864926,376.94,642,751,0
3864936,367.10,642,754,0
3864946,360.51,642,752,0
3864956,357.19,642,754,0
3864966,356.75,642,751,0
3864976,359.05,642,754,0
3864986,363.54,642,752,0
3864996,369.76,642,754,0
3865006,377.03,642,752,0
3865016,384.91,642,754,0
3865026,392.82,642,752,0
3865036,400.20,642,754,0
3865047,406.61,642,752,0
3865057,411.70,642,754,0
3865067,415.43,642,752,0
3865077,417.36,642,753,0
3865088,417.77,642,752,0
3865097,416.51,642,753,0
3865107,414.26,642,753,0
3865117,410.96,642,754,0
3865127,407.29,642,753,0
3865137,403.00,642,754,0
3865147,398.93,642,752,0
3865157,394.67,642,753,0
3865167,390.99,642,752,0
3865177,387.40,642,754,0
3865187,384.28,642,753,0
3865197,381.28,642,754,0
3865207,378.84,642,753,0
3865217,376.53,642,754,0
3865227,374.83,642,753,0
3865237,373.17,642,753,0
3865247,372.52,642,752,0
3865257,372.92,642,753,0
3865267,375.69,642,753,0
3865277,381.18,642,754,0
3865287,390.94,642,753,0
3865297,405.36,642,753,0
3865307,425.39,642,752,0
3865317,450.35,642,754,0
3865327,479.94,642,753,0
3865337,511.97,642,753,0
3865356,545.02,612,753,0
3865359,575.87,612,754,0
3865368,603.81,612,753,0
3865378,625.85,612,753,0
3865388,641.24,612,753,0
3865398,648.54,612,753,0
3865408,648.16,612,753,0
3865418,639.80,612,753,0
3865428,625.67,612,753,0
3865438,605.37,612,753,0
3865448,581.73,612,753,0
3865458,554.98,612,753,0
3865468,527.69,612,753,0
3865478,500.18,612,753,0
3865488,474.50,612,753,0
3865498,450.18,612,753,0
3865508,428.82,612,753,0
3865518,409.51,612,753,0
3865528,393.71,612,753,0
3865538,380.34,612,753,0
3865548,370.60,612,753,0
3865559,363.39,612,753,0
3865569,359.93,612,753,0
3865579,358.66,612,752,0
3865589,360.69,612,753,0
3865600,364.39,612,752,0
3865609,370.48,612,753,0
3865619,377.24,612,752,0
3865629,385.27,612,753,0
3865639,392.60,612,752,0
3865649,400.05,612,753,0
3865659,405.82,612,752,0
3865669,410.97,612,753,0
3865679,413.94,612,752,0
3865689,416.01,612,753,0
3865699,415.80,612,752,0
3865709,414.87,612,753,0
3865719,412.00,612,753,0
3865729,408.87,612,753,0
3865739,404.32,612,752,0
3865749,400.03,612,753,0
3865759,394.88,612,753,0
3865769,390.67,612,754,0
3865779,386.01,612,752,0
3865789,382.49,612,753,0
3865799,378.79,612,753,0
3865809,376.32,612,754,0
3865819,373.65,612,752,0
3865829,372.09,612,753,0
3865839,370.05,612,753,0
3865849,369.05,612,754,0
3865859,367.66,612,753,0
3865869,367.38,612,753,0
3865879,366.84,612,753,0
3865889,367.96,612,754,0
3865900,369.98,612,752,0
3865910,375.43,612,754,0
3865920,383.66,612,752,0
3865930,397.26,612,754,0
3865940,415.31,612,752,0
3865950,439.56,612,754,0
3865960,467.89,612,752,0
3865970,500.62,612,754,0
3865990,534.17,633,752,0
3865993,567.46,633,754,0
3866002,597.15,633,752,0
3866012,622.56,633,754,0
3866022,640.48,633,751,0
3866032,651.52,633,754,0
3866042,653.55,633,752,0
3866052,648.46,633,754,0
3866062,635.89,633,752,0
3866072,617.97,633,754,0
3866082,594.62,633,752,0
3866092,568.76,633,754,0
3866102,540.25,633,752,0
3866113,511.89,633,754,0
3866123,483.51,633,752,0
3866133,457.47,633,754,0
3866143,433.16,633,752,0
3866153,412.24,633,754,0
3866163,394.04,633,752,0
3866173,379.88,633,754,0
3866183,368.73,633,752,0
3866193,361.44,633,754,0
3866203,356.77,633,752,0
3866213,355.47,633,754,0
3866223,356.27,633,752,0
3866233,359.62,633,754,0
3866243,364.06,633,752,0
3866253,370.26,633,754,0
3866263,376.65,633,752,0
3866273,383.66,633,754,0
3866284,389.84,633,752,0
3866294,395.63,633,754,0
3866304,399.90,633,752,0
3866314,403.32,633,754,0
3866324,404.94,633,752,0
3866334,405.60,633,754,0
3866344,404.56,633,752,0
3866354,402.64,633,754,0
3866364,399.79,633,752,0
3866374,396.72,633,754,0
3866384,393.12,633,752,0
3866394,389.53,633,754,0
3866404,385.90,633,752,0
3866414,382.97,633,754,0
3866424,380.37,633,752,0
3866434,378.46,633,754,0
3866444,376.95,633,752,0
3866455,376.15,633,754,0
3866465,375.89,633,752,0
3866475,376.05,633,754,0
3866485,376.42,633,752,0
3866496,377.02,633,753,0
3866505,377.79,633,752,0
3866515,379.18,633,754,0
3866525,381.65,633,752,0
3866535,386.04,633,753,0
3866545,393.40,633,752,0
3866555,404.77,633,754,0
3866565,421.12,633,752,0
3866575,442.47,633,754,0
3866585,468.43,633,752,0
3866595,498.00,633,754,0
3866614,529.72,625,753,0
3866617,560.74,625,755,0
3866626,589.75,625,753,0
3866636,614.34,625,753,0
3866646,633.14,625,753,0
3866656,644.50,625,753,0
3866667,648.29,625,753,0
3866676,644.13,625,753,0
3866686,633.64,625,753,0
3866696,616.56,625,753,0
3866706,594.79,625,753,0
3866716,569.44,625,753,0
3866726,542.52,625,752,0
3866736,514.64,625,753,0
3866746,487.53,625,753,0
3866756,461.74,625,753,0
3866766,438.42,625,753,0
3866776,417.42,625,753,0
3866786,399.51,625,753,0
3866796,384.49,625,753,0
3866806,372.98,625,753,0
3866816,364.25,625,753,0
3866826,358.81,625,753,0
3866836,355.83,625,753,0
3866846,355.79,625,752,0
3866856,357.53,625,753,0
3866866,361.48,625,753,0
3866876,366.27,625,753,0
3866886,372.36,625,752,0
3866896,378.47,625,753,0
3866906,384.88,625,753,0
3866916,390.49,625,753,0
3866926,395.83,625,753,0
3866936,399.78,625,753,0
3866946,403.10,625,753,0
3866956,404.83,625,753,0
3866967,405.74,625,753,0
3866977,405.17,625,753,0
3866987,404.01,625,753,0
3866997,401.43,625,753,0
3867008,398.65,625,753,0
3867017,395.02,625,753,0
3867027,391.67,625,753,0
3867037,387.53,625,753,0
3867047,384.03,625,753,0
3867057,380.03,625,753,0
3867067,376.98,625,753,0
3867077,373.56,625,753,0
3867087,371.16,625,753,0
3867097,368.88,625,753,0
3867107,368.66,625,753,0
3867117,369.62,625,753,0
3867127,374.11,625,753,0
3867137,381.62,625,753,0
3867147,394.46,625,753,0
3867157,411.94,625,753,0
3867167,435.23,625,753,0
3867177,462.42,625,753,0
3867187,493.53,625,753,0
3867197,525.56,625,753,0
3867216,557.66,602,752,0
3867219,585.62,602,753,0
3867228,609.39,602,754,0
3867238,626.07,602,753,0
3867248,636.17,602,753,0
3867258,637.83,602,752,0
3867268,632.78,602,753,0
3867278,620.25,602,753,0
3867288,603.42,602,753,0
3867298,581.35,602,752,0
3867308,557.29,602,753,0
3867318,530.93,602,753,0
3867328,505.06,602,753,0
3867338,478.90,602,753,0
3867348,455.10,602,754,0
3867358,432.66,602,753,0
3867368,413.56,602,753,0
3867378,396.34,602,752,0
3867388,382.78,602,754,0
3867398,371.57,602,753,0
