Time,PPG,IBI,GSR,GSR_Event
4025679,514.83,652,750,0
4025689,487.80,652,746,0
4025699,459.62,652,749,0
4025709,431.36,652,747,0
4025719,404.77,652,749,0
4025729,379.81,652,747,0
4025739,358.05,652,749,0
4025749,339.61,652,747,0
4025759,330.60,652,749,0
4025769,327.42,652,746,0
4025779,329.52,652,749,0
4025789,335.11,652,747,0
4025799,343.90,652,749,0
4025809,354.18,652,746,0
4025819,365.78,652,749,0
4025829,377.16,652,746,0
4025839,388.21,652,749,0
4025849,397.79,652,746,0
4025859,406.21,652,749,0
4025869,412.66,652,746,0
4025879,417.65,652,749,0
4025889,420.54,652,746,0
4025900,421.96,652,749,0
4025910,421.67,652,746,0
4025920,420.06,652,749,0
4025930,417.08,652,746,0
4025940,413.24,652,749,0
4025950,408.59,652,746,0
4025960,403.70,652,749,0
4025970,398.56,652,746,0
4025980,393.59,652,748,0
4025990,389.17,652,746,0
4026000,385.65,652,749,0
4026010,382.97,652,746,0
4026020,381.18,652,749,0
4026030,380.10,652,746,0
4026040,379.90,652,749,0
4026050,380.40,652,746,0
4026060,381.35,652,749,0
4026071,382.45,652,747,0
4026081,383.73,652,749,0
4026091,385.69,652,747,0
4026101,388.31,652,749,0
4026112,391.95,652,748,0
4026121,396.51,652,749,0
4026131,402.78,652,747,0
4026141,411.21,652,749,0
4026151,422.63,652,747,0
4026161,436.84,652,749,0
4026171,454.46,652,747,0
4026181,474.72,652,749,0
4026191,497.56,652,748,0
4026201,521.35,652,749,0
4026220,544.95,673,749,0
4026223,568.23,673,751,0
4026232,590.41,673,749,0
4026242,608.76,673,750,0
4026252,622.41,673,749,0
4026262,630.00,673,750,0
4026272,631.89,673,749,0
4026283,627.55,673,750,0
4026292,616.54,673,748,0
4026302,598.68,673,750,0
4026312,576.79,673,749,0
4026322,551.65,673,750,0
4026332,525.79,673,748,0
4026342,499.45,673,750,0
4026352,474.76,673,749,0
4026362,451.39,673,750,0
4026372,431.17,673,749,0
4026382,413.51,673,750,0
4026392,399.77,673,749,0
4026402,388.69,673,750,0
4026412,381.42,673,749,0
4026422,376.70,673,750,0
4026432,375.21,673,749,0
4026442,375.40,673,750,0
4026452,377.85,673,749,0
4026462,381.03,673,750,0
4026472,385.60,673,749,0
4026482,390.09,673,750,0
4026492,395.38,673,749,0
4026502,400.24,673,750,0
4026512,405.27,673,749,0
4026522,409.00,673,750,0
4026532,412.30,673,749,0
4026542,414.14,673,750,0
4026552,415.34,673,749,0
4026562,414.81,673,750,0
4026572,413.71,673,749,0
4026583,411.01,673,750,0
4026593,408.35,673,749,0
4026603,404.65,673,750,0
4026613,401.32,673,749,0
4026624,397.45,673,749,0
4026633,394.53,673,749,0
4026643,391.24,673,750,0
4026653,389.16,673,749,0
4026663,386.80,673,749,0
4026673,385.70,673,749,0
4026683,384.33,673,750,0
4026693,384.02,673,749,0
4026703,383.03,673,749,0
4026713,382.72,673,749,0
4026723,381.60,673,750,0
4026733,381.59,673,749,0
4026743,381.29,673,749,0
4026753,382.49,673,749,0
4026763,384.14,673,749,0
4026773,388.60,673,749,0
4026783,395.06,673,749,0
4026793,405.71,673,750,0
4026803,419.00,673,750,0
4026813,436.57,673,749,0
4026823,456.71,673,749,0
4026833,480.29,673,750,0
4026852,504.63,632,748,0
4026855,529.55,632,752,0
4026864,552.15,632,749,0
4026874,572.54,632,750,0
4026884,587.81,632,749,0
4026894,598.58,632,750,0
4026904,602.78,632,749,0
4026914,601.69,632,750,0
4026924,594.54,632,749,0
4026934,583.11,632,750,0
4026944,566.75,632,748,0
4026954,548.48,632,750,0
4026964,527.46,632,749,0
4026974,506.50,632,750,0
4026984,484.62,632,748,0
4026994,464.16,632,750,0
4027004,444.14,632,748,0
4027014,427.04,632,750,0
4027024,411.30,632,749,0
4027034,399.08,632,750,0
4027044,388.64,632,749,0
4027054,381.98,632,750,0
4027064,377.27,632,749,0
4027074,376.20,632,750,0
4027084,376.44,632,749,0
4027095,379.27,632,750,0
4027105,382.49,632,748,0
4027115,387.48,632,750,0
4027125,392.05,632,749,0
4027136,397.52,632,750,0
4027145,401.78,632,748,0
4027155,406.22,632,750,0
4027165,408.81,632,748,0
4027175,411.10,632,750,0
4027185,411.32,632,748,0
4027195,411.31,632,750,0
4027205,409.38,632,748,0
4027215,407.42,632,750,0
4027225,403.95,632,748,0
4027235,401.14,632,750,0
4027245,397.37,632,748,0
4027255,394.39,632,750,0
4027265,390.54,632,748,0
4027275,387.98,632,750,0
4027285,384.94,632,748,0
4027295,383.20,632,750,0
4027305,381.00,632,748,0
4027315,380.23,632,750,0
4027325,379.17,632,748,0
4027335,379.51,632,750,0
4027345,379.18,632,748,0
4027355,379.94,632,750,0
4027365,380.05,632,748,0
4027375,381.53,632,750,0
4027385,382.96,632,748,0
4027395,386.61,632,750,0
4027405,391.44,632,748,0
4027415,399.84,632,750,0
4027425,410.64,632,748,0
4027436,426.14,632,750,0
4027446,444.27,632,748,0
4027456,466.22,632,750,0
4027475,489.29,623,749,0
4027479,513.33,623,751,0
4027487,536.08,623,748,0
4027497,557.44,623,750,0
4027507,574.15,623,748,0
4027517,586.62,623,750,0
4027527,592.73,623,748,0
4027537,593.80,623,750,0
4027547,589.10,623,748,0
4027557,579.60,623,751,0
4027567,565.02,623,749,0
4027577,548.13,623,751,0
4027587,528.85,623,748,0
4027597,509.31,623,751,0
4027607,489.16,623,748,0
4027617,470.34,623,750,0
4027627,452.24,623,748,0
4027637,436.27,623,750,0
4027648,421.27,623,748,0
4027657,408.68,623,751,0
4027667,397.46,623,748,0
4027677,389.01,623,750,0
4027687,382.28,623,748,0
4027697,378.55,623,750,0
4027707,376.46,623,748,0
4027717,377.01,623,750,0
4027727,378.68,623,748,0
4027737,382.29,623,750,0
4027747,386.14,623,748,0
4027757,390.94,623,750,0
4027767,395.16,623,748,0
4027777,399.74,623,750,0
4027787,403.03,623,748,0
4027797,406.02,623,750,0
4027807,407.56,623,748,0
4027817,408.72,623,750,0
4027827,408.29,623,748,0
4027837,407.60,623,750,0
4027847,405.71,623,748,0
4027857,404.00,623,750,0
4027867,401.47,623,748,0
4027877,399.27,623,750,0
4027887,396.49,623,748,0
4027897,394.46,623,750,0
4027907,391.96,623,748,0
4027917,390.30,623,750,0
4027927,388.33,623,748,0
4027937,386.99,623,750,0
4027948,385.40,623,748,0
4027958,384.43,623,750,0
4027968,383.18,623,748,0
4027978,382.44,623,750,0
4027988,381.45,623,748,0
4027998,381.32,623,750,0
4028008,381.69,623,748,0
4028018,383.71,623,750,0
4028028,387.44,623,748,0
4028038,394.00,623,750,0
4028048,403.51,623,748,0
4028058,417.07,623,750,0
4028068,434.15,623,748,0
4028078,454.72,623,750,0
4028097,477.26,622,749,0
4028100,500.80,622,750,0
4028109,524.30,622,748,0
4028119,546.54,622,750,0
4028129,565.23,622,747,0
4028139,579.82,622,750,0
4028149,589.17,622,748,0
4028160,593.45,622,750,0
4028169,592.63,622,747,0
4028179,586.57,622,750,0
4028189,575.86,622,748,0
4028199,561.67,622,750,0
4028209,544.88,622,747,0
4028219,526.66,622,750,0
4028229,507.65,622,748,0
4028239,488.60,622,750,0
4028249,470.08,622,747,0
4028259,452.87,622,750,0
4028269,437.22,622,748,0
4028279,423.23,622,750,0
4028289,411.12,622,748,0
4028299,401.48,622,750,0
4028309,394.31,622,748,0
4028319,389.46,622,750,0
4028329,386.54,622,748,0
4028339,385.47,622,750,0
4028349,385.76,622,748,0
4028359,386.95,622,750,0
4028369,388.55,622,748,0
4028379,390.40,622,750,0
4028389,392.34,622,748,0
4028399,394.21,622,750,0
4028409,395.90,622,748,0
4028419,397.77,622,750,0
4028429,399.77,622,748,0
4028439,401.60,622,750,0
4028449,403.09,622,748,0
4028460,404.13,622,750,0
4028470,404.78,622,748,0
4028480,404.67,622,750,0
4028490,404.04,622,748,0
4028500,402.62,622,750,0
4028510,400.85,622,748,0
4028520,398.71,622,750,0
4028530,396.52,622,748,0
4028540,394.05,622,750,0
4028550,391.85,622,748,0
4028560,389.28,622,750,0
4028570,387.31,622,748,0
4028580,385.33,622,750,0
4028590,383.86,622,748,0
4028600,382.49,622,750,0
4028610,381.83,622,748,0
4028620,381.24,622,750,0
4028631,381.47,622,749,0
4028641,381.63,622,750,0
4028651,382.90,622,748,0
4028661,384.81,622,749,0
4028672,389.03,622,749,0
4028681,395.02,622,750,0
4028691,404.48,622,748,0
4028701,416.98,622,749,0
4028711,433.83,622,749,0
4028730,453.51,633,747,0
4028733,476.29,633,751,0
4028742,499.81,633,749,0
4028752,524.08,633,749,0
4028762,546.17,633,750,0
4028772,565.62,633,748,0
4028782,579.83,633,749,0
4028792,589.23,633,749,0
4028802,592.37,633,749,0
4028812,590.42,633,748,0
4028822,582.41,633,749,0
4028832,570.50,633,749,0
4028843,554.49,633,749,0
4028852,537.12,633,748,0
4028862,517.92,633,749,0
4028872,499.18,633,749,0
4028882,479.88,633,749,0
4028892,462.26,633,748,0
4028902,445.21,633,749,0
4028912,430.66,633,749,0
4028922,416.75,633,749,0
4028932,405.25,633,748,0
4028942,394.85,633,749,0
4028952,387.35,633,749,0
4028962,381.12,633,749,0
4028972,377.70,633,748,0
4028982,375.30,633,749,0
4028992,375.60,633,749,0
4029002,376.70,633,749,0
4029012,379.75,633,749,0
4029022,383.00,633,749,0
4029032,387.54,633,749,0
4029042,391.49,633,749,0
4029052,396.02,633,749,0
4029062,399.31,633,749,0
4029072,402.82,633,749,0
4029082,404.80,633,749,0
4029092,406.53,633,749,0
4029102,406.72,633,749,0
4029112,406.84,633,749,0
4029122,405.39,633,749,0
4029132,403.99,633,748,0
4029143,401.21,633,748,0
4029153,398.96,633,749,0
4029163,395.89,633,748,0
4029173,393.73,633,749,0
4029184,391.11,633,748,0
4029193,389.67,633,749,0
4029203,387.92,633,748,0
4029213,387.43,633,749,0
4029223,386.36,633,748,0
4029233,386.38,633,749,0
4029243,385.71,633,748,0
4029253,386.05,633,749,0
4029263,385.61,633,748,0
4029273,386.03,633,749,0
4029283,385.63,633,748,0
4029293,386.56,633,749,0
4029303,387.16,633,748,0
4029313,389.26,633,749,0
4029323,391.28,633,748,0
4029333,395.52,633,749,0
4029343,400.85,633,748,0
4029353,409.51,633,750,0
4029363,419.90,633,748,0
4029373,434.29,633,750,0
4029383,451.34,633,749,0
4029403,472.54,672,748,0
4029406,495.01,672,749,0
4029415,519.22,672,751,0
4029425,541.52,672,748,0
4029435,561.77,672,750,0
4029445,576.88,672,748,0
4029455,586.94,672,750,0
4029465,589.79,672,748,0
4029475,587.15,672,750,0
4029485,578.06,672,748,0
4029495,565.44,672,750,0
4029505,548.98,672,748,0
4029515,531.37,672,750,0
4029526,512.40,672,748,0
4029535,494.54,672,750,0
4029545,476.72,672,748,0
4029555,460.56,672,750,0
4029565,444.88,672,748,0
4029575,431.76,672,750,0
4029585,419.45,672,748,0
4029595,409.50,672,750,0
4029605,400.39,672,748,0
4029615,394.06,672,750,0
4029625,388.94,672,748,0
4029635,386.73,672,750,0
4029645,385.61,672,748,0
4029655,386.97,672,750,0
4029665,388.82,672,748,0
4029675,392.35,672,750,0
4029685,395.63,672,748,0
4029696,399.90,672,750,0
4029705,403.01,672,748,0
4029715,406.14,672,750,0
4029725,407.51,672,748,0
4029735,408.81,672,750,0
4029745,408.48,672,748,0
4029755,408.21,672,750,0
4029765,406.30,672,748,0
4029775,404.58,672,750,0
4029785,401.71,672,748,0
4029795,399.53,672,750,0
4029805,396.45,672,748,0
4029815,394.05,672,750,0
4029825,390.69,672,748,0
4029835,388.38,672,750,0
4029845,385.52,672,748,0
4029855,383.70,672,750,0
4029865,381.34,672,748,0
4029875,380.13,672,750,0
4029885,378.46,672,748,0
4029895,378.06,672,750,0
4029905,377.19,672,748,0
4029915,377.52,672,750,0
4029925,377.32,672,748,0
4029935,378.30,672,750,0
4029945,378.68,672,748,0
4029955,380.57,672,750,0
4029965,383.10,672,748,0
4029975,388.47,672,750,0
4029985,395.70,672,748,0
4029996,406.85,672,750,0
4030006,420.82,672,748,0
4030016,439.22,672,750,0
4030026,460.20,672,748,0
4030046,483.88,643,746,0
4030049,507.92,643,748,0
4030058,531.90,643,750,0
4030068,553.23,643,747,0
4030078,571.16,643,750,0
4030088,584.27,643,748,0
4030098,592.33,643,750,0
4030108,594.25,643,747,0
4030118,590.49,643,750,0
4030128,581.25,643,748,0
4030138,568.06,643,750,0
4030148,551.76,643,748,0
4030158,533.19,643,750,0
4030168,513.37,643,748,0
4030178,493.59,643,750,0
4030188,474.51,643,748,0
4030198,456.70,643,750,0
4030209,440.38,643,748,0
4030219,425.74,643,750,0
4030229,413.09,643,748,0
4030239,402.26,643,750,0
4030249,393.48,643,748,0
4030259,386.61,643,750,0
4030269,381.84,643,748,0
4030279,378.89,643,749,0
4030289,377.89,643,748,0
4030299,378.23,643,750,0
4030309,380.13,643,748,0
4030319,382.66,643,749,0
4030329,386.19,643,748,0
4030339,389.86,643,750,0
4030349,393.80,643,748,0
4030359,397.29,643,750,0
4030369,400.68,643,748,0
4030380,403.04,643,750,0
4030390,405.13,643,748,0
4030400,405.73,643,749,0
4030410,405.86,643,748,0
4030420,404.70,643,749,0
4030430,403.33,643,748,0
4030440,401.00,643,749,0
4030450,399.07,643,748,0
4030460,396.48,643,749,0
4030470,394.67,643,748,0
4030480,392.49,643,749,0
4030490,391.32,643,748,0
4030500,389.98,643,749,0
4030510,389.73,643,748,0
4030520,389.21,643,749,0
4030530,389.70,643,748,0
4030540,390.14,643,749,0
4030551,391.77,643,749,0
4030561,393.12,643,749,0
4030571,395.31,643,749,0
4030581,396.72,643,749,0
4030592,398.73,643,749,0
4030601,400.18,643,749,0
4030611,402.66,643,749,0
4030621,405.12,643,749,0
4030631,409.97,643,749,0
4030641,416.36,643,749,0
4030651,426.80,643,749,0
4030661,440.27,643,749,0
4030671,458.32,643,749,0
4030690,478.92,645,747,0
4030693,502.56,645,751,0
4030702,526.39,645,749,0
4030712,550.62,645,750,0
4030722,571.73,645,749,0
4030732,589.73,645,749,0
4030742,601.89,645,749,0
4030752,609.17,645,750,0
4030763,609.76,645,748,0
4030772,605.50,645,749,0
4030782,595.24,645,749,0
4030792,581.45,645,750,0
4030802,563.40,645,748,0
4030812,544.08,645,749,0
4030822,522.67,645,749,0
4030832,501.94,645,750,0
4030842,480.49,645,748,0
4030852,460.76,645,749,0
4030862,441.59,645,749,0
4030872,425.30,645,750,0
4030882,409.91,645,748,0
4030892,397.59,645,749,0
4030902,386.49,645,749,0
4030912,378.58,645,750,0
4030922,371.94,645,748,0
4030932,368.48,645,750,0
4030942,366.20,645,749,0
4030952,366.82,645,749,0
4030962,368.12,645,748,0
4030972,371.73,645,750,0
4030982,375.45,645,749,0
4030992,380.76,645,750,0
4031002,385.20,645,748,0
4031012,390.24,645,750,0
4031022,393.90,645,749,0
4031032,397.74,645,750,0
4031042,399.53,645,748,0
4031052,401.35,645,749,0
4031063,401.24,645,749,0
4031073,401.30,645,750,0
4031083,399.75,645,748,0
4031093,398.63,645,750,0
4031104,396.12,645,748,0
4031113,394.46,645,750,0
4031123,391.62,645,748,0
4031133,389.72,645,750,0
4031143,386.85,645,748,0
4031153,384.96,645,750,0
4031163,382.10,645,751,0
4031173,380.44,645,750,0
4031183,378.17,645,748,0
4031193,377.05,645,750,0
4031203,375.15,645,748,0
4031213,374.46,645,749,0
4031223,373.08,645,748,0
4031233,372.88,645,750,0
4031243,371.72,645,748,0
4031253,371.63,645,750,0
4031263,370.97,645,748,0
4031273,371.97,645,749,0
4031283,373.13,645,748,0
4031293,377.04,645,749,0
4031303,382.60,645,748,0
4031313,392.57,645,750,0
4031323,405.30,645,748,0
4031333,422.83,645,749,0
4031343,443.11,645,748,0
4031363,467.20,672,747,0
4031366,492.09,672,748,0
4031375,518.20,672,750,0
4031385,541.88,672,748,0
4031395,563.26,672,750,0
4031405,579.47,672,748,0
4031415,591.03,672,750,0
4031425,595.91,672,748,0
4031435,595.59,672,750,0
4031446,588.77,672,748,0
4031455,577.87,672,749,0
4031465,562.52,672,748,0
4031475,545.14,672,750,0
4031485,525.47,672,748,0
4031495,505.70,672,749,0
4031505,485.09,672,748,0
4031515,465.56,672,750,0
4031525,446.15,672,748,0
4031535,428.71,672,749,0
4031545,412.12,672,748,0
4031555,397.94,672,750,0
4031565,385.15,672,748,0
4031575,375.54,672,749,0
4031585,367.71,672,748,0
4031595,363.21,672,750,0
4031605,360.58,672,748,0
4031616,360.87,672,749,0
4031625,362.58,672,748,0
4031635,366.61,672,750,0
4031645,371.18,672,748,0
4031655,377.17,672,749,0
4031665,382.86,672,747,0
4031675,389.12,672,750,0
4031685,394.27,672,748,0
4031695,399.25,672,749,0
4031705,402.51,672,747,0
4031715,405.27,672,750,0
4031725,406.26,672,748,0
4031735,406.66,672,749,0
4031745,405.22,672,747,0
4031755,403.57,672,750,0
4031765,400.61,672,748,0
4031775,397.77,672,750,0
4031785,394.02,672,747,0
4031795,390.85,672,750,0
4031805,387.21,672,748,0
4031815,384.32,672,749,0
4031825,380.96,672,747,0
4031835,378.45,672,750,0
4031845,375.83,672,748,0
4031855,374.34,672,750,0
4031865,372.69,672,747,0
4031875,372.23,672,750,0
4031885,371.82,672,748,0
4031895,372.81,672,750,0
4031905,374.11,672,747,0
4031916,377.12,672,750,0
4031926,380.90,672,747,0
4031936,387.23,672,750,0
4031946,395.60,672,747,0
4031956,407.64,672,750,0
4031966,422.40,672,747,0
4031976,441.18,672,750,0
4031986,462.68,672,747,0
4032006,487.16,643,746,0
4032009,512.74,643,749,0
4032018,538.36,643,749,0
4032028,561.87,643,748,0
4032038,582.27,643,749,0
4032048,598.04,643,748,0
4032058,608.74,643,749,0
4032068,613.41,643,747,0
4032078,611.96,643,749,0
4032088,604.85,643,747,0
4032098,592.77,643,749,0
4032108,576.68,643,747,0
4032118,557.32,643,749,0
4032129,535.92,643,748,0
4032139,513.10,643,749,0
4032149,490.49,643,748,0
4032159,468.14,643,749,0
4032169,447.66,643,748,0
4032179,429.12,643,749,0
4032189,413.31,643,748,0
4032199,399.63,643,749,0
4032209,389.16,643,748,0
4032219,380.84,643,749,0
4032229,375.96,643,748,0
4032239,373.27,643,749,0
4032249,373.32,643,748,0
4032259,374.77,643,749,0
4032269,378.05,643,748,0
4032279,381.81,643,749,0
4032289,386.75,643,748,0
4032300,391.15,643,749,0
4032310,395.56,643,748,0
4032320,398.57,643,749,0
4032330,401.18,643,748,0
4032340,402.07,643,749,0
4032350,402.44,643,748,0
4032360,400.98,643,749,0
4032370,399.23,643,749,0
4032380,395.94,643,749,0
4032390,392.88,643,748,0
4032400,388.93,643,749,0
4032410,385.91,643,748,0
4032420,382.46,643,749,0
4032430,380.31,643,748,0
4032440,377.77,643,749,0
4032450,376.51,643,748,0
4032460,374.99,643,748,0
4032471,374.56,643,748,0
4032481,373.75,643,748,0
4032491,374.17,643,749,0
4032501,374.38,643,748,0
4032512,376.62,643,749,0
4032521,379.52,643,748,0
4032531,385.11,643,749,0
4032541,392.23,643,748,0
4032551,402.92,643,749,0
4032561,415.76,643,748,0
4032571,432.50,643,749,0
4032581,450.99,643,748,0
4032591,472.47,643,749,0
4032610,494.40,605,748,0
4032613,516.99,605,750,0
4032622,537.61,605,748,0
4032632,556.80,605,749,0
4032642,571.69,605,748,0
4032652,583.18,605,749,0
4032662,588.78,605,748,0
4032672,590.01,605,749,0
4032683,586.02,605,748,0
4032692,578.81,605,750,0
4032702,566.87,605,748,0
4032712,552.47,605,749,0
4032722,534.63,605,748,0
4032732,516.40,605,750,0
4032742,496.65,605,748,0
4032752,477.51,605,749,0
4032762,457.69,605,748,0
4032772,439.95,605,749,0
4032782,423.25,605,748,0
4032792,409.59,605,749,0
4032802,397.28,605,748,0
4032812,388.41,605,749,0
4032822,381.13,605,748,0
4032832,377.36,605,749,0
4032842,375.03,605,748,0
4032852,375.66,605,750,0
4032862,377.09,605,748,0
4032872,380.66,605,749,0
4032882,384.24,605,748,0
4032892,389.48,605,750,0
4032902,393.92,605,748,0
4032912,398.87,605,749,0
4032922,402.25,605,748,0
4032932,405.82,605,749,0
4032942,407.63,605,748,0
4032952,409.46,605,749,0
4032962,409.32,605,748,0
4032972,409.05,605,750,0
4032983,407.15,605,748,0
4032993,405.31,605,749,0
4033003,401.91,605,747,0
4033013,398.68,605,750,0
4033024,393.98,605,747,0
4033033,389.83,605,749,0
4033043,384.82,605,747,0
4033053,380.85,605,750,0
4033063,376.52,605,748,0
4033073,373.58,605,750,0
4033083,370.62,605,747,0
4033093,369.53,605,750,0
4033103,368.82,605,747,0
4033113,370.41,605,750,0
4033123,373.03,605,747,0
4033133,378.77,605,750,0
4033143,386.59,605,747,0
4033153,398.50,605,749,0
4033163,413.09,605,747,0
4033173,431.88,605,750,0
4033183,452.83,605,748,0
4033193,476.62,605,750,0
4033212,500.48,602,748,0
4033215,523.95,602,751,0
4033224,545.27,602,747,0
4033234,564.04,602,750,0
4033244,577.74,602,747,0
4033254,587.08,602,750,0
4033264,590.27,602,747,0
4033274,588.90,602,750,0
4033284,582.50,602,747,0
4033294,572.07,602,750,0
4033304,557.26,602,747,0
4033314,540.38,602,750,0
4033324,520.90,602,747,0
4033334,501.17,602,750,0
4033344,480.59,602,747,0
4033354,461.13,602,750,0
4033364,442.19,602,747,0
4033374,425.72,602,750,0
4033384,410.72,602,747,0
4033394,398.76,602,750,0
4033404,388.72,602,747,0
4033414,381.99,602,750,0
4033424,377.19,602,747,0
4033434,375.38,602,750,0
4033444,375.05,602,747,0
4033454,377.18,602,750,0
4033464,379.95,602,747,0
4033474,384.21,602,750,0
4033484,388.22,602,747,0
4033495,392.87,602,750,0
4033505,396.51,602,747,0
4033515,400.04,602,750,0
4033525,402.04,602,746,0
4033536,403.70,602,750,0
4033545,404.01,602,747,0
4033555,404.00,602,750,0
4033565,402.76,602,746,0
4033575,401.33,602,750,0
4033585,398.92,602,747,0
4033595,396.41,602,750,0
4033605,393.20,602,746,0
4033615,390.10,602,750,0
4033625,386.51,602,747,0
4033635,383.32,602,750,0
4033645,379.92,602,746,0
4033655,377.07,602,750,0
4033665,374.14,602,747,0
4033675,372.25,602,750,0
4033685,370.59,602,747,0
4033695,370.07,602,750,0
4033705,370.35,602,747,0
4033715,372.64,602,750,0
4033725,376.65,602,747,0
4033735,383.83,602,750,0
4033745,393.35,602,747,0
4033755,406.36,602,750,0
4033765,421.85,602,747,0
4033775,440.11,602,750,0
4033785,459.49,602,747,0
4033804,479.66,592,746,0
4033807,498.40,592,747,0
4033816,515.68,592,750,0
4033826,529.79,592,747,0
4033836,540.61,592,750,0
4033846,546.90,592,747,0
4033856,549.03,592,750,0
4033866,546.75,592,747,0
4033876,540.95,592,750,0
4033886,531.58,592,747,0
4033896,519.92,592,750,0
4033906,506.06,592,747,0
4033916,490.83,592,750,0
4033926,474.59,592,747,0
4033936,458.26,592,750,0
4033946,442.11,592,747,0
4033956,426.52,592,750,0
4033966,411.36,592,747,0
4033976,397.54,592,750,0
4033986,385.51,592,747,0
4033996,375.41,592,750,0
4034007,367.19,592,747,0
4034017,361.05,592,750,0
4034027,357.26,592,747,0
4034037,355.51,592,750,0
4034048,355.66,592,747,0
4034057,357.00,592,749,0
4034067,359.70,592,747,0
4034077,363.18,592,750,0
4034087,367.24,592,748,0
4034097,370.94,592,749,0
4034107,374.30,592,747,0
4034117,376.91,592,750,0
4034127,379.12,592,748,0
4034137,380.29,592,749,0
4034147,380.71,592,747,0
4034157,380.07,592,750,0
4034167,378.94,592,748,0
4034177,377.24,592,749,0
4034187,375.20,592,747,0
4034197,372.61,592,750,0
4034207,370.07,592,747,0
4034217,367.26,592,749,0
4034227,364.66,592,747,0
4034237,361.80,592,749,0
4034247,359.20,592,747,0
4034257,356.57,592,749,0
4034267,354.77,592,747,0
4034277,353.73,592,750,0
4034287,354.24,592,747,0
4034297,356.35,592,749,0
4034307,360.83,592,747,0
4034317,367.70,592,750,0
4034327,377.64,592,747,0
4034337,389.92,592,749,0
4034348,404.82,592,748,0
4034358,421.24,592,749,0
4034368,439.00,592,748,0
4034387,456.74,583,746,0
4034391,474.01,583,751,0
4034399,489.60,583,749,0
4034409,503.35,583,748,0
4034419,513.40,583,748,0
4034429,520.44,583,748,0
4034439,523.31,583,749,0
4034449,523.13,583,748,0
4034459,518.89,583,748,0
4034469,512.02,583,748,0
4034479,501.86,583,749,0
4034489,490.29,583,748,0
4034499,476.49,583,748,0
4034509,462.58,583,748,0
4034519,447.62,583,749,0
4034529,433.72,583,748,0
4034539,419.79,583,749,0
4034549,407.81,583,748,0
4034560,396.47,583,749,0
4034569,387.50,583,748,0
4034579,379.38,583,749,0
4034589,373.65,583,748,0
4034599,368.83,583,749,0
4034609,365.96,583,748,0
4034619,363.40,583,749,0
4034629,362.81,583,748,0
4034639,362.48,583,749,0
4034649,363.75,583,748,0
4034659,364.81,583,749,0
4034669,366.88,583,748,0
4034679,368.20,583,749,0
4034689,370.03,583,748,0
4034699,370.66,583,749,0
4034709,371.49,583,748,0
4034719,370.92,583,749,0
4034729,370.73,583,748,0
4034739,369.39,583,749,0
4034749,368.59,583,748,0
4034759,366.91,583,749,0
4034769,365.74,583,748,0
4034779,363.72,583,749,0
4034789,362.43,583,748,0
4034799,360.46,583,749,0
4034809,359.12,583,748,0
4034819,356.98,583,749,0
4034829,355.66,583,748,0
4034839,353.79,583,748,0
4034849,352.83,583,748,0
4034860,351.29,583,748,0
4034870,350.73,583,748,0
4034880,349.91,583,748,0
4034890,350.67,583,749,0
4034900,351.62,583,748,0
4034910,354.74,583,749,0
4034920,358.54,583,748,0
4034930,365.02,583,749,0
4034940,372.47,583,748,0
4034950,382.83,583,749,0
4034969,394.11,582,748,0
4034972,407.66,582,750,0
4034981,421.61,582,747,0
4034991,437.15,582,749,0
4035001,451.68,582,748,0
4035011,466.30,582,749,0
4035021,478.34,582,747,0
4035031,489.12,582,749,0
4035041,496.42,582,748,0
4035051,501.52,582,749,0
4035061,502.69,582,748,0
4035072,501.80,582,749,0
4035081,497.49,582,748,0
4035091,491.90,582,749,0
4035101,483.53,582,748,0
4035111,474.54,582,749,0
4035121,463.36,582,748,0
4035131,452.24,582,749,0
4035141,439.70,582,748,0
4035151,427.87,582,749,0
4035161,415.44,582,748,0
4035171,404.68,582,749,0
4035181,394.45,582,748,0
4035191,386.81,582,749,0
4035201,380.05,582,748,0
4035211,376.10,582,749,0
4035221,372.90,582,748,0
4035231,372.16,582,749,0
4035241,371.81,582,747,0
4035251,373.24,582,749,0
4035261,374.32,582,748,0
4035271,376.63,582,749,0
4035281,378.20,582,747,0
4035291,380.79,582,749,0
4035301,382.31,582,748,0
4035311,384.49,582,749,0
4035321,385.20,582,747,0
4035331,386.47,582,749,0
4035341,386.29,582,748,0
4035351,386.46,582,749,0
4035361,385.03,582,747,0
4035372,384.08,582,750,0
4035382,381.96,582,747,0
4035392,380.68,582,749,0
4035402,378.38,582,747,0
4035412,377.07,582,750,0
4035422,374.95,582,747,0
4035432,373.93,582,749,0
4035442,372.20,582,747,0
4035452,371.24,582,750,0
4035462,369.49,582,747,0
4035472,368.49,582,749,0
4035482,366.67,582,747,0
4035492,365.61,582,750,0
4035502,363.89,582,747,0
4035512,363.15,582,749,0
4035522,361.78,582,747,0
4035532,361.46,582,749,0
4035543,361.19,582,747,0
4035553,362.76,582,749,0
4035563,365.36,582,747,0
4035573,370.70,582,750,0
4035584,377.47,582,747,0
4035593,387.27,582,750,0
4035603,398.38,582,747,0
4035613,411.85,582,750,0
4035633,425.95,663,749,0
4035636,440.67,663,750,0
4035645,454.87,663,747,0
4035655,468.54,663,750,0
4035665,480.25,663,747,0
4035675,490.59,663,750,0
4035685,498.08,663,747,0
4035695,502.99,663,750,0
4035705,505.13,663,747,0
4035715,504.41,663,750,0
4035725,500.86,663,747,0
4035735,495.29,663,750,0
4035745,487.70,663,747,0
4035756,478.75,663,750,0
4035766,468.97,663,747,0
4035776,458.52,663,750,0
4035786,447.82,663,747,0
4035796,437.25,663,749,0
4035806,427.36,663,747,0
4035816,418.21,663,750,0
4035826,410.47,663,747,0
4035836,403.73,663,749,0
4035846,398.67,663,747,0
4035856,395.04,663,750,0
4035866,393.23,663,747,0
4035876,392.43,663,750,0
4035886,392.82,663,747,0
4035896,393.77,663,750,0
4035906,395.64,663,747,0
4035916,397.68,663,750,0
4035927,399.96,663,747,0
4035937,401.73,663,749,0
4035947,403.48,663,748,0
4035957,404.49,663,749,0
4035968,405.29,663,748,0
4035977,405.29,663,749,0
4035987,405.20,663,748,0
4035997,404.33,663,749,0
4036007,403.71,663,748,0
4036017,402.43,663,749,0
4036027,401.44,663,748,0
4036037,399.64,663,749,0
4036047,398.29,663,748,0
4036057,396.40,663,749,0
4036067,395.04,663,748,0
4036077,393.18,663,750,0
4036087,391.76,663,748,0
4036097,389.86,663,749,0
4036107,388.62,663,748,0
4036117,386.76,663,750,0
4036127,385.33,663,748,0
4036137,383.26,663,749,0
4036147,381.60,663,748,0
4036157,379.70,663,749,0
4036167,378.98,663,747,0
4036177,378.68,663,749,0
4036187,380.15,663,748,0
4036197,382.76,663,749,0
4036207,388.06,663,747,0
4036217,395.07,663,749,0
4036227,404.95,663,748,0
4036237,416.49,663,749,0
4036247,430.53,663,747,0
4036267,445.63,634,747,0
4036270,462.24,634,750,0
4036279,478.58,634,749,0
4036289,495.04,634,748,0
4036299,509.30,634,748,0
4036310,522.32,634,749,0
4036319,532.25,634,749,0
4036329,539.81,634,748,0
4036339,543.29,634,748,0
4036349,544.15,634,749,0
4036359,541.36,634,749,0
4036369,537.10,634,748,0
4036379,529.91,634,749,0
4036389,521.67,634,749,0
4036399,511.48,634,749,0
4036409,501.52,634,749,0
4036419,490.39,634,748,0
4036429,480.16,634,750,0
4036439,469.44,634,749,0
4036449,460.14,634,749,0
4036459,451.01,634,749,0
4036469,443.94,634,749,0
4036480,437.36,634,748,0
4036489,433.05,634,749,0
4036499,429.22,634,748,0
4036509,427.57,634,750,0
4036519,426.07,634,748,0
4036529,426.48,634,749,0
4036539,426.68,634,749,0
4036549,428.36,634,749,0
4036559,429.49,634,748,0
4036569,431.45,634,749,0
4036579,432.38,634,748,0
4036589,434.07,634,749,0
4036599,434.48,634,748,0
4036609,435.32,634,749,0
4036619,434.71,634,749,0
4036629,434.50,634,749,0
4036639,433.02,634,748,0
4036649,432.07,634,750,0
4036659,429.86,634,749,0
4036669,428.28,634,749,0
4036679,425.58,634,749,0
4036689,423.61,634,749,0
4036699,420.64,634,749,0
4036709,418.69,634,749,0
4036719,415.95,634,748,0
4036729,414.25,634,750,0
4036739,411.86,634,749,0
4036749,410.70,634,749,0
4036759,408.99,634,749,0
4036769,408.52,634,750,0
4036780,407.64,634,748,0
4036790,408.35,634,750,0
4036800,409.31,634,748,0
4036810,412.65,634,750,0
4036820,416.87,634,748,0
4036830,424.15,634,750,0
4036840,433.02,634,748,0
4036850,445.44,634,750,0
4036860,459.41,634,748,0
4036879,476.17,613,747,0
4036882,493.26,613,749,0
4036891,511.96,613,750,0
4036901,529.58,613,748,0
4036911,547.02,613,750,0
4036921,561.29,613,748,0
4036931,573.67,613,750,0
4036941,581.91,613,748,0
4036951,587.51,613,750,0
4036961,588.34,613,748,0
4036971,586.48,613,750,0
4036981,580.60,613,747,0
4036992,572.83,613,750,0
4037001,562.08,613,748,0
4037011,550.57,613,750,0
4037021,537.11,613,747,0
4037031,524.01,613,750,0
4037041,509.99,613,748,0
4037051,497.14,613,750,0
4037061,484.37,613,747,0
4037071,473.29,613,750,0
4037081,462.61,613,748,0
4037091,454.33,613,750,0
4037101,447.03,613,747,0
4037111,442.26,613,750,0
4037121,438.29,613,748,0
4037131,436.87,613,750,0
4037141,436.10,613,747,0
4037151,437.27,613,750,0
4037161,438.34,613,748,0
4037171,440.51,613,750,0
4037181,441.82,613,748,0
4037191,443.54,613,750,0
4037201,443.64,613,748,0
4037211,443.83,613,750,0
4037221,442.38,613,748,0
4037231,440.94,613,750,0
4037241,438.00,613,748,0
4037251,435.30,613,750,0
4037261,431.40,613,747,0
4037271,428.11,613,750,0
4037281,423.75,613,748,0
4037292,420.18,613,750,0
4037302,415.93,613,747,0
4037312,412.60,613,750,0
4037322,408.82,613,748,0
4037332,406.13,613,750,0
4037342,402.84,613,747,0
4037352,400.61,613,750,0
4037362,397.90,613,747,0
4037372,396.13,613,750,0
4037382,393.91,613,747,0
4037392,392.56,613,750,0
4037402,390.98,613,748,0
4037412,390.73,613,750,0
4037422,390.72,613,747,0
4037432,392.69,613,750,0
4037442,395.83,613,747,0
4037452,401.62,613,750,0
4037463,409.19,613,747,0
4037473,419.59,613,750,0
4037483,431.67,613,747,0
4037493,446.04,613,750,0
4037504,461.03,613,747,0
4037513,476.71,613,750,0
4037523,491.28,613,747,0
4037533,504.82,613,750,0
4037543,515.85,613,747,0
4037553,524.72,613,750,0
4037563,530.12,613,747,0
4037573,532.74,613,750,0
4037583,531.83,613,747,0
4037593,528.63,613,750,0
4037603,522.48,613,747,0
4037613,514.58,613,750,0
4037623,504.63,613,747,0
4037642,494.33,763,746,0
4037645,483.26,763,748,0
4037654,472.55,763,750,0
4037664,461.54,763,747,0
4037675,451.14,763,750,0
4037684,441.15,763,747,0
4037694,432.06,763,750,0
4037704,423.43,763,747,0
4037714,415.76,763,750,0
4037724,409.02,763,747,0
4037734,403.83,763,750,0
4037744,400.11,763,747,0
4037754,397.76,763,750,0
4037764,396.55,763,747,0
4037774,396.47,763,750,0
4037784,397.06,763,747,0
4037794,398.07,763,750,0
4037804,399.03,763,747,0
4037814,399.88,763,750,0
4037824,400.39,763,747,0
4037834,400.53,763,750,0
4037844,400.03,763,747,0
4037854,399.16,763,750,0
4037864,397.66,763,747,0
4037874,395.66,763,750,0
4037884,393.15,763,747,0
4037894,390.36,763,750,0
4037904,387.38,763,747,0
4037914,384.35,763,750,0
4037924,381.38,763,747,0
4037934,378.69,763,750,0
4037944,376.08,763,747,0
4037954,373.70,763,750,0
4037964,371.69,763,746,0
4037975,369.94,763,750,0
4037985,368.50,763,747,0
4037995,367.11,763,749,0
4038005,366.05,763,747,0
4038016,365.22,763,749,0
4038025,364.85,763,747,0
4038035,364.68,763,749,0
4038045,365.25,763,747,0
4038055,366.33,763,749,0
4038065,368.63,763,747,0
4038075,371.91,763,749,0
4038085,376.95,763,747,0
4038095,383.27,763,749,0
4038105,391.33,763,747,0
4038115,400.32,763,749,0
4038125,410.51,763,747,0
4038135,420.90,763,749,0
4038145,431.47,763,747,0
4038155,441.32,763,749,0
4038165,450.56,763,747,0
4038175,458.15,763,750,0
4038185,464.32,763,748,0
4038195,468.38,763,750,0
4038205,470.58,763,747,0
4038215,470.41,763,749,0
4038235,468.66,592,748,0
4038238,464.35,592,748,0
4038247,459.31,592,748,0
4038257,452.88,592,749,0
4038267,446.23,592,748,0
4038277,438.87,592,749,0
4038287,431.80,592,748,0
4038297,424.06,592,749,0
4038307,417.44,592,749,0
4038317,410.19,592,749,0
4038327,403.92,592,748,0
4038337,397.35,592,749,0
4038347,392.18,592,748,0
4038358,387.16,592,748,0
4038367,383.94,592,748,0
4038377,381.00,592,749,0
4038387,379.80,592,748,0
4038397,378.62,592,749,0
4038407,378.90,592,748,0
4038417,378.80,592,749,0
4038427,379.76,592,748,0
4038437,379.75,592,749,0
4038447,380.30,592,748,0
4038457,379.82,592,749,0
4038467,380.00,592,748,0
4038477,379.06,592,749,0
4038487,378.57,592,748,0
4038497,377.20,592,749,0
4038507,376.63,592,748,0
4038517,375.19,592,749,0
4038528,374.41,592,748,0
4038537,372.74,592,749,0
4038547,371.71,592,748,0
4038557,369.74,592,749,0
4038567,368.57,592,748,0
4038577,366.73,592,749,0
4038587,365.78,592,748,0
4038597,364.18,592,749,0
4038607,363.61,592,748,0
4038617,362.83,592,749,0
4038627,363.35,592,748,0
4038637,363.29,592,749,0
4038647,364.23,592,748,0
4038657,364.80,592,749,0
4038667,366.53,592,748,0
4038677,367.79,592,749,0
4038687,370.04,592,748,0
4038697,372.04,592,748,0
4038707,375.37,592,748,0
4038717,378.69,592,749,0
4038727,383.58,592,748,0
4038737,388.51,592,748,0
4038747,395.08,592,748,0
4038757,401.70,592,749,0
4038767,409.68,592,748,0
4038777,417.19,592,748,0
4038796,425.45,562,748,0
4038799,432.21,562,749,0
4038808,439.43,562,749,0
4038818,444.62,562,748,0
4038828,449.36,562,749,0
4038838,451.57,562,748,0
4038848,452.98,562,748,0
4038858,451.96,562,748,0
4038868,450.56,562,749,0
4038878,446.83,562,748,0
4038888,443.07,562,748,0
4038898,437.56,562,748,0
4038908,432.59,562,749,0
4038918,426.63,562,748,0
4038928,421.68,562,748,0
4038938,416.08,562,748,0
4038948,411.56,562,749,0
4038958,406.55,562,748,0
4038968,402.91,562,748,0
4038978,398.95,562,748,0
4038988,396.52,562,749,0
4038999,393.67,562,748,0
4039009,392.27,562,749,0
4039019,390.39,562,747,0
4039029,389.93,562,749,0
4039040,389.01,562,747,0
4039049,389.26,562,749,0
4039059,388.71,562,747,0
4039069,389.10,562,749,0
4039079,388.55,562,747,0
4039089,388.95,562,749,0
4039099,388.32,562,747,0
4039109,388.44,562,749,0
4039119,387.53,562,747,0
4039129,387.46,562,749,0
4039139,386.51,562,747,0
4039149,386.48,562,749,0
4039159,385.65,562,747,0
4039169,385.71,562,749,0
4039179,384.86,562,747,0
4039189,384.81,562,749,0
4039199,383.67,562,747,0
4039209,383.34,562,749,0
4039219,381.95,562,747,0
4039229,381.28,562,749,0
4039239,379.65,562,747,0
4039249,378.86,562,749,0
4039259,377.27,562,747,0
4039269,376.98,562,749,0
4039279,376.13,562,747,0
4039289,376.47,562,749,0
4039299,376.16,562,747,0
4039309,376.88,562,749,0
4039319,376.88,562,747,0
4039329,377.77,562,749,0
4039340,377.75,562,747,0
4039350,378.68,562,749,0
4039360,379.16,562,747,0
4039370,380.96,562,749,0
4039380,382.73,562,747,0
4039390,386.32,562,749,0
4039400,390.21,562,747,0
4039410,396.23,562,750,0
4039420,402.46,562,747,0
4039430,410.17,562,750,0
4039449,417.36,653,748,0
4039452,425.05,653,750,0
4039461,431.89,653,747,0
4039471,438.78,653,750,0
4039481,443.56,653,747,0
4039491,447.72,653,750,0
4039501,449.69,653,747,0
4039511,451.16,653,750,0
4039521,450.77,653,747,0
4039531,449.42,653,750,0
4039541,446.25,653,746,0
4039552,442.79,653,749,0
4039561,438.10,653,747,0
4039571,433.70,653,750,0
4039581,428.47,653,746,0
4039591,423.79,653,750,0
4039601,418.71,653,747,0
4039611,414.60,653,750,0
4039621,410.39,653,746,0
4039631,407.19,653,750,0
4039641,403.87,653,747,0
4039651,401.64,653,750,0
4039661,399.39,653,747,0
4039671,398.07,653,750,0
4039681,396.38,653,747,0
4039691,395.71,653,750,0
4039701,394.77,653,747,0
4039711,394.62,653,750,0
4039721,394.09,653,747,0
4039731,394.19,653,750,0
4039741,393.84,653,747,0
4039751,394.06,653,750,0
4039761,393.61,653,747,0
4039771,393.56,653,750,0
4039781,392.58,653,747,0
4039791,391.89,653,750,0
4039801,390.55,653,747,0
4039811,389.91,653,750,0
4039821,388.78,653,747,0
4039831,388.33,653,750,0
4039841,387.55,653,747,0
4039852,387.51,653,750,0
4039862,387.06,653,747,0
4039872,387.04,653,750,0
4039882,386.34,653,747,0
4039892,386.03,653,750,0
4039902,384.95,653,747,0
4039912,384.02,653,750,0
4039922,382.56,653,747,0
4039932,381.36,653,750,0
4039942,379.92,653,747,0
4039952,378.96,653,750,0
4039962,377.90,653,747,0
4039972,377.46,653,750,0
4039982,376.89,653,747,0
4039992,376.88,653,750,0
4040002,376.75,653,747,0
4040012,376.95,653,750,0
4040023,377.09,653,747,0
4040033,377.62,653,750,0
4040043,378.34,653,747,0
4040053,379.69,653,750,0
4040064,381.46,653,747,0
4040073,384.19,653,750,0
4040083,387.43,653,747,0
4040093,391.42,653,750,0
4040103,395.96,653,747,0
4040113,400.95,653,750,0
4040123,406.15,653,747,0
4040133,411.16,653,750,0
4040143,415.83,653,747,0
4040153,420.12,653,750,0
4040172,423.69,723,749,0
4040175,426.31,723,751,0
4040184,428.53,723,748,0
4040194,429.96,723,750,0
4040204,431.04,723,747,0
4040214,431.24,723,750,0
4040224,431.17,723,748,0
4040235,430.39,723,749,0
4040244,429.54,723,748,0
4040254,427.67,723,750,0
4040264,425.41,723,748,0
4040274,422.24,723,749,0
4040284,419.04,723,747,0
4040294,415.22,723,750,0
4040304,411.72,723,748,0
4040314,407.78,723,749,0
4040324,404.24,723,747,0
4040334,400.70,723,750,0
4040344,397.96,723,748,0
4040354,395.06,723,749,0
4040364,392.68,723,747,0
4040374,390.51,723,750,0
4040384,389.33,723,748,0
4040394,388.41,723,749,0
4040404,388.46,723,748,0
4040414,388.58,723,750,0
4040424,389.69,723,747,0
4040434,390.77,723,749,0
4040444,392.30,723,748,0
4040454,393.36,723,750,0
4040464,394.54,723,747,0
4040474,394.98,723,749,0
4040484,395.46,723,748,0
4040494,395.36,723,750,0
4040504,395.43,723,748,0
4040514,394.83,723,749,0
4040524,394.45,723,748,0
4040535,393.59,723,749,0
4040545,393.15,723,748,0
4040555,392.29,723,749,0
4040565,391.78,723,748,0
4040576,390.77,723,749,0
4040585,390.20,723,748,0
4040595,389.11,723,749,0
4040605,388.39,723,748,0
4040615,386.90,723,749,0
4040625,386.07,723,748,0
4040635,384.85,723,749,0
4040645,384.55,723,748,0
4040655,383.87,723,749,0
4040665,383.95,723,748,0
4040675,383.93,723,749,0
4040685,384.89,723,748,0
4040695,385.44,723,749,0
4040705,386.76,723,748,0
4040715,387.61,723,749,0
4040725,389.35,723,748,0
4040735,390.83,723,749,0
4040745,393.24,723,748,0
4040755,395.48,723,749,0
4040765,398.64,723,748,0
4040775,401.36,723,749,0
4040785,404.90,723,748,0
4040795,408.06,723,749,0
4040805,412.02,723,748,0
4040815,415.27,723,749,0
4040825,419.05,723,748,0
4040835,422.03,723,749,0
4040845,425.45,723,748,0
4040864,427.89,692,747,0
4040867,430.54,692,750,0
4040876,432.09,692,749,0
4040886,433.69,692,748,0
4040896,433.83,692,749,0
4040906,434.05,692,749,0
4040916,432.92,692,748,0
4040926,432.00,692,748,0
4040936,429.86,692,749,0
4040946,427.89,692,748,0
4040956,424.96,692,748,0
4040966,422.70,692,748,0
4040976,419.62,692,749,0
4040986,417.51,692,749,0
4040996,414.61,692,749,0
4041006,412.63,692,748,0
4041016,410.04,692,749,0
4041026,408.70,692,748,0
4041036,407.08,692,749,0
4041047,406.71,692,749,0
4041057,405.81,692,748,0
4041067,406.12,692,749,0
4041077,405.83,692,748,0
4041088,406.61,692,749,0
4041097,406.47,692,748,0
4041107,407.14,692,749,0
4041117,406.76,692,748,0
4041127,407.17,692,749,0
4041137,406.65,692,748,0
4041147,406.88,692,749,0
4041157,406.15,692,748,0
4041167,406.15,692,749,0
4041177,405.16,692,748,0
4041187,405.07,692,749,0
4041197,404.06,692,748,0
4041207,403.96,692,749,0
4041217,403.03,692,748,0
4041227,403.02,692,749,0
4041237,402.20,692,748,0
4041247,402.31,692,749,0
4041257,401.57,692,748,0
4041267,401.75,692,749,0
4041277,400.96,692,748,0
4041287,401.06,692,749,0
4041297,400.19,692,748,0
4041307,400.30,692,749,0
4041317,399.48,692,748,0
4041327,399.59,692,749,0
4041337,398.82,692,748,0
4041347,398.96,692,749,0
4041357,398.28,692,748,0
4041367,398.54,692,749,0
4041377,397.86,692,748,0
4041388,398.29,692,750,0
4041398,397.86,692,748,0
4041408,398.46,692,749,0
4041418,398.41,692,748,0
4041428,399.49,692,750,0
4041438,400.15,692,748,0
4041448,402.08,692,749,0
4041458,403.56,692,748,0
4041468,406.47,692,750,0
4041478,409.08,692,748,0
4041488,412.95,692,749,0
4041498,416.31,692,748,0
4041508,420.80,692,750,0
4041527,424.68,663,748,0
4041530,429.36,663,751,0
4041539,433.11,663,748,0
4041549,437.40,663,750,0
4041559,440.45,663,748,0
4041569,443.88,663,750,0
4041579,445.80,663,747,0
4041589,447.70,663,750,0
4041600,447.96,663,747,0
4041609,448.10,663,750,0
4041619,446.66,663,747,0
4041629,445.39,663,750,0
4041639,443.00,663,747,0
4041649,441.24,663,750,0
4041659,438.81,663,747,0
4041669,437.20,663,750,0
4041679,434.95,663,747,0
4041689,433.64,663,749,0
4041699,431.73,663,747,0
4041709,430.61,663,750,0
4041719,428.67,663,747,0
4041729,427.53,663,750,0
4041739,425.74,663,748,0
4041749,424.88,663,750,0
4041759,423.54,663,748,0
4041769,422.99,663,750,0
4041779,421.75,663,747,0
4041789,421.36,663,750,0
4041799,420.39,663,748,0
4041809,420.32,663,750,0
4041819,419.62,663,748,0
4041829,419.69,663,750,0
4041839,419.23,663,748,0
4041849,419.50,663,750,0
4041859,419.01,663,748,0
4041869,419.05,663,750,0
4041879,418.13,663,748,0
4041889,417.75,663,750,0
4041900,416.54,663,747,0
4041910,415.99,663,750,0
4041920,414.88,663,748,0
4041930,414.53,663,750,0
4041940,413.60,663,747,0
4041950,413.42,663,750,0
4041960,412.57,663,748,0
4041970,412.14,663,750,0
4041980,411.15,663,747,0
4041990,410.72,663,750,0
4042000,409.65,663,748,0
4042010,409.03,663,750,0
4042020,408.03,663,747,0
4042030,407.77,663,750,0
4042040,407.19,663,748,0
4042050,407.05,663,750,0
4042060,406.39,663,747,0
4042071,406.36,663,750,0
4042081,406.29,663,747,0
4042091,406.81,663,751,0
4042101,407.16,663,747,0
4042112,407.97,663,750,0
4042121,408.75,663,747,0
4042131,410.41,663,751,0
4042141,412.26,663,747,0
4042151,414.67,663,750,0
4042161,417.21,663,747,0
4042171,420.58,663,750,0
4042181,424.39,663,747,0
4042191,429.03,663,750,0
4042201,433.56,663,747,0
4042211,438.54,663,750,0
4042221,443.43,663,746,0
4042241,448.70,713,746,0
4042244,453.98,713,749,0
4042253,459.34,713,750,0
4042263,464.21,713,747,0
4042273,468.65,713,750,0
4042284,472.44,713,748,0
4042294,475.35,713,749,0
4042304,477.35,713,748,0
4042314,477.63,713,749,0
4042324,477.01,713,748,0
4042334,474.95,713,749,0
4042344,472.48,713,748,0
4042354,468.86,713,749,0
4042364,465.26,713,748,0
4042374,460.81,713,749,0
4042384,456.88,713,748,0
4042394,452.38,713,749,0
4042404,449.01,713,748,0
4042414,445.53,713,749,0
4042424,443.06,713,748,0
4042434,440.43,713,749,0
4042444,438.80,713,748,0
4042455,436.93,713,749,0
4042465,436.09,713,748,0
4042475,434.78,713,749,0
4042485,434.46,713,748,0
4042496,433.81,713,749,0
4042505,434.04,713,748,0
4042515,433.68,713,749,0
4042525,434.29,713,748,0
4042535,434.29,713,748,0
4042545,434.97,713,748,0
4042555,434.73,713,749,0
4042565,435.02,713,748,0
4042575,434.33,713,749,0
4042585,434.27,713,748,0
4042595,433.12,713,749,0
4042605,432.44,713,748,0
4042615,430.64,713,749,0
4042625,429.33,713,748,0
4042635,427.13,713,749,0
4042645,425.59,713,748,0
4042655,423.27,713,749,0
4042665,421.65,713,748,0
4042675,419.31,713,749,0
4042685,418.06,713,748,0
4042695,416.28,713,749,0
4042705,415.60,713,749,0
4042715,414.48,713,749,0
4042725,414.38,713,749,0
4042735,413.84,713,749,0
4042745,414.31,713,748,0
4042755,414.18,713,749,0
4042765,415.02,713,748,0
4042775,415.27,713,749,0
4042785,416.48,713,749,0
4042796,417.02,713,749,0
4042806,418.73,713,749,0
4042816,420.01,713,748,0
4042826,422.84,713,749,0
4042836,425.58,713,748,0
4042846,429.95,713,749,0
4042856,434.38,713,749,0
4042866,440.57,713,749,0
4042876,446.61,713,748,0
4042886,454.18,713,749,0
4042896,461.16,713,749,0
4042906,469.04,713,750,0
4042916,475.76,713,748,0
4042926,482.90,713,749,0
4042945,488.59,705,748,0
4042948,494.15,705,751,0
4042957,497.92,705,748,0
4042967,501.25,705,750,0
4042977,502.29,705,748,0
4042987,502.76,705,750,0
4042997,500.94,705,748,0
4043008,498.78,705,750,0
4043017,494.77,705,748,0
4043027,490.73,705,750,0
4043037,485.24,705,748,0
4043047,480.54,705,750,0
4043057,474.98,705,748,0
4043067,470.57,705,750,0
4043077,465.73,705,748,0
4043087,462.51,705,750,0
4043097,458.84,705,748,0
4043107,456.58,705,750,0
4043117,453.70,705,748,0
4043127,452.25,705,750,0
4043137,450.37,705,748,0
4043147,449.62,705,750,0
4043157,448.06,705,748,0
4043167,447.74,705,750,0
4043177,447.09,705,748,0
4043187,447.71,705,750,0
4043197,447.32,705,748,0
4043207,447.53,705,750,0
4043217,446.47,705,748,0
4043227,446.07,705,750,0
4043237,444.51,705,748,0
4043247,443.20,705,750,0
4043257,440.52,705,748,0
4043267,438.61,705,750,0
4043277,435.90,705,748,0
4043287,434.30,705,750,0
4043297,431.94,705,748,0
4043308,430.54,705,750,0
4043318,428.45,705,747,0
4043328,427.24,705,750,0
4043338,425.54,705,748,0
4043348,424.87,705,750,0
4043358,423.49,705,748,0
4043368,422.83,705,750,0
4043378,421.25,705,748,0
4043388,420.58,705,750,0
4043398,419.42,705,747,0
4043408,419.08,705,750,0
4043418,417.90,705,748,0
4043428,417.46,705,750,0
4043438,416.51,705,748,0
4043448,416.74,705,750,0
4043458,416.47,705,748,0
4043468,417.23,705,750,0
4043479,417.55,705,747,0
4043489,419.31,705,750,0
4043499,421.19,705,748,0
4043509,424.56,705,750,0
4043520,428.08,705,747,0
4043529,433.11,705,750,0
4043539,438.39,705,748,0
4043549,445.22,705,750,0
4043559,452.18,705,747,0
4043569,460.36,705,750,0
4043579,468.13,705,748,0
4043589,476.41,705,750,0
4043599,483.66,705,748,0
4043618,490.83,673,747,0
4043621,496.80,673,748,0
4043630,502.09,673,751,0
4043640,505.36,673,747,0
4043650,507.70,673,750,0
4043660,507.96,673,748,0
4043670,507.24,673,751,0
4043680,504.56,673,747,0
4043691,500.70,673,751,0
4043700,495.39,673,747,0
4043710,489.75,673,750,0
4043720,483.44,673,747,0
4043730,477.39,673,750,0
4043740,471.19,673,748,0
4043750,465.77,673,751,0
4043760,460.79,673,747,0
4043770,456.52,673,751,0
4043780,452.25,673,748,0
4043790,448.66,673,750,0
4043800,445.25,673,747,0
4043810,442.60,673,750,0
4043820,439.94,673,747,0
4043830,437.77,673,750,0
4043840,435.87,673,747,0
4043850,434.96,673,750,0
4043860,434.29,673,747,0
4043870,434.29,673,750,0
4043880,434.24,673,747,0
4043890,434.69,673,750,0
4043900,434.82,673,747,0
4043910,435.05,673,750,0
4043920,434.56,673,747,0
4043930,434.09,673,751,0
4043940,433.12,673,748,0
4043950,432.19,673,751,0
4043960,430.54,673,747,0
4043970,428.80,673,750,0
4043980,426.46,673,747,0
4043991,424.26,673,750,0
4044001,421.61,673,747,0
4044011,418.90,673,750,0
4044021,416.23,673,747,0
4044032,414.02,673,750,0
4044041,412.13,673,747,0
4044051,410.72,673,750,0
4044061,409.69,673,748,0
4044071,409.05,673,750,0
4044081,408.69,673,747,0
4044091,408.27,673,750,0
4044101,408.02,673,747,0
4044111,407.71,673,750,0
4044121,407.46,673,747,0
4044131,407.19,673,750,0
4044141,407.09,673,748,0
4044151,407.19,673,750,0
4044161,407.52,673,747,0
4044171,408.22,673,750,0
4044181,409.48,673,747,0
4044191,411.35,673,750,0
4044201,413.99,673,748,0
4044211,417.34,673,750,0
4044221,421.65,673,747,0
4044231,426.85,673,750,0
4044241,432.86,673,747,0
4044251,439.37,673,750,0
4044261,446.20,673,747,0
4044271,453.13,673,750,0
4044281,459.95,673,747,0
4044291,466.26,673,750,0
4044301,471.80,673,747,0
4044311,476.27,673,750,0
4044331,479.66,712,749,0
4044334,481.48,712,749,0
4044343,482.62,712,748,0
4044353,482.09,712,749,0
4044363,480.48,712,748,0
4044374,477.51,712,749,0
4044383,474.01,712,748,0
4044393,469.59,712,750,0
4044403,465.34,712,748,0
4044413,459.76,712,749,0
4044423,454.77,712,748,0
4044433,449.48,712,749,0
4044443,445.18,712,748,0
4044453,440.46,712,749,0
4044463,436.63,712,748,0
4044473,432.80,712,749,0
4044483,430.16,712,748,0
4044493,427.28,712,749,0
4044503,425.40,712,748,0
4044513,423.26,712,749,0
4044523,422.24,712,748,0
4044533,420.97,712,749,0
4044544,420.59,712,748,0
4044553,419.82,712,750,0
4044563,419.78,712,748,0
4044573,419.25,712,749,0
4044583,419.35,712,748,0
4044593,418.94,712,749,0
4044603,419.13,712,748,0
4044613,418.41,712,749,0
4044623,418.11,712,748,0
4044633,417.18,712,750,0
4044643,416.61,712,748,0
4044653,415.36,712,749,0
4044663,414.44,712,748,0
4044673,412.85,712,750,0
4044683,411.82,712,748,0
4044693,410.16,712,749,0
4044703,409.21,712,748,0
4044713,407.65,712,749,0
4044723,406.68,712,748,0
4044733,405.11,712,749,0
4044743,404.13,712,748,0
4044753,402.68,712,749,0
4044763,402.05,712,748,0
4044773,401.05,712,749,0
4044783,400.95,712,748,0
4044793,400.45,712,749,0
4044803,400.96,712,748,0
4044813,401.27,712,750,0
4044823,402.69,712,748,0
4044833,403.81,712,749,0
4044844,405.88,712,749,0
4044854,407.76,712,749,0
4044864,410.96,712,748,0
4044874,414.19,712,749,0
4044884,418.72,712,749,0
4044894,423.09,712,749,0
4044904,428.80,712,748,0
4044914,434.18,712,749,0
4044924,440.68,712,749,0
4044934,446.48,712,749,0
4044944,452.72,712,748,0
4044954,457.78,712,749,0
4044964,463.11,712,749,0
4044983,466.89,653,747,0
4044986,470.44,653,750,0
4044995,472.19,653,748,0
4045005,473.68,653,749,0
4045015,473.30,653,748,0
4045025,472.87,653,749,0
4045035,470.68,653,748,0
4045045,468.38,653,749,0
4045056,464.79,653,748,0
4045065,461.47,653,749,0
4045075,456.96,653,748,0
4045085,453.16,653,749,0
4045095,448.27,653,748,0
4045105,444.29,653,748,0
4045115,439.70,653,748,0
4045125,436.28,653,749,0
4045135,432.42,653,748,0
4045145,429.98,653,749,0
4045155,427.12,653,748,0
4045165,425.67,653,749,0
4045175,423.75,653,748,0
4045185,423.06,653,749,0
4045195,421.67,653,748,0
4045205,421.30,653,749,0
4045215,420.18,653,748,0
4045225,420.21,653,749,0
4045235,419.68,653,748,0
4045245,420.12,653,749,0
4045255,419.74,653,748,0
4045265,420.29,653,749,0
4045275,420.03,653,748,0
4045285,420.58,653,750,0
4045295,419.93,653,748,0
4045305,419.82,653,750,0
4045315,418.68,653,748,0
4045325,418.39,653,749,0
4045335,416.99,653,748,0
4045345,416.39,653,749,0
4045356,414.94,653,748,0
4045366,414.62,653,750,0
4045376,413.36,653,748,0
4045386,413.00,653,750,0
4045396,411.84,653,748,0
4045406,411.85,653,750,0
4045416,411.12,653,748,0
4045426,411.34,653,749,0
4045436,410.72,653,748,0
4045446,410.98,653,750,0
4045456,410.43,653,748,0
4045466,410.86,653,750,0
4045476,410.56,653,748,0
4045486,411.33,653,750,0
4045496,411.45,653,748,0
4045506,412.81,653,750,0
4045516,414.07,653,748,0
4045527,416.96,653,750,0
4045537,419.80,653,748,0
4045547,424.53,653,750,0
4045557,429.52,653,748,0
4045568,436.52,653,750,0
4045586,443.48,603,749,0
4045589,451.73,603,750,0
4045598,459.91,603,748,0
4045608,468.77,603,750,0
4045618,476.29,603,748,0
4045628,483.58,603,750,0
4045638,488.98,603,748,0
4045648,493.65,603,750,0
4045658,496.20,603,748,0
4045668,497.34,603,750,0
4045678,496.30,603,748,0
4045688,494.28,603,750,0
4045698,490.34,603,748,0
4045708,486.04,603,750,0
4045718,480.58,603,748,0
4045728,475.31,603,750,0
4045739,469.56,603,748,0
4045748,464.51,603,750,0
4045758,459.34,603,747,0
4045768,455.17,603,750,0
4045778,450.79,603,748,0
4045788,447.47,603,750,0
4045798,444.03,603,747,0
4045808,441.58,603,750,0
4045818,439.09,603,748,0
4045828,437.60,603,750,0
4045838,435.92,603,747,0
4045848,434.92,603,750,0
4045858,433.49,603,748,0
4045868,432.83,603,750,0
4045878,431.63,603,747,0
4045888,430.97,603,750,0
4045898,429.87,603,748,0
4045908,429.26,603,750,0
4045918,428.20,603,747,0
4045928,427.63,603,750,0
4045938,426.41,603,748,0
4045948,425.60,603,750,0
4045958,424.13,603,747,0
4045968,423.24,603,750,0
4045978,421.97,603,748,0
4045988,421.29,603,750,0
4045998,420.09,603,747,0
4046008,419.38,603,750,0
4046018,418.15,603,748,0
4046028,417.33,603,750,0
4046039,416.25,603,747,0
4046049,415.74,603,751,0
4046059,414.96,603,748,0
4046069,414.67,603,751,0
4046080,414.22,603,747,0
4046089,414.11,603,751,0
4046099,413.82,603,747,0
4046109,413.40,603,750,0
4046119,412.60,603,747,0
4046129,412.03,603,750,0
4046139,411.64,603,747,0
4046149,412.05,603,750,0
4046159,413.32,603,747,0
4046169,416.05,603,750,0
4046179,419.98,603,747,0
4046189,425.51,603,751,0
4046199,432.26,603,747,0
4046209,440.45,603,750,0
4046219,449.36,603,747,0
4046229,459.15,603,751,0
4046248,469.22,662,749,0
4046252,478.88,662,750,0
4046260,487.75,662,747,0
4046270,495.75,662,750,0
4046280,502.00,662,747,0
4046290,506.58,662,750,0
4046300,509.07,662,747,0
4046310,509.35,662,750,0
4046320,508.17,662,747,0
4046330,505.29,662,750,0
4046340,501.09,662,747,0
4046350,496.13,662,750,0
4046360,490.57,662,748,0
4046370,484.40,662,750,0
4046380,478.19,662,747,0
4046390,471.92,662,750,0
4046400,465.94,662,747,0
4046410,460.13,662,750,0
4046420,454.78,662,748,0
4046430,449.96,662,750,0
4046440,445.86,662,747,0
4046450,442.17,662,750,0
4046460,439.21,662,747,0
4046470,436.79,662,750,0
4046480,434.92,662,747,0
4046490,433.32,662,750,0
4046500,432.41,662,747,0
4046510,431.94,662,750,0
4046520,432.00,662,747,0
4046530,432.13,662,749,0
4046540,432.52,662,747,0
4046551,432.75,662,750,0
4046561,433.25,662,748,0
4046571,433.13,662,750,0
4046581,432.88,662,748,0
4046592,431.72,662,749,0
4046601,430.47,662,748,0
4046611,428.53,662,749,0
4046621,426.79,662,748,0
4046631,424.45,662,749,0
4046641,422.47,662,747,0
4046651,420.27,662,749,0
4046661,418.99,662,748,0
4046671,417.58,662,749,0
4046681,416.76,662,747,0
4046691,415.72,662,749,0
4046701,415.42,662,748,0
4046711,414.78,662,749,0
4046721,414.54,662,748,0
4046731,413.87,662,749,0
4046741,413.61,662,748,0
4046751,413.04,662,749,0
4046761,412.94,662,748,0
4046771,412.49,662,749,0
4046781,413.03,662,748,0
4046791,413.79,662,749,0
4046801,415.87,662,748,0
4046811,418.61,662,749,0
4046821,423.10,662,748,0
4046831,428.60,662,749,0
4046841,435.83,662,748,0
4046851,443.85,662,749,0
4046861,453.28,662,748,0
4046871,462.76,662,750,0
4046881,472.81,662,748,0
4046892,482.00,662,749,0
4046911,490.96,663,748,0
4046914,498.13,663,749,0
4046923,504.60,663,749,0
4046934,508.84,663,748,0
4046943,512.06,663,748,0
4046953,513.03,663,749,0
4046963,513.19,663,749,0
4046973,511.12,663,748,0
4046983,508.55,663,748,0
4046993,503.76,663,748,0
4047003,498.86,663,749,0
4047013,492.34,663,748,0
4047023,486.24,663,748,0
4047033,479.18,663,749,0
4047043,473.13,663,749,0
4047053,466.58,663,748,0
4047063,461.35,663,748,0
4047073,455.67,663,749,0
4047083,451.61,663,749,0
4047093,447.27,663,748,0
4047104,444.36,663,749,0
4047113,441.25,663,749,0
4047123,439.51,663,749,0
4047133,437.30,663,748,0
4047143,436.52,663,749,0
4047153,435.29,663,749,0
4047163,435.08,663,749,0
4047173,433.90,663,748,0
4047183,433.41,663,749,0
4047193,432.09,663,749,0
4047203,431.59,663,749,0
4047213,430.04,663,748,0
4047223,429.13,663,748,0
4047233,427.33,663,749,0
4047243,426.46,663,748,0
4047253,424.87,663,748,0
4047263,424.22,663,749,0
4047273,422.83,663,748,0
4047283,422.41,663,748,0
4047293,421.21,663,748,0
4047303,420.89,663,748,0
4047313,419.94,663,748,0
4047323,419.79,663,748,0
4047333,418.61,663,749,0
4047343,418.08,663,748,0
4047353,416.51,663,748,0
4047363,415.76,663,749,0
4047373,414.16,663,748,0
4047383,413.34,663,749,0
4047393,411.70,663,748,0
4047404,411.27,663,749,0
4047414,410.29,663,748,0
4047424,410.63,663,749,0
4047434,410.61,663,748,0
4047444,412.32,663,749,0
4047454,414.11,663,748,0
4047464,417.97,663,749,0
4047474,422.05,663,748,0
4047484,428.59,663,749,0
4047494,435.79,663,748,0
4047504,445.07,663,749,0
4047514,454.17,663,748,0
4047524,464.49,663,749,0
4047543,473.95,632,748,0
4047546,483.82,632,750,0
4047555,492.23,632,748,0
4047565,500.26,632,750,0
4047575,505.88,632,748,0
4047585,510.59,632,749,0
4047595,512.38,632,747,0
4047605,513.04,632,749,0
4047616,511.19,632,747,0
4047625,508.30,632,749,0
4047635,503.15,632,747,0
4047645,497.88,632,750,0
4047655,491.06,632,747,0
4047665,485.13,632,749,0
4047675,478.19,632,747,0
4047685,472.09,632,749,0
4047695,465.33,632,747,0
4047705,459.92,632,749,0
4047715,454.41,632,748,0
4047725,450.39,632,749,0
4047735,445.94,632,747,0
4047745,443.05,632,749,0
4047755,439.95,632,748,0
4047765,438.16,632,749,0
4047775,435.93,632,747,0
4047785,434.62,632,750,0
4047795,432.85,632,748,0
4047805,431.99,632,749,0
4047815,430.41,632,747,0
4047825,429.77,632,749,0
4047835,428.51,632,747,0
4047845,428.19,632,750,0
4047855,427.06,632,747,0
4047865,426.66,632,749,0
4047875,425.60,632,747,0
4047885,425.55,632,749,0
4047895,424.79,632,747,0
4047905,424.64,632,749,0
4047916,423.46,632,747,0
4047926,422.94,632,750,0
4047936,421.75,632,747,0
4047946,421.23,632,750,0
4047956,419.87,632,747,0
4047966,419.10,632,750,0
4047976,417.57,632,747,0
4047986,416.67,632,750,0
4047996,415.14,632,747,0
4048006,414.20,632,750,0
4048016,412.68,632,747,0
4048026,411.83,632,750,0
4048036,410.51,632,747,0
4048046,410.14,632,750,0
4048056,409.37,632,747,0
4048066,409.48,632,750,0
4048076,409.46,632,747,0
4048087,410.61,632,750,0
4048097,411.80,632,747,0
4048107,414.22,632,750,0
4048117,416.89,632,747,0
4048128,421.30,632,750,0
4048137,426.31,632,747,0
4048147,433.07,632,750,0
4048157,440.64,632,747,0
4048167,449.92,632,750,0
4048177,459.76,632,747,0
4048196,470.76,653,746,0
4048199,481.67,653,747,0
4048208,493.00,653,750,0
4048218,503.29,653,747,0
4048228,512.71,653,750,0
4048238,520.30,653,747,0
4048248,526.34,653,750,0
4048258,530.01,653,747,0
4048268,531.85,653,750,0
4048278,531.17,653,746,0
4048288,528.63,653,750,0
4048299,524.24,653,747,0
4048308,518.73,653,750,0
4048318,512.21,653,746,0
4048328,505.37,653,750,0
4048338,498.06,653,747,0
4048348,491.14,653,750,0
4048358,484.29,653,746,0
4048368,477.99,653,750,0
4048378,471.90,653,747,0
4048388,466.40,653,750,0
4048398,461.10,653,747,0
4048408,456.35,653,750,0
4048418,452.05,653,747,0
4048428,448.52,653,750,0
4048438,445.15,653,746,0
4048448,442.36,653,750,0
4048458,439.81,653,747,0
4048468,437.64,653,750,0
4048478,435.56,653,746,0
4048488,433.64,653,750,0
4048498,431.95,653,747,0
4048508,430.80,653,750,0
4048518,429.71,653,747,0
4048528,428.94,653,750,0
4048538,428.36,653,747,0
4048548,427.99,653,750,0
4048558,427.48,653,747,0
4048568,427.04,653,750,0
4048578,426.47,653,747,0
4048588,425.81,653,750,0
4048599,424.88,653,746,0
4048609,423.85,653,750,0
4048619,422.91,653,747,0
4048629,421.86,653,750,0
4048640,420.70,653,747,0
4048649,419.51,653,750,0
4048659,418.80,653,747,0
4048669,418.09,653,750,0
4048679,417.63,653,747,0
4048689,416.97,653,750,0
4048699,416.47,653,747,0
4048709,415.64,653,750,0
4048719,414.93,653,747,0
4048729,413.97,653,750,0
4048739,413.38,653,747,0
4048749,413.09,653,750,0
4048759,414.01,653,747,0
4048769,416.11,653,750,0
4048779,420.15,653,747,0
4048789,425.93,653,750,0
4048799,433.97,653,747,0
4048809,443.70,653,749,0
4048819,455.28,653,747,0
4048838,467.92,642,746,0
4048841,481.53,642,748,0
4048850,494.96,642,749,0
4048860,508.21,642,748,0
4048870,519.81,642,749,0
4048880,530.28,642,748,0
4048890,538.12,642,749,0
4048900,543.74,642,748,0
4048910,546.73,642,749,0
4048920,547.54,642,748,0
4048930,545.24,642,749,0
4048940,541.27,642,748,0
4048950,535.14,642,749,0
4048960,528.41,642,748,0
4048970,520.32,642,749,0
4048980,511.87,642,748,0
4048990,502.82,642,749,0
4049000,494.56,642,748,0
4049010,486.29,642,749,0
4049020,479.09,642,748,0
4049030,472.08,642,749,0
4049040,466.14,642,748,0
4049050,460.40,642,748,0
4049060,456.04,642,748,0
4049070,451.91,642,749,0
4049080,448.98,642,748,0
4049090,445.94,642,749,0
4049100,443.99,642,748,0
4049111,442.19,642,749,0
4049121,441.32,642,748,0
4049131,439.98,642,748,0
4049141,439.39,642,748,0
4049152,438.20,642,749,0
4049161,437.71,642,748,0
4049171,436.38,642,748,0
4049181,435.54,642,748,0
4049191,433.96,642,749,0
4049201,432.86,642,748,0
4049211,430.85,642,748,0
4049221,429.39,642,748,0
4049231,426.96,642,749,0
4049241,425.30,642,748,0
4049251,422.90,642,748,0
4049261,421.26,642,748,0
4049271,418.86,642,749,0
4049281,417.23,642,748,0
4049291,414.85,642,748,0
4049301,413.31,642,748,0
4049311,410.94,642,749,0
4049321,409.29,642,748,0
4049331,407.06,642,748,0
4049341,405.84,642,748,0
4049351,404.22,642,749,0
4049361,403.94,642,748,0
4049371,403.61,642,748,0
4049381,405.06,642,748,0
4049391,407.23,642,749,0
4049401,411.79,642,749,0
4049411,417.34,642,749,0
4049421,425.46,642,748,0
4049431,434.63,642,749,0
4049441,446.27,642,749,0
4049452,458.40,642,748,0
4049462,471.99,642,749,0
4049472,484.68,642,748,0
4049482,497.76,642,749,0
4049502,508.98,663,748,0
4049505,519.27,663,751,0
4049514,527.07,663,748,0
4049524,533.40,663,750,0
4049534,536.49,663,747,0
4049544,538.36,663,750,0
4049554,537.05,663,748,0
4049564,534.55,663,750,0
4049574,529.50,663,747,0
4049584,523.52,663,750,0
4049594,515.65,663,748,0
4049604,507.78,663,750,0
4049614,498.29,663,747,0
4049624,489.46,663,750,0
4049634,479.94,663,748,0
4049644,471.64,663,750,0
4049654,463.01,663,747,0
4049665,455.93,663,750,0
4049675,448.92,663,747,0
4049685,443.72,663,750,0
4049695,438.96,663,747,0
4049705,435.71,663,750,0
4049715,432.46,663,747,0
4049725,430.52,663,750,0
4049735,428.39,663,747,0
4049745,427.42,663,750,0
4049755,426.01,663,747,0
4049765,425.15,663,750,0
4049775,423.77,663,747,0
4049785,423.11,663,750,0
4049795,421.84,663,747,0
4049805,421.11,663,750,0
4049815,419.49,663,747,0
4049825,418.32,663,750,0
4049836,416.42,663,747,0
4049846,415.01,663,750,0
4049856,412.99,663,747,0
4049866,411.28,663,750,0
4049876,409.01,663,747,0
4049886,407.51,663,750,0
4049896,405.73,663,747,0
4049906,404.57,663,750,0
4049916,403.24,663,747,0
4049926,402.65,663,750,0
4049936,402.11,663,747,0
4049946,402.08,663,750,0
4049956,401.76,663,747,0
4049966,401.96,663,750,0
4049976,401.97,663,747,0
4049986,402.45,663,750,0
4049996,402.92,663,747,0
4050007,404.36,663,750,0
4050017,406.52,663,747,0
4050027,410.18,663,750,0
4050037,415.01,663,747,0
4050048,421.52,663,750,0
4050057,429.25,663,747,0
4050067,438.56,663,750,0
4050077,448.72,663,747,0
4050087,459.61,663,750,0
4050097,470.22,663,747,0
4050107,480.53,663,750,0
4050126,489.84,625,749,0
4050129,497.47,625,750,0
4050138,503.50,625,747,0
4050148,507.68,625,750,0
4050158,510.01,625,747,0
4050168,510.48,625,749,0
4050178,509.05,625,747,0
4050188,505.95,625,749,0
4050198,501.89,625,747,0
4050208,496.14,625,749,0
4050219,489.41,625,747,0
4050228,481.70,625,749,0
4050238,473.78,625,747,0
4050248,465.53,625,749,0
4050258,457.87,625,748,0
4050268,450.54,625,749,0
4050278,444.08,625,747,0
4050288,438.10,625,750,0
4050298,432.97,625,748,0
4050308,428.22,625,749,0
4050318,424.17,625,747,0
4050328,420.18,625,750,0
4050338,416.82,625,747,0
4050348,413.79,625,749,0
4050358,411.45,625,747,0
4050368,409.52,625,750,0
4050378,408.38,625,747,0
4050388,407.41,625,749,0
4050398,407.03,625,747,0
4050408,406.63,625,750,0
4050418,406.57,625,747,0
4050428,406.19,625,749,0
4050438,405.66,625,747,0
4050448,404.60,625,749,0
4050458,403.57,625,747,0
4050468,401.98,625,749,0
4050478,400.53,625,747,0
4050488,398.87,625,750,0
4050498,397.58,625,747,0
4050508,396.25,625,749,0
4050519,395.40,625,747,0
4050529,394.47,625,749,0
4050539,394.11,625,748,0
4050549,393.44,625,749,0
4050560,393.05,625,748,0
4050569,392.18,625,749,0
4050579,391.65,625,748,0
4050589,390.60,625,749,0
4050599,390.33,625,748,0
4050609,389.89,625,749,0
4050619,390.61,625,748,0
4050629,391.76,625,749,0
4050639,394.70,625,748,0
4050649,398.48,625,749,0
4050659,404.29,625,748,0
4050669,410.80,625,749,0
4050679,419.18,625,748,0
4050689,427.87,625,749,0
4050699,437.59,625,748,0
4050709,446.84,625,749,0
4050728,456.23,602,748,0
4050732,464.05,602,748,0
4050740,471.75,602,748,0
4050750,477.57,602,749,0
4050760,482.67,602,748,0
4050770,485.51,602,749,0
4050780,487.33,602,748,0
4050790,486.97,602,749,0
4050800,486.08,602,748,0
4050810,482.71,602,748,0
4050820,478.77,602,748,0
4050830,473.05,602,749,0
4050840,467.60,602,748,0
4050850,460.90,602,749,0
4050860,454.76,602,748,0
4050870,447.89,602,749,0
4050880,442.01,602,748,0
4050890,435.58,602,749,0
4050900,430.26,602,748,0
4050910,424.61,602,749,0
4050920,420.23,602,748,0
4050930,415.70,602,749,0
4050940,412.79,602,749,0
4050950,410.03,602,749,0
4050960,408.82,602,748,0
4050970,407.33,602,749,0
4050980,406.85,602,748,0
4050990,405.95,602,749,0
4051000,405.96,602,748,0
4051010,404.95,602,749,0
4051020,404.49,602,749,0
4051031,403.02,602,748,0
4051041,402.45,602,749,0
4051051,401.12,602,748,0
4051061,400.65,602,749,0
4051072,399.30,602,748,0
4051081,398.95,602,748,0
4051091,397.94,602,748,0
4051101,397.91,602,749,0
4051111,397.00,602,748,0
4051121,396.91,602,748,0
4051131,395.91,602,748,0
4051141,395.77,602,750,0
4051151,394.46,602,748,0
4051161,393.85,602,749,0
4051171,392.27,602,748,0
4051181,391.50,602,749,0
4051191,389.89,602,748,0
4051201,389.20,602,748,0
4051211,387.90,602,748,0
4051221,388.01,602,749,0
4051231,387.84,602,748,0
4051241,389.56,602,749,0
4051251,391.70,602,748,0
4051261,396.34,602,749,0
4051271,401.64,602,748,0
4051281,409.24,602,749,0
4051291,417.14,602,748,0
4051301,426.70,602,749,0
4051311,435.62,602,748,0
4051331,445.33,602,746,0
4051334,453.76,602,748,0
4051343,462.49,602,750,0
4051353,469.03,602,748,0
4051363,474.85,602,749,0
4051373,478.11,602,747,0
4051383,480.56,602,750,0
4051393,480.44,602,747,0
4051403,479.19,602,749,0
4051414,475.36,602,747,0
4051423,471.44,602,750,0
4051433,465.95,602,747,0
4051443,460.78,602,749,0
4051453,454.55,602,747,0
4051463,449.11,602,750,0
4051473,443.12,602,747,0
4051483,438.28,602,749,0
4051493,432.93,602,747,0
4051503,428.88,602,750,0
4051513,424.63,602,747,0
4051523,421.78,602,750,0
4051533,418.59,602,747,0
4051543,416.66,602,750,0
4051553,414.19,602,747,0
4051563,412.80,602,749,0
4051573,410.98,602,747,0
4051584,410.08,602,750,0
4051593,408.56,602,748,0
4051603,407.96,602,750,0
4051613,406.73,602,747,0
4051623,406.30,602,750,0
4051633,405.18,602,747,0
4051643,404.78,602,750,0
4051653,403.65,602,747,0
4051663,403.24,602,750,0
4051673,402.10,602,747,0
4051683,401.72,602,750,0
4051693,400.69,602,747,0
4051703,400.44,602,750,0
4051713,399.41,602,747,0
4051723,399.33,602,750,0
4051733,398.59,602,747,0
4051743,398.54,602,750,0
4051753,397.44,602,747,0
4051763,397.05,602,749,0
4051773,395.96,602,747,0
4051783,395.76,602,750,0
4051793,394.85,602,747,0
4051803,394.68,602,749,0
4051813,393.92,602,747,0
4051823,394.50,602,750,0
4051833,395.12,602,747,0
4051843,397.36,602,749,0
4051853,399.61,602,747,0
4051863,403.54,602,749,0
4051873,407.83,602,747,0
4051884,413.80,602,749,0
4051894,419.86,602,747,0
4051904,426.84,602,749,0
4051914,433.11,602,747,0
4051934,439.93,603,745,0
4051937,446.08,603,748,0
4051946,452.14,603,749,0
4051956,457.07,603,747,0
4051966,461.08,603,749,0
4051976,463.80,603,746,0
4051986,465.83,603,750,0
4051996,466.48,603,747,0
4052006,465.87,603,749,0
4052016,463.85,603,746,0
4052026,460.85,603,750,0
4052036,457.04,603,747,0
4052046,452.36,603,749,0
4052056,446.98,603,746,0
4052066,441.24,603,750,0
4052076,435.51,603,747,0
4052086,429.92,603,749,0
4052097,424.84,603,746,0
4052107,420.26,603,750,0
4052117,416.45,603,747,0
4052127,413.19,603,749,0
4052137,410.78,603,747,0
4052147,408.70,603,750,0
4052157,407.29,603,747,0
4052167,405.79,603,749,0
4052177,404.99,603,747,0
4052187,404.18,603,749,0
4052197,403.78,603,747,0
4052207,402.99,603,749,0
4052217,402.48,603,747,0
4052227,401.78,603,749,0
4052237,401.42,603,747,0
4052247,400.56,603,749,0
4052257,400.14,603,747,0
4052268,399.37,603,749,0
4052278,399.26,603,748,0
4052288,398.92,603,749,0
4052298,399.12,603,747,0
4052308,398.78,603,749,0
4052318,398.72,603,748,0
4052328,397.95,603,749,0
4052338,397.75,603,747,0
4052348,396.88,603,749,0
4052358,396.53,603,748,0
4052368,395.60,603,749,0
4052378,395.63,603,747,0
4052388,395.53,603,749,0
4052398,396.53,603,748,0
4052408,397.27,603,749,0
4052418,399.03,603,747,0
4052428,400.78,603,749,0
4052439,403.93,603,748,0
4052449,407.25,603,749,0
4052459,411.98,603,748,0
4052469,416.35,603,748,0
4052480,421.69,603,748,0
4052489,426.54,603,749,0
4052508,431.91,575,747,0
4052511,436.09,575,748,0
4052520,440.61,575,749,0
4052530,443.38,575,748,0
4052540,446.31,575,749,0
4052550,447.80,575,748,0
4052560,449.53,575,749,0
4052570,449.72,575,748,0
4052580,449.80,575,749,0
4052590,447.80,575,748,0
4052600,446.02,575,749,0
4052610,442.76,575,748,0
4052620,439.70,575,748,0
4052630,435.25,575,748,0
4052640,431.79,575,749,0
4052651,427.65,575,748,0
4052660,424.80,575,749,0
4052670,421.39,575,748,0
4052680,419.17,575,749,0
4052690,416.51,575,748,0
4052700,415.03,575,749,0
4052710,412.66,575,748,0
4052720,411.31,575,749,0
4052730,409.16,575,748,0
4052740,408.08,575,749,0
4052750,406.26,575,748,0
4052760,405.41,575,749,0
4052770,403.74,575,748,0
4052780,403.05,575,749,0
4052790,401.58,575,748,0
4052800,401.23,575,749,0
4052810,400.18,575,748,0
4052820,400.12,575,749,0
4052830,399.23,575,748,0
4052840,399.59,575,749,0
4052850,399.20,575,748,0
4052860,400.04,575,749,0
4052870,399.81,575,748,0
4052880,400.34,575,749,0
4052890,399.94,575,748,0
4052900,400.30,575,749,0
4052910,399.48,575,748,0
4052920,399.42,575,749,0
4052930,398.14,575,747,0
4052940,397.75,575,749,0
4052951,396.80,575,747,0
4052961,397.25,575,749,0
4052971,397.39,575,747,0
4052981,398.81,575,749,0
4052992,399.73,575,747,0
4053001,402.12,575,749,0
4053011,404.70,575,747,0
4053021,408.82,575,749,0
4053031,412.47,575,747,0
4053041,417.35,575,749,0
4053051,421.66,575,748,0
4053061,427.24,575,749,0
4053071,431.93,575,747,0
4053090,436.96,582,746,0
4053093,440.66,582,747,0
4053102,444.96,582,749,0
4053112,448.10,582,747,0
4053122,451.59,582,749,0
4053132,453.47,582,747,0
4053142,455.64,582,750,0
4053152,456.35,582,746,0
4053163,457.32,582,750,0
4053172,456.58,582,747,0
4053182,455.72,582,749,0
4053192,453.40,582,746,0
4053202,451.31,582,749,0
4053212,447.96,582,747,0
4053222,445.02,582,750,0
4053232,440.85,582,746,0
4053242,437.21,582,750,0
4053252,432.91,582,747,0
4053262,429.59,582,750,0
4053272,425.86,582,746,0
4053282,423.16,582,750,0
4053292,420.20,582,747,0
4053302,418.59,582,750,0
4053312,416.70,582,747,0
4053322,415.85,582,749,0
4053332,414.61,582,747,0
4053342,414.43,582,750,0
4053352,413.57,582,747,0
4053362,413.36,582,749,0
4053372,412.39,582,747,0
4053382,412.10,582,749,0
4053392,411.17,582,747,0
4053402,410.82,582,749,0
4053412,409.72,582,747,0
4053422,409.46,582,749,0
4053432,408.55,582,747,0
4053442,408.43,582,749,0
4053452,407.79,582,747,0
4053463,407.85,582,749,0
4053473,407.38,582,747,0
4053483,407.57,582,749,0
4053493,407.14,582,746,0
4053504,407.35,582,750,0
4053513,406.91,582,747,0
4053523,407.02,582,749,0
4053533,406.71,582,747,0
4053543,406.93,582,750,0
4053553,406.61,582,747,0
4053563,406.81,582,749,0
4053573,406.70,582,747,0
4053583,407.17,582,750,0
4053593,407.42,582,746,0
4053603,408.67,582,750,0
4053613,410.05,582,747,0
4053623,412.39,582,750,0
4053633,414.85,582,747,0
4053643,418.32,582,749,0
4053653,422.00,582,747,0
4053663,426.63,582,750,0
4053673,430.90,582,746,0
4053692,435.68,602,745,0
4053695,440.41,602,747,0
4053704,445.64,602,750,0
4053714,450.42,602,747,0
4053724,455.27,602,750,0
4053734,459.21,602,746,0
4053744,462.79,602,750,0
4053754,465.34,602,747,0
4053764,467.25,602,749,0
4053774,467.95,602,747,0
4053784,467.88,602,750,0
4053794,466.71,602,747,0
4053804,465.04,602,749,0
4053814,462.50,602,746,0
4053824,459.48,602,750,0
4053834,455.95,602,747,0
4053844,452.28,602,749,0
4053854,448.34,602,747,0
4053864,444.47,602,750,0
4053874,440.51,602,747,0
4053884,436.84,602,749,0
4053894,433.33,602,747,0
4053904,430.10,602,750,0
4053914,427.16,602,747,0
4053924,424.67,602,749,0
4053934,422.41,602,747,0
4053944,420.74,602,750,0
4053954,419.79,602,747,0
4053964,419.38,602,749,0
4053975,419.23,602,747,0
4053985,419.29,602,750,0
4053995,419.50,602,747,0
4054005,419.65,602,749,0
4054016,419.84,602,747,0
4054025,419.63,602,750,0
4054035,419.23,602,747,0
4054045,418.60,602,749,0
4054055,418.12,602,747,0
4054065,417.49,602,750,0
4054075,417.43,602,747,0
4054085,417.08,602,749,0
4054095,416.76,602,747,0
4054105,416.19,602,750,0
4054115,415.49,602,747,0
4054125,414.27,602,749,0
4054135,413.20,602,747,0
4054145,411.94,602,750,0
4054155,411.02,602,748,0
4054165,410.07,602,749,0
4054175,409.88,602,748,0
4054185,410.09,602,750,0
4054195,411.17,602,748,0
4054205,412.66,602,750,0
4054215,414.78,602,747,0
4054225,417.33,602,750,0
4054235,421.13,602,747,0
4054245,425.55,602,750,0
4054255,431.17,602,747,0
4054265,437.25,602,750,0
4054284,443.99,592,749,0
4054287,450.72,592,750,0
4054296,458.30,592,748,0
4054306,464.98,592,749,0
4054316,470.99,592,748,0
4054326,475.49,592,749,0
4054336,479.20,592,748,0
4054346,481.28,592,749,0
4054356,482.40,592,748,0
4054366,481.25,592,749,0
4054376,479.50,592,748,0
4054386,476.35,592,749,0
4054396,473.25,592,748,0
4054406,469.23,592,749,0
4054416,465.39,592,748,0
4054426,460.77,592,749,0
4054436,456.64,592,748,0
4054446,452.08,592,749,0
4054456,448.37,592,748,0
4054466,444.19,592,749,0
4054476,440.92,592,748,0
4054487,437.56,592,749,0
4054497,435.42,592,748,0
4054507,433.06,592,749,0
4054517,431.76,592,748,0
4054528,429.90,592,748,0
4054537,429.03,592,748,0
4054547,427.57,592,749,0
4054557,427.05,592,748,0
4054567,425.92,592,749,0
4054577,425.56,592,748,0
4054587,424.58,592,749,0
4054597,424.70,592,748,0
4054607,423.98,592,749,0
4054617,423.86,592,748,0
4054627,422.53,592,749,0
4054637,421.56,592,748,0
4054647,419.67,592,749,0
4054657,418.14,592,748,0
4054667,415.66,592,749,0
4054677,413.96,592,748,0
4054687,411.74,592,749,0
4054697,410.71,592,748,0
4054707,409.29,592,749,0
4054717,408.99,592,748,0
4054727,408.48,592,748,0
4054737,409.41,592,748,0
4054747,410.27,592,749,0
4054757,412.55,592,748,0
4054767,414.78,592,749,0
4054777,418.79,592,748,0
4054787,423.05,592,749,0
4054797,429.21,592,748,0
4054807,435.40,592,748,0
4054817,443.13,592,748,0
4054828,450.63,592,748,0
4054838,459.83,592,749,0
4054848,468.66,592,748,0
4054867,478.28,583,746,0
4054871,486.60,583,749,0
4054879,495.16,583,749,0
4054889,501.63,583,748,0
4054899,507.48,583,749,0
4054909,510.55,583,747,0
4054919,512.74,583,749,0
4054929,512.39,583,747,0
4054939,511.29,583,748,0
4054949,507.77,583,747,0
4054959,504.37,583,749,0
4054969,499.37,583,747,0
4054979,494.68,583,749,0
4054989,488.60,583,747,0
4054999,483.41,583,749,0
4055009,477.33,583,748,0
4055019,472.13,583,749,0
4055029,466.00,583,747,0
4055040,461.03,583,749,0
4055049,455.45,583,748,0
4055059,451.42,583,749,0
4055069,446.96,583,748,0
4055079,443.89,583,750,0
4055089,440.32,583,748,0
4055099,438.08,583,749,0
4055109,435.36,583,748,0
4055119,433.92,583,750,0
4055129,431.50,583,748,0
4055139,429.89,583,749,0
4055149,427.61,583,748,0
4055159,426.66,583,750,0
4055169,425.17,583,748,0
4055179,424.82,583,749,0
4055189,423.89,583,748,0
4055199,424.05,583,750,0
4055209,423.44,583,748,0
4055219,423.48,583,749,0
4055229,422.26,583,748,0
4055239,421.45,583,749,0
4055249,419.52,583,748,0
4055259,418.46,583,750,0
4055269,416.48,583,748,0
4055279,415.31,583,750,0
4055289,413.24,583,748,0
4055299,412.10,583,749,0
4055309,410.14,583,748,0
4055319,409.07,583,749,0
4055329,406.95,583,747,0
4055340,406.28,583,750,0
4055350,405.85,583,747,0
4055360,407.61,583,750,0
4055370,410.04,583,747,0
4055380,414.96,583,750,0
4055390,420.63,583,747,0
4055400,428.45,583,750,0
4055410,436.50,583,747,0
4055420,445.91,583,750,0
4055430,454.68,583,747,0
4055440,463.99,583,750,0
4055450,472.26,583,747,0
4055470,480.84,602,746,0
4055473,488.05,602,748,0
4055482,494.85,602,750,0
4055492,499.74,602,747,0
4055502,503.84,602,750,0
4055512,506.25,602,747,0
4055522,507.67,602,750,0
4055532,506.96,602,747,0
4055542,505.04,602,750,0
4055553,500.91,602,747,0
4055563,495.28,602,750,0
4055573,488.38,602,747,0
4055583,480.51,602,750,0
4055593,471.83,602,747,0
4055603,463.18,602,750,0
4055613,454.86,602,747,0
4055623,447.61,602,750,0
4055633,441.60,602,747,0
4055643,436.66,602,750,0
4055653,432.65,602,747,0
4055663,429.41,602,750,0
4055673,426.80,602,746,0
4055683,424.68,602,750,0
4055693,422.84,602,747,0
4055703,421.52,602,750,0
4055713,420.51,602,746,0
4055724,419.71,602,750,0
4055734,419.28,602,747,0
4055744,418.94,602,749,0
4055754,419.00,602,747,0
4055764,418.83,602,749,0
4055774,418.45,602,747,0
4055784,417.59,602,749,0
4055794,416.85,602,747,0
4055804,415.61,602,749,0
4055814,414.49,602,747,0
4055824,412.63,602,749,0
4055834,410.98,602,747,0
4055844,408.93,602,749,0
4055854,407.19,602,747,0
4055864,405.21,602,749,0
4055874,403.82,602,747,0
4055884,402.16,602,749,0
4055895,401.30,602,748,0
4055905,400.39,602,749,0
4055915,400.36,602,747,0
4055925,400.12,602,749,0
4055936,400.64,602,748,0
4055945,400.88,602,749,0
4055955,401.94,602,747,0
4055965,402.52,602,749,0
4055975,404.21,602,748,0
4055985,405.86,602,749,0
4055995,408.81,602,747,0
4056005,411.74,602,749,0
4056015,415.93,602,748,0
4056025,420.15,602,749,0
4056035,425.81,602,747,0
4056045,431.09,602,748,0
4056055,437.54,602,748,0
4056065,443.59,602,749,0
4056075,450.10,602,747,0
4056085,455.64,602,749,0
4056095,461.15,602,748,0
4056105,464.88,602,748,0
4056115,468.13,602,747,0
4056134,469.55,665,747,0
4056137,470.80,665,750,0
4056146,470.81,665,748,0
4056156,470.53,665,748,0
4056166,468.61,665,748,0
4056176,466.89,665,748,0
4056186,463.88,665,748,0
4056196,460.83,665,748,0
4056206,456.17,665,749,0
4056216,451.49,665,748,0
4056226,445.77,665,748,0
4056236,440.70,665,748,0
4056246,434.70,665,748,0
4056256,429.86,665,748,0
4056266,424.59,665,748,0
4056276,420.86,665,748,0
4056286,417.13,665,748,0
4056296,415.07,665,748,0
4056306,413.08,665,748,0
4056316,412.71,665,749,0
4056326,412.03,665,749,0
4056336,412.41,665,748,0
4056346,412.11,665,748,0
4056356,412.64,665,749,0
4056366,412.32,665,749,0
4056376,412.78,665,748,0
4056386,412.12,665,748,0
4056396,412.12,665,749,0
4056407,411.27,665,748,0
4056417,411.06,665,749,0
4056427,409.89,665,748,0
4056437,409.45,665,749,0
4056448,407.99,665,748,0
4056457,407.56,665,749,0
4056467,406.15,665,748,0
4056477,405.68,665,749,0
4056487,404.45,665,748,0
4056497,404.35,665,749,0
4056507,403.56,665,748,0
4056517,403.65,665,749,0
4056527,402.73,665,748,0
4056537,402.77,665,749,0
4056547,401.85,665,748,0
4056557,402.02,665,749,0
4056567,401.42,665,748,0
4056577,401.89,665,749,0
4056587,402.05,665,748,0
4056597,403.79,665,749,0
4056607,405.48,665,747,0
4056617,409.02,665,749,0
4056627,412.49,665,748,0
4056637,417.70,665,749,0
4056647,422.98,665,747,0
4056657,430.18,665,749,0
4056676,436.99,542,748,0
4056679,444.70,542,750,0
4056688,451.78,542,747,0
4056698,459.22,542,750,0
4056708,464.72,542,748,0
4056718,469.73,542,749,0
4056728,472.26,542,747,0
4056738,474.41,542,750,0
4056748,474.41,542,748,0
4056758,473.73,542,749,0
4056768,471.07,542,747,0
4056778,468.48,542,749,0
4056788,464.39,542,747,0
4056798,460.55,542,749,0
4056808,455.41,542,747,0
4056818,451.04,542,750,0
4056828,445.72,542,747,0
4056838,441.30,542,749,0
4056848,436.33,542,747,0
4056858,432.71,542,750,0
4056868,428.73,542,747,0
4056878,426.45,542,750,0
4056888,423.96,542,748,0
4056898,422.73,542,750,0
4056908,420.97,542,748,0
4056919,420.25,542,750,0
4056929,418.67,542,747,0
4056939,417.96,542,750,0
4056949,416.17,542,747,0
4056960,415.05,542,750,0
4056969,413.32,542,747,0
4056979,412.41,542,750,0
4056989,410.87,542,747,0
4056999,410.27,542,750,0
4057009,409.37,542,747,0
4057019,409.48,542,750,0
4057029,409.16,542,747,0
4057039,409.63,542,750,0
4057049,409.65,542,747,0
4057059,410.49,542,750,0
4057069,410.55,542,747,0
4057079,410.86,542,750,0
4057089,410.22,542,747,0
4057099,410.19,542,750,0
4057109,409.45,542,747,0
4057119,409.27,542,750,0
4057129,408.16,542,747,0
4057139,407.77,542,750,0
4057149,407.24,542,747,0
4057159,408.02,542,750,0
4057169,408.83,542,747,0
4057179,411.20,542,750,0
4057189,414.27,542,747,0
4057199,419.37,542,750,0
4057209,425.26,542,747,0
4057219,432.90,542,750,0
4057229,440.43,542,747,0
4057239,449.09,542,750,0
4057259,457.25,582,749,0
4057262,465.31,582,751,0
4057271,472.85,582,747,0
4057281,480.01,582,750,0
4057291,485.66,582,747,0
4057302,490.35,582,750,0
4057311,493.24,582,747,0
4057321,495.19,582,750,0
4057331,495.64,582,747,0
4057341,494.51,582,750,0
4057351,491.87,582,747,0
4057361,488.74,582,750,0
4057371,485.30,582,747,0
4057381,481.31,582,750,0
4057391,476.85,582,747,0
4057401,472.18,582,750,0
4057411,467.37,582,747,0
4057421,462.71,582,750,0
4057431,457.91,582,747,0
4057441,453.35,582,750,0
4057451,449.31,582,747,0
4057461,445.61,582,750,0
4057472,442.52,582,747,0
4057481,439.92,582,750,0
4057491,437.89,582,747,0
4057501,436.21,582,750,0
4057511,434.69,582,747,0
4057521,433.37,582,750,0
4057531,432.06,582,747,0
4057541,430.88,582,750,0
4057551,429.89,582,747,0
4057561,429.02,582,750,0
4057571,428.07,582,747,0
4057581,426.94,582,750,0
4057591,425.93,582,747,0
4057601,425.26,582,750,0
4057611,424.58,582,747,0
4057621,424.11,582,750,0
4057631,423.56,582,747,0
4057641,423.01,582,750,0
4057651,422.49,582,747,0
4057661,421.57,582,750,0
4057671,420.37,582,747,0
4057681,418.93,582,750,0
4057691,417.28,582,747,0
4057701,415.70,582,750,0
4057711,414.46,582,747,0
4057721,413.76,582,750,0
4057731,413.92,582,747,0
4057741,415.10,582,750,0
4057751,417.51,582,747,0
4057761,421.35,582,750,0
4057772,427.07,582,747,0
4057782,434.72,582,749,0
4057792,444.58,582,748,0
4057802,456.02,582,750,0
4057812,469.04,582,748,0
4057831,482.96,573,746,0
4057834,497.37,573,749,0
4057843,511.40,573,749,0
4057853,524.82,573,748,0
4057863,536.19,573,749,0
4057873,546.08,573,748,0
4057883,553.38,573,749,0
4057893,558.97,573,748,0
4057903,562.11,573,749,0
4057913,563.53,573,748,0
4057923,562.30,573,749,0
4057933,559.98,573,748,0
4057943,555.70,573,749,0
4057953,550.78,573,748,0
4057963,544.24,573,749,0
4057973,537.53,573,748,0
4057984,529.87,573,749,0
4057993,522.84,573,748,0
4058003,515.17,573,749,0
4058013,508.09,573,748,0
4058023,500.61,573,749,0
4058033,494.00,573,748,0
4058043,487.14,573,749,0
4058053,481.40,573,748,0
4058063,475.54,573,749,0
4058073,471.05,573,748,0
4058083,466.75,573,749,0
4058093,463.95,573,748,0
4058103,461.39,573,749,0
4058113,460.25,573,748,0
4058123,458.89,573,749,0
4058133,458.58,573,748,0
4058143,457.68,573,749,0
4058153,457.60,573,748,0
4058163,456.78,573,749,0
4058173,456.42,573,748,0
4058183,455.13,573,749,0
4058193,454.11,573,748,0
4058203,452.23,573,749,0
4058213,450.88,573,748,0
4058223,448.56,573,749,0
4058233,446.80,573,748,0
4058243,444.33,573,749,0
4058253,442.52,573,748,0
4058263,440.14,573,749,0
4058273,438.42,573,748,0
4058284,436.11,573,749,0
4058294,434.62,573,748,0
4058304,432.33,573,748,0
4058314,430.91,573,748,0
4058324,429.18,573,748,0
4058334,429.08,573,749,0
4058344,428.93,573,749,0
4058354,430.45,573,748,0
4058364,432.20,573,748,0
4058374,436.38,573,748,0
4058384,441.84,573,749,0
4058394,450.42,573,748,0
4058404,460.49,573,749,0
4058414,473.97,573,748,0
4058424,489.20,573,749,0
4058434,507.57,573,748,0
4058454,526.85,622,748,0
4058457,547.94,622,750,0
4058466,568.31,622,748,0
4058476,588.45,622,749,0
4058486,605.89,622,748,0
4058497,621.56,622,750,0
4058507,633.48,622,748,0
4058517,642.85,622,749,0
4058527,647.61,622,747,0
4058537,649.61,622,750,0
4058547,647.67,622,747,0
4058557,643.78,622,750,0
4058567,636.56,622,747,0
4058577,627.82,622,750,0
4058587,616.56,622,748,0
4058597,604.99,622,749,0
4058607,591.50,622,747,0
4058617,578.06,622,750,0
4058627,563.47,622,747,0
4058637,549.96,622,749,0
4058647,536.30,622,747,0
4058657,524.34,622,750,0
4058668,512.75,622,747,0
4058678,503.53,622,749,0
4058688,495.23,622,747,0
4058698,489.24,622,750,0
4058708,484.28,622,747,0
4058718,481.67,622,749,0
4058728,479.63,622,747,0
4058738,479.22,622,750,0
4058748,478.81,622,747,0
4058758,479.38,622,749,0
4058768,479.44,622,747,0
4058778,479.57,622,750,0
4058788,478.58,622,747,0
4058798,477.59,622,749,0
4058808,475.31,622,747,0
4058818,472.99,622,750,0
4058828,469.52,622,747,0
4058839,466.15,622,750,0
4058849,462.21,622,747,0
4058859,458.59,622,750,0
4058869,454.68,622,747,0
4058880,451.22,622,749,0
4058889,447.38,622,747,0
4058899,444.10,622,750,0
4058909,440.77,622,747,0
4058919,438.18,622,750,0
4058929,435.77,622,747,0
4058939,434.08,622,750,0
4058949,433.07,622,747,0
4058959,433.22,622,750,0
4058969,434.70,622,747,0
4058979,438.56,622,750,0
4058989,444.91,622,747,0
4058999,454.79,622,750,0
4059009,467.97,622,747,0
4059019,485.38,622,751,0
4059029,506.39,622,747,0
4059039,530.53,622,750,0
4059059,556.43,605,749,0
4059062,582.92,605,750,0
4059071,609.25,605,748,0
4059081,633.82,605,749,0
4059091,655.47,605,748,0
4059101,673.46,605,750,0
4059111,687.17,605,748,0
4059121,696.07,605,749,0
4059131,700.47,605,748,0
4059141,699.60,605,750,0
4059151,694.70,605,748,0
4059161,685.24,605,750,0
4059171,672.44,605,748,0
4059181,656.49,605,750,0
4059191,638.56,605,748,0
4059201,618.55,605,749,0
4059211,597.73,605,748,0
4059222,576.12,605,749,0
4059231,555.17,605,748,0
4059241,534.93,605,749,0
4059251,516.44,605,748,0
4059261,499.47,605,749,0
4059271,485.40,605,748,0
4059281,473.54,605,749,0
4059291,464.80,605,748,0
4059301,458.22,605,749,0
4059311,453.82,605,748,0
4059321,450.79,605,749,0
4059331,449.53,605,747,0
4059341,448.51,605,749,0
4059351,448.19,605,748,0
4059361,447.32,605,749,0
4059371,446.66,605,747,0
4059381,445.39,605,749,0
4059392,444.16,605,748,0
4059401,442.10,605,749,0
4059411,440.01,605,747,0
4059421,437.14,605,749,0
4059431,434.48,605,748,0
4059441,431.17,605,749,0
4059451,428.07,605,747,0
4059461,424.28,605,749,0
4059471,421.02,605,748,0
4059481,417.42,605,749,0
4059491,414.25,605,747,0
4059501,410.70,605,749,0
4059511,407.62,605,748,0
4059521,404.22,605,749,0
4059531,401.54,605,747,0
4059541,398.51,605,749,0
4059551,396.30,605,747,0
4059561,394.07,605,749,0
4059571,393.02,605,747,0
4059581,392.71,605,749,0
4059591,394.68,605,747,0
4059601,398.59,605,748,0
4059611,405.87,605,747,0
4059621,416.41,605,749,0
4059631,431.76,605,747,0
4059641,450.82,605,748,0
4059651,474.23,605,747,0
4059661,500.39,605,749,0
4059671,528.86,605,747,0
4059691,557.40,632,746,0
4059694,585.52,632,749,0
4059703,610.87,632,748,0
4059713,633.49,632,749,0
4059723,650.96,632,748,0
4059734,663.44,632,748,0
4059743,669.48,632,748,0
4059753,670.24,632,748,0
4059763,664.21,632,748,0
4059773,653.26,632,748,0
4059783,637.28,632,748,0
4059793,618.64,632,748,0
4059803,596.76,632,748,0
4059813,574.08,632,749,0
4059823,550.65,632,748,0
4059833,528.99,632,749,0
4059843,507.56,632,748,0
4059853,487.64,632,749,0
4059863,468.12,632,748,0
4059873,451.28,632,749,0
4059883,435.94,632,748,0
4059893,423.14,632,749,0
4059904,411.23,632,747,0
4059913,402.33,632,748,0
4059923,394.86,632,748,0
4059933,390.45,632,749,0
4059943,387.01,632,747,0
4059953,386.11,632,749,0
4059963,385.56,632,748,0
4059973,386.81,632,749,0
4059983,387.72,632,747,0
4059993,389.61,632,748,0
4060003,390.45,632,748,0
4060013,391.77,632,749,0
4060023,391.41,632,747,0
4060033,391.29,632,748,0
4060043,389.70,632,748,0
4060053,388.55,632,749,0
4060063,386.33,632,748,0
4060073,384.86,632,749,0
4060083,382.37,632,748,0
4060093,380.67,632,749,0
4060103,378.03,632,747,0
4060113,376.18,632,749,0
4060123,373.30,632,748,0
4060133,371.06,632,749,0
4060143,367.70,632,747,0
4060153,365.39,632,749,0
4060163,362.53,632,748,0
4060173,360.96,632,749,0
4060183,359.00,632,747,0
4060193,358.36,632,749,0
4060204,357.52,632,748,0
4060214,358.48,632,749,0
4060224,359.24,632,747,0
4060234,361.95,632,749,0
4060244,365.22,632,747,0
4060254,371.20,632,749,0
4060264,378.85,632,747,0
4060274,390.25,632,749,0
4060284,403.85,632,747,0
4060294,421.25,632,749,0
4060313,440.20,623,748,0
4060316,461.31,623,750,0
4060325,482.35,623,747,0
4060335,503.63,623,750,0
4060345,522.17,623,747,0
4060355,538.62,623,750,0
4060365,550.30,623,747,0
4060375,558.44,623,749,0
4060385,561.31,623,747,0
4060395,560.06,623,749,0
4060405,553.48,623,747,0
4060416,543.65,623,749,0
4060425,529.66,623,746,0
4060435,514.25,623,749,0
4060445,496.51,623,747,0
4060455,478.83,623,749,0
4060465,460.50,623,746,0
4060475,443.50,623,749,0
4060485,426.81,623,747,0
4060495,412.08,623,749,0
4060505,398.13,623,747,0
4060515,386.86,623,749,0
4060525,376.83,623,747,0
4060535,369.55,623,749,0
4060545,363.56,623,747,0
4060555,360.35,623,749,0
4060565,358.23,623,747,0
4060575,358.12,623,749,0
4060585,358.17,623,747,0
4060595,359.70,623,749,0
4060605,360.95,623,747,0
4060615,363.02,623,750,0
4060625,364.22,623,747,0
4060635,365.91,623,749,0
4060645,366.49,623,747,0
4060655,367.42,623,750,0
4060665,367.12,623,747,0
4060675,367.04,623,749,0
4060685,365.83,623,747,0
4060695,364.85,623,750,0
4060705,362.84,623,747,0
4060716,361.39,623,749,0
4060726,359.21,623,747,0
4060736,357.78,623,750,0
4060746,355.70,623,746,0
4060756,354.25,623,750,0
4060766,352.42,623,747,0
4060776,351.31,623,750,0
4060786,349.97,623,746,0
4060796,349.25,623,750,0
4060806,348.15,623,747,0
4060816,347.80,623,750,0
4060826,347.18,623,747,0
4060836,347.04,623,750,0
4060846,346.56,623,747,0
4060856,346.73,623,750,0
4060866,347.28,623,747,0
4060876,349.60,623,750,0
4060887,353.49,623,747,0
4060897,360.11,623,750,0
4060907,368.99,623,747,0
4060917,380.74,623,750,0
4060928,394.45,623,747,0
4060946,410.13,633,745,0
4060949,426.20,633,748,0
4060958,442.21,633,749,0
4060968,457.19,633,747,0
4060978,470.51,633,750,0
4060988,481.45,633,747,0
4060998,489.85,633,749,0
4061008,495.38,633,747,0
4061018,498.18,633,750,0
4061028,497.78,633,747,0
4061038,494.25,633,749,0
4061048,488.47,633,747,0
4061058,480.79,633,750,0
4061068,471.51,633,747,0
4061078,460.73,633,749,0
4061088,449.07,633,747,0
4061099,437.09,633,749,0
4061108,425.49,633,747,0
4061118,414.12,633,749,0
4061128,403.45,633,747,0
4061138,393.55,633,749,0
4061148,385.24,633,747,0
4061158,378.14,633,749,0
4061168,372.65,633,747,0
4061178,368.22,633,749,0
4061188,365.24,633,747,0
4061198,363.28,633,749,0
4061208,362.60,633,747,0
4061218,362.33,633,749,0
4061228,362.92,633,747,0
4061238,364.06,633,749,0
4061248,365.97,633,747,0
4061258,367.95,633,750,0
4061268,370.24,633,748,0
4061278,372.01,633,749,0
4061288,373.42,633,747,0
4061298,374.15,633,749,0
4061308,374.58,633,748,0
4061318,374.28,633,749,0
4061328,373.51,633,747,0
4061338,371.94,633,749,0
4061348,370.50,633,747,0
4061358,368.85,633,749,0
4061368,367.52,633,747,0
4061378,365.78,633,749,0
4061388,364.30,633,747,0
4061399,362.71,633,749,0
4061409,361.56,633,747,0
4061419,360.06,633,749,0
4061429,359.10,633,748,0
4061440,357.70,633,748,0
4061449,356.85,633,748,0
4061459,355.78,633,749,0
4061469,355.50,633,748,0
4061479,355.05,633,748,0
4061489,355.64,633,747,0
4061499,356.30,633,749,0
4061509,358.57,633,748,0
4061519,361.44,633,749,0
4061529,366.19,633,747,0
4061539,371.92,633,749,0
4061549,380.00,633,748,0
4061559,389.22,633,748,0
4061569,400.64,633,747,0
4061588,412.66,642,746,0
4061591,425.88,642,750,0
4061600,438.86,642,748,0
4061611,452.10,642,748,0
4061620,463.73,642,749,0
4061630,474.39,642,748,0
4061640,482.25,642,748,0
4061650,488.43,642,748,0
4061660,491.69,642,748,0
4061670,493.07,642,748,0
4061680,491.29,642,748,0
4061690,488.07,642,748,0
4061700,482.61,642,748,0
4061710,476.98,642,748,0
4061720,469.66,642,748,0
4061730,462.65,642,748,0
4061740,454.48,642,748,0
4061750,447.01,642,748,0
4061760,438.91,642,748,0
4061770,431.82,642,748,0
4061780,424.03,642,748,0
4061790,417.38,642,748,0
4061800,410.28,642,748,0
4061810,404.54,642,748,0
4061820,398.85,642,748,0
4061830,394.91,642,748,0
4061840,390.99,642,749,0
4061850,388.85,642,748,0
4061860,386.80,642,748,0
4061870,386.21,642,748,0
4061880,385.38,642,748,0
4061890,385.61,642,748,0
4061900,385.17,642,748,0
4061911,385.59,642,749,0
4061921,384.81,642,748,0
4061931,384.65,642,749,0
4061941,383.39,642,747,0
4061952,383.01,642,749,0
4061961,381.72,642,748,0
4061971,381.42,642,749,0
4061981,380.31,642,747,0
4061991,380.39,642,749,0
4062001,379.76,642,748,0
4062011,380.17,642,749,0
4062021,379.74,642,747,0
4062031,380.24,642,749,0
4062041,379.53,642,748,0
4062051,379.54,642,748,0
4062061,378.35,642,747,0
4062071,377.94,642,749,0
4062081,376.85,642,748,0
4062091,376.89,642,748,0
4062101,376.37,642,747,0
4062111,377.07,642,749,0
4062121,377.18,642,747,0
4062131,378.84,642,748,0
4062141,380.26,642,747,0
4062151,383.57,642,749,0
4062161,387.08,642,748,0
4062171,393.06,642,749,0
4062181,399.90,642,748,0
4062191,409.40,642,749,0
4062211,419.87,622,748,0
4062214,432.85,622,750,0
4062223,446.22,622,747,0
4062233,460.94,622,750,0
4062243,474.46,622,747,0
4062253,487.95,622,749,0
4062263,499.11,622,747,0
4062273,508.98,622,750,0
4062283,515.97,622,747,0
4062294,520.95,622,749,0
4062303,522.76,622,747,0
4062313,522.88,622,750,0
4062323,520.00,622,747,0
4062333,515.97,622,750,0
4062343,509.55,622,747,0
4062353,502.40,622,750,0
4062363,493.54,622,747,0
4062373,484.50,622,750,0
4062383,474.58,622,747,0
4062393,465.45,622,750,0
4062403,456.02,622,747,0
4062413,447.91,622,750,0
4062423,439.67,622,747,0
4062433,433.04,622,750,0
4062443,426.81,622,747,0
4062453,422.24,622,749,0
4062464,418.14,622,747,0
4062473,415.70,622,750,0
4062483,413.56,622,747,0
4062493,412.92,622,750,0
4062503,412.43,622,747,0
4062513,413.20,622,750,0
4062523,413.61,622,747,0
4062533,414.71,622,750,0
4062543,415.10,622,747,0
4062553,416.01,622,750,0
4062563,416.09,622,747,0
4062573,416.24,622,750,0
4062583,415.31,622,747,0
4062593,414.75,622,750,0
4062603,413.24,622,747,0
4062613,412.09,622,749,0
4062623,410.01,622,747,0
4062633,408.46,622,750,0
4062643,406.18,622,747,0
4062653,404.37,622,749,0
4062663,401.99,622,746,0
4062673,400.41,622,750,0
4062683,398.78,622,747,0
4062693,398.08,622,749,0
4062703,397.07,622,746,0
4062713,397.01,622,750,0
4062723,396.75,622,747,0
4062733,397.42,622,749,0
4062743,397.72,622,747,0
4062753,398.66,622,749,0
4062764,399.58,622,747,0
4062774,401.72,622,750,0
4062784,404.59,622,746,0
4062794,409.43,622,750,0
4062804,415.56,622,746,0
4062814,424.17,622,749,0
4062824,434.41,622,746,0
4062843,446.97,633,745,0
4062846,460.95,633,747,0
4062855,476.52,633,749,0
4062865,492.22,633,746,0
4062875,507.67,633,749,0
4062885,521.74,633,746,0
4062895,534.25,633,749,0
4062905,544.07,633,746,0
4062915,551.08,633,749,0
4062925,554.78,633,746,0
4062935,555.66,633,749,0
4062945,553.84,633,746,0
4062955,549.69,633,749,0
4062965,543.44,633,746,0
4062976,535.63,633,749,0
4062985,526.62,633,746,0
4062995,516.79,633,749,0
4063005,506.57,633,746,0
4063015,496.20,633,749,0
4063025,485.85,633,746,0
4063035,475.78,633,749,0
4063045,466.29,633,746,0
4063055,457.46,633,749,0
4063065,449.48,633,746,0
4063075,442.44,633,749,0
4063085,436.65,633,746,0
4063095,432.00,633,749,0
4063105,428.78,633,746,0
4063115,426.75,633,749,0
4063125,425.71,633,746,0
4063135,425.15,633,749,0
4063145,425.02,633,746,0
4063155,424.93,633,749,0
4063165,425.04,633,746,0
4063175,424.85,633,749,0
4063185,424.55,633,746,0
4063195,424.22,633,749,0
4063205,423.89,633,746,0
4063215,423.41,633,749,0
4063225,422.77,633,747,0
4063235,421.90,633,750,0
4063245,420.86,633,747,0
4063255,419.40,633,749,0
4063265,417.95,633,747,0
4063276,416.29,633,749,0
4063286,414.62,633,747,0
4063296,412.59,633,749,0
4063306,410.57,633,747,0
4063316,408.21,633,749,0
4063326,406.22,633,747,0
4063336,403.80,633,749,0
4063346,402.23,633,747,0
4063356,401.35,633,749,0
4063366,402.53,633,747,0
4063376,405.33,633,749,0
4063386,410.93,633,748,0
4063396,418.62,633,749,0
4063406,429.36,633,747,0
4063416,441.98,633,749,0
4063426,456.60,633,747,0
4063446,471.72,602,746,0
4063449,487.45,602,750,0
4063458,502.19,602,749,0
4063468,516.32,602,748,0
4063478,527.79,602,748,0
4063489,537.20,602,749,0
4063499,543.22,602,748,0
4063509,546.89,602,749,0
4063519,546.92,602,747,0
4063529,544.63,602,749,0
4063539,538.74,602,747,0
4063549,531.53,602,749,0
4063559,521.77,602,747,0
4063569,511.64,602,749,0
4063579,499.92,602,748,0
4063589,488.76,602,749,0
4063599,476.96,602,747,0
4063609,466.60,602,749,0
4063619,456.09,602,748,0
4063629,447.41,602,749,0
4063639,438.76,602,747,0
4063649,432.14,602,749,0
4063660,425.89,602,747,0
4063670,421.63,602,749,0
4063680,417.72,602,747,0
4063690,415.74,602,749,0
4063700,413.81,602,747,0
4063710,413.48,602,749,0
4063720,412.78,602,747,0
4063730,413.40,602,750,0
4063740,413.28,602,747,0
4063750,413.93,602,750,0
4063760,413.48,602,747,0
4063770,413.89,602,750,0
4063780,413.45,602,747,0
4063790,413.53,602,750,0
4063800,412.30,602,747,0
4063810,411.61,602,750,0
4063820,409.76,602,748,0
4063831,408.63,602,750,0
4063841,406.30,602,747,0
4063851,404.41,602,750,0
4063861,401.59,602,747,0
4063872,399.31,602,750,0
4063881,396.22,602,747,0
4063891,393.88,602,750,0
4063901,391.09,602,747,0
4063911,389.78,602,750,0
4063921,388.99,602,747,0
4063931,390.79,602,750,0
4063941,394.32,602,747,0
4063951,401.21,602,750,0
4063961,409.98,602,747,0
4063971,421.81,602,750,0
4063981,434.94,602,747,0
4063991,449.92,602,750,0
4064010,464.43,565,748,0
4064013,478.70,565,751,0
4064022,491.52,565,747,0
4064032,503.53,565,750,0
4064043,512.97,565,746,0
4064052,520.40,565,750,0
4064062,524.61,565,747,0
4064072,526.57,565,750,0
4064082,525.75,565,746,0
4064092,522.48,565,750,0
4064102,516.13,565,747,0
4064112,508.20,565,750,0
4064122,498.50,565,747,0
4064132,488.23,565,750,0
4064142,476.94,565,747,0
4064152,465.77,565,750,0
4064162,454.61,565,746,0
4064172,444.61,565,750,0
4064182,434.83,565,747,0
4064192,426.05,565,750,0
4064202,418.02,565,747,0
4064212,411.59,565,750,0
4064222,406.01,565,747,0
4064232,401.76,565,751,0
4064242,398.15,565,747,0
4064252,395.96,565,750,0
4064262,394.47,565,748,0
4064272,393.90,565,751,0
4064282,393.42,565,747,0
4064292,393.38,565,750,0
4064302,392.92,565,747,0
4064312,392.69,565,750,0
4064322,391.67,565,747,0
4064332,390.70,565,750,0
4064343,389.16,565,747,0
4064353,387.70,565,750,0
4064363,386.12,565,747,0
4064373,384.75,565,750,0
4064384,383.28,565,747,0
4064393,382.21,565,750,0
4064403,380.99,565,747,0
4064413,380.01,565,750,0
4064423,379.06,565,748,0
4064433,378.14,565,751,0
4064443,377.24,565,747,0
4064453,376.23,565,750,0
4064463,375.43,565,747,0
4064473,374.79,565,750,0
4064483,374.25,565,747,0
4064493,373.96,565,750,0
4064503,374.14,565,747,0
4064513,375.04,565,750,0
4064523,377.00,565,747,0
4064533,380.17,565,750,0
4064543,384.79,565,747,0
4064553,391.07,565,750,0
4064563,399.06,565,747,0
4064573,408.56,565,750,0
4064583,419.40,565,747,0
4064593,431.11,565,750,0
4064612,443.04,602,749,0
4064615,454.34,602,750,0
4064624,465.25,602,748,0
4064634,474.65,602,749,0
4064644,482.55,602,748,0
4064654,488.17,602,749,0
4064664,491.64,602,748,0
4064674,492.52,602,749,0
4064684,491.89,602,748,0
4064694,488.84,602,749,0
4064704,484.56,602,748,0
4064714,478.30,602,749,0
4064724,471.27,602,748,0
4064734,463.22,602,749,0
4064744,455.18,602,748,0
4064754,446.43,602,750,0
4064764,438.54,602,748,0
4064774,430.79,602,749,0
4064784,424.17,602,748,0
4064794,417.78,602,750,0
4064804,412.49,602,748,0
4064814,407.58,602,750,0
4064824,403.81,602,748,0
4064834,399.62,602,750,0
4064844,396.18,602,748,0
4064855,392.65,602,749,0
4064865,390.19,602,748,0
4064875,387.64,602,749,0
4064885,386.21,602,748,0
4064896,384.77,602,749,0
4064905,384.37,602,748,0
4064915,383.66,602,749,0
4064925,384.06,602,749,0
4064935,383.96,602,749,0
4064945,384.66,602,748,0
4064955,384.54,602,749,0
4064965,384.94,602,748,0
4064975,384.57,602,749,0
4064985,384.96,602,748,0
4064995,384.46,602,749,0
4065005,384.53,602,749,0
4065015,383.77,602,749,0
4065025,383.63,602,748,0
4065035,382.71,602,749,0
4065045,382.33,602,749,0
4065055,380.77,602,749,0
4065065,379.77,602,749,0
4065075,378.04,602,749,0
4065085,377.21,602,748,0
4065095,376.03,602,749,0
4065105,375.94,602,749,0
4065115,375.53,602,750,0
4065125,376.70,602,749,0
4065135,377.95,602,749,0
4065145,381.05,602,749,0
4065155,384.42,602,749,0
4065165,389.52,602,749,0
4065175,395.02,602,749,0
4065185,402.56,602,749,0
4065196,410.53,602,749,0
4065215,420.15,603,747,0
4065218,429.40,603,748,0
4065227,440.25,603,750,0
4065238,450.16,603,748,0
4065247,460.49,603,750,0
4065257,468.91,603,748,0
4065267,476.65,603,750,0
4065277,481.81,603,748,0
4065287,485.94,603,750,0
4065297,486.73,603,748,0
4065307,486.43,603,750,0
4065317,483.30,603,748,0
4065327,479.74,603,750,0
4065337,473.99,603,748,0
4065347,468.29,603,750,0
4065357,461.18,603,748,0
4065367,454.69,603,750,0
4065377,447.29,603,748,0
4065387,440.99,603,750,0
4065397,433.96,603,748,0
4065408,428.49,603,750,0
4065417,422.81,603,748,0
4065427,418.80,603,750,0
4065437,414.49,603,748,0
4065447,411.77,603,750,0
4065457,408.80,603,748,0
4065467,407.40,603,750,0
4065477,405.48,603,748,0
4065487,404.69,603,750,0
4065497,403.24,603,748,0
4065507,402.87,603,749,0
4065517,401.71,603,748,0
4065527,401.62,603,750,0
4065537,400.62,603,748,0
4065547,400.61,603,749,0
4065557,399.74,603,748,0
4065567,399.69,603,750,0
4065577,398.80,603,748,0
4065587,398.86,603,749,0
4065597,397.83,603,748,0
4065607,397.58,603,750,0
4065617,396.51,603,748,0
4065627,396.40,603,749,0
4065637,395.46,603,748,0
4065647,395.54,603,750,0
4065657,394.78,603,748,0
4065667,395.14,603,749,0
4065677,394.80,603,748,0
4065687,395.25,603,750,0
4065697,394.79,603,748,0
4065708,395.32,603,749,0
4065718,395.23,603,747,0
4065728,396.57,603,750,0
4065738,397.90,603,747,0
4065748,401.23,603,750,0
4065758,405.15,603,747,0
4065768,411.40,603,750,0
4065778,418.40,603,747,0
4065788,427.58,603,749,0
4065798,437.09,603,747,0
4065817,448.03,602,746,0
4065820,458.70,602,747,0
4065829,469.93,602,750,0
4065839,479.85,602,747,0
4065849,489.45,602,750,0
4065859,497.20,602,747,0
4065869,503.74,602,750,0
4065879,507.68,602,747,0
4065889,509.92,602,750,0
4065899,509.60,602,748,0
4065909,507.79,602,750,0
4065920,503.48,602,747,0
4065929,497.94,602,750,0
4065939,490.80,602,747,0
4065949,483.32,602,750,0
4065959,474.95,602,747,0
4065969,466.82,602,750,0
4065979,458.48,602,747,0
4065989,451.09,602,750,0
4065999,443.86,602,747,0
4066009,437.82,602,750,0
4066019,432.13,602,747,0
4066029,427.51,602,750,0
4066039,423.28,602,747,0
4066049,420.50,602,750,0
4066059,418.25,602,747,0
4066069,417.19,602,750,0
4066079,416.40,602,747,0
4066089,416.50,602,750,0
4066099,416.78,602,747,0
4066109,417.49,602,750,0
4066119,417.68,602,747,0
4066129,418.12,602,750,0
4066139,417.91,602,747,0
4066149,417.81,602,750,0
4066159,417.22,602,747,0
4066169,416.69,602,750,0
4066179,415.62,602,747,0
4066189,414.75,602,750,0
4066199,413.24,602,747,0
4066209,411.71,602,750,0
4066220,409.61,602,747,0
4066230,407.71,602,750,0
4066240,405.70,602,747,0
4066250,404.03,602,750,0
4066260,402.35,602,747,0
4066270,401.43,602,750,0
4066280,401.22,602,747,0
4066290,402.18,602,750,0
4066300,404.35,602,747,0
4066310,408.02,602,750,0
4066320,413.46,602,747,0
4066330,420.82,602,750,0
4066340,430.09,602,747,0
4066350,441.29,602,750,0
4066360,454.02,602,747,0
4066379,467.81,562,746,0
4066382,482.65,562,749,0
4066391,497.72,562,750,0
4066401,512.37,562,747,0
4066411,525.76,562,750,0
4066421,537.49,562,748,0
4066432,546.86,562,749,0
4066441,553.76,562,747,0
4066451,557.43,562,750,0
4066461,558.50,562,748,0
4066471,556.64,562,749,0
4066481,552.59,562,747,0
4066491,546.50,562,750,0
4066501,539.36,562,748,0
4066511,530.81,562,750,0
4066521,521.78,562,747,0
4066531,511.82,562,750,0
4066541,502.19,562,748,0
4066551,492.27,562,749,0
4066561,482.93,562,747,0
4066571,473.78,562,750,0
4066581,465.75,562,748,0
4066591,458.15,562,749,0
4066601,451.89,562,748,0
4066611,446.27,562,750,0
4066621,441.94,562,748,0
4066631,438.02,562,749,0
4066641,435.40,562,748,0
4066651,433.39,562,750,0
4066661,432.42,562,748,0
4066671,431.61,562,749,0
4066681,431.51,562,748,0
4066691,431.31,562,750,0
4066701,431.61,562,748,0
4066711,431.21,562,749,0
4066721,430.85,562,748,0
4066732,429.78,562,749,0
4066742,428.86,562,748,0
4066752,426.93,562,749,0
4066762,425.41,562,748,0
4066772,423.01,562,749,0
4066782,421.04,562,748,0
4066792,418.28,562,749,0
4066802,416.14,562,748,0
4066812,413.36,562,749,0
4066822,411.49,562,748,0
4066832,409.07,562,749,0
4066842,407.85,562,748,0
4066852,406.31,562,749,0
4066862,406.05,562,748,0
4066872,405.86,562,750,0
4066882,407.45,562,749,0
4066892,409.71,562,749,0
4066903,414.34,562,749,0
4066913,420.02,562,749,0
4066923,428.67,562,749,0
4066933,438.89,562,749,0
4066944,452.03,562,750,0
4066953,466.30,562,750,0
4066963,482.79,562,750,0
4066982,499.35,603,749,0
4066985,516.86,603,751,0
4066994,533.19,603,749,0
4067004,548.82,603,750,0
4067014,561.34,603,749,0
4067024,572.04,603,750,0
4067034,578.80,603,749,0
4067044,583.36,603,750,0
4067054,583.81,603,748,0
4067064,581.81,603,750,0
4067074,576.30,603,749,0
4067084,569.39,603,750,0
4067094,559.76,603,748,0
4067104,549.42,603,750,0
4067115,536.95,603,748,0
4067124,524.75,603,750,0
4067134,511.24,603,748,0
4067144,498.74,603,750,0
4067154,485.70,603,748,0
4067164,474.14,603,750,0
4067174,462.65,603,748,0
4067184,453.28,603,750,0
4067194,444.41,603,748,0
4067204,437.90,603,750,0
4067214,431.72,603,748,0
4067224,427.52,603,750,0
4067234,423.55,603,748,0
4067244,421.75,603,750,0
4067254,419.94,603,748,0
4067264,419.70,603,750,0
4067274,419.02,603,749,0
4067284,419.57,603,750,0
4067294,419.79,603,748,0
4067304,420.96,603,750,0
4067314,420.85,603,748,0
4067324,421.06,603,750,0
4067334,419.80,603,748,0
4067344,418.92,603,750,0
4067354,416.67,603,749,0
4067364,414.84,603,751,0
4067374,411.85,603,748,0
4067384,409.54,603,750,0
4067394,406.33,603,749,0
4067404,404.09,603,751,0
4067415,400.98,603,748,0
4067425,398.84,603,751,0
4067435,395.85,603,748,0
4067445,393.88,603,751,0
4067456,391.26,603,748,0
4067465,389.77,603,751,0
4067475,387.74,603,748,0
4067485,386.79,603,751,0
4067495,385.35,603,748,0
4067505,385.20,603,751,0
4067515,384.71,603,748,0
4067525,385.61,603,751,0
4067535,386.67,603,748,0
4067545,389.77,603,751,0
4067555,393.83,603,748,0
4067565,400.65,603,751,0
4067575,408.98,603,748,0
4067585,420.56,603,750,0
4067595,433.81,603,748,0
4067605,449.85,603,751,0
4067615,466.52,603,748,0
4067625,484.62,603,751,0
4067644,501.79,662,749,0
4067647,518.27,662,751,0
4067656,532.33,662,748,0
4067666,544.49,662,751,0
4067676,552.87,662,748,0
4067686,558.52,662,751,0
4067696,560.08,662,748,0
4067706,558.81,662,751,0
4067716,554.20,662,748,0
4067726,547.20,662,751,0
4067736,537.28,662,748,0
4067746,525.97,662,751,0
4067756,512.95,662,748,0
4067766,499.76,662,751,0
4067776,485.91,662,748,0
4067786,472.56,662,751,0
4067796,459.28,662,748,0
4067806,447.28,662,751,0
4067816,435.84,662,748,0
4067826,425.90,662,751,0
4067836,416.76,662,748,0
4067846,409.50,662,751,0
4067856,403.31,662,748,0
4067866,398.97,662,751,0
4067876,395.64,662,748,0
4067886,394.08,662,751,0
4067896,393.15,662,748,0
4067906,393.58,662,751,0
4067916,394.22,662,748,0
4067927,395.48,662,751,0
4067937,396.45,662,748,0
4067947,397.39,662,751,0
4067957,397.87,662,748,0
4067968,398.17,662,751,0
4067977,397.86,662,748,0
4067987,397.30,662,751,0
4067997,396.23,662,748,0
4068007,394.83,662,751,0
4068017,393.12,662,748,0
4068027,391.16,662,751,0
4068037,389.05,662,748,0
4068047,386.77,662,751,0
4068057,384.35,662,748,0
4068067,382.10,662,751,0
4068077,380.01,662,748,0
4068087,378.17,662,751,0
4068097,376.40,662,748,0
4068107,375.00,662,751,0
4068117,373.75,662,748,0
4068127,372.76,662,751,0
4068137,371.89,662,748,0
4068147,371.19,662,751,0
4068157,370.58,662,748,0
4068167,370.15,662,751,0
4068177,370.06,662,748,0
4068187,370.43,662,751,0
4068197,371.54,662,748,0
4068207,373.65,662,751,0
4068217,377.23,662,748,0
4068227,382.73,662,751,0
4068237,390.18,662,748,0
4068247,399.56,662,751,0
4068257,410.83,662,748,0
4068268,423.57,662,750,0
4068278,437.46,662,748,0
4068288,451.55,662,751,0
4068298,465.18,662,749,0
4068318,477.51,673,747,0
4068321,488.07,673,752,0
4068330,496.07,673,750,0
4068340,501.92,673,749,0
4068350,504.51,673,749,0
4068360,504.87,673,749,0
4068370,502.38,673,750,0
4068380,498.41,673,750,0
4068390,492.16,673,749,0
4068400,485.13,673,749,0
4068410,476.17,673,750,0
4068420,467.16,673,749,0
4068430,456.74,673,749,0
4068440,446.79,673,749,0
4068450,435.93,673,750,0
4068460,426.13,673,749,0
4068470,415.94,673,749,0
4068481,407.34,673,750,0
4068491,398.75,673,749,0
4068501,392.27,673,750,0
4068511,386.10,673,748,0
4068521,382.17,673,750,0
4068531,378.48,673,749,0
4068541,376.96,673,750,0
4068551,375.47,673,749,0
4068561,375.85,673,751,0
4068571,375.89,673,749,0
4068581,377.17,673,750,0
4068591,377.67,673,749,0
4068601,379.19,673,750,0
4068611,379.64,673,749,0
4068621,380.78,673,750,0
4068631,380.59,673,749,0
4068641,380.93,673,750,0
4068652,380.05,673,749,0
4068662,379.73,673,750,0
4068672,378.23,673,748,0
4068682,377.17,673,750,0
4068692,375.06,673,748,0
4068702,373.89,673,750,0
4068712,371.82,673,748,0
4068722,370.72,673,750,0
4068732,368.79,673,748,0
4068742,367.87,673,750,0
4068752,366.32,673,748,0
4068762,365.92,673,750,0
4068772,364.88,673,748,0
4068782,365.00,673,750,0
4068792,364.61,673,748,0
4068802,365.59,673,750,0
4068812,366.65,673,748,0
4068823,369.67,673,751,0
4068833,373.07,673,748,0
4068843,378.79,673,751,0
4068853,385.41,673,748,0
4068864,394.33,673,751,0
4068882,403.87,565,749,0
4068885,414.84,565,752,0
4068894,426.12,565,748,0
4068904,438.12,565,751,0
4068914,448.97,565,748,0
4068924,459.40,565,750,0
4068934,467.98,565,748,0
4068944,475.40,565,751,0
4068954,480.42,565,748,0
4068964,483.42,565,750,0
4068974,483.81,565,748,0
4068984,482.58,565,751,0
4068994,479.11,565,748,0
4069004,474.53,565,750,0
4069014,468.29,565,748,0
4069024,461.60,565,751,0
4069035,453.79,565,747,0
4069044,446.18,565,750,0
4069054,438.07,565,748,0
4069064,430.29,565,751,0
4069074,422.36,565,747,0
4069084,415.31,565,750,0
4069094,408.49,565,748,0
4069104,402.69,565,751,0
4069114,397.17,565,747,0
4069124,392.92,565,750,0
4069134,389.30,565,748,0
4069144,386.94,565,751,0
4069154,385.03,565,748,0
4069164,384.08,565,750,0
4069174,383.28,565,748,0
4069184,383.24,565,751,0
4069194,383.00,565,747,0
4069204,383.08,565,750,0
4069214,382.72,565,747,0
4069224,382.72,565,751,0
4069234,382.54,565,747,0
4069244,382.77,565,750,0
4069254,382.54,565,748,0
4069264,382.50,565,751,0
4069274,382.05,565,747,0
4069284,381.78,565,750,0
4069294,381.03,565,748,0
4069304,380.25,565,751,0
4069314,379.06,565,747,0
4069324,378.31,565,750,0
4069335,377.71,565,748,0
4069345,377.49,565,751,0
4069355,377.26,565,748,0
4069365,377.10,565,750,0
4069376,376.98,565,748,0
4069385,377.07,565,751,0
4069395,376.79,565,748,0
4069405,376.21,565,750,0
4069415,375.51,565,748,0
4069425,374.88,565,751,0
4069435,374.58,565,748,0
4069445,374.79,565,750,0
4069455,375.88,565,748,0
4069465,377.89,565,751,0
4069475,381.14,565,748,0
4069485,385.72,565,750,0
4069495,392.15,565,748,0
4069514,400.38,632,746,0
4069517,410.16,632,749,0
4069526,421.17,632,750,0
4069536,433.63,632,748,0
4069547,446.47,632,750,0
4069556,459.66,632,748,0
4069566,471.85,632,750,0
4069576,483.12,632,749,0
4069586,492.51,632,750,0
4069596,500.16,632,748,0
4069606,505.17,632,750,0
4069616,508.29,632,749,0
4069626,508.59,632,750,0
4069636,507.04,632,748,0
4069646,503.00,632,750,0
4069656,497.60,632,749,0
4069666,490.31,632,750,0
4069676,482.33,632,748,0
4069686,473.32,632,750,0
4069696,464.52,632,749,0
4069706,455.19,632,750,0
4069716,446.39,632,749,0
4069726,437.66,632,750,0
4069736,430.09,632,749,0
4069746,422.78,632,750,0
4069756,416.84,632,749,0
4069766,411.32,632,750,0
4069776,407.41,632,749,0
4069786,404.07,632,750,0
4069796,402.04,632,749,0
4069806,400.31,632,750,0
4069816,399.70,632,749,0
4069826,399.02,632,750,0
4069836,399.27,632,749,0
4069847,399.19,632,750,0
4069857,399.73,632,749,0
4069867,399.64,632,750,0
4069877,399.96,632,749,0
4069888,399.55,632,750,0
4069897,399.68,632,749,0
4069907,399.05,632,750,0
4069917,399.03,632,749,0
4069927,398.17,632,750,0
4069937,397.86,632,749,0
4069947,396.70,632,750,0
4069957,396.28,632,750,0
4069967,394.91,632,750,0
4069977,394.21,632,749,0
4069987,392.52,632,750,0
4069997,391.55,632,749,0
4070007,389.80,632,749,0
4070017,388.79,632,749,0
4070027,386.96,632,750,0
4070037,386.03,632,749,0
4070047,384.35,632,750,0
4070057,383.69,632,749,0
4070067,382.58,632,750,0
4070077,382.45,632,749,0
4070087,381.72,632,750,0
4070097,382.06,632,749,0
4070107,381.83,632,750,0
4070117,382.69,632,749,0
4070127,383.00,632,749,0
4070137,384.46,632,749,0
4070147,385.73,632,750,0
4070157,388.81,632,749,0
4070167,392.21,632,750,0
4070177,397.93,632,749,0
4070188,404.47,632,749,0
4070198,413.63,632,750,0
4070208,423.64,632,749,0
4070227,436.18,713,747,0
4070231,449.15,713,749,0
4070239,464.11,713,751,0
4070249,478.30,713,749,0
4070259,492.87,713,750,0
4070269,505.42,713,749,0
4070279,517.34,713,750,0
4070289,526.32,713,749,0
4070299,533.68,713,750,0
4070309,537.25,713,749,0
4070319,539.15,713,750,0
4070329,537.82,713,749,0
4070339,535.39,713,750,0
4070349,530.26,713,748,0
4070359,524.61,713,751,0
4070369,517.01,713,749,0
4070379,509.55,713,750,0
4070389,500.77,713,748,0
4070400,492.74,713,751,0
4070409,483.86,713,749,0
4070419,476.19,713,750,0
4070429,468.07,713,748,0
4070439,461.50,713,751,0
4070449,454.70,713,749,0
4070459,449.56,713,750,0
4070469,444.34,713,749,0
4070479,440.64,713,751,0
4070489,436.80,713,749,0
4070499,434.46,713,751,0
4070509,431.92,713,749,0
4070519,430.87,713,751,0
4070529,429.41,713,749,0
4070539,429.16,713,751,0
4070549,428.21,713,748,0
4070559,428.15,713,751,0
4070569,427.29,713,748,0
4070579,427.20,713,751,0
4070589,426.03,713,748,0
4070599,425.51,713,751,0
4070609,423.81,713,748,0
4070619,422.92,713,751,0
4070629,420.93,713,748,0
4070639,419.58,713,751,0
4070649,417.26,713,748,0
4070659,415.94,713,751,0
4070669,414.03,713,748,0
4070679,413.29,713,751,0
4070689,412.35,713,749,0
4070700,412.97,713,751,0
4070710,413.75,713,748,0
4070720,416.23,713,751,0
4070730,418.99,713,748,0
4070740,423.32,713,751,0
4070750,427.77,713,748,0
4070760,433.32,713,751,0
4070770,438.33,713,748,0
4070780,443.67,713,751,0
4070790,447.84,713,748,0
4070800,451.66,713,751,0
4070810,453.69,713,748,0
4070820,454.85,713,751,0
4070830,453.83,713,748,0
4070840,451.99,713,751,0
4070850,448.27,713,748,0
4070860,444.03,713,751,0
4070871,438.54,713,748,0
4070881,433.10,713,751,0
4070891,427.29,713,748,0
4070901,422.23,713,751,0
4070912,417.23,713,747,0
4070921,413.48,713,751,0
4070931,410.12,713,748,0
4070941,407.85,713,751,0
4070951,406.14,713,747,0
4070961,405.37,713,751,0
4070971,404.83,713,748,0
4070981,405.05,713,751,0
4070991,405.59,713,748,0
4071001,406.74,713,751,0
4071011,407.72,713,748,0
4071021,409.00,713,751,0
4071031,409.99,713,747,0
4071041,411.41,713,751,0
4071051,412.44,713,748,0
4071061,413.21,713,751,0
4071071,413.36,713,748,0
4071081,413.47,713,751,0
4071091,413.03,713,748,0
4071101,412.59,713,751,0
4071111,411.60,713,747,0
4071121,410.69,713,751,0
4071131,409.50,713,748,0
4071141,408.62,713,751,0
4071151,407.71,713,747,0
4071161,406.94,713,751,0
4071171,406.01,713,748,0
4071181,405.37,713,751,0
4071191,404.78,713,748,0
4071201,404.55,713,751,0
4071212,404.17,713,748,0
4071222,403.90,713,751,0
4071232,403.55,713,748,0
4071242,403.17,713,751,0
4071252,402.69,713,748,0
4071262,401.93,713,751,0
4071272,400.92,713,748,0
4071282,399.74,713,751,0
4071292,398.58,713,748,0
4071302,397.46,713,751,0
4071312,396.34,713,748,0
4071322,394.91,713,751,0
4071332,393.78,713,748,0
4071342,392.82,713,751,0
4071352,392.27,713,748,0
4071362,391.76,713,751,0
4071372,391.83,713,748,0
4071383,392.05,713,750,0
4071393,393.07,713,748,0
4071403,393.82,713,750,0
4071413,394.77,713,749,0
4071424,395.10,713,750,0
4071433,395.67,713,748,0
4071443,395.68,713,750,0
4071453,396.38,713,749,0
4071463,396.99,713,750,0
4071473,398.97,713,749,0
4071483,401.89,713,750,0
4071493,407.41,713,749,0
4071503,414.74,713,750,0
4071513,424.89,713,748,0
4071523,436.97,713,750,0
4071542,451.85,0,749,0
4071545,467.92,0,750,0
4071554,485.73,0,749,0
4071564,503.13,0,750,0
4071574,520.40,0,749,0
4071584,535.58,0,750,0
4071595,549.12,0,749,0
4071604,559.24,0,750,0
4071614,566.97,0,749,0
4071624,570.49,0,750,0
4071634,571.42,0,750,0
4071644,568.51,0,750,0
4071654,563.68,0,749,0
4071664,555.89,0,750,0
4071674,547.01,0,749,0
4071684,536.21,0,749,0
4071694,525.39,0,749,0
4071704,513.61,0,750,0
4071714,502.80,0,749,0
4071724,491.89,0,750,0
4071734,482.58,0,749,0
4071744,473.53,0,750,0
4071754,466.39,0,749,0
4071764,459.71,0,749,0
4071774,455.04,0,749,0
4071784,450.83,0,750,0
4071794,448.52,0,749,0
4071804,446.44,0,749,0
4071814,446.01,0,749,0
4071824,445.40,0,750,0
4071834,446.05,0,750,0
4071844,446.08,0,749,0
4071854,446.91,0,749,0
4071864,446.73,0,750,0
4071874,446.94,0,750,0
4071884,445.76,0,749,0
4071895,444.84,0,750,0
4071905,442.66,0,749,0
4071915,440.96,0,750,0
4071925,438.02,0,748,0
4071936,435.70,0,750,0
4071945,432.45,0,749,0
4071955,430.25,0,750,0
4071965,427.31,0,748,0
4071975,425.24,0,750,0
4071985,422.38,0,749,0
4071995,420.51,0,750,0
4072005,417.70,0,748,0
4072015,415.91,0,750,0
4072025,413.15,0,749,0
4072035,411.47,0,750,0
4072045,409.19,0,749,0
4072055,408.28,0,750,0
4072065,407.25,0,749,0
4072075,408.20,0,750,0
4072085,409.51,0,749,0
4072095,413.22,0,750,0
4072105,417.74,0,749,0
4072115,425.02,0,750,0
4072125,433.28,0,749,0
4072135,444.21,0,750,0
4072145,455.72,0,749,0
4072155,469.05,0,750,0
4072165,481.89,0,749,0
4072175,495.47,0,750,0
4072185,507.41,0,749,0
4072195,518.77,0,750,0
4072205,527.20,0,749,0
4072215,534.13,0,750,0
4072225,537.64,0,749,0
4072245,539.72,703,747,0
4072248,538.26,703,748,0
4072257,535.53,703,751,0
4072267,530.14,703,748,0
4072278,523.84,703,751,0
4072287,515.49,703,748,0
4072297,507.03,703,751,0
4072307,497.16,703,748,0
4072317,487.81,703,751,0
4072327,477.54,703,748,0
4072337,468.16,703,751,0
4072347,458.86,703,748,0
4072357,450.97,703,751,0
4072367,443.18,703,748,0
4072377,436.78,703,750,0
4072387,430.85,703,748,0
4072397,426.52,703,751,0
4072407,422.51,703,748,0
4072417,419.83,703,750,0
4072427,417.09,703,748,0
4072437,415.65,703,751,0
4072448,414.21,703,748,0
4072457,413.76,703,750,0
4072467,413.06,703,748,0
4072477,412.96,703,751,0
4072487,412.33,703,748,0
4072497,412.40,703,750,0
4072507,411.72,703,748,0
4072517,411.34,703,751,0
4072527,410.08,703,748,0
4072537,409.07,703,750,0
4072547,407.25,703,748,0
4072557,405.89,703,751,0
4072567,403.99,703,748,0
4072577,402.75,703,750,0
4072587,401.16,703,748,0
4072597,400.17,703,751,0
4072607,398.83,703,748,0
4072617,398.24,703,751,0
4072627,397.18,703,748,0
4072637,396.83,703,751,0
4072647,396.32,703,748,0
4072657,397.04,703,750,0
4072667,398.31,703,748,0
4072677,401.52,703,751,0
4072687,405.99,703,748,0
4072697,412.85,703,750,0
4072707,420.91,703,748,0
4072717,431.22,703,751,0
4072727,442.34,703,748,0
4072737,454.80,703,751,0
4072757,467.07,512,750,0
4072760,478.88,512,751,0
4072769,489.76,512,748,0
4072779,499.52,512,750,0
4072790,507.25,512,748,0
4072799,513.17,512,751,0
4072809,516.59,512,748,0
4072819,517.70,512,750,0
4072829,516.98,512,748,0
4072839,514.03,512,751,0
4072849,509.39,512,748,0
4072859,503.02,512,750,0
4072869,495.64,512,748,0
4072879,487.52,512,751,0
4072889,479.01,512,748,0
4072899,470.09,512,750,0
4072909,461.19,512,748,0
4072919,452.52,512,751,0
4072929,444.48,512,748,0
4072939,437.13,512,751,0
4072949,430.58,512,748,0
4072960,424.79,512,750,0
4072969,420.23,512,748,0
4072979,416.52,512,750,0
4072989,413.87,512,748,0
4072999,411.94,512,751,0
4073009,410.46,512,748,0
4073019,409.42,512,751,0
4073029,409.04,512,748,0
4073039,408.55,512,750,0
4073049,408.30,512,748,0
4073059,407.65,512,750,0
4073069,407.07,512,748,0
4073079,406.15,512,750,0
4073089,405.25,512,748,0
4073099,404.10,512,750,0
4073109,403.13,512,748,0
4073119,401.98,512,750,0
4073129,401.08,512,748,0
4073139,399.99,512,751,0
4073149,399.13,512,748,0
4073159,397.89,512,750,0
4073169,396.85,512,748,0
4073179,395.48,512,751,0
4073189,394.22,512,748,0
4073199,392.66,512,750,0
4073209,391.35,512,748,0
4073219,389.91,512,751,0
4073229,389.04,512,748,0
4073239,388.00,512,750,0
4073249,387.83,512,748,0
4073260,388.18,512,750,0
4073270,390.01,512,748,0
4073280,392.67,512,750,0
4073290,397.09,512,748,0
4073300,402.59,512,749,0
4073310,410.13,512,748,0
4073320,418.79,512,750,0
4073330,429.05,512,749,0
4073340,439.49,512,749,0
4073359,450.75,602,748,0
4073362,460.85,602,749,0
4073371,470.97,602,749,0
4073381,479.08,602,749,0
4073391,485.95,602,748,0
4073401,490.08,602,749,0
4073411,492.80,602,749,0
4073421,492.90,602,749,0
4073431,492.16,602,748,0
4073441,488.77,602,749,0
4073451,484.90,602,749,0
4073461,479.10,602,749,0
4073472,473.41,602,749,0
4073481,466.39,602,749,0
4073491,459.93,602,749,0
4073501,452.54,602,749,0
4073511,446.20,602,749,0
4073521,439.33,602,749,0
4073531,433.70,602,749,0
4073541,427.71,602,749,0
4073551,423.08,602,749,0
4073561,418.17,602,749,0
4073571,414.78,602,749,0
4073581,411.20,602,749,0
4073591,409.08,602,748,0
4073601,406.74,602,749,0
4073611,405.71,602,749,0
4073621,404.38,602,749,0
4073631,404.39,602,748,0
4073641,403.85,602,748,0
4073651,404.28,602,748,0
4073661,403.90,602,748,0
4073671,404.36,602,749,0
4073681,404.03,602,748,0
4073691,404.32,602,749,0
4073701,403.37,602,749,0
4073711,403.09,602,749,0
4073721,401.82,602,748,0
4073731,401.27,602,749,0
4073741,399.82,602,748,0
4073751,399.06,602,749,0
4073761,397.41,602,748,0
4073772,396.65,602,749,0
4073782,394.95,602,748,0
4073792,394.02,602,749,0
4073802,392.22,602,748,0
4073812,391.25,602,750,0
4073822,389.50,602,748,0
4073832,388.75,602,749,0
4073842,387.28,602,748,0
4073852,387.20,602,750,0
4073862,386.93,602,748,0
4073872,388.45,602,749,0
4073882,390.16,602,748,0
4073892,394.10,602,750,0
4073902,398.78,602,748,0
4073912,406.09,602,749,0
4073922,413.86,602,748,0
