Time,PPG,IBI,GSR,GSR_Event
4791819,365.37,633,745,0
4791829,365.56,633,747,0
4791839,369.08,633,746,0
4791849,376.30,633,746,0
4791859,388.81,633,746,0
4791869,405.88,633,747,0
4791888,427.77,662,747,0
4791891,459.77,662,747,0
4791900,498.45,662,748,0
4791910,537.40,662,748,0
4791920,574.52,662,748,0
4791930,605.91,662,748,0
4791940,630.97,662,748,0
4791950,647.39,662,748,0
4791960,653.66,662,748,0
4791970,648.96,662,748,0
4791980,636.72,662,747,0
4791990,617.47,662,748,0
4792000,594.53,662,747,0
4792010,568.01,662,748,0
4792020,540.92,662,748,0
4792030,513.13,662,748,0
4792040,487.04,662,748,0
4792050,461.83,662,748,0
4792060,439.63,662,748,0
4792070,419.34,662,748,0
4792080,402.40,662,748,0
4792090,387.28,662,748,0
4792100,375.67,662,747,0
4792110,366.12,662,748,0
4792120,359.96,662,748,0
4792130,355.26,662,748,0
4792140,353.42,662,747,0
4792151,352.65,662,748,0
4792161,354.30,662,748,0
4792171,356.40,662,748,0
4792181,360.22,662,748,0
4792192,363.93,662,747,0
4792201,368.70,662,748,0
4792211,372.56,662,748,0
4792221,376.90,662,748,0
4792231,379.76,662,747,0
4792241,382.66,662,748,0
4792251,383.83,662,748,0
4792261,385.00,662,748,0
4792271,384.48,662,747,0
4792281,384.17,662,748,0
4792291,382.27,662,748,0
4792301,380.91,662,748,0
4792311,378.23,662,747,0
4792321,376.28,662,748,0
4792331,373.45,662,748,0
4792341,371.69,662,748,0
4792351,369.30,662,747,0
4792361,368.31,662,749,0
4792371,366.80,662,748,0
4792381,366.69,662,748,0
4792391,366.10,662,747,0
4792401,366.71,662,749,0
4792411,366.67,662,748,0
4792421,367.63,662,748,0
4792431,367.65,662,747,0
4792441,368.66,662,749,0
4792451,369.15,662,748,0
4792461,371.20,662,748,0
4792471,373.54,662,747,0
4792481,378.69,662,749,0
4792492,385.56,662,747,0
4792502,396.79,662,748,0
4792512,411.00,662,747,0
4792522,430.37,662,749,0
4792542,452.63,653,748,0
4792545,478.67,653,749,0
4792554,505.98,653,747,0
4792564,534.36,653,749,0
4792574,560.31,653,747,0
4792584,583.96,653,749,0
4792594,602.06,653,747,0
4792604,615.50,653,749,0
4792614,622.29,653,747,0
4792624,623.49,653,749,0
4792634,618.24,653,746,0
4792644,608.91,653,749,0
4792654,594.88,653,747,0
4792664,578.55,653,749,0
4792674,559.22,653,747,0
4792684,539.31,653,749,0
4792694,518.05,653,747,0
4792705,497.51,653,749,0
4792715,477.08,653,747,0
4792725,458.24,653,749,0
4792735,440.38,653,747,0
4792745,424.84,653,749,0
4792755,410.83,653,747,0
4792765,399.52,653,749,0
4792775,390.28,653,747,0
4792785,383.55,653,749,0
4792795,378.59,653,747,0
4792805,375.93,653,749,0
4792815,374.71,653,748,0
4792825,375.18,653,749,0
4792835,376.45,653,747,0
4792845,378.89,653,749,0
4792855,381.41,653,747,0
4792865,384.46,653,749,0
4792876,387.11,653,747,0
4792886,389.73,653,749,0
4792896,391.74,653,747,0
4792906,393.32,653,749,0
4792916,393.95,653,747,0
4792926,394.31,653,749,0
4792936,393.83,653,747,0
4792946,392.77,653,749,0
4792956,391.17,653,747,0
4792966,389.23,653,749,0
4792976,387.06,653,747,0
4792986,384.77,653,749,0
4792996,382.40,653,747,0
4793006,380.26,653,749,0
4793016,378.43,653,747,0
4793026,376.80,653,749,0
4793036,375.45,653,747,0
4793047,374.37,653,749,0
4793057,373.70,653,747,0
4793067,373.15,653,749,0
4793077,372.89,653,747,0
4793088,372.67,653,749,0
4793097,372.81,653,747,0
4793107,373.04,653,749,0
4793117,373.67,653,747,0
4793127,374.15,653,749,0
4793137,375.05,653,747,0
4793147,375.98,653,749,0
4793157,377.91,653,747,0
4793167,380.47,653,749,0
4793177,384.83,653,747,0
4793187,391.01,653,749,0
4793197,400.39,653,747,0
4793207,412.96,653,749,0
4793217,429.69,653,747,0
4793236,450.01,695,746,0
4793239,474.35,695,749,0
4793248,500.82,695,749,0
4793259,528.86,695,748,0
4793268,556.03,695,749,0
4793278,581.52,695,747,0
4793288,602.84,695,748,0
4793298,619.60,695,748,0
4793308,629.96,695,749,0
4793318,634.60,695,747,0
4793328,632.54,695,748,0
4793338,625.35,695,748,0
4793348,612.81,695,749,0
4793358,596.97,695,747,0
4793368,577.39,695,748,0
4793378,556.40,695,748,0
4793388,533.83,695,749,0
4793398,511.55,695,747,0
4793408,489.06,695,748,0
4793418,468.12,695,748,0
4793428,447.99,695,748,0
4793438,430.55,695,747,0
4793448,414.66,695,748,0
4793458,401.90,695,748,0
4793468,391.13,695,748,0
4793478,383.72,695,747,0
4793488,378.32,695,748,0
4793498,375.95,695,748,0
4793508,374.94,695,748,0
4793518,376.33,695,747,0
4793528,378.50,695,748,0
4793538,382.34,695,748,0
4793548,386.09,695,748,0
4793559,390.61,695,748,0
4793569,394.37,695,748,0
4793579,398.41,695,748,0
4793589,401.03,695,748,0
4793600,403.38,695,748,0
4793609,404.12,695,748,0
4793619,404.56,695,748,0
4793629,403.06,695,748,0
4793639,401.41,695,748,0
4793649,398.33,695,748,0
4793659,395.79,695,748,0
4793669,392.17,695,748,0
4793679,389.25,695,748,0
4793689,385.61,695,748,0
4793699,383.24,695,748,0
4793709,380.56,695,748,0
4793719,379.23,695,748,0
4793729,377.49,695,748,0
4793739,377.09,695,748,0
4793749,376.25,695,748,0
4793759,376.56,695,748,0
4793769,376.35,695,747,0
4793779,377.31,695,748,0
4793789,377.56,695,748,0
4793799,378.72,695,748,0
4793809,378.98,695,748,0
4793819,380.23,695,748,0
4793829,380.84,695,748,0
4793839,382.73,695,748,0
4793849,384.23,695,747,0
4793859,387.80,695,748,0
4793869,392.49,695,748,0
4793879,400.74,695,748,0
4793889,411.41,695,748,0
4793900,426.88,695,748,0
4793910,445.43,695,748,0
4793920,468.57,695,749,0
4793939,493.52,703,747,0
4793943,520.36,703,751,0
4793951,546.44,703,747,0
4793961,571.68,703,749,0
4793971,592.60,703,747,0
4793981,609.74,703,749,0
4793991,620.44,703,747,0
4794001,626.10,703,749,0
4794011,625.00,703,747,0
4794021,618.87,703,749,0
4794031,606.91,703,747,0
4794041,591.89,703,749,0
4794051,572.81,703,747,0
4794061,552.64,703,749,0
4794071,530.50,703,747,0
4794081,509.27,703,749,0
4794091,487.63,703,747,0
4794101,467.90,703,749,0
4794112,448.60,703,747,0
4794121,432.26,703,749,0
4794131,417.06,703,747,0
4794141,405.04,703,749,0
4794151,394.53,703,747,0
4794161,387.47,703,749,0
4794171,381.97,703,747,0
4794181,379.79,703,749,0
4794191,378.74,703,747,0
4794201,380.36,703,749,0
4794211,382.40,703,747,0
4794221,386.31,703,749,0
4794231,389.86,703,747,0
4794241,394.44,703,749,0
4794251,397.87,703,747,0
4794261,401.76,703,749,0
4794271,404.06,703,747,0
4794281,406.44,703,749,0
4794291,406.91,703,747,0
4794301,407.49,703,749,0
4794311,406.32,703,747,0
4794321,405.37,703,749,0
4794331,402.77,703,747,0
4794341,400.61,703,749,0
4794351,397.30,703,747,0
4794361,394.85,703,749,0
4794371,391.42,703,747,0
4794381,389.20,703,749,0
4794391,386.44,703,747,0
4794401,384.98,703,749,0
4794412,383.06,703,747,0
4794422,382.44,703,749,0
4794432,381.45,703,747,0
4794442,381.62,703,749,0
4794452,381.22,703,747,0
4794462,381.75,703,749,0
4794472,381.53,703,747,0
4794482,382.14,703,749,0
4794492,382.01,703,747,0
4794502,382.74,703,749,0
4794512,383.16,703,747,0
4794522,385.13,703,749,0
4794532,387.87,703,747,0
4794542,393.70,703,749,0
4794552,401.63,703,747,0
4794562,413.96,703,749,0
4794572,429.78,703,747,0
4794583,450.68,703,749,0
4794602,474.60,663,748,0
4794605,501.42,663,750,0
4794614,529.45,663,747,0
4794625,558.03,663,749,0
4794635,584.38,663,747,0
4794645,607.28,663,749,0
4794655,624.60,663,747,0
4794665,635.99,663,749,0
4794675,641.22,663,747,0
4794685,639.78,663,749,0
4794695,632.18,663,747,0
4794705,619.05,663,749,0
4794715,601.85,663,747,0
4794725,581.50,663,749,0
4794735,559.58,663,747,0
4794745,536.43,663,748,0
4794755,513.46,663,747,0
4794765,491.12,663,749,0
4794775,470.34,663,747,0
4794785,451.13,663,749,0
4794796,434.24,663,747,0
4794806,419.39,663,749,0
4794816,407.48,663,748,0
4794826,397.70,663,748,0
4794836,390.84,663,748,0
4794846,386.22,663,749,0
4794856,384.05,663,747,0
4794866,383.35,663,748,0
4794876,384.70,663,747,0
4794886,386.94,663,749,0
4794896,390.60,663,747,0
4794906,394.10,663,748,0
4794916,398.19,663,747,0
4794926,401.73,663,748,0
4794936,405.54,663,748,0
4794946,408.12,663,748,0
4794956,410.40,663,747,0
4794967,411.35,663,748,0
4794977,412.27,663,748,0
4794987,411.81,663,748,0
4794997,411.39,663,748,0
4795008,409.60,663,748,0
4795017,408.09,663,748,0
4795027,405.49,663,748,0
4795037,403.25,663,748,0
4795047,399.96,663,748,0
4795057,397.31,663,748,0
4795067,393.88,663,748,0
4795077,391.56,663,748,0
4795087,388.73,663,748,0
4795097,386.97,663,748,0
4795107,384.75,663,748,0
4795117,383.71,663,748,0
4795127,382.34,663,748,0
4795137,382.15,663,748,0
4795147,381.55,663,748,0
4795157,382.07,663,748,0
4795167,382.14,663,748,0
4795177,383.51,663,748,0
4795187,384.77,663,748,0
4795197,387.93,663,748,0
4795207,391.89,663,748,0
4795217,398.99,663,748,0
4795227,408.17,663,748,0
4795237,421.70,663,748,0
4795247,438.46,663,748,0
4795257,459.92,663,748,0
4795276,483.99,674,746,0
4795279,511.08,674,749,0
4795288,538.53,674,748,0
4795298,566.40,674,749,0
4795308,591.35,674,748,0
4795318,613.27,674,748,0
4795328,629.31,674,748,0
4795338,640.23,674,749,0
4795348,644.10,674,748,0
4795358,642.40,674,748,0
4795368,633.84,674,748,0
4795378,621.11,674,749,0
4795388,603.34,674,747,0
4795398,583.61,674,748,0
4795408,561.23,674,748,0
4795418,538.96,674,749,0
4795428,515.66,674,747,0
4795438,494.25,674,748,0
4795448,473.30,674,748,0
4795458,455.12,674,749,0
4795468,438.07,674,747,0
4795479,424.25,674,749,0
4795489,412.05,674,747,0
4795499,403.50,674,749,0
4795509,396.58,674,747,0
4795520,393.02,674,749,0
4795529,390.87,674,748,0
4795539,391.60,674,749,0
4795549,392.92,674,747,0
4795559,396.24,674,749,0
4795569,399.30,674,748,0
4795579,403.54,674,749,0
4795589,406.59,674,747,0
4795599,410.10,674,749,0
4795609,411.95,674,748,0
4795619,414.03,674,749,0
4795629,414.23,674,747,0
4795639,414.38,674,749,0
4795649,412.64,674,748,0
4795659,411.29,674,749,0
4795669,408.54,674,747,0
4795679,406.32,674,749,0
4795689,402.84,674,747,0
4795699,400.32,674,749,0
4795709,396.92,674,747,0
4795719,394.67,674,749,0
4795729,391.69,674,747,0
4795739,389.85,674,749,0
4795749,387.41,674,747,0
4795759,386.22,674,749,0
4795769,384.44,674,747,0
4795779,384.18,674,749,0
4795789,383.31,674,748,0
4795799,383.73,674,748,0
4795809,383.38,674,747,0
4795820,384.25,674,749,0
4795830,384.35,674,747,0
4795840,385.49,674,749,0
4795850,385.73,674,747,0
4795860,387.27,674,749,0
4795870,388.47,674,747,0
4795880,391.84,674,749,0
4795890,396.13,674,747,0
4795900,403.89,674,749,0
4795910,414.00,674,747,0
4795920,428.96,674,749,0
4795930,447.10,674,747,0
4795940,470.00,674,749,0
4795950,495.15,674,747,0
4795969,522.97,693,746,0
4795972,550.36,693,748,0
4795981,577.47,693,749,0
4795991,600.81,693,747,0
4796001,620.63,693,749,0
4796011,634.20,693,747,0
4796021,642.37,693,749,0
4796032,643.63,693,747,0
4796041,639.67,693,749,0
4796051,629.35,693,747,0
4796061,615.10,693,749,0
4796071,596.39,693,747,0
4796081,575.83,693,749,0
4796091,553.21,693,747,0
4796101,530.77,693,749,0
4796111,507.96,693,747,0
4796121,486.93,693,749,0
4796131,466.63,693,747,0
4796141,449.00,693,749,0
4796151,433.02,693,747,0
4796161,420.11,693,749,0
4796171,409.11,693,747,0
4796181,401.40,693,749,0
4796191,395.62,693,747,0
4796201,392.95,693,749,0
4796211,391.85,693,747,0
4796221,393.05,693,749,0
4796231,394.79,693,747,0
4796241,398.03,693,749,0
4796251,401.11,693,747,0
4796261,405.02,693,749,0
4796271,408.18,693,747,0
4796281,411.43,693,749,0
4796291,413.40,693,747,0
4796301,415.34,693,749,0
4796311,415.84,693,747,0
4796321,415.97,693,749,0
4796332,414.57,693,747,0
4796342,412.77,693,749,0
4796352,409.92,693,747,0
4796362,407.07,693,749,0
4796372,403.58,693,747,0
4796382,400.49,693,749,0
4796392,397.13,693,747,0
4796402,394.35,693,749,0
4796412,391.72,693,747,0
4796422,389.83,693,749,0
4796432,387.99,693,747,0
4796442,386.80,693,749,0
4796452,385.66,693,747,0
4796462,385.12,693,750,0
4796472,384.48,693,747,0
4796482,384.25,693,749,0
4796492,383.92,693,747,0
4796503,384.24,693,749,0
4796513,384.94,693,747,0
4796523,386.97,693,749,0
4796533,390.67,693,747,0
4796544,397.11,693,749,0
4796553,406.42,693,747,0
4796563,419.71,693,749,0
4796573,437.07,693,747,0
4796583,458.56,693,749,0
4796602,483.21,633,748,0
4796605,509.42,633,750,0
4796614,536.81,633,747,0
4796624,563.48,633,749,0
4796634,587.85,633,747,0
4796644,608.04,633,749,0
4796654,623.11,633,747,0
4796664,631.99,633,749,0
4796674,635.38,633,747,0
4796684,632.05,633,749,0
4796694,623.04,633,747,0
4796704,608.50,633,749,0
4796715,590.09,633,748,0
4796724,568.46,633,749,0
4796734,545.40,633,747,0
4796744,521.11,633,749,0
4796754,497.12,633,748,0
4796764,473.81,633,749,0
4796774,452.40,633,747,0
4796784,432.56,633,749,0
4796794,415.25,633,747,0
4796804,400.18,633,749,0
4796814,388.12,633,747,0
4796824,378.36,633,749,0
4796834,371.69,633,748,0
4796844,367.20,633,749,0
4796854,365.43,633,747,0
4796864,365.34,633,749,0
4796874,367.34,633,752,0
4796884,370.15,633,749,0
4796894,374.26,633,747,0
4796904,378.26,633,749,0
4796914,382.64,633,748,0
4796924,386.30,633,749,0
4796934,389.64,633,747,0
4796944,391.81,633,749,0
4796954,393.36,633,748,0
4796964,393.34,633,748,0
4796974,392.72,633,747,0
4796984,390.88,633,749,0
4796994,388.90,633,747,0
4797004,386.27,633,749,0
4797015,383.96,633,748,0
4797025,381.36,633,748,0
4797035,379.97,633,748,0
4797045,378.65,633,748,0
4797056,378.71,633,748,0
4797065,379.10,633,748,0
4797075,380.87,633,748,0
4797085,382.75,633,748,0
4797095,386.08,633,748,0
4797105,389.23,633,748,0
4797115,393.40,633,748,0
4797125,396.93,633,748,0
4797135,401.06,633,748,0
4797145,404.51,633,748,0
4797155,408.69,633,748,0
4797165,412.34,633,748,0
4797175,417.47,633,748,0
4797185,423.33,633,748,0
4797195,432.31,633,748,0
4797205,443.79,633,748,0
4797215,459.63,633,748,0
4797235,478.68,632,747,0
4797238,502.31,632,749,0
4797247,528.36,632,748,0
4797257,556.92,632,749,0
4797267,584.59,632,748,0
4797277,611.11,632,749,0
4797287,633.06,632,748,0
4797297,650.74,632,749,0
4797307,661.32,632,747,0
4797317,665.98,632,749,0
4797327,663.07,632,748,0
4797337,654.95,632,749,0
4797347,640.61,632,747,0
4797357,623.24,632,748,0
4797367,601.74,632,747,0
4797377,579.19,632,748,0
4797387,554.58,632,747,0
4797398,530.87,632,749,0
4797407,506.83,632,747,0
4797417,484.89,632,749,0
4797427,463.50,632,747,0
4797437,445.22,632,749,0
4797447,428.40,632,748,0
4797457,415.03,632,749,0
4797467,403.20,632,747,0
4797477,394.95,632,749,0
4797487,388.24,632,748,0
4797497,384.78,632,749,0
4797507,382.32,632,747,0
4797517,382.35,632,748,0
4797527,382.72,632,748,0
4797537,385.24,632,749,0
4797547,387.66,632,747,0
4797557,391.53,632,749,0
4797568,394.54,632,747,0
4797577,398.32,632,749,0
4797587,400.84,632,747,0
4797597,403.76,632,749,0
4797607,404.90,632,747,0
4797617,406.18,632,749,0
4797627,405.74,632,747,0
4797637,405.64,632,749,0
4797647,404.12,632,748,0
4797657,403.23,632,749,0
4797667,401.10,632,747,0
4797677,400.00,632,749,0
4797687,397.86,632,747,0
4797697,396.83,632,749,0
4797707,394.91,632,747,0
4797717,394.16,632,749,0
4797727,392.49,632,748,0
4797737,392.00,632,749,0
4797747,390.54,632,747,0
4797757,390.08,632,749,0
4797767,388.64,632,748,0
4797777,388.23,632,749,0
4797787,386.88,632,747,0
4797797,386.74,632,749,0
4797807,386.01,632,747,0
4797817,387.12,632,749,0
4797827,388.75,632,747,0
4797837,393.41,632,749,0
4797847,399.76,632,747,0
4797857,410.55,632,749,0
4797868,424.27,632,747,0
4797878,443.00,632,749,0
4797897,464.26,663,748,0
4797900,488.82,663,750,0
4797910,514.21,663,747,0
4797919,540.37,663,749,0
4797929,563.53,663,747,0
4797939,584.03,663,749,0
4797949,598.68,663,747,0
4797959,608.72,663,749,0
4797969,612.10,663,747,0
4797979,610.01,663,749,0
4797989,601.61,663,747,0
4797999,589.60,663,749,0
4798009,573.00,663,747,0
4798019,554.62,663,749,0
4798029,533.69,663,747,0
4798039,512.83,663,749,0
4798049,491.06,663,747,0
4798059,470.60,663,749,0
4798069,450.28,663,747,0
4798080,432.19,663,749,0
4798089,415.16,663,747,0
4798099,400.89,663,749,0
4798109,388.06,663,747,0
4798119,378.40,663,749,0
4798129,370.52,663,747,0
4798139,365.91,663,749,0
4798149,362.89,663,747,0
4798159,362.67,663,749,0
4798169,363.37,663,747,0
4798179,366.17,663,749,0
4798189,369.25,663,747,0
4798199,373.67,663,749,0
4798209,377.50,663,747,0
4798219,382.02,663,749,0
4798229,385.40,663,747,0
4798239,388.92,663,749,0
4798249,391.00,663,747,0
4798259,392.97,663,749,0
4798269,393.28,663,747,0
4798279,393.50,663,749,0
4798289,392.23,663,747,0
4798299,391.18,663,749,0
4798309,388.94,663,747,0
4798319,387.07,663,749,0
4798329,384.26,663,747,0
4798339,382.30,663,749,0
4798349,379.68,663,747,0
4798359,377.89,663,749,0
4798369,375.48,663,747,0
4798380,374.01,663,749,0
4798390,372.16,663,747,0
4798400,371.17,663,749,0
4798410,369.83,663,747,0
4798420,369.37,663,749,0
4798430,368.74,663,747,0
4798440,369.29,663,749,0
4798450,370.28,663,747,0
4798460,373.02,663,749,0
4798470,377.26,663,747,0
4798480,384.60,663,749,0
4798490,394.87,663,747,0
4798500,409.35,663,749,0
4798510,427.08,663,747,0
4798520,448.65,663,749,0
4798539,472.41,642,748,0
4798542,497.70,642,750,0
4798551,523.04,642,747,0
4798561,546.94,642,749,0
4798571,567.06,642,747,0
4798581,582.94,642,749,0
4798592,592.94,642,747,0
4798601,597.50,642,749,0
4798611,596.20,642,747,0
4798621,589.07,642,749,0
4798631,576.75,642,747,0
4798641,560.92,642,749,0
4798651,542.22,642,747,0
4798661,521.88,642,749,0
4798671,500.36,642,747,0
4798681,478.87,642,749,0
4798691,457.65,642,747,0
4798701,437.83,642,749,0
4798711,419.36,642,747,0
4798721,402.93,642,749,0
4798731,388.42,642,747,0
4798741,376.42,642,749,0
4798751,366.74,642,747,0
4798761,359.70,642,749,0
4798771,354.91,642,747,0
4798781,352.53,642,749,0
4798791,351.95,642,747,0
4798801,353.25,642,749,0
4798811,355.79,642,747,0
4798821,359.45,642,749,0
4798831,363.73,642,747,0
4798841,368.40,642,749,0
4798851,372.91,642,747,0
4798861,377.35,642,749,0
4798871,381.32,642,747,0
4798881,384.69,642,749,0
4798892,387.40,642,747,0
4798902,389.21,642,749,0
4798912,390.30,642,747,0
4798922,390.38,642,749,0
4798932,389.80,642,747,0
4798942,388.31,642,749,0
4798952,386.29,642,747,0
4798962,383.76,642,749,0
4798972,381.35,642,747,0
4798982,378.71,642,749,0
4798992,376.23,642,747,0
4799002,373.55,642,749,0
4799012,371.50,642,747,0
4799022,369.85,642,749,0
4799032,368.65,642,747,0
4799042,367.47,642,749,0
4799052,367.16,642,747,0
4799063,367.58,642,749,0
4799073,369.64,642,748,0
4799083,372.92,642,749,0
4799093,378.77,642,747,0
4799104,387.24,642,749,0
4799113,399.55,642,747,0
4799123,415.20,642,749,0
4799133,435.11,642,747,0
4799143,457.62,642,748,0
4799153,482.89,642,748,0
4799172,508.55,633,746,0
4799175,534.06,633,750,0
4799184,556.93,633,748,0
4799194,576.83,633,748,0
4799204,591.28,633,748,0
4799214,600.84,633,747,0
4799224,603.85,633,748,0
4799234,601.75,633,748,0
4799244,593.98,633,748,0
4799254,582.37,633,747,0
4799264,566.19,633,748,0
4799275,548.00,633,748,0
4799284,527.47,633,748,0
4799294,507.10,633,747,0
4799304,485.82,633,748,0
4799314,465.81,633,748,0
4799324,446.20,633,748,0
4799334,428.91,633,747,0
4799344,412.61,633,748,0
4799354,399.10,633,748,0
4799364,386.90,633,748,0
4799374,377.80,633,748,0
4799384,370.06,633,748,0
4799394,365.28,633,748,0
4799404,361.77,633,748,0
4799414,360.85,633,748,0
4799424,360.68,633,748,0
4799434,362.32,633,748,0
4799444,363.98,633,748,0
4799454,366.99,633,748,0
4799464,369.31,633,748,0
4799474,372.30,633,748,0
4799484,374.22,633,748,0
4799494,376.47,633,747,0
4799504,377.49,633,748,0
4799514,378.76,633,748,0
4799524,378.61,633,748,0
4799534,378.77,633,748,0
4799544,377.64,633,748,0
4799554,376.93,633,748,0
4799564,375.03,633,748,0
4799575,373.86,633,748,0
4799585,371.72,633,748,0
4799595,370.47,633,749,0
4799605,368.40,633,747,0
4799616,367.42,633,748,0
4799625,365.88,633,748,0
4799635,365.83,633,748,0
4799645,365.67,633,748,0
4799655,367.91,633,749,0
4799665,371.28,633,748,0
4799675,378.48,633,749,0
4799685,388.19,633,748,0
4799695,402.88,633,749,0
4799705,420.62,633,748,0
4799724,442.89,552,747,0
4799727,466.79,552,748,0
4799736,493.30,552,749,0
4799746,518.62,552,747,0
4799756,543.21,552,749,0
4799766,563.42,552,748,0
4799776,580.01,552,749,0
4799787,590.16,552,747,0
4799796,595.60,552,749,0
4799806,594.00,552,747,0
4799816,587.92,552,749,0
4799826,575.90,552,747,0
4799836,561.02,552,749,0
4799846,542.28,552,747,0
4799856,522.65,552,749,0
4799866,500.82,552,747,0
4799876,479.74,552,749,0
4799886,458.09,552,747,0
4799896,438.52,552,749,0
4799906,419.46,552,747,0
4799916,403.21,552,749,0
4799926,388.10,552,747,0
4799936,376.46,552,749,0
4799946,366.29,552,747,0
4799956,359.82,552,749,0
4799966,354.90,552,748,0
4799976,353.30,552,749,0
4799986,352.74,552,747,0
4799996,354.92,552,749,0
4800006,357.34,552,747,0
4800016,361.65,552,749,0
4800026,365.36,552,747,0
4800036,370.01,552,749,0
4800046,373.18,552,747,0
4800056,376.60,552,749,0
4800066,378.26,552,747,0
4800076,380.20,552,749,0
4800087,380.39,552,747,0
4800097,380.83,552,749,0
4800107,379.85,552,747,0
4800117,379.43,552,749,0
4800128,378.01,552,747,0
4800137,377.37,552,749,0
4800147,375.63,552,747,0
4800157,374.80,552,749,0
4800167,373.06,552,747,0
4800177,372.35,552,749,0
4800187,370.92,552,747,0
4800197,370.56,552,749,0
4800207,369.58,552,747,0
4800217,369.96,552,749,0
4800227,370.02,552,747,0
4800237,372.02,552,749,0
4800247,374.67,552,747,0
4800257,380.52,552,749,0
4800267,388.25,552,747,0
4800277,400.43,552,749,0
4800287,415.73,552,747,0
4800297,436.04,552,749,0
4800307,458.83,552,747,0
4800326,485.02,602,746,0
4800329,511.72,602,747,0
4800338,539.02,602,749,0
4800348,563.44,602,747,0
4800358,585.04,602,749,0
4800368,600.84,602,747,0
4800378,611.73,602,749,0
4800388,615.71,602,747,0
4800398,614.21,602,749,0
4800408,606.05,602,747,0
4800418,593.52,602,749,0
4800428,576.09,602,747,0
4800438,556.52,602,749,0
4800448,535.28,602,756,0
4800458,514.88,602,753,0
4800468,493.96,602,744,0
4800478,475.07,602,751,0
4800488,456.41,602,746,0
4800498,439.96,602,753,0
4800508,423.98,602,744,0
4800518,409.89,602,752,0
4800528,395.61,602,747,0
4800538,383.90,602,753,0
4800548,372.83,602,745,0
4800558,365.21,602,751,0
4800568,358.67,602,747,0
4800578,355.47,602,752,0
4800588,353.06,602,746,0
4800599,353.38,602,755,0
4800609,354.13,602,743,0
4800619,356.79,602,758,0
4800629,359.04,602,740,0
4800640,362.54,602,756,0
4800649,365.16,602,744,0
4800659,368.50,602,757,0
4800669,370.58,602,740,0
4800679,372.72,602,757,0
4800689,373.45,602,744,0
4800699,374.30,602,757,0
4800709,374.04,602,740,0
4800719,373.81,602,759,0
4800729,372.41,602,744,0
4800739,371.47,602,756,0
4800749,369.87,602,743,0
4800759,368.75,602,755,0
4800769,366.99,602,744,0
4800779,366.05,602,758,0
4800789,364.70,602,742,0
4800799,364.15,602,756,0
4800809,363.16,602,742,0
4800819,363.16,602,756,0
4800829,363.02,602,744,0
4800839,364.22,602,754,0
4800849,365.87,602,743,0
4800859,369.98,602,758,0
4800869,375.81,602,744,0
4800879,385.21,602,755,0
4800889,397.53,602,738,0
4800899,414.56,602,758,0
4800909,434.71,602,744,0
4800928,458.54,602,742,0
4800931,484.30,602,742,0
4800940,511.64,602,761,0
4800950,537.33,602,743,0
4800960,560.46,602,755,0
4800970,578.84,602,742,0
4800980,592.04,602,755,0
4800990,598.85,602,744,0
4801000,599.19,602,755,0
4801010,592.92,602,744,0
4801020,581.59,602,754,0
4801030,565.81,602,745,0
4801040,546.84,602,755,0
4801050,525.72,602,742,0
4801060,503.39,602,755,0
4801070,480.43,602,745,0
4801080,457.97,602,755,0
4801090,436.68,602,743,0
4801100,417.15,602,755,0
4801111,399.62,602,741,0
4801121,384.13,602,753,0
4801131,371.45,602,742,0
4801141,361.24,602,753,0
4801152,354.14,602,742,0
4801161,349.26,602,754,0
4801171,346.99,602,742,0
4801181,346.35,602,753,0
4801191,348.18,602,744,0
4801201,350.69,602,753,0
4801211,354.81,602,738,0
4801221,358.60,602,752,0
4801231,363.39,602,744,0
4801241,367.47,602,754,0
4801251,371.75,602,738,0
4801261,374.56,602,753,0
4801271,377.35,602,744,0
4801281,378.62,602,759,0
4801291,379.68,602,738,0
4801301,379.13,602,752,0
4801311,378.53,602,742,0
4801321,376.66,602,752,0
4801331,374.92,602,739,0
4801341,372.16,602,753,0
4801351,370.10,602,743,0
4801361,367.41,602,752,0
4801371,365.49,602,744,0
4801381,363.16,602,753,0
4801391,362.04,602,743,0
4801401,360.57,602,752,0
4801411,360.18,602,737,0
4801421,359.57,602,753,0
4801431,360.17,602,743,0
4801441,360.38,602,752,0
4801452,361.59,602,745,0
4801462,362.06,602,752,0
4801472,363.80,602,746,0
4801482,364.76,602,752,0
4801492,367.10,602,747,0
4801502,369.21,602,752,0
4801512,373.69,602,746,0
4801522,379.27,602,752,0
4801532,388.96,602,746,0
4801542,401.10,602,752,0
4801552,418.47,602,744,0
4801571,438.52,643,744,0
4801574,463.69,643,750,0
4801583,490.27,643,751,0
4801593,518.86,643,747,0
4801603,545.00,643,750,0
4801613,569.86,643,749,0
4801623,589.06,643,751,0
4801633,604.08,643,747,0
4801643,610.96,643,750,0
4801653,612.77,643,749,0
4801664,606.71,643,749,0
4801673,596.77,643,747,0
4801683,580.34,643,750,0
4801693,562.15,643,748,0
4801703,539.86,643,749,0
4801713,517.88,643,747,0
4801723,493.61,643,750,0
4801733,471.49,643,748,0
4801743,448.71,643,750,0
4801753,429.26,643,748,0
4801763,409.89,643,750,0
4801773,394.63,643,749,0
4801783,379.91,643,749,0
4801793,369.48,643,748,0
4801803,360.04,643,751,0
4801813,355.05,643,749,0
4801823,350.71,643,749,0
4801833,350.58,643,750,0
4801843,350.36,643,751,0
4801853,353.60,643,748,0
4801863,356.08,643,750,0
4801873,360.98,643,749,0
4801883,364.20,643,751,0
4801893,369.07,643,748,0
4801903,371.53,643,750,0
4801913,375.36,643,749,0
4801923,376.75,643,751,0
4801933,379.14,643,747,0
4801943,379.14,643,750,0
4801953,380.30,643,749,0
4801964,379.05,643,749,0
4801974,379.04,643,749,0
4801984,376.63,643,748,0
4801994,375.62,643,750,0
4802004,372.69,643,749,0
4802014,371.33,643,749,0
4802024,368.10,643,749,0
4802034,367.09,643,750,0
4802044,364.36,643,749,0
4802054,363.82,643,749,0
4802064,361.86,643,749,0
4802074,362.16,643,749,0
4802084,361.13,643,749,0
4802094,362.46,643,750,0
4802104,362.24,643,749,0
4802114,364.14,643,749,0
4802124,364.57,643,749,0
4802135,367.01,643,750,0
4802145,367.61,643,748,0
4802155,369.78,643,750,0
4802165,370.02,643,748,0
4802176,371.64,643,750,0
4802185,371.49,643,748,0
4802195,372.89,643,750,0
4802205,372.45,643,748,0
4802215,374.07,643,750,0
4802225,375.08,643,748,0
4802235,379.34,643,750,0
4802245,384.55,643,748,0
4802255,394.76,643,750,0
4802265,407.13,643,748,0
4802275,425.65,643,750,0
4802294,446.71,723,749,0
4802297,472.21,723,752,0
4802306,498.46,723,747,0
4802316,526.82,723,751,0
4802326,552.21,723,748,0
4802336,575.89,723,751,0
4802347,592.98,723,747,0
4802356,605.76,723,751,0
4802366,610.93,723,748,0
4802376,610.61,723,751,0
4802386,602.50,723,747,0
4802396,590.39,723,750,0
4802406,572.66,723,748,0
4802416,553.18,723,751,0
4802426,530.28,723,747,0
4802436,508.00,723,750,0
4802446,484.34,723,748,0
4802456,462.60,723,751,0
4802466,440.60,723,747,0
4802476,421.65,723,751,0
4802486,403.28,723,748,0
4802496,388.28,723,751,0
4802506,374.23,723,747,0
4802516,364.09,723,751,0
4802526,355.40,723,748,0
4802536,350.70,723,751,0
4802546,347.15,723,747,0
4802556,347.19,723,751,0
4802566,347.95,723,748,0
4802576,351.56,723,751,0
4802586,354.95,723,747,0
4802596,360.07,723,751,0
4802606,364.03,723,748,0
4802616,369.04,723,751,0
4802626,372.24,723,747,0
4802636,375.85,723,750,0
4802647,377.31,723,747,0
4802657,379.02,723,751,0
4802667,378.93,723,746,0
4802677,379.12,723,752,0
4802688,377.37,723,745,0
4802697,376.19,723,751,0
4802707,373.56,723,747,0
4802717,371.93,723,752,0
4802727,369.34,723,745,0
4802737,367.95,723,751,0
4802747,365.74,723,747,0
4802757,364.70,723,751,0
4802767,363.03,723,745,0
4802777,362.77,723,751,0
4802787,361.72,723,747,0
4802797,361.76,723,751,0
4802807,361.02,723,745,0
4802817,361.66,723,751,0
4802827,361.76,723,747,0
4802837,363.12,723,751,0
4802847,363.73,723,745,0
4802857,365.22,723,753,0
4802867,366.10,723,747,0
4802877,367.87,723,751,0
4802887,368.72,723,746,0
4802897,370.26,723,753,0
4802907,370.78,723,747,0
4802917,372.05,723,751,0
4802927,372.46,723,746,0
4802937,373.44,723,753,0
4802947,373.52,723,747,0
4802957,374.95,723,751,0
4802967,376.59,723,747,0
4802977,380.62,723,752,0
4802988,386.52,723,745,0
4802998,396.52,723,753,0
4803008,410.12,723,745,0
4803027,428.94,733,744,0
4803031,451.93,733,746,0
4803039,478.95,733,753,0
4803049,507.34,733,746,0
4803059,535.99,733,754,0
4803069,562.52,733,745,0
4803079,585.64,733,753,0
4803089,603.40,733,745,0
4803099,614.55,733,755,0
4803109,618.93,733,746,0
4803119,617.11,733,753,0
4803129,609.45,733,745,0
4803139,596.88,733,754,0
4803149,580.38,733,745,0
4803159,561.06,733,753,0
4803169,539.74,733,746,0
4803179,517.45,733,753,0
4803189,495.16,733,745,0
4803200,473.30,733,754,0
4803209,452.46,733,745,0
4803219,433.17,733,754,0
4803229,415.72,733,745,0
4803239,400.37,733,752,0
4803249,387.40,733,745,0
4803259,376.87,733,753,0
4803269,369.37,733,746,0
4803279,364.16,733,752,0
4803289,361.15,733,745,0
4803299,360.21,733,754,0
4803309,361.43,733,745,0
4803319,364.09,733,754,0
4803329,367.75,733,745,0
4803339,371.94,733,754,0
4803349,376.71,733,744,0
4803359,381.34,733,754,0
4803369,385.61,733,747,0
4803379,388.98,733,754,0
4803389,391.43,733,746,0
4803399,392.76,733,753,0
4803409,393.22,733,737,0
4803419,392.60,733,759,0
4803429,391.26,733,733,0
4803439,388.95,733,754,0
4803449,386.40,733,737,0
4803459,383.62,733,760,0
4803469,380.73,733,744,0
4803479,377.21,733,754,0
4803489,374.06,733,743,0
4803500,371.17,733,754,0
4803510,369.54,733,745,0
4803520,367.87,733,754,0
4803530,367.40,733,744,0
4803540,367.28,733,753,0
4803550,368.44,733,745,0
4803560,369.42,733,752,0
4803570,371.18,733,746,0
4803580,371.98,733,753,0
4803590,373.40,733,745,0
4803600,373.97,733,753,0
4803610,375.43,733,745,0
4803620,376.16,733,752,0
4803630,377.66,733,745,0
4803640,378.36,733,753,0
4803650,379.88,733,745,0
4803660,380.56,733,752,0
4803671,381.93,733,745,0
4803681,381.87,733,752,0
4803691,382.59,733,745,0
4803701,382.42,733,751,0
4803712,384.13,733,746,0
4803721,386.19,733,752,0
4803731,391.66,733,746,0
4803741,398.92,733,752,0
4803751,411.72,733,747,0
4803761,427.79,733,752,0
4803771,449.67,733,746,0
4803790,474.19,763,745,0
4803793,503.24,763,751,0
4803802,532.48,763,752,0
4803812,562.98,763,748,0
4803822,589.43,763,750,0
4803832,613.26,763,749,0
4803842,630.41,763,751,0
4803852,642.59,763,747,0
4803862,646.35,763,750,0
4803872,645.05,763,749,0
4803883,635.82,763,749,0
4803892,623.32,763,747,0
4803902,605.14,763,750,0
4803912,585.85,763,749,0
4803922,563.10,763,749,0
4803932,541.25,763,747,0
4803942,517.69,763,750,0
4803952,497.08,763,749,0
4803962,476.02,763,749,0
4803972,458.57,763,747,0
4803982,441.38,763,750,0
4803992,428.41,763,749,0
4804002,416.03,763,749,0
4804012,407.92,763,747,0
4804022,400.36,763,750,0
4804032,396.95,763,748,0
4804042,393.75,763,749,0
4804052,394.21,763,748,0
4804062,394.32,763,750,0
4804072,397.48,763,748,0
4804082,399.65,763,750,0
4804092,404.13,763,749,0
4804102,406.83,763,751,0
4804112,411.17,763,748,0
4804122,413.05,763,750,0
4804132,416.08,763,749,0
4804142,416.52,763,751,0
4804152,417.95,763,748,0
4804162,416.68,763,750,0
4804172,416.78,763,748,0
4804183,414.53,763,749,0
4804193,413.86,763,750,0
4804203,410.99,763,749,0
4804213,409.75,763,749,0
4804224,406.52,763,748,0
4804233,405.21,763,750,0
4804243,401.93,763,749,0
4804253,400.75,763,749,0
4804263,398.04,763,748,0
4804273,397.69,763,750,0
4804283,395.89,763,749,0
4804293,396.61,763,750,0
4804303,395.57,763,748,0
4804313,396.73,763,749,0
4804323,396.08,763,749,0
4804333,397.47,763,750,0
4804343,396.94,763,748,0
4804353,398.55,763,750,0
4804363,398.13,763,749,0
4804373,399.72,763,750,0
4804383,399.16,763,748,0
4804393,400.31,763,750,0
4804403,399.32,763,749,0
4804413,400.29,763,750,0
4804423,399.39,763,749,0
4804433,400.95,763,750,0
4804443,401.69,763,749,0
4804453,406.58,763,750,0
4804463,412.49,763,748,0
4804473,423.96,763,750,0
4804483,437.56,763,749,0
4804493,457.49,763,750,0
4804512,479.63,722,749,0
4804515,506.61,722,752,0
4804524,534.03,722,749,0
4804534,563.51,722,751,0
4804544,589.45,722,748,0
4804554,613.92,722,751,0
4804564,631.73,722,748,0
4804574,645.70,722,750,0
4804584,651.87,722,748,0
4804594,652.94,722,751,0
4804604,646.40,722,748,0
4804614,636.72,722,750,0
4804624,621.21,722,748,0
4804634,604.17,722,751,0
4804644,583.12,722,748,0
4804654,562.86,722,750,0
4804664,540.70,722,747,0
4804674,520.69,722,751,0
4804684,499.78,722,748,0
4804695,481.72,722,751,0
4804705,463.85,722,747,0
4804715,449.54,722,751,0
4804725,435.70,722,747,0
4804736,425.55,722,751,0
4804745,416.26,722,747,0
4804755,410.99,722,751,0
4804765,406.84,722,747,0
4804775,406.16,722,751,0
4804785,405.98,722,747,0
4804795,408.60,722,751,0
4804805,411.04,722,747,0
4804815,415.40,722,751,0
4804825,418.45,722,747,0
4804835,422.64,722,751,0
4804845,425.02,722,747,0
4804855,427.89,722,751,0
4804865,428.56,722,747,0
4804875,429.72,722,751,0
4804885,428.69,722,747,0
4804895,428.06,722,751,0
4804905,425.34,722,747,0
4804915,423.31,722,751,0
4804925,419.74,722,747,0
4804935,417.29,722,751,0
4804945,413.35,722,747,0
4804955,410.89,722,751,0
4804965,407.45,722,747,0
4804975,405.73,722,751,0
4804985,403.15,722,747,0
4804995,402.42,722,751,0
4805005,400.84,722,747,0
4805015,400.97,722,751,0
4805025,400.04,722,747,0
4805036,400.50,722,751,0
4805046,399.83,722,747,0
4805056,400.44,722,752,0
4805066,399.84,722,744,0
4805076,400.19,722,754,0
4805086,399.44,722,747,0
4805096,399.78,722,752,0
4805106,399.42,722,744,0
4805116,400.28,722,753,0
4805126,401.10,722,747,0
4805136,404.54,722,751,0
4805146,409.61,722,745,0
4805156,418.94,722,754,0
4805166,431.47,722,747,0
4805176,449.29,722,751,0
4805186,470.67,722,745,0
4805196,496.70,722,753,0
4805216,524.26,704,752,0
4805219,553.03,704,754,0
4805228,580.75,704,744,0
4805238,606.11,704,754,0
4805249,626.78,704,745,0
4805259,642.23,704,754,0
4805269,651.29,704,746,0
4805279,653.90,704,754,0
4805289,650.85,704,745,0
4805299,641.59,704,754,0
4805309,627.96,704,744,0
4805319,610.31,704,754,0
4805329,590.80,704,745,0
4805339,569.43,704,753,0
4805349,548.30,704,744,0
4805359,526.83,704,754,0
4805369,507.04,704,745,0
4805379,488.17,704,754,0
4805389,471.53,704,744,0
4805399,455.94,704,754,0
4805409,443.02,704,745,0
4805420,431.53,704,753,0
4805430,423.27,704,745,0
4805440,416.16,704,752,0
4805450,412.21,704,746,0
4805460,409.32,704,751,0
4805470,409.27,704,746,0
4805480,409.53,704,752,0
4805490,411.90,704,746,0
4805500,413.52,704,752,0
4805510,416.66,704,745,0
4805520,418.48,704,753,0
4805530,421.46,704,746,0
4805540,422.78,704,752,0
4805550,424.78,704,745,0
4805560,424.97,704,753,0
4805570,426.09,704,746,0
4805580,425.17,704,751,0
4805591,424.82,704,747,0
4805601,422.51,704,752,0
4805611,421.33,704,748,0
4805621,418.53,704,750,0
4805632,417.13,704,749,0
4805641,414.05,704,751,0
4805651,412.83,704,748,0
4805661,410.27,704,750,0
4805671,409.72,704,749,0
4805681,407.62,704,751,0
4805691,407.65,704,748,0
4805701,406.08,704,751,0
4805711,406.57,704,749,0
4805721,405.37,704,751,0
4805731,406.20,704,748,0
4805741,405.37,704,751,0
4805751,406.42,704,749,0
4805761,405.61,704,751,0
4805771,406.67,704,748,0
4805781,406.17,704,751,0
4805791,408.09,704,749,0
4805801,409.05,704,749,0
4805811,413.15,704,748,0
4805821,417.77,704,751,0
4805831,427.44,704,749,0
4805841,439.18,704,749,0
4805851,456.74,704,748,0
4805870,476.45,654,747,0
4805873,501.51,654,751,0
4805882,527.67,654,748,0
4805892,556.74,654,749,0
4805902,583.01,654,749,0
4805912,608.55,654,750,0
4805922,628.14,654,748,0
4805932,644.56,654,749,0
4805942,653.17,654,749,0
4805952,657.24,654,750,0
4805962,653.27,654,748,0
4805972,645.90,654,750,0
4805982,632.22,654,749,0
4805992,617.11,654,750,0
4806002,597.32,654,748,0
4806012,577.85,654,750,0
4806022,555.82,654,749,0
4806032,535.99,654,749,0
4806042,514.82,654,748,0
4806052,496.58,654,750,0
4806062,477.89,654,749,0
4806072,463.09,654,750,0
4806082,448.28,654,748,0
4806092,437.40,654,750,0
4806103,426.61,654,748,0
4806113,419.95,654,750,0
4806123,413.50,654,748,0
4806133,410.73,654,750,0
4806144,407.73,654,748,0
4806153,408.37,654,750,0
4806163,408.30,654,748,0
4806173,411.04,654,750,0
4806183,412.53,654,748,0
4806193,416.31,654,750,0
4806203,418.36,654,748,0
4806213,421.77,654,750,0
4806223,422.61,654,748,0
4806233,424.57,654,750,0
4806243,423.88,654,748,0
4806253,424.26,654,750,0
4806263,421.95,654,748,0
4806273,421.03,654,750,0
4806283,417.89,654,748,0
4806293,416.29,654,751,0
4806303,412.78,654,748,0
4806313,410.96,654,751,0
4806323,407.20,654,748,0
4806333,405.55,654,750,0
4806343,402.26,654,748,0
4806353,401.32,654,751,0
4806363,399.17,654,748,0
4806373,399.20,654,750,0
4806383,398.07,654,748,0
4806393,399.16,654,751,0
4806403,398.77,654,748,0
4806413,400.30,654,750,0
4806423,400.12,654,748,0
4806433,401.54,654,751,0
4806444,401.12,654,748,0
4806454,402.07,654,751,0
4806464,401.54,654,747,0
4806474,402.62,654,751,0
4806484,402.95,654,747,0
4806494,406.18,654,751,0
4806504,409.90,654,747,0
4806514,418.16,654,751,0
4806524,428.69,654,747,0
4806534,444.86,654,751,0
4806544,463.67,654,747,0
4806554,487.30,654,751,0
4806574,511.89,703,750,0
4806577,538.11,703,756,0
4806586,562.72,703,745,0
4806596,586.16,703,754,0
4806606,604.50,703,746,0
4806616,619.18,703,753,0
4806626,626.88,703,744,0
4806636,629.83,703,755,0
4806646,626.71,703,745,0
4806657,618.74,703,754,0
4806667,605.66,703,744,0
4806677,589.69,703,755,0
4806687,570.63,703,742,0
4806697,550.60,703,756,0
4806707,529.37,703,744,0
4806717,508.86,703,755,0
4806727,488.93,703,743,0
4806737,470.35,703,755,0
4806747,452.89,703,744,0
4806757,437.37,703,756,0
4806767,423.80,703,744,0
4806777,412.33,703,755,0
4806787,402.89,703,745,0
4806797,395.81,703,756,0
4806807,390.94,703,742,0
4806817,388.38,703,755,0
4806828,387.63,703,742,0
4806838,388.25,703,755,0
4806848,390.32,703,743,0
4806858,392.92,703,754,0
4806868,396.29,703,744,0
4806878,399.50,703,755,0
4806888,402.57,703,742,0
4806898,404.71,703,753,0
4806908,406.64,703,743,0
4806918,407.48,703,755,0
4806928,408.06,703,743,0
4806938,407.02,703,754,0
4806948,405.90,703,744,0
4806958,403.83,703,756,0
4806968,401.86,703,742,0
4806978,398.86,703,754,0
4806988,396.38,703,743,0
4806999,393.26,703,754,0
4807009,391.21,703,744,0
4807019,388.49,703,753,0
4807029,387.14,703,745,0
4807040,385.26,703,752,0
4807049,384.79,703,744,0
4807059,383.70,703,753,0
4807069,384.26,703,745,0
4807079,383.93,703,752,0
4807089,385.11,703,744,0
4807099,384.94,703,753,0
4807109,386.25,703,744,0
4807119,386.26,703,752,0
4807129,387.25,703,743,0
4807139,386.79,703,753,0
4807149,387.58,703,745,0
4807159,387.06,703,752,0
4807169,388.29,703,744,0
4807179,389.40,703,753,0
4807189,393.65,703,744,0
4807199,399.29,703,752,0
4807209,409.53,703,747,0
4807219,422.31,703,753,0
4807229,440.39,703,745,0
4807239,461.10,703,753,0
4807259,486.14,685,752,0
4807262,511.09,685,749,0
4807271,538.45,685,750,0
4807281,562.70,685,749,0
4807291,585.55,685,750,0
4807301,602.48,685,750,0
4807311,615.75,685,749,0
4807321,621.18,685,749,0
4807331,622.84,685,750,0
4807341,616.29,685,750,0
4807351,606.60,685,749,0
4807361,590.82,685,749,0
4807371,574.08,685,750,0
4807382,553.18,685,749,0
4807391,533.37,685,749,0
4807401,511.36,685,749,0
4807411,491.84,685,750,0
4807421,471.23,685,749,0
4807431,454.10,685,749,0
4807441,436.37,685,749,0
4807451,422.72,685,750,0
4807461,409.00,685,749,0
4807471,399.57,685,749,0
4807481,390.44,685,749,0
4807491,385.85,685,750,0
4807501,381.40,685,749,0
4807511,381.24,685,749,0
4807521,380.69,685,749,0
4807531,383.74,685,750,0
4807541,385.58,685,749,0
4807552,389.99,685,750,0
4807561,392.44,685,749,0
4807571,396.80,685,750,0
4807581,398.58,685,749,0
4807591,401.58,685,750,0
4807601,401.75,685,749,0
4807611,403.24,685,750,0
4807621,401.88,685,749,0
4807631,401.87,685,750,0
4807641,399.13,685,750,0
4807651,398.06,685,750,0
4807661,394.66,685,749,0
4807671,393.17,685,750,0
4807681,389.61,685,750,0
4807691,388.40,685,749,0
4807701,385.36,685,749,0
4807711,384.87,685,750,0
4807721,382.51,685,748,0
4807731,382.83,685,750,0
4807741,381.38,685,749,0
4807751,382.25,685,750,0
4807761,381.23,685,749,0
4807771,382.49,685,750,0
4807781,381.70,685,749,0
4807791,383.25,685,750,0
4807801,382.75,685,749,0
4807811,384.36,685,750,0
4807821,383.96,685,749,0
4807831,385.60,685,749,0
4807841,385.25,685,749,0
4807852,387.49,685,750,0
4807862,388.58,685,748,0
4807872,393.21,685,750,0
4807882,398.33,685,748,0
4807892,408.60,685,751,0
4807902,420.64,685,749,0
4807912,438.79,685,750,0
4807922,458.61,685,748,0
4807942,483.37,683,747,0
4807945,507.90,683,747,0
4807954,534.20,683,751,0
4807964,557.28,683,747,0
4807974,578.58,683,752,0
4807984,593.54,683,747,0
4807994,604.65,683,751,0
4808004,608.14,683,747,0
4808014,607.28,683,751,0
4808024,599.57,683,747,0
4808034,588.51,683,751,0
4808044,572.59,683,747,0
4808054,555.18,683,751,0
4808065,534.86,683,746,0
4808075,514.76,683,753,0
4808085,493.49,683,744,0
4808095,473.41,683,754,0
4808105,453.27,683,745,0
4808115,435.58,683,753,0
4808125,418.69,683,744,0
4808135,404.60,683,754,0
4808145,392.03,683,746,0
4808155,382.72,683,753,0
4808165,375.31,683,744,0
4808175,371.01,683,754,0
4808185,368.22,683,745,0
4808195,368.29,683,753,0
4808205,369.31,683,744,0
4808215,372.22,683,754,0
4808225,375.11,683,745,0
4808236,379.28,683,755,0
4808246,383.01,683,744,0
4808256,386.99,683,756,0
4808266,389.91,683,743,0
4808276,392.51,683,756,0
4808286,393.81,683,745,0
4808296,394.90,683,756,0
4808306,394.76,683,741,0
4808316,394.02,683,757,0
4808326,392.30,683,744,0
4808336,390.32,683,755,0
4808346,387.95,683,743,0
4808356,385.65,683,758,0
4808366,382.89,683,744,0
4808376,380.35,683,755,0
4808386,378.06,683,742,0
4808396,376.41,683,757,0
4808407,375.13,683,741,0
4808417,374.32,683,756,0
4808427,374.22,683,741,0
4808437,374.63,683,755,0
4808448,375.81,683,743,0
4808457,377.07,683,756,0
4808467,378.55,683,741,0
4808477,379.54,683,754,0
4808487,380.79,683,743,0
4808497,381.54,683,756,0
4808507,382.75,683,742,0
4808517,383.64,683,755,0
4808527,386.10,683,741,0
4808537,389.76,683,758,0
4808547,396.26,683,741,0
4808557,405.10,683,754,0
4808567,417.92,683,741,0
4808577,434.15,683,756,0
4808596,454.37,655,754,0
4808599,476.42,655,752,0
4808608,501.66,655,744,0
4808619,526.79,655,753,0
4808628,551.63,655,744,0
4808638,572.95,655,754,0
4808648,591.01,655,744,0
4808658,603.09,655,752,0
4808668,610.61,655,744,0
4808678,610.64,655,754,0
4808688,606.16,655,744,0
4808698,595.61,655,753,0
4808708,582.02,655,743,0
4808718,564.44,655,753,0
4808728,546.31,655,744,0
4808738,526.12,655,753,0
4808748,506.71,655,743,0
4808758,486.48,655,753,0
4808768,468.47,655,744,0
4808778,450.54,655,753,0
4808788,435.42,655,748,0
4808798,420.68,655,754,0
4808808,409.03,655,745,0
4808818,398.22,655,753,0
4808828,391.09,655,746,0
4808838,384.93,655,754,0
4808848,382.08,655,744,0
4808858,379.61,655,753,0
4808868,380.29,655,747,0
4808878,381.14,655,754,0
4808888,384.19,655,743,0
4808898,386.27,655,752,0
4808908,390.09,655,746,0
4808919,392.68,655,752,0
4808929,396.55,655,747,0
4808939,398.23,655,751,0
4808949,400.86,655,749,0
4808960,401.37,655,750,0
4808969,402.67,655,747,0
4808979,401.57,655,751,0
4808989,401.49,655,749,0
4808999,398.94,655,750,0
4809009,397.76,655,747,0
4809019,394.40,655,752,0
4809029,392.87,655,749,0
4809039,389.56,655,751,0
4809049,388.19,655,747,0
4809059,385.35,655,752,0
4809069,384.86,655,748,0
4809079,383.06,655,751,0
4809089,383.34,655,747,0
4809099,382.34,655,752,0
4809109,383.61,655,748,0
4809119,383.38,655,751,0
4809129,385.24,655,749,0
4809139,385.34,655,752,0
4809149,387.34,655,749,0
4809159,387.62,655,751,0
4809169,389.58,655,749,0
4809179,389.45,655,752,0
4809189,390.77,655,748,0
4809199,389.81,655,751,0
4809209,390.94,655,749,0
4809219,390.57,655,751,0
4809229,393.14,655,748,0
4809239,395.63,655,751,0
4809249,403.03,655,749,0
4809260,412.45,655,750,0
4809270,428.30,655,750,0
4809280,446.38,655,749,0
4809299,470.31,703,748,0
4809303,495.20,703,748,0
4809311,523.60,703,751,0
4809321,549.39,703,749,0
4809331,574.69,703,751,0
4809341,593.98,703,748,0
4809351,610.27,703,750,0
4809361,618.76,703,749,0
4809371,623.08,703,751,0
4809381,619.28,703,748,0
4809391,612.38,703,750,0
4809401,599.15,703,749,0
4809411,584.24,703,751,0
4809421,564.79,703,748,0
4809431,545.91,703,750,0
4809441,524.51,703,749,0
4809451,505.11,703,750,0
4809461,484.29,703,748,0
4809472,466.46,703,751,0
4809481,448.37,703,748,0
4809491,433.99,703,751,0
4809501,419.38,703,748,0
4809511,408.68,703,751,0
4809521,398.32,703,749,0
4809531,392.09,703,750,0
4809541,386.24,703,748,0
4809551,384.28,703,751,0
4809561,382.18,703,749,0
4809571,383.54,703,750,0
4809581,384.19,703,748,0
4809591,387.39,703,750,0
4809601,389.29,703,749,0
4809611,393.40,703,751,0
4809621,395.47,703,748,0
4809631,398.93,703,751,0
4809641,399.89,703,748,0
4809651,402.24,703,751,0
4809661,402.04,703,748,0
4809671,402.84,703,751,0
4809681,400.83,703,748,0
4809691,400.24,703,750,0
4809701,397.25,703,748,0
4809711,395.81,703,751,0
4809721,392.14,703,748,0
4809731,390.42,703,750,0
4809741,387.04,703,748,0
4809751,385.78,703,751,0
4809761,382.89,703,748,0
4809772,382.28,703,751,0
4809782,380.40,703,748,0
4809792,380.58,703,751,0
4809802,379.25,703,747,0
4809812,379.56,703,751,0
4809822,378.36,703,747,0
4809832,379.20,703,751,0
4809842,378.45,703,747,0
4809852,379.26,703,751,0
4809862,378.75,703,748,0
4809872,380.07,703,751,0
4809882,380.18,703,747,0
4809892,381.80,703,751,0
4809902,381.73,703,748,0
4809912,383.22,703,751,0
4809922,383.24,703,747,0
4809932,384.50,703,751,0
4809943,383.88,703,747,0
4809953,384.39,703,751,0
4809963,383.54,703,747,0
4809973,383.81,703,752,0
4809984,383.01,703,745,0
4809993,384.21,703,751,0
4810003,385.52,703,747,0
4810013,390.33,703,752,0
4810023,397.22,703,745,0
4810033,408.98,703,751,0
4810043,423.94,703,747,0
4810062,444.45,763,746,0
4810065,468.18,763,743,0
4810074,495.86,763,753,0
4810084,523.89,763,745,0
4810094,552.21,763,754,0
4810104,577.26,763,746,0
4810114,599.60,763,755,0
4810124,615.49,763,745,0
4810134,625.58,763,754,0
4810144,628.07,763,745,0
4810155,624.79,763,754,0
4810164,615.00,763,745,0
4810174,601.07,763,754,0
4810184,582.40,763,745,0
4810194,561.97,763,754,0
4810204,539.52,763,745,0
4810214,517.55,763,754,0
4810224,495.36,763,745,0
4810234,474.68,763,754,0
4810244,454.80,763,745,0
4810254,437.51,763,756,0
4810264,421.50,763,745,0
4810274,408.06,763,753,0
4810284,396.13,763,745,0
4810294,387.30,763,754,0
4810304,380.31,763,745,0
4810314,376.19,763,754,0
4810324,373.56,763,745,0
4810334,373.52,763,754,0
4810344,374.44,763,745,0
4810354,377.09,763,754,0
4810364,379.76,763,745,0
4810374,383.52,763,754,0
4810384,386.62,763,745,0
4810394,389.82,763,753,0
4810404,391.76,763,745,0
4810414,393.68,763,753,0
4810424,394.20,763,745,0
4810434,394.57,763,754,0
4810444,393.63,763,746,0
4810455,392.58,763,754,0
4810465,390.61,763,744,0
4810475,388.63,763,754,0
4810485,386.12,763,742,0
4810496,383.77,763,756,0
4810505,381.05,763,743,0
4810515,378.68,763,754,0
4810525,376.33,763,739,0
4810535,374.52,763,756,0
4810545,372.95,763,745,0
4810555,371.89,763,754,0
4810565,371.37,763,742,0
4810575,371.34,763,756,0
4810585,371.54,763,745,0
4810595,372.11,763,757,0
4810605,372.85,763,739,0
4810615,373.71,763,757,0
4810625,374.35,763,745,0
4810635,375.23,763,756,0
4810645,376.19,763,742,0
4810655,377.25,763,757,0
4810665,378.46,763,741,0
4810675,379.74,763,757,0
4810685,380.93,763,741,0
4810695,382.11,763,757,0
4810705,383.02,763,742,0
4810715,383.78,763,755,0
4810725,384.15,763,742,0
4810735,384.02,763,756,0
4810745,383.80,763,740,0
4810755,384.29,763,756,0
4810765,386.04,763,742,0
4810775,389.76,763,757,0
4810785,396.43,763,738,0
4810796,407.02,763,756,0
4810806,422.23,763,736,0
4810825,441.66,763,741,0
4810828,466.19,763,750,0
4810838,493.26,763,752,0
4810847,522.20,763,744,0
4810857,550.00,763,752,0
4810867,576.40,763,746,0
4810877,597.88,763,753,0
4810887,614.97,763,744,0
4810897,624.19,763,753,0
4810907,628.12,763,746,0
4810917,624.61,763,752,0
4810927,616.80,763,745,0
4810937,602.93,763,753,0
4810947,586.75,763,745,0
4810957,566.68,763,752,0
4810967,546.42,763,744,0
4810977,524.52,763,754,0
4810987,504.44,763,746,0
4810997,483.86,763,752,0
4811008,465.90,763,748,0
4811017,448.32,763,753,0
4811027,433.82,763,745,0
4811037,419.73,763,753,0
4811047,408.88,763,748,0
4811057,398.76,763,754,0
4811067,392.06,763,745,0
4811077,385.96,763,753,0
4811087,383.44,763,746,0
4811097,381.51,763,753,0
4811107,382.64,763,745,0
4811117,383.48,763,754,0
4811127,386.59,763,747,0
4811137,388.90,763,753,0
4811147,392.70,763,745,0
4811157,394.76,763,753,0
4811167,397.79,763,746,0
4811177,398.75,763,752,0
4811187,400.28,763,745,0
4811197,399.60,763,753,0
4811207,399.55,763,746,0
4811217,397.63,763,752,0
4811227,396.37,763,744,0
4811237,393.26,763,752,0
4811247,391.59,763,746,0
4811257,388.50,763,752,0
4811267,386.81,763,745,0
4811277,384.17,763,753,0
4811287,383.34,763,747,0
4811297,381.78,763,752,0
4811308,382.53,763,748,0
4811318,381.86,763,752,0
4811328,383.32,763,748,0
4811338,383.35,763,750,0
4811348,385.22,763,749,0
4811358,385.41,763,751,0
4811368,387.04,763,748,0
4811378,386.56,763,751,0
4811388,387.85,763,749,0
4811398,387.17,763,751,0
4811408,388.32,763,748,0
4811418,387.41,763,750,0
4811428,388.44,763,750,0
4811438,387.67,763,751,0
4811448,388.71,763,748,0
4811458,387.68,763,750,0
4811468,388.59,763,749,0
4811479,387.51,763,749,0
4811489,388.52,763,750,0
4811499,387.93,763,749,0
4811509,390.57,763,750,0
4811520,393.35,763,749,0
4811529,401.09,763,750,0
4811539,410.32,763,749,0
4811549,426.12,763,751,0
4811569,444.34,743,749,0
4811572,468.24,743,751,0
4811581,493.80,743,748,0
4811591,522.96,743,751,0
4811601,550.40,743,748,0
4811611,577.97,743,751,0
4811621,599.92,743,748,0
4811631,618.63,743,751,0
4811641,630.05,743,748,0
4811651,636.55,743,751,0
4811661,634.93,743,748,0
4811671,628.78,743,751,0
4811681,615.77,743,748,0
4811692,600.07,743,751,0
4811702,579.99,743,747,0
4811712,559.55,743,751,0
4811722,536.76,743,747,0
4811732,515.23,743,753,0
4811742,493.09,743,747,0
4811752,473.43,743,751,0
4811762,454.28,743,747,0
4811772,437.99,743,753,0
4811782,422.52,743,747,0
4811792,410.15,743,752,0
4811802,398.84,743,747,0
4811812,390.83,743,753,0
4811822,384.02,743,747,0
4811832,380.63,743,751,0
4811842,378.21,743,748,0
4811852,378.62,743,752,0
4811863,379.42,743,745,0
4811873,382.34,743,754,0
4811883,385.19,743,745,0
4811893,389.21,743,754,0
4811904,392.14,743,745,0
4811913,395.87,743,754,0
4811923,398.18,743,745,0
4811933,400.66,743,755,0
4811943,401.75,743,746,0
4811953,402.76,743,754,0
4811963,402.32,743,745,0
4811973,401.80,743,755,0
4811983,399.84,743,746,0
4811993,398.13,743,754,0
4812003,395.26,743,745,0
4812013,392.74,743,755,0
4812023,389.39,743,746,0
4812033,386.96,743,754,0
4812043,384.06,743,745,0
4812053,382.15,743,755,0
4812063,379.84,743,746,0
4812073,378.56,743,755,0
4812083,377.02,743,745,0
4812093,376.63,743,755,0
4812103,375.97,743,746,0
4812113,376.32,743,756,0
4812123,376.27,743,745,0
4812133,377.09,743,755,0
4812143,377.28,743,745,0
4812153,377.96,743,755,0
4812163,377.89,743,745,0
4812173,378.27,743,755,0
4812183,377.89,743,744,0
4812193,377.96,743,755,0
4812204,377.50,743,745,0
4812214,377.74,743,757,0
4812224,377.69,743,744,0
4812234,378.21,743,756,0
4812244,379.56,743,742,0
4812254,382.78,743,755,0
4812264,387.82,743,742,0
4812274,395.93,743,757,0
4812284,407.69,743,740,0
4812294,424.16,743,755,0
4812304,444.94,743,742,0
4812314,469.51,743,755,0
4812334,497.00,765,755,0
4812337,525.46,765,752,0
4812346,554.42,765,744,0
4812356,580.95,765,754,0
4812366,604.32,765,746,0
4812376,622.27,765,755,0
4812386,634.19,765,744,0
4812396,638.72,765,754,0
4812406,637.95,765,746,0
4812417,629.82,765,753,0
4812427,617.49,765,748,0
4812437,599.38,765,752,0
4812447,579.64,765,749,0
4812457,556.86,765,750,0
4812467,534.92,765,747,0
4812477,511.76,765,752,0
4812487,491.30,765,749,0
4812497,470.60,765,751,0
4812507,453.40,765,747,0
4812517,436.35,765,752,0
4812527,423.22,765,749,0
4812537,410.38,765,751,0
4812547,401.27,765,747,0
4812557,392.27,765,752,0
4812567,387.22,765,748,0
4812577,382.35,765,751,0
4812588,381.48,765,749,0
4812598,380.65,765,750,0
4812608,383.37,765,750,0
4812618,385.44,765,749,0
4812628,390.02,765,750,0
4812638,393.06,765,750,0
4812648,398.01,765,750,0
4812658,400.41,765,749,0
4812668,403.80,765,750,0
4812678,404.37,765,750,0
4812688,406.15,765,750,0
4812698,405.03,765,749,0
4812708,405.19,765,750,0
4812718,402.74,765,750,0
4812728,401.87,765,750,0
4812738,398.78,765,749,0
4812748,397.48,765,750,0
4812759,393.99,765,749,0
4812769,392.45,765,750,0
4812779,388.97,765,749,0
4812789,387.65,765,751,0
4812800,384.67,765,748,0
4812809,384.13,765,751,0
4812819,381.86,765,748,0
4812829,381.90,765,751,0
4812839,380.47,765,748,0
4812849,381.49,765,751,0
4812859,380.70,765,749,0
4812869,381.82,765,750,0
4812879,381.06,765,748,0
4812889,382.41,765,751,0
4812899,381.82,765,749,0
4812909,383.16,765,750,0
4812919,382.51,765,748,0
4812929,383.99,765,750,0
4812939,383.56,765,749,0
4812949,384.89,765,751,0
4812959,384.20,765,748,0
4812969,385.81,765,751,0
4812979,386.21,765,749,0
4812989,389.79,765,751,0
4812999,393.20,765,748,0
4813009,401.28,765,751,0
4813019,411.18,765,749,0
4813029,427.33,765,751,0
4813039,445.91,765,748,0
4813049,470.15,765,751,0
4813068,495.44,735,749,0
4813071,523.68,735,752,0
4813080,550.65,735,748,0
4813090,577.49,735,751,0
4813100,598.99,735,748,0
4813110,617.16,735,751,0
4813120,627.61,735,747,0
4813130,633.09,735,751,0
4813140,630.83,735,748,0
4813150,623.55,735,751,0
4813160,609.25,735,747,0
4813170,592.03,735,751,0
4813180,570.16,735,748,0
4813190,548.34,735,751,0
4813200,524.45,735,747,0
4813210,502.63,735,751,0
4813220,480.29,735,748,0
4813230,461.21,735,751,0
4813240,442.38,735,748,0
4813250,426.84,735,751,0
4813260,411.50,735,748,0
4813271,399.35,735,751,0
4813281,387.59,735,747,0
4813291,379.23,735,751,0
4813301,371.40,735,748,0
4813312,366.95,735,752,0
4813321,363.28,735,748,0
4813331,362.85,735,751,0
4813341,363.07,735,748,0
4813351,365.75,735,752,0
4813361,368.18,735,747,0
4813371,372.33,735,751,0
4813381,375.57,735,748,0
4813391,379.64,735,751,0
4813401,381.94,735,747,0
4813411,384.61,735,751,0
4813421,385.37,735,748,0
4813431,386.33,735,751,0
4813441,385.25,735,747,0
4813451,384.66,735,752,0
4813461,382.40,735,748,0
4813471,380.74,735,752,0
4813481,377.52,735,746,0
4813491,375.35,735,751,0
4813501,372.07,735,748,0
4813511,370.04,735,752,0
4813521,367.07,735,747,0
4813531,365.68,735,751,0
4813541,363.63,735,748,0
4813551,363.14,735,751,0
4813561,361.86,735,747,0
4813571,362.16,735,751,0
4813581,361.68,735,748,0
4813591,362.55,735,752,0
4813601,362.34,735,747,0
4813612,363.35,735,753,0
4813622,363.63,735,745,0
4813632,365.11,735,755,0
4813642,365.72,735,746,0
4813652,367.22,735,754,0
4813662,367.80,735,745,0
4813672,369.23,735,754,0
4813682,369.80,735,746,0
4813692,370.63,735,754,0
4813702,370.40,735,745,0
4813712,370.62,735,754,0
4813722,370.18,735,745,0
4813732,370.64,735,754,0
4813742,371.30,735,745,0
4813752,374.26,735,754,0
4813762,379.24,735,745,0
4813772,388.21,735,754,0
4813783,400.79,735,743,0
4813793,418.64,735,756,0
4813812,440.65,744,757,0
4813815,466.38,744,754,0
4813825,495.02,744,743,0
4813835,524.67,744,754,0
4813845,553.61,744,744,0
4813855,579.10,744,755,0
4813865,600.11,744,746,0
4813875,614.65,744,754,0
4813885,623.41,744,744,0
4813895,624.06,744,755,0
4813905,619.03,744,746,0
4813915,607.28,744,754,0
4813925,591.77,744,744,0
4813935,571.52,744,753,0
4813945,550.24,744,745,0
4813955,526.94,744,754,0
4813965,504.46,744,744,0
4813975,481.39,744,753,0
4813985,460.49,744,745,0
4813996,440.20,744,753,0
4814006,423.12,744,747,0
4814016,406.42,744,751,0
4814026,393.05,744,748,0
4814036,380.52,744,751,0
4814046,371.54,744,747,0
4814056,363.36,744,752,0
4814066,359.10,744,748,0
4814076,355.38,744,751,0
4814086,355.44,744,748,0
4814096,355.35,744,751,0
4814106,358.46,744,748,0
4814116,360.81,744,751,0
4814126,365.41,744,747,0
4814136,368.29,744,752,0
4814146,372.74,744,748,0
4814156,375.05,744,751,0
4814167,378.63,744,749,0
4814177,379.47,744,750,0
4814187,381.52,744,750,0
4814197,380.98,744,749,0
4814208,381.63,744,750,0
4814217,379.85,744,750,0
4814227,379.47,744,750,0
4814237,376.71,744,749,0
4814247,375.69,744,750,0
4814257,372.57,744,750,0
4814267,371.58,744,750,0
4814277,368.84,744,750,0
4814287,368.37,744,750,0
4814297,366.20,744,750,0
4814307,366.53,744,750,0
4814317,365.25,744,750,0
4814327,366.38,744,751,0
4814337,365.66,744,750,0
4814347,367.27,744,749,0
4814357,367.10,744,750,0
4814367,369.13,744,750,0
4814377,369.17,744,749,0
4814387,371.31,744,749,0
4814397,371.43,744,750,0
4814407,373.53,744,750,0
4814417,373.37,744,749,0
4814427,375.06,744,749,0
4814437,374.57,744,750,0
4814447,375.94,744,750,0
4814457,374.97,744,749,0
4814467,375.75,744,749,0
4814477,374.50,744,750,0
4814487,375.59,744,750,0
4814497,375.33,744,749,0
4814508,378.44,744,750,0
4814518,381.65,744,749,0
4814528,390.03,744,751,0
4814538,400.48,744,748,0
4814548,417.35,744,751,0
4814567,436.62,755,749,0
4814570,461.42,755,752,0
4814579,487.56,755,748,0
4814589,516.92,755,751,0
4814599,543.99,755,748,0
4814609,570.31,755,752,0
4814619,590.53,755,748,0
4814629,606.83,755,751,0
4814639,615.24,755,748,0
4814649,618.17,755,751,0
4814659,612.80,755,748,0
4814669,603.09,755,751,0
4814679,586.82,755,748,0
4814689,568.57,755,751,0
4814699,546.42,755,748,0
4814709,524.39,755,751,0
4814720,500.40,755,748,0
4814729,478.64,755,751,0
4814739,456.46,755,748,0
4814749,437.29,755,751,0
4814759,418.22,755,748,0
4814769,402.64,755,751,0
4814779,387.53,755,748,0
4814789,376.15,755,751,0
4814799,365.39,755,748,0
4814809,358.59,755,751,0
4814819,352.41,755,748,0
4814829,349.89,755,751,0
4814839,347.82,755,748,0
4814849,349.25,755,751,0
4814859,350.50,755,748,0
4814869,354.25,755,751,0
4814879,357.00,755,748,0
4814889,361.59,755,751,0
4814899,364.75,755,748,0
4814909,369.29,755,751,0
4814919,371.90,755,748,0
4814929,375.49,755,752,0
4814939,376.84,755,748,0
4814949,378.99,755,751,0
4814959,378.91,755,748,0
4814969,379.58,755,751,0
4814979,377.95,755,748,0
4814989,377.23,755,751,0
4814999,374.64,755,748,0
4815009,373.29,755,752,0
4815020,370.37,755,748,0
4815030,368.85,755,751,0
4815040,366.11,755,748,0
4815050,364.79,755,752,0
4815060,362.32,755,747,0
4815070,361.46,755,751,0
4815080,359.60,755,748,0
4815090,359.17,755,751,0
4815100,358.00,755,747,0
4815110,358.47,755,751,0
4815120,358.33,755,748,0
4815130,359.65,755,751,0
4815140,360.18,755,747,0
4815150,362.23,755,751,0
4815160,363.44,755,748,0
4815170,365.75,755,751,0
4815180,366.81,755,747,0
4815191,368.76,755,752,0
4815201,369.56,755,745,0
4815211,370.98,755,754,0
4815221,371.07,755,745,0
4815232,371.48,755,754,0
4815241,370.61,755,745,0
4815251,370.51,755,755,0
4815261,369.63,755,745,0
4815271,369.65,755,754,0
4815281,369.67,755,745,0
4815291,371.96,755,754,0
4815301,376.34,755,745,0
4815311,384.85,755,755,0
4815321,396.51,755,745,0
4815331,413.50,755,754,0
4815350,434.65,783,753,0
4815353,460.38,783,755,0
4815362,488.94,783,746,0
4815372,519.60,783,756,0
4815382,549.29,783,743,0
4815392,577.06,783,756,0
4815403,600.14,783,741,0
4815412,618.10,783,755,0
4815422,629.30,783,742,0
4815432,633.58,783,758,0
4815442,630.71,783,737,0
4815452,622.31,783,755,0
4815462,608.63,783,743,0
4815472,591.17,783,757,0
4815482,570.80,783,738,0
4815492,549.43,783,755,0
4815502,527.28,783,744,0
4815512,505.46,783,757,0
4815522,484.20,783,737,0
4815532,464.64,783,757,0
4815542,446.45,783,744,0
4815552,430.11,783,758,0
4815562,415.42,783,740,0
4815572,402.87,783,757,0
4815582,392.28,783,743,0
4815592,384.01,783,757,0
4815602,377.75,783,742,0
4815612,373.75,783,757,0
4815622,371.51,783,746,0
4815632,371.19,783,758,0
4815642,372.33,783,742,0
4815652,374.85,783,756,0
4815662,377.89,783,746,0
4815672,381.44,783,756,0
4815682,385.04,783,742,0
4815692,388.50,783,757,0
4815703,391.48,783,741,0
4815713,393.60,783,756,0
4815723,395.09,783,741,0
4815733,395.54,783,754,0
4815744,395.72,783,743,0
4815753,394.90,783,756,0
4815763,393.82,783,742,0
4815773,391.77,783,755,0
4815783,390.08,783,743,0
4815793,387.74,783,757,0
4815803,385.94,783,740,0
4815813,383.34,783,754,0
4815823,381.70,783,743,0
4815833,379.82,783,758,0
4815843,378.80,783,738,0
4815853,377.40,783,757,0
4815863,377.02,783,743,0
4815873,376.59,783,756,0
4815883,376.88,783,742,0
4815893,376.70,783,755,0
4815903,377.39,783,742,0
4815913,377.62,783,755,0
4815923,378.42,783,736,0
4815933,378.59,783,756,0
4815943,379.53,783,743,0
4815953,379.93,783,754,0
4815963,380.89,783,738,0
4815973,381.22,783,755,0
4815983,382.31,783,743,0
4815993,382.69,783,754,0
4816003,383.30,783,736,0
4816013,382.99,783,755,0
4816023,383.25,783,741,0
4816033,382.96,783,754,0
4816044,383.96,783,744,0
4816054,385.21,783,753,0
4816064,389.52,783,746,0
4816074,396.05,783,753,0
4816084,407.52,783,748,0
4816094,422.58,783,753,0
4816113,443.19,763,751,0
4816116,467.05,763,749,0
4816125,496.26,763,749,0
4816135,526.14,763,752,0
4816145,557.86,763,749,0
4816155,586.40,763,751,0
4816165,613.24,763,749,0
4816175,634.12,763,753,0
4816185,650.41,763,749,0
4816195,658.05,763,752,0
4816205,660.78,763,750,0
4816215,655.57,763,752,0
4816225,646.44,763,749,0
4816235,630.92,763,751,0
4816245,613.68,763,749,0
4816256,592.52,763,750,0
4816265,571.96,763,749,0
4816275,549.47,763,752,0
4816285,529.27,763,749,0
4816295,508.32,763,751,0
4816305,490.40,763,749,0
4816315,472.11,763,752,0
4816325,457.37,763,749,0
4816335,442.52,763,750,0
4816345,431.31,763,749,0
4816355,420.20,763,751,0
4816365,413.15,763,749,0
4816375,406.38,763,750,0
4816385,403.39,763,749,0
4816395,400.49,763,751,0
4816405,401.29,763,750,0
4816415,401.59,763,750,0
4816425,404.80,763,749,0
4816435,406.61,763,753,0
4816445,410.42,763,749,0
4816455,412.48,763,750,0
4816465,416.15,763,749,0
4816475,417.48,763,752,0
4816485,419.95,763,749,0
4816495,419.83,763,750,0
4816505,420.87,763,749,0
4816515,419.75,763,752,0
4816525,419.65,763,748,0
4816535,417.02,763,750,0
4816545,415.77,763,750,0
4816556,412.45,763,750,0
4816566,410.77,763,750,0
4816576,407.20,763,749,0
4816586,405.42,763,751,0
4816596,402.08,763,749,0
4816606,400.82,763,750,0
4816616,397.91,763,749,0
4816626,397.04,763,750,0
4816636,394.76,763,749,0
4816646,394.87,763,750,0
4816656,393.45,763,749,0
4816666,394.30,763,751,0
4816676,393.83,763,749,0
4816686,395.55,763,750,0
4816696,395.81,763,749,0
4816706,398.06,763,750,0
4816716,398.42,763,750,0
4816727,400.57,763,751,0
4816737,400.66,763,748,0
4816747,402.22,763,751,0
4816757,401.64,763,748,0
4816768,402.43,763,751,0
4816777,401.23,763,748,0
4816787,401.68,763,751,0
4816797,400.62,763,748,0
4816807,402.10,763,751,0
4816817,403.53,763,749,0
4816827,409.37,763,751,0
4816837,417.14,763,749,0
4816847,430.90,763,751,0
4816857,447.69,763,749,0
4816867,471.05,763,751,0
4816886,496.88,773,750,0
4816889,526.83,773,752,0
4816898,556.50,773,749,0
4816908,587.33,773,751,0
4816918,614.10,773,748,0
4816928,638.12,773,752,0
4816939,654.75,773,748,0
4816948,666.83,773,751,0
4816958,671.21,773,748,0
4816968,670.42,773,751,0
4816978,662.15,773,748,0
4816988,650.58,773,751,0
4816998,633.77,773,748,0
4817008,615.71,773,751,0
4817018,594.46,773,748,0
4817028,573.71,773,751,0
4817038,551.68,773,748,0
4817048,531.80,773,752,0
4817058,511.42,773,748,0
4817068,494.07,773,751,0
4817078,476.82,773,748,0
4817088,462.47,773,751,0
4817098,448.57,773,748,0
4817108,437.82,773,751,0
4817118,427.46,773,749,0
4817128,420.38,773,751,0
4817138,413.66,773,748,0
4817148,410.21,773,751,0
4817158,407.23,773,749,0
4817168,407.25,773,752,0
4817178,407.13,773,748,0
4817188,409.11,773,752,0
4817198,410.23,773,749,0
4817208,413.03,773,751,0
4817218,414.52,773,748,0
4817228,416.98,773,751,0
4817239,417.63,773,748,0
4817249,418.81,773,752,0
4817259,418.35,773,748,0
4817269,418.33,773,752,0
4817280,416.56,773,746,0
4817289,415.62,773,751,0
4817299,413.16,773,748,0
4817309,411.36,773,752,0
4817319,408.46,773,746,0
4817329,406.40,773,751,0
4817339,403.36,773,748,0
4817349,401.20,773,751,0
4817359,398.22,773,746,0
4817369,396.57,773,751,0
4817379,394.34,773,748,0
4817389,393.38,773,751,0
4817399,391.98,773,747,0
4817409,392.16,773,751,0
4817419,391.94,773,748,0
4817429,392.82,773,751,0
4817439,392.91,773,747,0
4817449,394.01,773,754,0
4817459,394.22,773,748,0
4817469,395.44,773,751,0
4817479,395.48,773,747,0
4817489,396.24,773,754,0
4817499,395.91,773,748,0
4817509,396.24,773,751,0
4817519,395.57,773,747,0
4817529,395.44,773,753,0
4817539,394.19,773,748,0
4817549,393.75,773,751,0
4817559,392.32,773,747,0
4817569,391.71,773,754,0
4817580,390.47,773,745,0
4817590,390.33,773,754,0
4817600,390.66,773,746,0
4817610,393.20,773,754,0
4817620,397.77,773,746,0
4817630,406.20,773,754,0
4817640,418.14,773,746,0
4817650,435.20,773,754,0
4817670,456.57,783,754,0
4817673,482.37,783,753,0
4817682,511.91,783,743,0
4817692,543.10,783,754,0
4817702,574.44,783,745,0
4817712,603.75,783,755,0
4817722,629.15,783,743,0
4817732,649.21,783,754,0
4817742,663.37,783,744,0
4817752,669.99,783,756,0
4817762,670.08,783,743,0
4817772,663.41,783,756,0
4817782,651.85,783,744,0
4817793,635.39,783,754,0
4817803,616.55,783,745,0
4817813,594.78,783,755,0
4817823,572.82,783,746,0
4817833,549.90,783,752,0
4817843,528.25,783,744,0
4817853,506.96,783,754,0
4817863,488.33,783,746,0
4817873,470.10,783,752,0
4817883,454.73,783,745,0
4817893,439.85,783,755,0
4817903,428.41,783,748,0
4817913,417.70,783,753,0
4817923,409.99,783,746,0
4817933,403.05,783,753,0
4817943,399.52,783,746,0
4817953,396.49,783,753,0
4817964,396.35,783,747,0
4817974,395.81,783,752,0
4817984,397.84,783,749,0
4817994,399.26,783,751,0
4818004,402.48,783,750,0
4818014,404.14,783,752,0
4818024,407.18,783,750,0
4818034,408.28,783,751,0
4818044,410.81,783,750,0
4818054,411.04,783,752,0
4818064,412.31,783,749,0
4818074,411.11,783,752,0
4818084,411.12,783,750,0
4818094,408.81,783,752,0
4818104,407.84,783,749,0
4818114,404.59,783,752,0
4818124,403.04,783,750,0
4818135,399.60,783,751,0
4818145,398.18,783,750,0
4818155,395.00,783,750,0
4818165,394.05,783,751,0
4818176,391.42,783,750,0
4818185,390.91,783,750,0
4818195,388.79,783,750,0
4818205,388.94,783,751,0
4818215,387.50,783,750,0
4818225,388.38,783,750,0
4818235,387.54,783,750,0
4818245,388.70,783,750,0
4818255,388.32,783,750,0
4818265,389.94,783,750,0
4818275,389.87,783,750,0
4818285,391.62,783,751,0
4818295,391.39,783,750,0
4818305,392.86,783,750,0
4818315,392.65,783,750,0
4818325,394.04,783,750,0
4818335,393.47,783,750,0
4818345,394.49,783,751,0
4818355,393.70,783,750,0
4818365,394.60,783,750,0
4818375,393.78,783,750,0
4818385,395.05,783,751,0
4818395,395.25,783,751,0
4818405,398.64,783,750,0
4818415,402.39,783,750,0
4818425,410.85,783,751,0
4818435,421.48,783,750,0
4818445,438.69,783,751,0
4818464,458.80,795,750,0
4818467,484.70,795,753,0
4818476,512.39,795,750,0
4818486,543.73,795,751,0
4818496,573.17,795,750,0
4818506,602.22,795,752,0
4818516,625.38,795,749,0
4818526,644.81,795,751,0
4818536,656.31,795,749,0
4818546,662.17,795,751,0
4818556,659.34,795,749,0
4818566,652.29,795,751,0
4818576,638.36,795,749,0
4818586,622.05,795,752,0
4818596,600.95,795,749,0
4818606,579.84,795,751,0
4818616,556.53,795,749,0
4818626,535.20,795,751,0
4818636,512.72,795,749,0
4818647,492.92,795,751,0
4818657,472.76,795,749,0
4818667,455.77,795,751,0
4818677,439.00,795,748,0
4818688,425.46,795,752,0
4818697,412.25,795,748,0
4818707,402.70,795,752,0
4818717,394.01,795,748,0
4818727,388.95,795,752,0
4818737,384.89,795,749,0
4818747,384.15,795,751,0
4818757,383.94,795,748,0
4818767,386.48,795,752,0
4818777,388.61,795,748,0
4818787,392.67,795,751,0
4818797,395.64,795,748,0
4818807,399.61,795,752,0
4818817,401.82,795,748,0
4818827,404.75,795,751,0
4818837,405.60,795,748,0
4818847,406.92,795,752,0
4818857,406.13,795,748,0
4818867,406.00,795,752,0
4818877,404.03,795,748,0
4818887,402.69,795,752,0
4818897,399.57,795,748,0
4818907,397.64,795,751,0
4818917,394.36,795,749,0
4818927,392.20,795,752,0
4818937,388.92,795,748,0
4818947,387.36,795,751,0
4818957,385.11,795,748,0
4818967,384.56,795,752,0
4818977,382.98,795,748,0
4818988,382.94,795,752,0
4818998,382.19,795,748,0
4819008,382.65,795,752,0
4819018,382.15,795,747,0
4819028,382.75,795,754,0
4819038,382.44,795,748,0
4819048,383.34,795,752,0
4819058,383.32,795,747,0
4819068,384.30,795,754,0
4819078,384.42,795,748,0
4819088,385.28,795,752,0
4819098,385.28,795,747,0
4819108,385.93,795,754,0
4819118,385.48,795,748,0
4819128,385.76,795,752,0
4819138,385.11,795,747,0
4819148,385.37,795,754,0
4819159,385.30,795,745,0
4819169,386.88,795,754,0
4819179,389.53,795,746,0
4819189,395.50,795,755,0
4819200,404.22,795,746,0
4819209,417.87,795,754,0
4819219,435.52,795,743,0
4819238,458.34,774,745,0
4819241,484.98,774,746,0
4819250,514.64,774,756,0
4819260,544.75,774,743,0
4819270,574.22,774,757,0
4819280,600.60,774,740,0
4819290,622.83,774,756,0
4819300,638.87,774,742,0
4819310,648.29,774,755,0
4819320,650.99,774,737,0
4819330,647.78,774,757,0
4819340,638.59,774,743,0
4819350,624.66,774,757,0
4819360,606.97,774,743,0
4819371,586.84,774,756,0
4819380,565.20,774,743,0
4819390,543.15,774,756,0
4819400,521.25,774,741,0
4819410,500.30,774,754,0
4819420,480.63,774,737,0
4819430,462.48,774,758,0
4819440,446.14,774,738,0
4819450,431.31,774,757,0
4819460,418.02,774,744,0
4819470,406.70,774,754,0
4819480,397.70,774,744,0
4819490,390.76,774,756,0
4819500,385.73,774,741,0
4819510,382.64,774,756,0
4819520,381.64,774,743,0
4819530,382.13,774,755,0
4819540,383.81,774,744,0
4819550,386.14,774,756,0
4819560,388.92,774,744,0
4819570,391.86,774,756,0
4819580,394.73,774,743,0
4819590,397.08,774,755,0
4819600,398.99,774,743,0
4819610,399.98,774,756,0
4819620,400.33,774,743,0
4819630,399.93,774,755,0
4819640,398.96,774,744,0
4819650,397.30,774,755,0
4819660,395.37,774,742,0
4819671,393.03,774,754,0
4819681,391.01,774,745,0
4819691,388.69,774,753,0
4819701,387.24,774,744,0
4819712,385.67,774,753,0
4819721,384.70,774,744,0
4819731,383.59,774,757,0
4819741,383.41,774,744,0
4819751,382.90,774,753,0
4819761,383.23,774,745,0
4819771,382.82,774,754,0
4819781,383.43,774,744,0
4819791,383.60,774,754,0
4819801,384.54,774,744,0
4819811,384.76,774,754,0
4819821,385.69,774,743,0
4819831,385.83,774,753,0
4819841,386.61,774,742,0
4819851,386.68,774,754,0
4819861,387.46,774,745,0
4819871,387.50,774,753,0
4819881,388.33,774,745,0
4819891,388.49,774,753,0
4819901,389.33,774,744,0
4819911,389.62,774,753,0
4819921,391.40,774,746,0
4819931,393.72,774,755,0
4819941,398.78,774,744,0
4819951,405.66,774,753,0
4819961,416.90,774,745,0
4819971,431.76,774,753,0
4819990,451.80,752,752,0
4819993,474.71,752,752,0
4820002,502.35,752,749,0
4820012,530.96,752,753,0
4820022,560.76,752,747,0
4820032,587.74,752,752,0
4820042,612.38,752,748,0
4820052,631.12,752,752,0
4820062,645.19,752,747,0
4820072,650.92,752,752,0
4820082,651.41,752,748,0
4820092,644.60,752,752,0
4820102,633.96,752,746,0
4820112,617.90,752,752,0
4820122,600.10,752,748,0
4820132,578.82,752,752,0
4820142,557.87,752,747,0
4820152,535.32,752,752,0
4820162,514.83,752,748,0
4820172,493.88,752,752,0
4820183,475.62,752,749,0
4820193,457.17,752,751,0
4820203,442.16,752,749,0
4820213,427.29,752,751,0
4820224,416.01,752,750,0
4820233,405.00,752,751,0
4820243,397.67,752,749,0
4820253,390.65,752,750,0
4820263,387.54,752,750,0
4820273,384.47,752,751,0
4820283,385.01,752,749,0
4820293,385.09,752,750,0
4820303,388.15,752,751,0
4820313,390.08,752,751,0
4820323,394.17,752,749,0
4820333,396.48,752,750,0
4820343,400.23,752,750,0
4820353,401.58,752,751,0
4820363,404.15,752,750,0
4820373,404.06,752,751,0
4820383,405.11,752,750,0
4820393,403.75,752,750,0
4820403,403.57,752,749,0
4820413,401.00,752,750,0
4820423,400.10,752,750,0
4820433,397.03,752,750,0
4820443,395.86,752,750,0
4820453,392.90,752,751,0
4820463,391.77,752,750,0
4820473,388.84,752,750,0
4820483,388.16,752,749,0
4820493,385.76,752,751,0
4820503,385.57,752,750,0
4820513,383.69,752,750,0
4820524,383.74,752,750,0
4820534,382.32,752,750,0
4820544,383.21,752,751,0
4820554,382.59,752,749,0
4820564,384.04,752,751,0
4820574,383.81,752,750,0
4820584,385.50,752,751,0
4820594,385.48,752,749,0
4820604,387.18,752,751,0
4820614,386.95,752,749,0
4820624,388.51,752,751,0
4820634,387.97,752,749,0
4820644,388.79,752,751,0
4820654,387.70,752,750,0
4820664,388.26,752,751,0
4820674,386.98,752,749,0
4820684,387.76,752,751,0
4820695,387.23,752,749,0
4820705,389.73,752,752,0
4820715,392.77,752,749,0
4820725,399.87,752,751,0
4820736,408.86,752,748,0
4820745,423.61,752,751,0
4820755,440.95,752,749,0
4820774,463.90,784,747,0
4820777,488.74,784,746,0
4820786,517.06,784,752,0
4820796,544.26,784,748,0
4820806,571.14,784,752,0
4820816,593.34,784,748,0
4820826,612.48,784,752,0
4820836,624.68,784,748,0
4820846,631.59,784,752,0
4820856,630.73,784,748,0
4820866,625.58,784,752,0
4820876,614.05,784,748,0
4820886,599.59,784,752,0
4820896,580.43,784,748,0
4820907,560.24,784,752,0
4820916,538.06,784,748,0
4820926,517.04,784,751,0
4820936,495.34,784,748,0
4820946,476.08,784,752,0
4820956,456.99,784,748,0
4820966,440.79,784,752,0
4820976,425.21,784,748,0
4820986,412.25,784,752,0
4820996,399.87,784,748,0
4821006,390.44,784,752,0
4821016,381.86,784,748,0
4821026,376.38,784,752,0
4821036,371.59,784,748,0
4821046,369.74,784,752,0
4821056,368.45,784,748,0
4821066,369.64,784,752,0
4821076,370.74,784,748,0
4821086,373.64,784,752,0
4821096,375.76,784,748,0
4821106,379.01,784,752,0
4821116,380.85,784,748,0
4821126,383.55,784,752,0
4821136,384.33,784,748,0
4821146,385.52,784,752,0
4821156,384.68,784,748,0
4821166,384.30,784,752,0
4821176,382.15,784,748,0
4821186,380.69,784,752,0
4821196,377.79,784,748,0
4821207,375.84,784,752,0
4821217,373.06,784,747,0
4821227,371.33,784,754,0
4821237,368.91,784,745,0
4821248,367.61,784,755,0
4821257,365.67,784,747,0
4821267,364.91,784,756,0
4821277,363.70,784,746,0
4821287,363.32,784,756,0
4821297,362.45,784,747,0
4821307,362.53,784,754,0
4821317,362.24,784,745,0
4821327,362.73,784,758,0
4821337,362.42,784,747,0
4821347,362.85,784,755,0
4821357,362.64,784,745,0
4821367,363.18,784,755,0
4821377,363.00,784,747,0
4821387,363.68,784,754,0
4821397,363.73,784,745,0
4821407,364.46,784,755,0
4821417,364.71,784,746,0
4821427,365.82,784,754,0
4821437,366.26,784,745,0
4821447,367.21,784,755,0
4821457,367.45,784,746,0
4821467,368.51,784,755,0
4821477,368.75,784,745,0
4821487,369.38,784,756,0
4821497,369.09,784,745,0
4821507,369.45,784,754,0
4821517,369.32,784,745,0
4821527,370.08,784,758,0
4821537,371.08,784,745,0
4821548,374.83,784,755,0
4821558,380.88,784,746,0
4821568,391.16,784,755,0
4821587,405.21,813,754,0
4821591,424.01,813,754,0
4821599,447.02,813,738,0
4821609,473.58,813,755,0
4821619,501.78,813,741,0
4821629,529.87,813,754,0
4821639,555.88,813,737,0
4821649,578.29,813,755,0
4821659,595.90,813,741,0
4821669,607.08,813,756,0
4821679,611.85,813,742,0
4821689,610.10,813,756,0
4821699,602.87,813,741,0
4821709,590.35,813,759,0
4821719,574.17,813,735,0
4821729,555.01,813,755,0
4821739,534.56,813,741,0
4821749,513.22,813,754,0
4821760,492.28,813,743,0
4821769,471.84,813,757,0
4821779,452.73,813,742,0
4821789,434.51,813,755,0
4821799,418.20,813,744,0
4821809,403.06,813,755,0
4821819,389.88,813,742,0
4821829,378.00,813,755,0
4821839,368.49,813,741,0
4821849,360.84,813,756,0
4821859,355.57,813,744,0
4821869,351.50,813,754,0
4821879,349.64,813,743,0
4821889,349.19,813,758,0
4821899,350.55,813,741,0
4821909,352.40,813,754,0
4821919,355.53,813,743,0
4821929,358.93,813,755,0
4821939,363.20,813,740,0
4821949,366.87,813,754,0
4821959,370.42,813,744,0
4821969,372.82,813,756,0
4821979,374.89,813,738,0
4821989,375.65,813,754,0
4821999,376.01,813,745,0
4822009,375.02,813,753,0
4822019,373.73,813,738,0
4822029,371.50,813,754,0
4822039,369.59,813,742,0
4822049,367.01,813,753,0
4822060,365.00,813,746,0
4822070,362.51,813,754,0
4822080,361.46,813,747,0
4822090,360.16,813,754,0
4822100,360.37,813,748,0
4822110,360.05,813,753,0
4822120,361.15,813,747,0
4822130,361.53,813,754,0
4822140,363.43,813,748,0
4822150,364.16,813,753,0
4822160,365.87,813,747,0
4822170,366.16,813,753,0
4822180,367.87,813,748,0
4822190,368.25,813,754,0
4822200,369.85,813,746,0
4822210,369.89,813,753,0
4822220,371.13,813,748,0
4822231,371.09,813,752,0
4822241,372.35,813,748,0
4822251,371.90,813,752,0
4822261,372.79,813,749,0
4822272,372.12,813,751,0
4822281,372.69,813,748,0
4822291,371.71,813,752,0
4822301,372.82,813,750,0
4822311,372.28,813,751,0
4822321,373.48,813,749,0
4822331,372.86,813,752,0
4822341,373.93,813,749,0
4822351,373.35,813,751,0
4822361,374.66,813,749,0
4822371,373.95,813,752,0
4822381,375.68,813,749,0
4822391,376.80,813,751,0
4822401,381.53,813,749,0
4822411,387.29,813,752,0
4822421,398.39,813,749,0
4822440,411.64,853,748,0
4822444,430.69,853,752,0
4822452,452.26,853,750,0
4822462,478.75,853,751,0
4822472,505.31,853,749,0
4822482,533.68,853,751,0
4822492,558.54,853,750,0
4822502,581.87,853,750,0
4822512,598.96,853,749,0
4822522,611.70,853,751,0
4822532,616.55,853,750,0
4822542,617.28,853,751,0
4822552,610.47,853,749,0
4822562,600.39,853,751,0
4822572,584.46,853,750,0
4822582,567.43,853,751,0
4822592,546.60,853,749,0
4822602,526.54,853,751,0
4822612,504.30,853,750,0
4822622,484.46,853,750,0
4822632,463.79,853,750,0
4822642,446.07,853,751,0
4822652,428.00,853,749,0
4822662,413.65,853,750,0
4822672,399.05,853,749,0
4822682,388.28,853,751,0
4822692,377.57,853,749,0
4822702,370.80,853,751,0
4822712,364.26,853,749,0
4822722,361.57,853,751,0
4822732,358.78,853,749,0
4822743,359.70,853,751,0
4822753,360.09,853,749,0
4822763,363.41,853,751,0
4822773,365.64,853,749,0
4822784,369.95,853,751,0
4822793,372.62,853,749,0
4822803,377.15,853,752,0
4822813,379.46,853,749,0
4822823,382.71,853,752,0
4822833,383.65,853,749,0
4822843,385.69,853,752,0
4822853,385.61,853,749,0
4822863,386.41,853,752,0
4822873,384.75,853,749,0
4822883,384.44,853,752,0
4822893,382.38,853,749,0
4822903,381.62,853,752,0
4822913,378.99,853,749,0
4822923,378.09,853,751,0
4822933,375.67,853,749,0
4822943,375.04,853,751,0
4822953,372.93,853,748,0
4822963,372.91,853,751,0
4822973,371.65,853,749,0
4822983,372.48,853,752,0
4822993,371.99,853,748,0
4823003,373.54,853,751,0
4823013,373.81,853,749,0
4823023,375.79,853,751,0
4823033,376.15,853,749,0
4823043,378.21,853,751,0
4823053,378.57,853,749,0
4823063,380.33,853,751,0
4823073,380.36,853,749,0
4823084,381.71,853,751,0
4823094,381.45,853,748,0
4823104,382.39,853,752,0
4823114,381.76,853,748,0
4823124,382.22,853,752,0
4823134,381.17,853,749,0
4823144,381.42,853,752,0
4823154,380.13,853,748,0
4823164,379.92,853,752,0
4823174,378.49,853,749,0
4823184,378.43,853,752,0
4823194,377.44,853,748,0
4823204,378.21,853,752,0
4823214,378.75,853,748,0
4823224,382.47,853,752,0
4823234,387.77,853,748,0
4823244,397.52,853,752,0
4823264,409.88,824,751,0
4823267,427.45,824,756,0
4823276,448.61,824,746,0
4823286,474.44,824,754,0
4823297,501.82,824,737,0
4823307,530.76,824,755,0
4823317,558.13,824,736,0
4823327,583.59,824,756,0
4823337,604.59,824,738,0
4823347,620.35,824,757,0
4823357,629.29,824,735,0
4823367,631.86,824,756,0
4823377,628.17,824,737,0
4823387,619.16,824,756,0
4823397,605.23,824,733,0
4823407,587.59,824,757,0
4823417,567.36,824,737,0
4823427,546.08,824,758,0
4823437,524.33,824,734,0
4823447,502.76,824,758,0
4823457,482.04,824,738,0
4823468,462.62,824,756,0
4823478,445.29,824,743,0
4823488,429.39,824,753,0
4823498,415.86,824,743,0
4823508,404.24,824,753,0
4823518,395.08,824,742,0
4823528,387.94,824,755,0
4823538,383.76,824,745,0
4823548,381.13,824,753,0
4823558,381.09,824,740,0
4823568,381.97,824,754,0
4823578,384.98,824,744,0
4823588,388.33,824,753,0
4823598,392.81,824,740,0
4823608,396.86,824,756,0
4823618,401.66,824,746,0
4823628,405.44,824,757,0
4823639,409.73,824,746,0
4823649,412.17,824,754,0
4823659,414.94,824,746,0
4823669,415.73,824,753,0
4823680,416.84,824,749,0
4823689,415.95,824,753,0
4823699,415.53,824,748,0
4823709,413.02,824,752,0
4823719,411.68,824,749,0
4823729,408.56,824,754,0
4823739,406.77,824,748,0
4823749,403.45,824,753,0
4823759,401.77,824,749,0
4823769,399.06,824,754,0
4823779,398.14,824,746,0
4823789,395.95,824,752,0
4823799,395.88,824,749,0
4823809,394.97,824,754,0
4823819,395.80,824,747,0
4823829,395.60,824,753,0
4823839,397.09,824,749,0
4823849,397.28,824,752,0
4823859,399.04,824,746,0
4823869,399.33,824,753,0
4823879,401.24,824,748,0
4823889,401.56,824,752,0
4823899,402.93,824,746,0
4823909,402.61,824,753,0
4823919,403.67,824,748,0
4823929,403.00,824,753,0
4823939,403.34,824,746,0
4823949,402.00,824,755,0
4823959,402.51,824,748,0
4823969,402.36,824,752,0
4823980,405.29,824,749,0
4823990,408.68,824,752,0
4824000,417.05,824,749,0
4824010,427.92,824,751,0
4824020,445.00,824,750,0
4824030,464.76,824,752,0
4824049,489.99,785,751,0
4824052,516.01,785,750,0
4824061,545.32,785,751,0
4824071,572.27,785,750,0
4824081,598.97,785,751,0
4824091,619.68,785,750,0
4824101,637.00,785,751,0
4824111,646.56,785,750,0
4824121,651.75,785,751,0
4824131,648.87,785,749,0
4824141,642.31,785,751,0
4824151,629.02,785,750,0
4824161,613.88,785,751,0
4824171,594.37,785,749,0
4824181,575.32,785,751,0
4824192,554.01,785,749,0
4824201,535.11,785,751,0
4824211,515.23,785,750,0
4824221,498.15,785,750,0
4824231,480.70,785,749,0
4824241,466.78,785,751,0
4824251,452.62,785,750,0
4824261,441.80,785,751,0
4824271,430.68,785,749,0
4824281,423.19,785,751,0
4824291,415.85,785,750,0
4824301,412.25,785,751,0
4824311,408.45,785,750,0
4824321,407.97,785,751,0
4824331,407.29,785,749,0
4824341,409.73,785,751,0
4824351,411.18,785,750,0
4824361,414.99,785,751,0
4824371,417.22,785,750,0
4824381,421.14,785,751,0
4824391,423.15,785,750,0
4824401,426.37,785,751,0
4824411,427.07,785,750,0
4824421,428.76,785,751,0
4824431,427.85,785,750,0
4824441,427.72,785,751,0
4824451,425.45,785,750,0
4824461,424.50,785,751,0
4824471,421.44,785,749,0
4824481,419.89,785,751,0
4824492,416.54,785,749,0
4824502,414.92,785,751,0
4824512,411.77,785,749,0
4824522,410.34,785,752,0
4824532,407.41,785,749,0
4824542,406.43,785,751,0
4824552,404.03,785,749,0
4824562,403.33,785,752,0
4824572,401.48,785,749,0
4824582,401.81,785,751,0
4824592,400.92,785,749,0
4824602,401.72,785,752,0
4824612,401.24,785,749,0
4824622,402.54,785,751,0
4824632,402.42,785,749,0
4824642,403.80,785,752,0
4824652,403.43,785,749,0
4824663,404.20,785,752,0
4824673,403.41,785,748,0
4824683,403.85,785,753,0
4824693,403.16,785,748,0
4824704,404.61,785,752,0
4824713,406.36,785,748,0
4824723,411.78,785,752,0
4824733,419.30,785,748,0
4824743,432.28,785,752,0
4824753,448.36,785,748,0
4824763,470.11,785,752,0
4824773,494.46,785,748,0
4824793,522.48,743,747,0
4824796,550.28,743,745,0
4824805,578.31,743,756,0
4824815,602.64,743,746,0
4824825,623.84,743,756,0
4824835,638.67,743,745,0
4824845,648.71,743,756,0
4824855,651.63,743,746,0
4824865,649.47,743,756,0
4824876,641.27,743,741,0
4824886,629.02,743,756,0
4824896,612.90,743,732,0
4824906,594.50,743,756,0
4824916,574.16,743,740,0
4824926,553.59,743,756,0
4824936,532.92,743,737,0
4824946,513.19,743,758,0
4824956,494.75,743,740,0
4824966,477.85,743,757,0
4824976,462.60,743,737,0
4824986,448.87,743,756,0
4824996,437.13,743,739,0
4825006,427.27,743,763,0
4825016,419.39,743,737,0
4825026,413.19,743,755,0
4825036,408.93,743,735,0
4825047,406.34,743,754,0
4825057,405.72,743,746,0
4825067,406.02,743,753,0
4825077,407.86,743,743,0
4825088,410.17,743,753,0
4825097,413.21,743,739,0
4825107,416.10,743,753,0
4825117,419.46,743,743,0
4825127,421.81,743,755,0
4825137,424.14,743,744,0
4825147,424.91,743,759,0
4825157,425.71,743,744,0
4825167,425.02,743,754,0
4825177,424.12,743,741,0
4825187,421.72,743,754,0
4825197,419.62,743,744,0
4825207,416.44,743,753,0
4825217,413.65,743,737,0
4825227,410.11,743,754,0
4825237,407.46,743,742,0
4825247,404.32,743,754,0
4825257,402.43,743,745,0
4825267,400.11,743,754,0
4825277,398.92,743,743,0
4825287,397.49,743,754,0
4825297,397.26,743,747,0
4825307,396.62,743,754,0
4825317,396.82,743,745,0
4825327,396.40,743,756,0
4825337,397.14,743,746,0
4825347,397.35,743,755,0
4825357,398.49,743,743,0
4825367,398.47,743,755,0
4825377,399.49,743,746,0
4825388,399.60,743,753,0
4825398,400.58,743,748,0
4825408,400.06,743,753,0
4825418,400.56,743,749,0
4825428,399.70,743,752,0
4825438,400.09,743,748,0
4825448,399.38,743,752,0
4825458,401.02,743,749,0
4825468,402.56,743,752,0
4825478,407.53,743,746,0
4825488,413.89,743,752,0
4825498,425.54,743,748,0
4825508,439.90,743,752,0
4825518,459.73,743,747,0
4825528,481.84,743,752,0
4825547,508.42,755,751,0
4825550,535.04,755,750,0
4825559,563.57,755,749,0
4825569,588.94,755,751,0
4825579,612.79,755,750,0
4825589,630.59,755,750,0
4825600,644.26,755,751,0
4825609,650.18,755,751,0
4825619,651.80,755,750,0
4825629,645.47,755,750,0
4825639,635.43,755,751,0
4825649,619.27,755,751,0
4825659,601.71,755,750,0
4825669,580.15,755,750,0
4825679,559.45,755,751,0
4825689,536.73,755,751,0
4825699,516.37,755,750,0
4825709,495.34,755,750,0
4825719,477.45,755,751,0
4825729,459.40,755,751,0
4825739,445.05,755,750,0
4825749,430.55,755,751,0
4825759,419.67,755,750,0
4825769,408.97,755,749,0
4825779,402.12,755,750,0
4825789,395.36,755,750,0
4825799,392.29,755,750,0
4825809,389.08,755,749,0
4825819,389.18,755,749,0
4825829,388.78,755,751,0
4825839,390.91,755,750,0
4825849,391.58,755,749,0
4825859,394.62,755,750,0
4825869,395.80,755,750,0
4825879,398.73,755,750,0
4825889,399.63,755,749,0
4825900,402.01,755,751,0
4825910,402.27,755,750,0
4825920,403.73,755,751,0
4825930,402.61,755,749,0
4825940,402.56,755,752,0
4825950,400.25,755,750,0
4825960,399.23,755,751,0
4825970,396.03,755,749,0
4825980,394.39,755,752,0
4825990,391.53,755,750,0
4826000,390.52,755,751,0
4826010,387.96,755,749,0
4826020,386.94,755,751,0
4826030,384.39,755,750,0
4826040,383.97,755,751,0
4826050,382.14,755,749,0
4826060,381.97,755,752,0
4826071,380.39,755,749,0
4826081,380.92,755,752,0
4826091,380.34,755,748,0
4826101,381.57,755,752,0
4826112,381.14,755,748,0
4826121,382.51,755,752,0
4826131,382.36,755,748,0
4826141,383.58,755,752,0
4826151,383.28,755,749,0
4826161,384.52,755,752,0
4826171,384.07,755,748,0
4826181,384.86,755,752,0
4826191,384.05,755,748,0
4826201,384.50,755,752,0
4826211,383.54,755,749,0
4826221,383.72,755,752,0
4826231,382.43,755,749,0
4826241,383.03,755,752,0
4826251,382.94,755,749,0
4826261,385.27,755,752,0
4826271,388.10,755,749,0
4826281,394.97,755,752,0
4826291,404.02,755,749,0
4826301,418.72,755,752,0
4826311,436.29,755,749,0
4826331,459.30,783,747,0
4826334,484.15,783,746,0
4826343,512.09,783,756,0
4826353,539.19,783,746,0
4826363,565.71,783,755,0
4826373,587.35,783,748,0
4826383,605.29,783,756,0
4826393,616.43,783,746,0
4826403,622.39,783,757,0
4826413,621.11,783,748,0
4826423,614.99,783,756,0
4826433,603.34,783,746,0
4826443,588.62,783,758,0
4826454,570.14,783,745,0
4826463,550.60,783,755,0
4826473,529.50,783,746,0
4826483,508.95,783,756,0
4826493,488.09,783,746,0
4826503,468.69,783,755,0
4826513,449.67,783,746,0
4826523,432.80,783,756,0
4826533,416.66,783,746,0
4826543,402.75,783,755,0
4826553,389.97,783,746,0
4826563,379.82,783,756,0
4826573,371.30,783,746,0
4826583,365.98,783,755,0
4826593,362.17,783,746,0
4826603,360.96,783,757,0
4826613,361.02,783,746,0
4826624,363.16,783,756,0
4826633,365.77,783,746,0
4826643,369.65,783,757,0
4826653,373.06,783,746,0
4826663,376.85,783,755,0
4826673,379.85,783,746,0
4826683,382.90,783,756,0
4826693,384.77,783,741,0
4826703,386.34,783,756,0
4826713,386.28,783,745,0
4826723,386.03,783,759,0
4826733,384.73,783,745,0
4826743,383.44,783,755,0
4826753,381.17,783,746,0
4826763,379.53,783,757,0
4826773,377.40,783,746,0
4826783,376.12,783,755,0
4826793,374.59,783,744,0
4826803,373.94,783,756,0
4826813,373.01,783,746,0
4826823,372.88,783,755,0
4826833,372.23,783,746,0
4826843,372.42,783,757,0
4826853,372.21,783,745,0
4826863,372.57,783,755,0
4826873,372.57,783,746,0
4826883,373.34,783,756,0
4826893,373.71,783,745,0
4826903,374.66,783,756,0
4826913,375.06,783,746,0
4826924,375.94,783,758,0
4826934,376.43,783,738,0
4826944,377.03,783,757,0
4826954,377.28,783,735,0
4826964,377.62,783,755,0
4826974,377.56,783,742,0
4826984,377.65,783,755,0
4826994,377.54,783,738,0
4827004,377.38,783,755,0
4827014,377.14,783,741,0
4827024,376.75,783,756,0
4827034,376.48,783,737,0
4827044,376.17,783,755,0
4827054,375.99,783,740,0
4827064,376.42,783,757,0
4827074,378.18,783,737,0
4827084,381.73,783,756,0
4827095,388.24,783,739,0
4827114,397.89,784,739,0
4827117,412.75,784,750,0
4827126,431.60,784,754,0
4827137,455.21,784,749,0
4827147,481.24,784,752,0
4827157,510.18,784,749,0
4827167,538.07,784,751,0
4827177,565.56,784,750,0
4827187,587.81,784,752,0
4827197,606.42,784,748,0
4827207,617.53,784,752,0
4827217,623.88,784,750,0
4827227,622.29,784,752,0
4827237,616.76,784,749,0
4827247,604.36,784,752,0
4827257,589.77,784,750,0
4827267,570.68,784,752,0
4827277,551.66,784,749,0
4827287,530.29,784,752,0
4827297,510.66,784,750,0
4827308,489.93,784,751,0
4827318,472.13,784,751,0
4827328,453.96,784,750,0
4827338,439.14,784,751,0
4827348,424.14,784,750,0
4827358,412.70,784,751,0
4827368,401.18,784,750,0
4827378,393.41,784,751,0
4827388,385.87,784,750,0
4827398,382.27,784,751,0
4827408,378.80,784,750,0
4827418,379.08,784,751,0
4827428,378.84,784,750,0
4827438,381.89,784,751,0
4827448,384.06,784,750,0
4827458,388.72,784,751,0
4827468,391.63,784,750,0
4827479,396.24,784,752,0
4827489,398.65,784,749,0
4827499,402.19,784,752,0
4827509,403.03,784,749,0
4827520,404.44,784,752,0
4827529,403.23,784,749,0
4827539,402.91,784,752,0
4827549,400.11,784,749,0
4827559,398.27,784,752,0
4827569,394.68,784,749,0
4827579,392.76,784,752,0
4827589,389.49,784,749,0
4827599,387.97,784,752,0
4827609,385.28,784,750,0
4827619,384.81,784,752,0
4827629,383.32,784,749,0
4827639,383.61,784,752,0
4827649,382.49,784,749,0
4827659,383.37,784,752,0
4827669,382.92,784,749,0
4827679,384.10,784,752,0
4827689,383.64,784,749,0
4827699,384.86,784,752,0
4827709,384.65,784,749,0
4827719,386.00,784,752,0
4827729,385.74,784,749,0
4827739,387.10,784,752,0
4827749,386.86,784,749,0
4827759,388.19,784,752,0
4827769,387.74,784,749,0
4827779,388.94,784,752,0
4827789,388.48,784,749,0
4827799,389.32,784,752,0
4827809,388.33,784,749,0
4827820,388.79,784,752,0
4827830,387.56,784,749,0
4827840,387.82,784,752,0
4827850,387.02,784,748,0
4827860,388.64,784,752,0
4827870,390.59,784,749,0
4827880,396.46,784,752,0
4827890,404.16,784,748,0
4827900,417.19,784,753,0
4827919,433.20,805,752,0
4827922,454.14,805,758,0
4827931,477.76,805,747,0
4827941,504.91,805,756,0
4827951,531.73,805,749,0
4827961,558.72,805,753,0
4827971,581.95,805,748,0
4827981,602.06,805,755,0
4827991,616.27,805,749,0
4828001,625.19,805,753,0
4828011,626.93,805,748,0
4828021,623.65,805,756,0
4828032,614.16,805,746,0
4828041,601.34,805,752,0
4828051,584.35,805,748,0
4828061,565.90,805,755,0
4828071,545.32,805,746,0
4828081,525.21,805,752,0
4828091,504.62,805,748,0
4828101,485.70,805,755,0
4828111,467.02,805,745,0
4828121,450.73,805,752,0
4828131,435.17,805,748,0
4828141,422.05,805,755,0
4828151,409.95,805,745,0
4828161,400.66,805,752,0
4828171,392.71,805,748,0
4828181,387.52,805,755,0
4828191,383.42,805,746,0
4828201,381.88,805,756,0
4828211,381.15,805,748,0
4828221,382.47,805,756,0
4828231,383.92,805,746,0
4828241,386.60,805,756,0
4828251,388.82,805,748,0
4828261,391.83,805,755,0
4828271,393.85,805,746,0
4828281,396.00,805,756,0
4828291,396.68,805,748,0
4828301,397.46,805,755,0
4828311,397.07,805,746,0
4828321,396.70,805,756,0
4828332,395.08,805,746,0
4828342,393.64,805,756,0
4828352,391.48,805,742,0
4828362,389.71,805,756,0
4828372,387.39,805,738,0
4828382,385.48,805,756,0
4828392,383.15,805,742,0
4828402,381.26,805,756,0
4828412,379.43,805,740,0
4828422,378.23,805,757,0
4828432,377.04,805,744,0
4828442,376.39,805,756,0
4828452,375.71,805,743,0
4828462,375.84,805,755,0
4828472,375.98,805,745,0
4828482,376.41,805,757,0
4828492,376.85,805,740,0
4828503,377.49,805,757,0
4828513,378.07,805,737,0
4828523,378.65,805,756,0
4828533,379.10,805,741,0
4828544,379.45,805,755,0
4828553,379.58,805,740,0
4828563,379.62,805,756,0
4828573,380.20,805,743,0
4828583,381.17,805,755,0
4828593,383.52,805,738,0
4828603,387.35,805,755,0
4828613,394.32,805,741,0
4828623,404.38,805,755,0
4828633,418.28,805,736,0
4828643,435.77,805,756,0
4828653,457.18,805,741,0
4828673,481.21,753,743,0
4828676,507.93,753,751,0
4828685,534.10,753,753,0
4828695,559.87,753,748,0
4828705,581.85,753,752,0
4828716,600.50,753,750,0
4828726,612.69,753,751,0
4828736,620.11,753,750,0
4828746,619.73,753,751,0
4828756,615.01,753,751,0
4828766,603.78,753,751,0
4828776,590.43,753,750,0
4828786,572.17,753,750,0
4828796,553.91,753,751,0
4828806,532.85,753,751,0
4828816,513.48,753,750,0
4828826,492.76,753,750,0
4828836,474.62,753,751,0
4828846,455.92,753,752,0
4828856,440.64,753,750,0
4828866,425.24,753,751,0
4828876,413.47,753,751,0
4828887,401.80,753,750,0
4828897,394.06,753,751,0
4828907,386.45,753,750,0
4828917,382.29,753,751,0
4828928,378.35,753,749,0
4828937,378.03,753,751,0
4828947,377.33,753,750,0
4828957,379.51,753,751,0
4828967,380.64,753,749,0
4828977,384.30,753,751,0
4828987,386.53,753,750,0
4828997,390.18,753,751,0
4829007,391.67,753,749,0
4829017,394.56,753,751,0
4829027,395.25,753,750,0
4829037,397.02,753,751,0
4829047,396.24,753,749,0
4829057,396.68,753,751,0
4829067,394.89,753,750,0
4829077,394.28,753,751,0
4829087,391.54,753,749,0
4829097,390.22,753,752,0
4829107,387.33,753,750,0
4829117,386.20,753,751,0
4829127,383.53,753,749,0
4829137,382.85,753,752,0
4829147,380.84,753,750,0
4829157,380.93,753,752,0
4829167,379.62,753,749,0
4829177,380.16,753,752,0
4829187,379.26,753,750,0
4829197,380.38,753,751,0
4829207,379.97,753,750,0
4829217,381.13,753,752,0
4829228,380.54,753,749,0
4829238,381.53,753,752,0
4829248,381.20,753,749,0
4829258,382.86,753,752,0
4829268,383.97,753,749,0
4829278,388.31,753,752,0
4829288,393.70,753,749,0
4829298,403.56,753,752,0
4829308,415.95,753,749,0
4829318,433.67,753,752,0
4829337,453.78,665,751,0
4829340,477.67,665,756,0
4829349,502.37,665,748,0
4829359,528.70,665,753,0
4829369,552.41,665,748,0
4829379,574.23,665,753,0
4829389,590.53,665,748,0
4829399,603.06,665,753,0
4829409,608.95,665,748,0
4829419,609.95,665,753,0
4829429,604.35,665,748,0
4829440,595.20,665,755,0
4829449,581.26,665,749,0
4829459,565.67,665,753,0
4829469,546.99,665,748,0
4829479,528.35,665,755,0
4829489,508.28,665,748,0
4829499,489.51,665,753,0
4829509,470.54,665,748,0
4829519,453.32,665,755,0
4829529,436.30,665,749,0
4829539,421.64,665,753,0
4829549,407.73,665,748,0
4829559,396.63,665,754,0
4829569,386.58,665,749,0
4829579,379.72,665,752,0
4829589,374.23,665,748,0
4829599,371.51,665,754,0
4829609,369.64,665,746,0
4829619,370.43,665,753,0
4829629,371.63,665,748,0
4829639,374.61,665,754,0
4829649,377.09,665,746,0
4829659,380.83,665,752,0
4829669,383.58,665,748,0
4829679,386.79,665,753,0
4829689,388.53,665,746,0
4829699,390.47,665,752,0
4829709,390.89,665,748,0
4829719,391.39,665,753,0
4829729,390.25,665,746,0
4829740,389.40,665,755,0
4829750,387.44,665,745,0
4829760,385.68,665,755,0
4829770,382.99,665,742,0
4829780,380.76,665,759,0
4829790,378.05,665,745,0
4829800,376.23,665,755,0
4829810,374.24,665,744,0
4829820,373.05,665,756,0
4829830,371.75,665,745,0
4829840,371.40,665,756,0
4829850,370.98,665,744,0
4829860,371.28,665,758,0
4829870,371.28,665,746,0
4829880,371.80,665,755,0
4829890,372.12,665,747,0
4829900,372.90,665,757,0
4829911,373.44,665,737,0
4829921,374.68,665,760,0
4829931,376.70,665,737,0
4829941,380.52,665,759,0
4829952,386.88,665,740,0
4829961,396.43,665,758,0
4829971,409.54,665,740,0
4829981,426.57,665,757,0
4830001,447.65,663,756,0
4830004,471.20,663,753,0
4830013,497.97,663,748,0
4830023,524.34,663,753,0
4830033,550.68,663,749,0
4830043,573.87,663,754,0
4830053,593.84,663,748,0
4830063,607.77,663,753,0
4830073,617.40,663,748,0
4830083,619.38,663,754,0
4830093,616.91,663,747,0
4830103,607.72,663,753,0
4830113,595.63,663,748,0
4830124,578.86,663,752,0
4830134,561.46,663,749,0
4830144,541.01,663,751,0
4830154,521.55,663,750,0
4830164,500.55,663,751,0
4830174,482.00,663,750,0
4830184,462.80,663,751,0
4830194,446.70,663,750,0
4830204,430.38,663,750,0
4830214,417.75,663,749,0
4830224,405.23,663,751,0
4830234,396.76,663,751,0
4830244,388.43,663,751,0
4830254,384.10,663,749,0
4830264,379.74,663,751,0
4830274,379.13,663,750,0
4830284,378.15,663,751,0
4830295,380.38,663,751,0
4830305,381.68,663,750,0
4830315,385.46,663,751,0
4830325,387.59,663,750,0
4830336,391.49,663,752,0
4830345,392.97,663,750,0
4830355,395.72,663,751,0
4830365,395.89,663,750,0
4830375,397.17,663,752,0
4830385,395.87,663,750,0
4830395,395.78,663,751,0
4830405,393.66,663,750,0
4830415,393.12,663,752,0
4830425,390.60,663,750,0
4830435,389.82,663,751,0
4830445,387.22,663,750,0
4830455,386.47,663,752,0
4830465,384.10,663,750,0
4830475,383.64,663,752,0
4830485,381.52,663,749,0
4830495,381.45,663,752,0
4830505,379.77,663,749,0
4830515,380.35,663,751,0
4830525,379.69,663,750,0
4830535,381.46,663,752,0
4830545,382.39,663,750,0
4830555,386.69,663,752,0
4830565,391.11,663,750,0
4830575,399.39,663,751,0
4830585,408.23,663,749,0
4830595,421.28,663,751,0
4830605,434.74,663,749,0
4830624,451.57,624,748,0
4830627,467.17,624,748,0
4830636,484.31,624,752,0
4830646,498.49,624,749,0
4830656,511.67,624,752,0
4830666,519.70,624,749,0
4830676,525.06,624,752,0
4830686,524.31,624,749,0
4830696,520.75,624,752,0
4830706,511.14,624,749,0
4830716,499.10,624,752,0
4830726,482.82,624,749,0
4830736,466.21,624,752,0
4830746,447.33,624,749,0
4830756,429.83,624,752,0
4830766,411.75,624,749,0
4830776,396.78,624,752,0
4830786,382.88,624,749,0
4830796,373.01,624,752,0
4830807,364.52,624,749,0
4830817,360.04,624,752,0
4830827,357.03,624,749,0
4830837,357.62,624,752,0
4830848,359.06,624,748,0
4830857,363.16,624,752,0
4830867,367.01,624,749,0
4830877,372.49,624,752,0
4830887,377.27,624,748,0
4830897,382.89,624,752,0
4830907,387.00,624,749,0
4830917,391.33,624,752,0
4830927,393.88,624,748,0
4830937,396.62,624,752,0
4830947,397.29,624,748,0
4830957,397.85,624,752,0
4830967,396.39,624,748,0
4830977,395.20,624,752,0
4830987,392.31,624,749,0
4830997,389.91,624,752,0
4831007,386.21,624,748,0
4831017,383.44,624,753,0
4831027,379.84,624,748,0
4831037,377.49,624,752,0
4831047,374.38,624,748,0
4831057,372.60,624,754,0
4831067,370.49,624,749,0
4831077,369.91,624,753,0
4831087,368.95,624,749,0
4831097,369.31,624,753,0
4831107,369.17,624,749,0
4831117,370.54,624,752,0
4831127,371.32,624,748,0
4831137,373.07,624,753,0
4831148,373.95,624,747,0
4831158,375.68,624,755,0
4831168,376.67,624,746,0
4831178,378.31,624,756,0
4831188,379.08,624,747,0
4831198,380.51,624,756,0
4831208,381.00,624,746,0
4831218,381.86,624,755,0
4831228,382.03,624,744,0
4831238,382.71,624,756,0
4831248,382.67,624,744,0
4831258,382.85,624,757,0
4831268,382.38,624,742,0
4831278,382.40,624,755,0
4831288,381.93,624,742,0
4831298,381.78,624,757,0
4831308,381.08,624,744,0
4831319,380.80,624,757,0
4831329,380.26,624,740,0
4831339,380.01,624,758,0
4831349,379.71,624,736,0
4831360,379.58,624,756,0
4831369,379.32,624,740,0
4831379,379.27,624,756,0
4831389,379.23,624,739,0
4831399,379.38,624,756,0
4831409,379.73,624,740,0
4831419,380.67,624,756,0
4831429,383.13,624,738,0
4831439,387.72,624,757,0
4831449,395.26,624,740,0
4831459,406.97,624,756,0
4831478,423.78,854,755,0
4831481,446.04,854,754,0
4831490,473.93,854,741,0
4831500,506.09,854,756,0
4831510,541.59,854,744,0
4831520,577.72,854,754,0
4831531,612.60,854,748,0
4831540,643.49,854,755,0
4831550,669.06,854,743,0
4831560,686.78,854,755,0
4831570,697.31,854,745,0
4831580,699.14,854,754,0
4831590,694.04,854,742,0
4831600,681.52,854,754,0
4831610,664.05,854,748,0
4831620,641.70,854,756,0
4831630,616.89,854,742,0
4831640,589.33,854,754,0
4831650,561.93,854,747,0
4831660,534.48,854,755,0
4831670,508.92,854,743,0
4831680,484.34,854,754,0
4831690,462.86,854,747,0
4831700,443.23,854,755,0
4831710,427.09,854,743,0
4831720,412.75,854,756,0
4831730,401.81,854,745,0
4831740,392.69,854,754,0
4831750,386.83,854,743,0
4831760,382.29,854,755,0
4831770,380.83,854,746,0
4831780,380.07,854,755,0
4831790,381.25,854,744,0
4831800,382.59,854,755,0
4831810,385.50,854,745,0
4831820,387.92,854,754,0
4831831,391.37,854,746,0
4831841,393.40,854,754,0
4831851,396.37,854,747,0
4831861,397.76,854,754,0
4831872,399.67,854,749,0
4831881,399.73,854,753,0
4831891,400.15,854,750,0
4831901,398.44,854,752,0
4831911,397.70,854,749,0
4831921,394.96,854,754,0
4831931,393.48,854,749,0
4831941,390.20,854,753,0
4831951,388.60,854,749,0
4831961,385.72,854,757,0
4831971,384.73,854,749,0
4831981,382.33,854,754,0
4831991,382.06,854,749,0
4832001,380.50,854,755,0
4832011,381.03,854,749,0
4832021,380.04,854,753,0
4832031,381.06,854,749,0
4832041,380.61,854,752,0
4832051,381.93,854,749,0
4832061,381.65,854,753,0
4832071,383.51,854,749,0
4832081,383.66,854,752,0
4832091,385.56,854,749,0
4832101,385.61,854,753,0
4832111,387.40,854,749,0
4832121,387.45,854,752,0
4832131,389.07,854,748,0
4832141,388.66,854,753,0
4832151,389.84,854,749,0
4832161,389.07,854,751,0
4832172,390.16,854,751,0
4832182,389.43,854,750,0
4832192,390.97,854,751,0
4832202,391.49,854,750,0
4832212,395.29,854,751,0
4832222,399.62,854,751,0
4832232,408.90,854,751,0
4832242,420.08,854,750,0
4832252,437.50,854,751,0
4832271,457.23,793,750,0
4832274,482.15,793,752,0
4832283,508.16,793,750,0
4832293,537.04,793,752,0
4832303,563.86,793,750,0
4832313,590.13,793,751,0
4832323,610.66,793,750,0
4832333,627.69,793,752,0
4832343,637.38,793,750,0
4832353,642.15,793,751,0
4832363,638.94,793,750,0
4832373,631.41,793,752,0
4832384,617.19,793,749,0
4832393,600.93,793,751,0
4832403,580.34,793,750,0
4832413,559.75,793,752,0
4832423,536.85,793,750,0
4832433,516.11,793,751,0
4832443,494.61,793,750,0
4832453,475.91,793,752,0
4832463,456.91,793,749,0
4832473,441.42,793,751,0
4832483,426.12,793,750,0
4832493,414.26,793,752,0
4832503,402.65,793,750,0
4832513,394.91,793,752,0
4832523,387.87,793,750,0
4832533,384.44,793,752,0
4832543,381.22,793,749,0
4832553,381.20,793,752,0
4832563,381.31,793,750,0
4832573,384.13,793,752,0
4832583,385.98,793,749,0
4832593,389.76,793,752,0
4832603,392.19,793,750,0
4832613,396.12,793,752,0
4832623,398.35,793,749,0
4832633,401.38,793,752,0
4832643,402.29,793,750,0
4832653,404.26,793,752,0
4832663,404.05,793,749,0
4832673,404.60,793,752,0
4832684,402.96,793,749,0
4832694,402.11,793,752,0
4832704,399.55,793,749,0
4832714,397.84,793,752,0
4832724,394.50,793,748,0
4832734,392.55,793,752,0
4832744,389.43,793,749,0
4832754,387.80,793,752,0
4832764,385.20,793,748,0
4832774,384.33,793,752,0
4832784,382.77,793,749,0
4832794,382.88,793,752,0
4832804,382.23,793,748,0
4832814,383.36,793,752,0
4832824,383.60,793,749,0
4832834,385.26,793,752,0
4832844,385.91,793,749,0
4832855,387.65,793,752,0
4832865,388.27,793,748,0
4832875,389.78,793,754,0
4832885,389.97,793,746,0
4832896,390.84,793,755,0
4832905,390.63,793,749,0
4832915,391.17,793,754,0
4832925,391.03,793,746,0
4832935,392.05,793,756,0
4832945,393.36,793,749,0
4832955,397.46,793,754,0
4832965,403.83,793,746,0
4832975,414.55,793,756,0
4832985,428.57,793,749,0
4832995,447.77,793,754,0
4833014,470.64,743,754,0
4833017,497.45,743,760,0
4833026,525.94,743,746,0
4833036,555.23,743,755,0
4833046,582.16,743,745,0
4833056,606.28,743,759,0
4833067,625.01,743,738,0
4833076,638.42,743,755,0
4833086,644.90,743,745,0
4833096,644.97,743,756,0
4833106,638.68,743,737,0
4833116,627.93,743,757,0
4833126,612.70,743,742,0
4833136,594.74,743,757,0
4833146,574.34,743,739,0
4833156,553.53,743,756,0
4833166,532.20,743,744,0
4833176,511.57,743,758,0
4833186,491.47,743,740,0
4833196,473.16,743,760,0
4833206,455.88,743,745,0
4833216,440.62,743,759,0
4833226,426.76,743,737,0
4833236,415.09,743,759,0
4833246,405.25,743,744,0
4833256,397.67,743,757,0
4833266,391.99,743,738,0
4833276,388.78,743,758,0
4833286,387.34,743,745,0
4833296,387.97,743,757,0
4833306,389.95,743,740,0
4833316,393.09,743,758,0
4833326,396.62,743,746,0
4833336,400.42,743,756,0
4833346,403.98,743,740,0
4833356,407.16,743,760,0
4833367,409.60,743,738,0
4833377,411.05,743,756,0
4833387,411.89,743,742,0
4833397,411.79,743,757,0
4833408,411.34,743,744,0
4833417,410.08,743,755,0
4833427,408.56,743,742,0
4833437,406.33,743,756,0
4833447,404.56,743,745,0
4833457,402.29,743,755,0
4833467,400.53,743,740,0
4833477,398.36,743,755,0
4833487,397.09,743,747,0
4833497,395.78,743,755,0
4833507,395.20,743,741,0
4833517,394.20,743,755,0
4833527,394.23,743,745,0
4833537,394.20,743,755,0
4833547,394.87,743,743,0
4833557,394.99,743,755,0
4833567,395.81,743,746,0
4833577,396.08,743,755,0
4833587,396.91,743,741,0
4833597,397.03,743,755,0
4833607,397.83,743,743,0
4833617,398.44,743,754,0
4833627,400.32,743,742,0
4833637,402.93,743,759,0
4833647,408.52,743,745,0
4833657,416.38,743,754,0
4833667,428.09,743,741,0
4833677,443.11,743,756,0
4833696,462.92,682,754,0
4833699,485.66,682,752,0
4833708,512.03,682,746,0
4833718,538.76,682,754,0
4833728,566.22,682,747,0
4833738,591.10,682,753,0
4833748,613.48,682,749,0
4833758,630.10,682,757,0
4833768,642.20,682,748,0
4833778,646.68,682,752,0
4833788,646.48,682,749,0
4833798,639.43,682,754,0
4833808,628.93,682,748,0
4833818,613.14,682,753,0
4833828,596.00,682,749,0
4833838,575.77,682,754,0
4833848,556.08,682,747,0
4833858,534.46,682,752,0
4833868,514.73,682,749,0
4833879,494.29,682,752,0
4833889,476.84,682,750,0
4833899,459.28,682,751,0
4833909,445.01,682,750,0
4833920,431.20,682,751,0
4833929,421.54,682,750,0
4833939,412.55,682,751,0
4833949,407.71,682,751,0
4833959,403.13,682,750,0
4833969,402.19,682,749,0
4833979,401.10,682,751,0
4833989,403.22,682,751,0
4833999,404.35,682,751,0
4834009,407.76,682,750,0
4834019,409.42,682,751,0
4834029,412.81,682,750,0
4834039,414.02,682,751,0
4834049,416.54,682,750,0
4834059,416.51,682,751,0
4834069,417.56,682,751,0
4834079,416.02,682,751,0
4834089,415.63,682,751,0
4834099,412.87,682,751,0
4834109,411.58,682,750,0
4834119,408.15,682,750,0
4834129,406.43,682,751,0
4834139,403.09,682,752,0
4834149,401.78,682,751,0
4834159,398.89,682,750,0
4834169,398.19,682,752,0
4834179,395.91,682,751,0
4834189,395.98,682,751,0
4834199,394.57,682,750,0
4834209,395.13,682,751,0
4834220,394.06,682,750,0
4834230,395.16,682,752,0
4834240,394.55,682,750,0
4834250,395.93,682,752,0
4834260,395.69,682,749,0
4834270,397.84,682,751,0
4834280,399.22,682,750,0
4834290,403.87,682,752,0
4834300,408.92,682,749,0
4834310,418.67,682,751,0
4834320,430.30,682,750,0
4834330,447.31,682,752,0
4834350,466.37,653,751,0
4834353,489.70,653,756,0
4834362,514.05,653,749,0
4834372,540.78,653,752,0
4834382,565.44,653,749,0
4834392,589.18,653,752,0
4834402,607.86,653,749,0
4834412,623.03,653,752,0
4834422,632.02,653,749,0
4834433,636.04,653,753,0
4834443,633.24,653,747,0
4834453,625.93,653,755,0
4834463,613.14,653,746,0
4834473,597.54,653,756,0
4834483,578.43,653,747,0
4834493,558.59,653,756,0
4834503,537.24,653,745,0
4834513,516.55,653,758,0
4834523,495.82,653,747,0
4834533,476.71,653,755,0
4834543,458.29,653,745,0
4834553,441.87,653,756,0
4834563,426.31,653,747,0
4834573,413.36,653,755,0
4834583,401.72,653,746,0
4834593,392.85,653,755,0
4834604,385.69,653,741,0
4834614,381.37,653,757,0
4834624,378.90,653,737,0
4834634,378.72,653,757,0
4834644,379.75,653,737,0
4834654,382.44,653,757,0
4834664,385.39,653,742,0
4834674,388.83,653,760,0
4834684,392.05,653,738,0
4834694,395.04,653,758,0
4834704,397.21,653,736,0
4834714,398.52,653,760,0
4834724,399.05,653,738,0
4834734,399.03,653,761,0
4834744,398.17,653,738,0
4834754,396.66,653,759,0
4834764,394.75,653,739,0
4834775,392.55,653,757,0
4834785,390.33,653,738,0
4834795,387.66,653,756,0
4834805,385.49,653,744,0
4834816,383.20,653,754,0
4834825,381.25,653,743,0
4834835,379.21,653,754,0
4834845,378.12,653,745,0
4834855,376.92,653,754,0
4834865,376.65,653,741,0
4834875,376.02,653,754,0
4834885,376.62,653,744,0
4834895,376.95,653,754,0
4834905,377.95,653,741,0
4834915,378.31,653,754,0
4834925,379.63,653,745,0
4834935,380.43,653,756,0
4834945,381.97,653,741,0
4834955,383.65,653,754,0
4834965,387.61,653,745,0
4834975,393.09,653,755,0
4834985,402.19,653,746,0
4834995,413.70,653,754,0
4835005,429.82,653,743,0
4835024,449.59,675,745,0
4835027,474.31,675,752,0
4835036,500.79,675,753,0
4835046,529.52,675,748,0
4835056,556.67,675,754,0
4835066,582.91,675,748,0
4835076,604.79,675,754,0
4835086,622.81,675,748,0
4835096,633.33,675,753,0
4835106,638.97,675,749,0
4835116,637.44,675,754,0
4835126,631.91,675,748,0
4835136,620.36,675,752,0
4835146,606.50,675,749,0
4835156,588.09,675,752,0
4835166,569.29,675,747,0
4835176,548.12,675,753,0
4835186,528.20,675,749,0
4835196,506.97,675,752,0
4835206,487.99,675,748,0
4835216,468.54,675,753,0
4835226,452.22,675,749,0
4835236,435.87,675,752,0
4835246,422.45,675,748,0
4835256,409.20,675,753,0
4835266,399.63,675,749,0
4835276,390.52,675,752,0
4835287,384.97,675,749,0
4835297,379.62,675,751,0
4835307,377.81,675,750,0
4835317,376.06,675,750,0
4835328,377.59,675,751,0
4835337,378.44,675,751,0
4835347,381.74,675,750,0
4835357,383.66,675,751,0
4835367,387.53,675,751,0
4835377,389.43,675,752,0
4835387,392.73,675,751,0
4835397,393.45,675,751,0
4835407,395.25,675,751,0
4835417,394.53,675,751,0
4835427,394.84,675,751,0
4835437,392.70,675,751,0
4835447,391.76,675,751,0
4835457,388.75,675,751,0
4835467,387.37,675,751,0
4835477,384.21,675,751,0
4835487,382.61,675,751,0
4835497,379.47,675,750,0
4835507,378.47,675,750,0
4835517,376.10,675,750,0
4835527,375.68,675,751,0
4835537,373.85,675,750,0
4835547,374.24,675,751,0
4835557,373.44,675,750,0
4835567,374.81,675,751,0
4835577,374.44,675,750,0
4835587,376.23,675,751,0
4835597,376.64,675,751,0
4835607,378.89,675,751,0
4835617,379.18,675,750,0
4835628,381.18,675,752,0
4835638,381.21,675,750,0
4835648,382.91,675,751,0
4835658,382.51,675,749,0
4835668,383.25,675,752,0
4835678,382.19,675,750,0
4835688,382.73,675,752,0
4835698,381.49,675,750,0
4835708,381.55,675,752,0
4835718,379.85,675,750,0
4835728,379.72,675,751,0
4835738,378.13,675,749,0
4835748,378.01,675,752,0
4835758,376.42,675,750,0
4835768,376.94,675,752,0
4835778,376.91,675,749,0
4835788,380.11,675,752,0
4835799,384.02,675,749,0
4835809,392.54,675,752,0
4835819,403.52,675,749,0
4835838,420.38,814,748,0
4835842,440.62,814,744,0
4835851,466.54,814,756,0
4835861,494.40,814,746,0
4835871,524.88,814,756,0
4835881,554.19,814,746,0
4835891,582.38,814,755,0
4835901,605.75,814,746,0
4835911,624.38,814,755,0
4835921,635.75,814,746,0
4835931,641.18,814,755,0
4835941,639.63,814,745,0
4835951,632.80,814,756,0
4835961,620.30,814,745,0
4835971,604.40,814,756,0
4835981,584.86,814,746,0
4835991,563.95,814,755,0
4836001,541.51,814,739,0
4836012,519.15,814,756,0
4836022,496.78,814,739,0
4836032,475.46,814,764,0
4836042,455.09,814,740,0
4836052,436.38,814,755,0
4836062,419.17,814,738,0
4836072,403.99,814,757,0
4836082,390.79,814,738,0
4836092,379.67,814,757,0
4836102,370.77,814,738,0
4836112,363.98,814,757,0
4836122,359.53,814,740,0
4836132,357.01,814,756,0
4836142,356.15,814,738,0
4836152,356.66,814,757,0
4836162,358.65,814,738,0
4836172,361.33,814,755,0
4836183,364.66,814,741,0
4836193,367.67,814,755,0
4836203,371.03,814,744,0
4836213,373.59,814,759,0
4836224,376.29,814,747,0
4836233,377.66,814,755,0
4836243,378.70,814,745,0
4836253,378.32,814,754,0
4836263,378.35,814,747,0
4836273,376.92,814,755,0
4836283,375.87,814,745,0
4836293,373.47,814,755,0
4836303,372.13,814,746,0
4836313,370.16,814,757,0
4836323,369.21,814,745,0
4836333,367.35,814,754,0
4836343,366.99,814,747,0
4836353,366.13,814,755,0
4836363,366.48,814,745,0
4836373,365.91,814,755,0
4836383,366.62,814,748,0
4836393,366.61,814,754,0
4836403,367.58,814,746,0
4836413,367.36,814,754,0
4836423,368.37,814,746,0
4836433,368.39,814,754,0
4836443,369.21,814,746,0
4836453,368.89,814,755,0
4836463,369.78,814,748,0
4836473,369.68,814,754,0
4836483,370.50,814,746,0
4836493,370.09,814,754,0
4836503,370.84,814,747,0
4836513,370.67,814,754,0
4836524,371.67,814,748,0
4836534,371.21,814,753,0
4836544,372.22,814,749,0
4836554,371.94,814,752,0
4836564,373.07,814,750,0
4836574,372.66,814,753,0
4836584,373.58,814,749,0
4836594,372.89,814,752,0
4836604,373.70,814,750,0
4836614,372.80,814,753,0
4836624,373.68,814,748,0
4836634,373.00,814,752,0
4836644,374.80,814,750,0
4836654,376.19,814,753,0
4836673,381.19,835,751,0
4836676,387.48,835,751,0
4836686,399.20,835,752,0
4836696,413.46,835,750,0
4836706,433.85,835,751,0
4836716,456.31,835,750,0
4836726,483.30,835,752,0
4836737,510.21,835,750,0
4836747,538.43,835,752,0
4836757,562.90,835,749,0
4836767,585.00,835,753,0
4836777,600.52,835,749,0
4836787,612.02,835,752,0
4836797,615.96,835,749,0
4836807,615.50,835,753,0
4836817,608.06,835,749,0
4836827,597.42,835,752,0
4836837,581.78,835,749,0
4836847,564.70,835,753,0
4836857,544.39,835,749,0
4836867,524.69,835,752,0
4836877,503.52,835,749,0
4836887,484.17,835,753,0
4836897,464.19,835,749,0
4836908,446.52,835,752,0
4836918,428.92,835,749,0
4836928,413.73,835,752,0
4836938,398.90,835,748,0
4836948,386.71,835,754,0
4836958,375.36,835,749,0
4836968,367.19,835,753,0
4836978,360.19,835,748,0
4836988,356.28,835,754,0
4836998,353.37,835,749,0
4837008,353.08,835,753,0
4837018,353.53,835,748,0
4837028,355.99,835,754,0
4837038,358.22,835,749,0
4837048,361.71,835,753,0
4837058,364.37,835,748,0
4837068,367.73,835,754,0
4837079,370.00,835,745,0
4837089,372.57,835,756,0
4837099,373.98,835,747,0
4837109,375.45,835,755,0
4837120,375.74,835,744,0
4837129,376.20,835,756,0
4837139,375.67,835,747,0
4837149,375.08,835,756,0
4837159,373.60,835,739,0
4837169,372.22,835,756,0
4837179,370.35,835,747,0
4837189,368.79,835,756,0
4837199,367.01,835,745,0
4837209,365.89,835,756,0
4837219,364.55,835,746,0
4837229,363.70,835,757,0
4837239,362.81,835,744,0
4837249,362.82,835,756,0
4837259,362.92,835,747,0
4837269,363.59,835,755,0
4837279,364.10,835,738,0
4837289,365.22,835,756,0
4837299,366.27,835,747,0
4837309,367.60,835,757,0
4837319,368.45,835,739,0
4837329,369.43,835,757,0
4837339,370.07,835,746,0
4837349,370.95,835,756,0
4837359,371.61,835,742,0
4837369,372.24,835,757,0
4837379,372.51,835,744,0
4837389,372.91,835,760,0
4837399,372.90,835,744,0
4837409,372.89,835,757,0
4837420,372.58,835,738,0
4837430,372.28,835,758,0
4837440,372.49,835,741,0
4837450,373.59,835,760,0
4837460,376.50,835,746,0
4837470,381.71,835,756,0
4837480,389.85,835,739,0
4837490,401.47,835,761,0
4837510,417.78,836,753,0
4837513,437.39,836,751,0
4837522,461.70,836,749,0
4837532,487.25,836,753,0
4837542,514.77,836,750,0
4837552,540.90,836,753,0
4837562,565.70,836,748,0
4837572,585.33,836,753,0
4837582,601.48,836,750,0
4837592,610.16,836,754,0
4837602,614.31,836,749,0
4837612,611.01,836,752,0
4837622,604.27,836,750,0
4837633,591.25,836,751,0
4837643,576.60,836,751,0
4837653,557.65,836,751,0
4837663,538.81,836,752,0
4837673,517.57,836,750,0
4837683,498.33,836,751,0
4837693,477.70,836,750,0
4837703,460.18,836,752,0
4837713,441.74,836,750,0
4837723,426.82,836,751,0
4837733,411.66,836,750,0
4837743,400.36,836,752,0
4837753,388.98,836,750,0
4837763,381.70,836,751,0
4837773,374.55,836,750,0
4837783,371.55,836,752,0
4837793,368.69,836,750,0
4837804,369.47,836,752,0
4837814,369.88,836,750,0
4837824,373.18,836,752,0
4837834,375.48,836,749,0
4837844,380.05,836,752,0
4837854,383.12,836,750,0
4837864,387.58,836,752,0
4837874,389.72,836,749,0
4837884,392.81,836,752,0
4837894,393.46,836,750,0
4837904,394.87,836,752,0
4837914,393.79,836,750,0
4837924,393.51,836,752,0
4837934,390.96,836,750,0
4837944,389.77,836,752,0
4837954,386.71,836,750,0
4837964,385.17,836,752,0
4837975,381.99,836,749,0
4837985,380.49,836,753,0
4837995,377.82,836,749,0
4838005,376.93,836,752,0
4838016,374.94,836,749,0
4838025,374.87,836,753,0
4838035,373.75,836,749,0
4838045,374.38,836,753,0
4838055,374.10,836,749,0
4838065,375.35,836,752,0
4838075,375.55,836,749,0
4838085,377.01,836,752,0
4838095,377.31,836,749,0
4838105,379.06,836,753,0
4838115,379.47,836,749,0
4838125,380.91,836,752,0
4838135,380.98,836,749,0
4838145,382.27,836,752,0
4838155,382.23,836,749,0
4838165,383.15,836,752,0
4838175,382.63,836,749,0
4838185,383.43,836,753,0
4838195,383.64,836,749,0
4838205,386.15,836,752,0
4838215,389.36,836,749,0
4838225,396.37,836,753,0
4838235,405.56,836,749,0
4838245,419.96,836,754,0
4838255,437.50,836,749,0
4838275,459.85,765,748,0
4838278,484.41,765,737,0
4838287,511.46,765,757,0
4838297,537.81,765,738,0
4838307,563.24,765,759,0
4838317,584.55,765,739,0
4838327,602.04,765,758,0
4838337,613.39,765,738,0
4838347,619.10,765,760,0
4838358,618.47,765,737,0
4838367,612.80,765,757,0
4838377,602.06,765,737,0
4838387,587.81,765,758,0
4838397,570.51,765,736,0
4838407,551.93,765,759,0
4838417,532.37,765,737,0
4838427,512.88,765,758,0
4838437,493.68,765,737,0
4838447,475.94,765,757,0
4838457,459.25,765,737,0
4838467,444.17,765,757,0
4838477,430.49,765,736,0
4838487,418.73,765,759,0
4838497,408.53,765,737,0
4838507,400.31,765,757,0
4838517,393.92,765,737,0
4838528,389.49,765,758,0
4838537,386.68,765,737,0
4838547,385.71,765,759,0
4838557,386.05,765,736,0
4838567,387.71,765,756,0
4838577,389.98,765,737,0
4838587,392.64,765,758,0
4838597,395.58,765,737,0
4838607,398.36,765,758,0
4838617,400.31,765,738,0
4838627,401.63,765,759,0
4838637,402.30,765,737,0
4838647,402.47,765,758,0
4838657,401.86,765,737,0
4838667,400.78,765,759,0
4838677,399.48,765,737,0
4838687,397.92,765,758,0
4838697,396.40,765,739,0
4838707,394.61,765,760,0
4838717,392.76,765,737,0
4838727,390.99,765,757,0
4838737,389.53,765,739,0
4838747,388.13,765,758,0
4838757,387.06,765,737,0
4838767,385.93,765,757,0
4838777,385.52,765,739,0
4838787,385.41,765,759,0
4838797,385.67,765,737,0
4838807,385.64,765,756,0
4838817,386.13,765,739,0
4838828,386.52,765,757,0
4838838,387.61,765,743,0
4838848,388.07,765,755,0
4838858,389.12,765,745,0
4838868,389.47,765,754,0
4838878,390.49,765,743,0
4838888,390.60,765,755,0
4838898,391.62,765,745,0
4838908,391.52,765,754,0
4838918,392.65,765,744,0
4838928,393.65,765,754,0
4838938,397.61,765,745,0
4838948,402.83,765,754,0
4838958,412.10,765,743,0
4838968,424.11,765,754,0
4838978,441.65,765,745,0
4838998,462.37,723,745,0
4839001,488.14,723,753,0
4839010,514.67,723,752,0
4839020,543.61,723,751,0
4839030,570.21,723,751,0
4839041,595.44,723,752,0
4839051,614.81,723,750,0
4839061,630.12,723,752,0
4839071,637.20,723,750,0
4839081,639.71,723,753,0
4839091,634.40,723,750,0
4839101,625.88,723,752,0
4839111,611.17,723,750,0
4839121,594.96,723,753,0
4839131,574.79,723,750,0
4839141,555.35,723,752,0
4839151,533.86,723,750,0
4839161,514.45,723,753,0
4839171,493.91,723,750,0
4839181,476.45,723,752,0
4839191,458.66,723,750,0
4839201,444.10,723,753,0
4839212,429.42,723,749,0
4839222,418.19,723,753,0
4839232,407.16,723,749,0
4839242,399.74,723,753,0
4839252,392.79,723,749,0
4839262,389.68,723,753,0
4839272,386.86,723,749,0
4839282,387.33,723,753,0
4839292,387.79,723,749,0
4839302,391.02,723,753,0
4839312,393.63,723,749,0
4839322,397.90,723,753,0
4839332,400.67,723,749,0
4839342,404.80,723,753,0
4839352,407.00,723,749,0
4839362,409.74,723,753,0
4839372,410.08,723,749,0
4839383,410.74,723,753,0
4839393,409.32,723,748,0
4839403,408.24,723,752,0
4839413,405.29,723,749,0
4839424,402.89,723,754,0
4839433,398.98,723,749,0
4839443,396.24,723,753,0
4839453,392.57,723,748,0
4839463,390.04,723,754,0
4839473,386.99,723,748,0
4839483,385.36,723,753,0
4839493,383.63,723,749,0
4839503,383.57,723,755,0
4839513,383.01,723,749,0
4839523,383.91,723,753,0
4839533,384.36,723,749,0
4839543,385.88,723,755,0
4839553,386.60,723,749,0
4839563,388.27,723,753,0
4839573,388.91,723,749,0
4839583,390.27,723,757,0
4839593,390.53,723,743,0
4839603,391.57,723,754,0
4839613,391.53,723,749,0
4839623,391.97,723,755,0
4839633,391.21,723,745,0
4839643,391.10,723,754,0
4839653,389.91,723,749,0
4839663,389.73,723,757,0
4839673,389.17,723,743,0
4839683,390.83,723,753,0
4839693,393.84,723,748,0
4839703,400.66,723,758,0
4839713,410.45,723,743,0
4839724,425.70,723,759,0
4839734,444.86,723,742,0
4839744,469.03,723,757,0
4839763,495.59,766,756,0
4839767,524.04,766,754,0
4839775,552.36,766,738,0
4839785,579.47,766,757,0
4839795,602.68,766,739,0
4839805,620.99,766,757,0
4839815,632.99,766,737,0
4839825,638.82,766,757,0
4839835,638.66,766,738,0
4839845,632.12,766,755,0
4839855,620.26,766,737,0
4839865,604.28,766,757,0
4839875,585.77,766,739,0
4839885,565.39,766,757,0
4839895,544.66,766,736,0
4839905,523.93,766,759,0
4839915,504.24,766,739,0
4839925,485.44,766,757,0
4839936,468.34,766,742,0
4839945,452.46,766,757,0
4839955,438.40,766,739,0
4839965,425.46,766,756,0
4839975,414.61,766,742,0
4839985,405.26,766,758,0
4839995,398.28,766,739,0
4840005,392.71,766,756,0
4840015,389.63,766,743,0
4840025,387.98,766,759,0
