Time,PPG,IBI,GSR,GSR_Event
6248,392.87,864,728,0
6258,362.14,864,724,0
6268,326.78,864,728,0
6278,288.19,864,728,0
6288,251.19,864,728,0
6298,219.63,864,730,0
6308,199.51,864,732,0
6318,195.76,864,732,0
6328,210.32,864,733,0
6338,233.19,864,725,0
6348,256.11,864,728,0
6359,278.88,864,729,0
6369,297.90,864,729,0
6379,307.70,864,726,0
6389,313.06,864,731,0
6400,314.50,864,730,0
6409,317.05,864,731,0
6419,325.56,864,731,0
6429,337.27,864,731,0
6439,349.57,864,731,0
6449,363.63,864,731,0
6459,375.23,864,730,0
6469,384.50,864,731,0
6479,389.58,864,730,0
6489,392.53,864,731,0
6499,392.07,864,731,0
6509,390.34,864,732,0
6519,385.95,864,731,0
6529,381.21,864,731,0
6539,374.59,864,731,0
6549,367.85,864,731,0
6559,359.84,864,731,0
6569,352.95,864,732,0
6579,345.21,864,730,0
6589,338.50,864,731,0
6599,331.36,864,730,0
6609,326.11,864,731,0
6619,322.78,864,731,0
6629,323.49,864,731,0
6639,329.08,864,730,0
6649,343.72,864,731,0
6659,368.40,864,730,0
6669,404.92,864,731,0
6679,448.62,864,731,0
6689,496.73,864,731,0
6700,545.97,864,731,0
6710,593.12,864,732,0
6720,634.36,864,730,0
6739,667.25,873,735,0
6742,690.49,873,738,0
6751,707.01,873,737,0
6761,718.84,873,737,0
6771,727.42,873,738,0
6781,733.68,873,737,0
6791,738.36,873,737,0
6801,741.94,873,737,0
6811,744.48,873,738,0
6821,746.27,873,737,0
6831,747.56,873,737,0
6841,748.42,873,737,0
6851,748.94,873,738,0
6861,743.26,873,737,0
6871,730.15,873,736,0
6881,707.05,873,737,0
6891,674.93,873,738,0
6901,633.85,873,737,0
6912,585.85,873,736,0
6921,532.07,873,737,0
6931,481.05,873,738,0
6941,434.88,873,737,0
6951,398.40,873,737,0
6961,371.02,873,737,0
6971,354.60,873,738,0
6981,346.58,873,737,0
6991,346.83,873,737,0
7001,351.94,873,737,0
7011,361.69,873,738,0
7021,372.62,873,737,0
7031,384.48,873,737,0
7041,394.19,873,736,0
7051,402.58,873,738,0
7061,407.33,873,737,0
7071,409.38,873,737,0
7081,407.16,873,737,0
7091,402.36,873,738,0
7101,393.98,873,737,0
7111,383.91,873,737,0
7121,371.34,873,737,0
7131,358.59,873,738,0
7141,344.87,873,737,0
7151,332.31,873,738,0
7161,320.05,873,737,0
7171,310.26,873,738,0
7181,301.70,873,737,0
7191,295.92,873,737,0
7201,291.70,873,737,0
7212,290.46,873,738,0
7222,290.67,873,737,0
7232,293.21,873,737,0
7242,296.75,873,737,0
7252,301.84,873,737,0
7262,307.37,873,737,0
7272,313.82,873,737,0
7282,320.21,873,737,0
7292,326.92,873,737,0
7302,333.25,873,737,0
7312,339.47,873,737,0
7322,345.29,873,737,0
7332,350.69,873,737,0
7342,355.24,873,737,0
7352,359.24,873,737,0
7362,362.38,873,737,0
7372,364.75,873,737,0
7383,366.16,873,737,0
7393,366.45,873,737,0
7403,366.02,873,737,0
7413,364.81,873,737,0
7424,363.92,873,737,0
7433,364.46,873,737,0
7443,368.61,873,737,0
7453,378.33,873,737,0
7463,397.43,873,737,0
7473,427.34,873,738,0
7483,465.51,873,737,0
7502,508.39,763,734,0
7504,553.57,763,737,0
7514,597.84,763,737,0
7524,638.52,763,737,0
7534,671.62,763,737,0
7544,695.13,763,737,0
7554,711.55,763,736,0
7564,722.96,763,735,0
7574,730.98,763,737,0
7584,736.69,763,738,0
7595,740.68,763,737,0
7604,743.48,763,737,0
7614,745.39,763,736,0
7624,744.46,763,735,0
7634,736.82,763,735,0
7644,724.02,763,737,0
7654,704.47,763,737,0
7664,678.01,763,738,0
7674,643.85,763,738,0
7684,603.40,763,737,0
7694,558.66,763,737,0
7704,515.56,763,738,0
7714,472.71,763,738,0
7724,433.88,763,737,0
7734,399.80,763,738,0
7744,373.51,763,738,0
7754,353.55,763,738,0
7764,342.24,763,738,0
7774,337.24,763,737,0
7784,339.53,763,738,0
7794,345.93,763,738,0
7804,356.79,763,738,0
7814,368.55,763,737,0
7824,381.76,763,738,0
7834,393.06,763,738,0
7844,403.16,763,738,0
7854,409.45,763,737,0
7864,413.35,763,738,0
7874,412.56,763,738,0
7884,409.26,763,738,0
7895,401.64,763,738,0
7905,392.19,763,739,0
7915,379.45,763,738,0
7925,366.46,763,738,0
7936,351.62,763,738,0
7945,338.02,763,739,0
7955,323.96,763,738,0
7965,312.74,763,738,0
7975,301.93,763,738,0
7985,294.67,763,739,0
7995,288.34,763,738,0
8005,285.84,763,738,0
8015,284.39,763,738,0
8025,286.50,763,739,0
8035,289.09,763,738,0
8045,294.72,763,738,0
8055,300.16,763,738,0
8065,307.66,763,739,0
8075,314.36,763,738,0
8085,322.61,763,738,0
8095,329.24,763,738,0
8105,336.71,763,739,0
8115,342.20,763,738,0
8125,348.40,763,738,0
8135,352.61,763,737,0
8145,357.44,763,739,0
8155,360.18,763,738,0
8165,363.64,763,739,0
8175,364.86,763,737,0
8185,366.79,763,739,0
8195,366.68,763,738,0
8205,367.25,763,739,0
8215,365.46,763,738,0
8225,364.21,763,739,0
8236,360.80,763,738,0
8246,358.29,763,739,0
8256,354.17,763,737,0
8266,352.62,763,739,0
8276,352.95,763,738,0
8286,360.16,763,738,0
8296,374.26,763,737,0
8306,401.10,763,739,0
8316,437.11,763,738,0
8326,480.66,763,739,0
8336,527.05,763,738,0
8346,574.43,763,739,0
8366,618.40,863,737,0
8368,657.03,863,741,0
8378,685.35,863,738,0
8388,705.21,863,739,0
8398,719.08,863,738,0
8408,728.83,863,739,0
8418,735.61,863,738,0
8428,740.40,863,739,0
8438,743.71,863,738,0
8449,746.07,863,739,0
8459,747.67,863,738,0
8469,747.52,863,739,0
8479,741.02,863,738,0
8489,726.96,863,739,0
8499,703.53,863,737,0
8509,671.70,863,738,0
8519,630.94,863,738,0
8529,583.13,863,739,0
8539,529.95,863,738,0
8549,478.45,863,739,0
8559,430.49,863,738,0
8569,390.10,863,739,0
8579,356.94,863,737,0
8589,333.73,863,738,0
8599,318.72,863,738,0
8609,312.89,863,739,0
8620,313.57,863,737,0
8630,320.77,863,738,0
8640,331.68,863,738,0
8650,345.66,863,739,0
8660,359.86,863,737,0
8670,373.96,863,738,0
8680,385.46,863,738,0
8690,394.41,863,739,0
8700,399.47,863,737,0
8710,401.43,863,738,0
8720,399.50,863,738,0
8730,394.51,863,739,0
8740,386.21,863,738,0
8750,376.25,863,738,0
8760,364.39,863,738,0
8770,352.01,863,739,0
8780,338.98,863,738,0
8791,326.64,863,738,0
8801,315.18,863,738,0
8811,305.35,863,739,0
8821,297.41,863,738,0
8832,291.76,863,738,0
8841,288.49,863,738,0
8851,287.65,863,739,0
8861,289.22,863,738,0
8871,292.49,863,738,0
8881,297.49,863,738,0
8891,303.30,863,739,0
8901,310.37,863,738,0
8911,317.33,863,738,0
8921,324.43,863,738,0
8931,330.86,863,739,0
8941,336.99,863,738,0
8951,342.26,863,738,0
8961,346.85,863,738,0
8971,350.33,863,739,0
8981,353.31,863,738,0
8991,355.06,863,738,0
9001,356.24,863,738,0
9011,356.43,863,739,0
9021,355.87,863,738,0
9031,354.32,863,738,0
9041,352.47,863,738,0
9051,350.10,863,738,0
9061,347.97,863,738,0
9071,345.62,863,738,0
9081,343.76,863,738,0
9091,342.03,863,739,0
9101,340.82,863,738,0
9111,339.21,863,738,0
9121,337.82,863,738,0
9132,335.81,863,738,0
9142,333.90,863,738,0
9152,331.06,863,737,0
9162,328.73,863,738,0
9172,326.49,863,738,0
9182,326.65,863,738,0
9192,330.09,863,737,0
9202,340.48,863,738,0
9212,359.71,863,738,0
9222,391.51,863,738,0
9232,432.03,863,738,0
9242,478.91,863,739,0
9262,528.22,896,737,0
9264,577.44,896,740,0
9274,622.52,896,738,0
9284,660.47,896,739,0
9294,687.71,896,739,0
9304,706.83,896,739,0
9314,720.16,896,737,0
9324,729.54,896,739,0
9334,736.11,896,739,0
9345,740.75,896,739,0
9355,743.91,896,737,0
9365,746.16,896,739,0
9375,747.70,896,738,0
9385,747.92,896,739,0
9395,742.11,896,737,0
9405,729.31,896,739,0
9415,706.59,896,738,0
9425,675.47,896,739,0
9435,635.00,896,737,0
9445,587.60,896,739,0
9455,533.81,896,738,0
9465,481.28,896,739,0
9475,431.31,896,737,0
9485,389.82,896,739,0
9495,355.41,896,738,0
9505,331.68,896,739,0
9516,315.83,896,737,0
9526,310.22,896,739,0
9536,310.97,896,738,0
9546,319.29,896,739,0
9556,330.65,896,737,0
9566,345.93,896,739,0
9576,360.56,896,738,0
9586,375.05,896,740,0
9596,385.96,896,741,0
9606,394.63,896,743,0
9616,398.47,896,743,0
9626,399.36,896,741,0
9636,395.48,896,739,0
9646,389.38,896,739,0
9656,380.09,896,738,0
9666,369.87,896,740,0
9676,357.82,896,737,0
9687,346.13,896,739,0
9697,333.83,896,738,0
9707,323.13,896,740,0
9717,312.72,896,738,0
9728,304.70,896,740,0
9737,297.81,896,738,0
9747,293.66,896,740,0
9757,290.72,896,737,0
9767,290.76,896,740,0
9777,291.78,896,738,0
9787,295.36,896,739,0
9797,299.45,896,738,0
9807,305.36,896,739,0
9817,311.21,896,738,0
9827,318.60,896,739,0
9837,325.11,896,737,0
9847,332.40,896,739,0
9857,338.33,896,738,0
9867,344.79,896,739,0
9877,349.44,896,738,0
9887,353.76,896,741,0
9897,356.06,896,738,0
9907,358.40,896,740,0
9917,358.88,896,737,0
9927,359.34,896,739,0
9937,358.08,896,738,0
9947,357.29,896,739,0
9957,355.53,896,737,0
9967,354.30,896,739,0
9977,352.02,896,738,0
9987,350.22,896,739,0
9997,347.37,896,737,0
10007,345.20,896,739,0
10017,341.93,896,737,0
10028,338.99,896,739,0
10038,333.81,896,736,0
10048,329.07,896,738,0
10058,326.30,896,737,0
10068,328.05,896,739,0
10078,332.07,896,736,0
10088,344.18,896,738,0
10098,367.22,896,738,0
10108,403.58,896,739,0
10118,447.98,896,738,0
10128,496.03,896,739,0
10147,544.36,886,738,0
10150,593.11,886,740,0
10159,636.62,886,738,0
10169,670.85,886,739,0
10179,694.81,886,739,0
10189,711.62,886,739,0
10199,723.35,886,738,0
10209,731.60,886,739,0
10219,737.34,886,739,0
10229,741.39,886,739,0
10240,744.19,886,738,0
10249,746.15,886,739,0
10259,747.52,886,739,0
10269,746.68,886,739,0
10279,739.53,886,738,0
10289,724.41,886,738,0
10299,699.82,886,738,0
10309,665.93,886,739,0
10319,623.31,886,738,0
10329,573.24,886,739,0
10339,518.57,886,738,0
10349,465.13,886,739,0
10359,416.45,886,738,0
10369,375.64,886,737,0
10379,343.99,886,738,0
10389,322.05,886,739,0
10399,309.61,886,738,0
10409,306.08,886,738,0
10419,309.96,886,738,0
10429,319.70,886,738,0
10439,333.33,886,738,0
10449,348.92,886,737,0
10459,364.67,886,738,0
10469,379.04,886,738,0
10479,390.86,886,738,0
10489,399.13,886,737,0
10499,403.33,886,737,0
10509,403.62,886,738,0
10519,400.13,886,737,0
10529,393.02,886,737,0
10540,382.69,886,737,0
10550,369.58,886,738,0
10560,354.92,886,737,0
10570,339.04,886,737,0
10580,321.67,886,736,0
10590,303.51,886,736,0
10600,288.66,886,737,0
10610,277.19,886,737,0
10620,267.36,886,735,0
10630,262.32,886,738,0
10640,262.78,886,738,0
10650,268.42,886,737,0
10660,279.22,886,737,0
10670,290.73,886,738,0
10680,302.89,886,738,0
10690,316.94,886,737,0
10700,327.50,886,735,0
10711,331.68,886,735,0
10721,335.42,886,738,0
10731,339.45,886,737,0
10741,344.93,886,738,0
10752,350.14,886,738,0
10761,356.14,886,738,0
10771,363.25,886,738,0
10781,374.06,886,738,0
10791,382.06,886,738,0
10801,387.01,886,738,0
10811,387.74,886,738,0
10821,386.87,886,738,0
10831,383.10,886,738,0
10841,379.04,886,738,0
10851,373.24,886,738,0
10861,368.33,886,738,0
10871,362.36,886,738,0
10881,357.45,886,738,0
10891,351.83,886,738,0
10901,347.68,886,738,0
10911,342.76,886,738,0
10921,339.45,886,739,0
10931,335.63,886,738,0
10941,334.11,886,738,0
10951,333.52,886,738,0
10961,337.78,886,739,0
10971,346.63,886,738,0
10981,365.30,886,738,0
10991,394.48,886,738,0
11001,433.59,886,739,0
11011,478.16,886,738,0
11021,526.45,886,738,0
11031,574.06,886,738,0
11051,619.26,903,736,0
11054,657.24,903,740,0
11063,685.54,903,738,0
11073,705.30,903,738,0
11083,719.18,903,739,0
11094,728.86,903,738,0
11103,735.67,903,738,0
11113,740.40,903,738,0
11123,743.75,903,739,0
11133,746.05,903,738,0
11143,747.71,903,738,0
11153,748.83,903,738,0
11163,749.65,903,739,0
11173,749.28,903,738,0
11183,745.51,903,738,0
11193,733.83,903,737,0
11203,714.17,903,738,0
11213,684.76,903,738,0
11223,647.72,903,738,0
11233,602.29,903,738,0
11243,552.27,903,738,0
11253,499.86,903,738,0
11264,452.76,903,738,0
11273,411.00,903,737,0
11283,379.25,903,738,0
11293,354.79,903,738,0
11303,340.79,903,738,0
11313,333.48,903,738,0
11323,335.01,903,738,0
11333,340.58,903,738,0
11343,351.63,903,737,0
11353,363.31,903,737,0
11363,376.98,903,738,0
11373,388.26,903,738,0
11383,398.89,903,738,0
11393,404.88,903,737,0
11403,408.82,903,738,0
11413,407.42,903,737,0
11423,403.82,903,738,0
11433,395.60,903,737,0
11443,386.16,903,738,0
11453,373.21,903,738,0
11463,360.55,903,738,0
11473,345.86,903,737,0
11483,333.00,903,738,0
11493,319.59,903,738,0
11503,309.21,903,738,0
11513,299.38,903,737,0
11523,293.43,903,739,0
11533,288.33,903,738,0
11543,287.16,903,738,0
11553,286.73,903,737,0
11564,289.98,903,739,0
11574,293.63,903,737,0
11584,299.91,903,738,0
11594,305.60,903,737,0
11604,313.17,903,739,0
11614,319.46,903,737,0
11624,327.13,903,738,0
11634,332.96,903,737,0
11644,339.66,903,738,0
11654,344.56,903,737,0
11664,350.26,903,738,0
11674,353.96,903,737,0
11684,358.38,903,739,0
11694,360.71,903,737,0
11704,363.71,903,738,0
11714,364.48,903,737,0
11724,366.01,903,739,0
11735,365.54,903,737,0
11745,365.85,903,738,0
11755,364.31,903,737,0
11765,363.49,903,739,0
11776,360.90,903,737,0
11785,359.34,903,738,0
11795,355.98,903,737,0
11805,353.37,903,738,0
11815,349.36,903,737,0
11825,346.30,903,738,0
11835,342.05,903,737,0
11845,339.38,903,738,0
11855,337.21,903,737,0
11865,339.33,903,738,0
11875,345.83,903,737,0
11885,362.00,903,738,0
11895,389.00,903,737,0
11905,426.76,903,739,0
11915,470.71,903,737,0
11925,518.80,903,739,0
11944,567.03,894,737,0
11948,613.31,894,739,0
11956,652.60,894,737,0
11966,682.25,894,738,0
11976,702.96,894,738,0
11986,717.50,894,739,0
11996,727.64,894,737,0
12006,734.73,894,738,0
12016,739.70,894,738,0
12026,743.22,894,739,0
12036,745.64,894,737,0
12046,747.33,894,738,0
12056,748.48,894,737,0
12066,749.32,894,739,0
12076,749.91,894,737,0
12086,748.95,894,738,0
12096,741.81,894,738,0
12106,726.99,894,738,0
12116,702.70,894,737,0
12126,670.00,894,738,0
12136,628.73,894,737,0
12146,580.68,894,739,0
12156,528.23,894,737,0
12166,478.28,894,738,0
12176,433.15,894,737,0
12186,396.72,894,739,0
12196,368.65,894,737,0
12206,350.58,894,738,0
12216,340.55,894,737,0
12226,338.50,894,739,0
12236,341.82,894,737,0
12247,349.85,894,738,0
12257,359.84,894,738,0
12267,370.73,894,738,0
12277,380.37,894,737,0
12288,388.27,894,738,0
12297,393.29,894,738,0
12307,395.30,894,738,0
12317,393.75,894,737,0
12327,388.94,894,738,0
12337,381.12,894,738,0
12347,370.97,894,738,0
12357,359.23,894,737,0
12367,346.22,894,738,0
12377,332.65,894,738,0
12387,319.47,894,739,0
12397,307.33,894,737,0
12407,296.65,894,738,0
12417,287.62,894,738,0
12427,280.79,894,739,0
12437,276.18,894,738,0
12447,273.77,894,738,0
12457,273.50,894,738,0
12467,275.15,894,739,0
12477,278.45,894,738,0
12487,283.16,894,738,0
12497,288.94,894,737,0
12507,295.47,894,738,0
12517,302.49,894,738,0
12527,309.50,894,738,0
12537,316.46,894,738,0
12547,323.14,894,738,0
12557,329.23,894,738,0
12567,334.43,894,737,0
12577,338.97,894,738,0
12588,342.79,894,738,0
12598,345.94,894,738,0
12608,347.93,894,737,0
12618,349.41,894,738,0
12628,350.01,894,738,0
12638,350.35,894,738,0
12648,349.82,894,737,0
12658,349.19,894,738,0
12668,347.63,894,738,0
12678,346.50,894,738,0
12688,344.55,894,737,0
12698,343.14,894,738,0
12708,340.74,894,738,0
12718,338.59,894,738,0
12728,335.46,894,737,0
12738,332.92,894,738,0
12748,329.94,894,738,0
12759,329.02,894,738,0
12769,330.00,894,737,0
12779,337.46,894,738,0
12789,352.75,894,738,0
12800,380.81,894,738,0
12809,418.79,894,737,0
12819,464.03,894,738,0
12829,512.66,894,738,0
12849,562.74,904,736,0
12852,609.57,904,738,0
12861,650.54,904,738,0
12871,680.72,904,738,0
12881,701.93,904,739,0
12891,716.70,904,737,0
12901,727.07,904,739,0
12911,734.29,904,738,0
12921,739.43,904,738,0
12931,742.95,904,737,0
12941,745.45,904,739,0
12951,747.16,904,738,0
12961,748.44,904,739,0
12972,749.25,904,737,0
12982,746.35,904,739,0
12992,734.67,904,737,0
13002,714.03,904,739,0
13012,682.52,904,737,0
13022,642.33,904,739,0
13032,592.73,904,738,0
13042,536.97,904,739,0
13052,478.44,904,737,0
13062,425.89,904,739,0
13072,379.94,904,738,0
13082,345.67,904,739,0
13092,320.83,904,737,0
13102,308.54,904,738,0
13112,304.82,904,738,0
13122,311.39,904,739,0
13132,322.97,904,736,0
13143,340.51,904,738,0
13153,358.61,904,737,0
13163,378.36,904,738,0
13173,395.09,904,737,0
13184,410.15,904,738,0
13193,419.92,904,737,0
13203,426.72,904,739,0
13213,427.36,904,737,0
13223,424.72,904,738,0
13233,416.28,904,737,0
13243,405.57,904,739,0
13253,390.57,904,737,0
13263,374.84,904,738,0
13273,356.55,904,737,0
13283,339.67,904,739,0
13293,322.32,904,737,0
13303,308.00,904,738,0
13313,294.37,904,738,0
13323,285.00,904,739,0
13333,277.29,904,737,0
13343,273.90,904,738,0
13353,271.92,904,738,0
13363,273.87,904,739,0
13373,276.78,904,737,0
13383,282.89,904,738,0
13393,288.92,904,737,0
13403,297.17,904,739,0
13413,304.75,904,737,0
13423,313.87,904,738,0
13433,321.66,904,737,0
13443,330.59,904,739,0
13453,337.74,904,737,0
13463,345.71,904,738,0
13473,351.58,904,738,0
13484,357.88,904,739,0
13494,361.99,904,737,0
13504,366.15,904,738,0
13514,368.07,904,737,0
13524,370.02,904,738,0
13534,369.63,904,737,0
13544,369.36,904,738,0
13554,367.06,904,737,0
13564,364.64,904,738,0
13574,360.64,904,737,0
13584,356.93,904,738,0
13594,352.49,904,738,0
13604,349.82,904,738,0
13614,348.89,904,737,0
13624,353.85,904,738,0
13634,366.24,904,738,0
13644,390.89,904,739,0
13655,425.68,904,738,0
13665,468.12,904,738,0
13675,514.63,904,738,0
13685,562.87,904,738,0
13696,608.64,904,738,0
13714,649.12,866,736,0
13717,679.64,866,739,0
13726,701.05,866,738,0
13736,716.03,866,738,0
13746,726.52,866,737,0
13756,733.87,866,738,0
13766,739.01,866,738,0
13776,742.60,866,738,0
13786,745.12,866,737,0
13796,746.89,866,738,0
13806,748.12,866,738,0
13816,744.14,866,738,0
13826,732.01,866,738,0
13836,709.64,866,738,0
13846,676.83,866,740,0
13856,633.85,866,739,0
13867,581.78,866,739,0
13876,522.36,866,738,0
13886,462.17,866,739,0
13896,406.27,866,738,0
13906,358.75,866,739,0
13916,321.41,866,738,0
13926,295.79,866,739,0
13936,281.97,866,738,0
13946,279.19,866,739,0
13956,285.56,866,738,0
13966,299.54,866,740,0
13976,318.70,866,738,0
13986,341.21,866,739,0
13996,364.20,866,738,0
14006,385.96,866,739,0
14016,404.40,866,738,0
14026,419.11,866,739,0
14036,428.76,866,738,0
14046,433.42,866,739,0
14056,432.48,866,738,0
14066,426.98,866,740,0
14076,417.21,866,739,0
14086,404.51,866,741,0
14096,389.14,866,739,0
14106,372.43,866,739,0
14116,355.16,866,738,0
14126,338.82,866,740,0
14136,323.32,866,738,0
14146,309.81,866,740,0
14156,298.17,866,738,0
14167,289.16,866,739,0
14177,282.90,866,738,0
14187,279.29,866,739,0
14197,278.21,866,738,0
14208,279.74,866,739,0
14217,283.37,866,739,0
14227,288.87,866,739,0
14237,296.24,866,738,0
14247,304.27,866,739,0
14257,312.76,866,739,0
14267,320.67,866,739,0
14277,327.97,866,737,0
14287,333.64,866,739,0
14297,337.47,866,737,0
14307,337.68,866,737,0
14317,337.94,866,737,0
14327,338.65,866,739,0
14337,340.25,866,738,0
14347,342.75,866,739,0
14357,346.42,866,738,0
14367,351.01,866,739,0
14377,358.08,866,739,0
14387,363.71,866,738,0
14397,367.87,866,738,0
14407,369.58,866,738,0
14417,369.49,866,738,0
14427,367.29,866,738,0
14437,363.99,866,737,0
14447,359.36,866,738,0
14457,353.81,866,735,0
14467,351.38,866,738,0
14477,356.02,866,736,0
14487,368.70,866,738,0
14497,395.45,866,739,0
14508,432.00,866,738,0
14518,475.67,866,738,0
14528,525.01,866,737,0
14547,574.34,833,736,0
14550,619.75,833,739,0
14559,659.21,833,738,0
14569,686.83,833,738,0
14579,706.21,833,739,0
14589,719.78,833,738,0
14599,729.32,833,738,0
14609,735.95,833,738,0
14619,740.64,833,739,0
14629,743.87,833,738,0
14639,746.18,833,738,0
14649,747.71,833,738,0
14659,748.83,833,739,0
14669,749.57,833,738,0
14679,750.12,833,738,0
14689,746.62,833,738,0
14699,736.70,833,739,0
14709,716.82,833,738,0
14720,687.77,833,738,0
14729,649.27,833,738,0
14739,603.50,833,739,0
14749,550.68,833,739,0
14759,497.33,833,738,0
14769,446.96,833,738,0
14779,406.13,833,739,0
14789,374.16,833,738,0
14799,353.71,833,738,0
14809,341.93,833,737,0
14819,340.28,833,738,0
14829,344.78,833,738,0
14839,355.43,833,738,0
14849,367.56,833,737,0
14859,381.96,833,739,0
14869,394.15,833,738,0
14879,405.46,833,738,0
14889,412.22,833,737,0
14899,416.78,833,738,0
14909,416.08,833,738,0
14919,412.88,833,738,0
14929,404.69,833,737,0
14939,395.05,833,738,0
14949,381.84,833,738,0
14959,368.43,833,738,0
14969,352.79,833,737,0
14979,338.62,833,739,0
14989,323.82,833,738,0
14999,311.75,833,738,0
15009,299.99,833,737,0
15020,291.81,833,738,0
15030,284.84,833,738,0
15040,281.84,833,738,0
15050,280.18,833,737,0
15060,282.48,833,739,0
15070,285.72,833,738,0
15080,292.32,833,738,0
15090,299.00,833,737,0
15100,308.13,833,739,0
15110,316.44,833,738,0
15120,326.34,833,738,0
15130,334.42,833,737,0
15140,343.25,833,739,0
15150,349.65,833,738,0
15160,356.53,833,738,0
15170,360.83,833,737,0
15180,365.33,833,738,0
15191,367.03,833,737,0
15201,368.91,833,739,0
15211,368.47,833,737,0
15221,368.37,833,738,0
15232,365.99,833,738,0
15241,364.02,833,739,0
15251,360.33,833,737,0
15261,357.44,833,739,0
15271,353.24,833,738,0
15281,350.25,833,738,0
15291,346.66,833,737,0
15301,345.74,833,738,0
15311,346.93,833,738,0
15321,354.49,833,738,0
15331,369.35,833,737,0
15341,397.10,833,739,0
15351,433.80,833,738,0
15361,477.53,833,739,0
15371,524.30,833,737,0
15381,572.25,833,739,0
15391,617.09,833,738,0
15411,656.28,863,736,0
15413,684.57,863,739,0
15423,704.41,863,740,0
15433,718.26,863,738,0
15443,727.95,863,740,0
15453,734.70,863,737,0
15463,739.33,863,738,0
15473,742.53,863,738,0
15483,744.77,863,739,0
15493,746.21,863,736,0
15503,747.26,863,739,0
15513,748.04,863,738,0
15523,744.99,863,740,0
15533,734.92,863,737,0
15543,716.51,863,739,0
15553,688.55,863,738,0
15563,652.00,863,739,0
15574,607.17,863,737,0
15583,555.95,863,739,0
15593,502.91,863,738,0
15603,453.65,863,739,0
15613,410.60,863,737,0
15623,377.12,863,739,0
15633,353.00,863,737,0
15643,339.67,863,739,0
15653,335.27,863,737,0
15663,339.60,863,739,0
15673,349.54,863,738,0
15683,364.08,863,739,0
15693,379.87,863,737,0
15703,396.36,863,738,0
15713,410.27,863,737,0
15723,421.55,863,739,0
15733,428.32,863,737,0
15744,431.18,863,738,0
15753,429.20,863,738,0
15763,423.83,863,738,0
15773,414.02,863,737,0
15783,401.54,863,738,0
15793,385.87,863,737,0
15803,367.26,863,737,0
15813,345.84,863,736,0
15823,326.39,863,738,0
15833,308.70,863,738,0
15843,294.26,863,739,0
15853,282.27,863,738,0
15863,274.09,863,739,0
15873,270.08,863,737,0
15883,271.12,863,739,0
15893,269.72,863,732,0
15903,267.53,863,735,0
15913,264.97,863,737,0
15923,266.52,863,739,0
15933,270.52,863,737,0
15943,277.91,863,738,0
15953,287.06,863,737,0
15963,301.62,863,738,0
15973,319.00,863,737,0
15983,338.33,863,738,0
15993,355.25,863,738,0
16003,370.47,863,738,0
16013,382.50,863,737,0
16023,392.12,863,738,0
16033,398.34,863,737,0
16044,401.97,863,738,0
16054,402.49,863,737,0
16064,400.07,863,738,0
16074,394.99,863,737,0
16084,388.22,863,738,0
16094,380.40,863,737,0
16104,373.21,863,738,0
16114,368.39,863,737,0
16124,368.49,863,738,0
16134,376.27,863,738,0
16144,395.22,863,738,0
16154,426.18,863,737,0
16164,465.38,863,738,0
16174,509.88,863,738,0
16184,556.42,863,738,0
16194,601.85,863,738,0
16204,642.82,863,738,0
16215,675.19,863,738,0
16225,697.80,863,738,0
16235,713.68,863,738,0
16245,724.75,863,738,0
16256,732.54,863,738,0
16265,737.95,863,738,0
16275,741.73,863,738,0
16285,744.34,863,738,0
16305,746.21,894,736,0
16307,744.86,894,739,0
16317,738.69,894,738,0
16327,723.74,894,737,0
16337,699.60,894,738,0
16347,665.44,894,737,0
16357,622.71,894,738,0
16367,571.19,894,737,0
16377,516.06,894,738,0
16387,459.95,894,737,0
16397,409.73,894,738,0
16407,366.53,894,737,0
16417,333.97,894,738,0
16428,310.84,894,737,0
16438,299.48,894,738,0
16448,297.07,894,737,0
16458,304.20,894,738,0
16468,316.70,894,736,0
16478,334.75,894,738,0
16488,353.68,894,737,0
16498,373.92,894,738,0
16508,391.26,894,736,0
16518,406.69,894,738,0
16528,416.73,894,737,0
16538,423.11,894,738,0
16548,423.21,894,736,0
16558,419.80,894,737,0
16568,410.95,894,737,0
16578,399.78,894,738,0
16588,384.54,894,736,0
16599,368.69,894,738,0
16609,350.92,894,737,0
16619,334.65,894,738,0
16629,318.17,894,736,0
16640,304.36,894,738,0
16649,291.57,894,737,0
16659,282.53,894,738,0
16669,275.04,894,736,0
16679,271.43,894,738,0
16689,269.24,894,737,0
16699,270.88,894,738,0
16709,273.75,894,736,0
16719,279.69,894,738,0
16729,285.87,894,737,0
16739,294.40,894,738,0
16749,302.55,894,736,0
16759,312.28,894,738,0
16769,320.68,894,737,0
16779,329.82,894,738,0
16789,337.08,894,736,0
16799,344.68,894,738,0
16809,350.18,894,736,0
16819,355.82,894,738,0
16829,359.22,894,736,0
16839,362.80,894,738,0
16849,364.23,894,736,0
16859,366.09,894,738,0
16869,365.81,894,737,0
16879,365.69,894,738,0
16889,363.47,894,736,0
16899,362.00,894,738,0
16909,359.43,894,737,0
16919,359.39,894,738,0
16929,361.37,894,737,0
16940,370.64,894,738,0
16950,388.11,894,737,0
16960,418.25,894,738,0
16970,456.06,894,737,0
16980,499.97,894,738,0
16999,545.96,695,737,0
17002,592.18,695,740,0
17011,634.04,695,738,0
17021,669.00,695,738,0
17031,693.43,695,737,0
17041,710.57,695,738,0
17051,722.53,695,738,0
17061,730.94,695,738,0
17071,736.79,695,738,0
17081,740.92,695,738,0
17091,743.82,695,738,0
17101,745.89,695,738,0
17111,747.25,695,736,0
17121,746.02,695,738,0
17131,739.50,695,737,0
17141,725.93,695,738,0
17152,702.08,695,735,0
17161,669.19,695,738,0
17171,628.59,695,738,0
17181,581.87,695,739,0
17191,531.04,695,738,0
17201,480.80,695,738,0
17211,433.33,695,737,0
17221,393.89,695,738,0
17231,361.91,695,737,0
17241,338.19,695,738,0
17251,321.55,695,737,0
17261,313.84,695,738,0
17271,313.46,695,738,0
17281,320.78,695,738,0
17291,332.67,695,738,0
17301,348.71,695,739,0
17311,365.34,695,738,0
17321,382.08,695,738,0
17331,396.07,695,738,0
17341,407.24,695,739,0
17351,413.47,695,738,0
17361,415.94,695,738,0
17371,413.43,695,737,0
17381,407.81,695,739,0
17391,398.66,695,738,0
17401,387.53,695,738,0
17411,373.74,695,738,0
17421,359.93,695,739,0
17431,345.47,695,738,0
17441,332.34,695,738,0
17452,320.11,695,738,0
17462,309.96,695,739,0
17472,301.57,695,739,0
17482,295.74,695,738,0
17492,291.66,695,738,0
17502,290.22,695,739,0
17512,290.41,695,738,0
17522,292.60,695,738,0
17532,296.15,695,738,0
17542,301.21,695,739,0
17552,307.23,695,739,0
17562,314.06,695,738,0
17572,321.03,695,738,0
17582,328.26,695,739,0
17592,335.00,695,738,0
17602,341.43,695,738,0
17612,347.21,695,738,0
17623,352.38,695,739,0
17633,356.68,695,738,0
17643,359.99,695,738,0
17653,362.39,695,738,0
17664,363.77,695,738,0
17673,364.49,695,738,0
17683,364.21,695,738,0
17693,363.29,695,738,0
17703,361.15,695,738,0
17713,358.45,695,738,0
17723,354.88,695,738,0
17733,351.10,695,738,0
17743,346.49,695,739,0
17753,342.10,695,738,0
17763,338.38,695,738,0
17773,337.88,695,738,0
17783,342.37,695,739,0
17793,354.43,695,738,0
17803,377.36,695,739,0
17813,412.10,695,738,0
17823,454.62,695,739,0
17833,502.09,695,739,0
17843,550.92,695,739,0
17862,598.05,863,737,0
17865,640.25,863,741,0
17874,673.60,863,739,0
17884,696.91,863,738,0
17894,713.26,863,738,0
17904,724.67,863,738,0
17914,732.70,863,739,0
17924,738.32,863,738,0
17934,742.29,863,738,0
17944,745.03,863,738,0
17954,747.00,863,739,0
17964,748.33,863,738,0
17974,747.50,863,738,0
17984,740.36,863,738,0
17994,725.30,863,739,0
18004,700.44,863,738,0
18014,666.88,863,738,0
18024,624.36,863,738,0
18034,574.88,863,739,0
18044,520.40,863,738,0
18054,467.69,863,738,0
18064,419.19,863,739,0
18074,378.80,863,739,0
18084,346.46,863,739,0
18094,324.34,863,738,0
18104,310.95,863,738,0
18114,307.71,863,739,0
18124,311.27,863,738,0
18135,321.99,863,738,0
18145,336.09,863,737,0
18155,353.29,863,739,0
18165,369.53,863,738,0
18176,385.06,863,738,0
18185,396.53,863,737,0
18195,404.85,863,739,0
18205,407.17,863,738,0
18215,406.22,863,738,0
18225,399.98,863,738,0
18235,391.67,863,739,0
18245,379.47,863,738,0
18255,366.69,863,738,0
18265,352.04,863,737,0
18275,338.87,863,739,0
18285,325.07,863,738,0
18295,313.73,863,738,0
18305,302.80,863,737,0
18315,295.19,863,739,0
18325,288.10,863,738,0
18335,284.51,863,738,0
18345,281.79,863,737,0
18355,282.62,863,739,0
18365,284.19,863,738,0
18375,288.81,863,738,0
18385,293.58,863,737,0
18395,300.99,863,739,0
18405,308.02,863,738,0
18415,316.84,863,738,0
18425,324.48,863,737,0
18435,333.25,863,739,0
18445,340.55,863,738,0
18455,348.48,863,738,0
18465,354.17,863,737,0
18476,359.99,863,739,0
18486,363.42,863,738,0
18496,367.02,863,738,0
18506,367.92,863,738,0
18516,368.80,863,739,0
18526,367.19,863,738,0
18536,366.06,863,739,0
18546,362.78,863,737,0
18556,360.32,863,738,0
18566,356.15,863,738,0
18576,353.19,863,738,0
18586,348.81,863,737,0
18596,345.74,863,739,0
18606,341.57,863,738,0
18616,338.87,863,738,0
18626,335.18,863,737,0
18636,333.41,863,739,0
18647,332.43,863,738,0
18657,336.29,863,738,0
18667,345.29,863,737,0
18677,365.09,863,739,0
18688,396.22,863,738,0
18697,436.87,863,739,0
18707,482.81,863,737,0
18717,532.15,863,739,0
18727,580.75,863,738,0
18746,626.17,884,736,0
18748,663.10,884,740,0
18758,689.60,884,739,0
18768,708.11,884,738,0
18778,721.10,884,739,0
18788,730.16,884,738,0
18798,736.54,884,739,0
18808,740.96,884,738,0
18818,744.15,884,739,0
18828,746.33,884,738,0
18838,747.90,884,739,0
18848,748.96,884,738,0
18859,747.82,884,739,0
18868,739.86,884,737,0
18878,724.13,884,739,0
18888,698.33,884,738,0
18898,663.78,884,738,0
18908,619.91,884,737,0
18918,569.15,884,739,0
18928,513.35,884,738,0
18938,460.15,884,739,0
18948,410.99,884,737,0
18958,371.22,884,739,0
18968,339.65,884,738,0
18978,319.40,884,739,0
18988,307.45,884,737,0
18998,305.99,884,739,0
19008,310.75,884,737,0
19018,322.70,884,739,0
19028,337.19,884,737,0
19038,354.83,884,738,0
19048,371.00,884,737,0
19058,386.81,884,738,0
19068,398.27,884,737,0
19078,407.32,884,738,0
19088,410.69,884,738,0
19098,410.83,884,739,0
19108,405.48,884,737,0
19118,397.92,884,738,0
19128,386.24,884,738,0
19138,373.79,884,738,0
19148,358.81,884,737,0
19159,344.72,884,738,0
19169,329.93,884,738,0
19179,317.53,884,739,0
19189,305.71,884,737,0
19200,297.05,884,738,0
19209,289.50,884,738,0
19219,285.53,884,739,0
19229,282.93,884,737,0
19239,283.47,884,738,0
19249,284.78,884,738,0
19259,288.62,884,738,0
19269,293.10,884,737,0
19279,299.54,884,738,0
19289,305.85,884,738,0
19299,313.53,884,738,0
19309,320.57,884,737,0
19319,328.41,884,738,0
19329,334.85,884,738,0
19339,341.66,884,739,0
19349,347.16,884,737,0
19359,352.64,884,738,0
19369,356.48,884,738,0
19379,360.19,884,739,0
19389,362.23,884,737,0
19399,364.48,884,738,0
19409,364.94,884,738,0
19419,365.51,884,739,0
19429,364.54,884,737,0
19439,363.65,884,738,0
19449,361.14,884,737,0
19459,358.57,884,739,0
19469,354.20,884,737,0
19479,347.33,884,737,0
19489,336.90,884,736,0
19500,328.14,884,739,0
19510,320.30,884,737,0
19520,315.75,884,738,0
19530,314.28,884,738,0
19540,318.27,884,738,0
19550,330.49,884,738,0
19560,354.39,884,739,0
19570,388.04,884,738,0
19580,430.11,884,739,0
19590,476.58,884,739,0
19600,525.13,884,740,0
19610,572.92,884,739,0
19630,617.86,883,737,0
19632,655.96,883,742,0
19642,684.47,883,739,0
19652,704.43,883,739,0
19662,718.40,883,739,0
19672,728.18,883,739,0
19682,735.03,883,739,0
19692,739.82,883,739,0
19702,743.17,883,739,0
19713,745.52,883,739,0
19723,747.16,883,739,0
19733,748.36,883,739,0
19743,749.19,883,739,0
19753,749.78,883,739,0
19763,745.64,883,739,0
19773,734.14,883,739,0
19783,713.35,883,739,0
19793,683.33,883,739,0
19803,644.36,883,739,0
19813,597.75,883,738,0
19823,544.26,883,738,0
19833,490.74,883,739,0
19843,440.76,883,738,0
19853,398.75,883,738,0
19863,365.52,883,738,0
19873,342.78,883,739,0
19884,329.22,883,737,0
19894,325.55,883,738,0
19904,328.64,883,738,0
19914,338.44,883,739,0
19924,351.03,883,737,0
19934,366.15,883,738,0
19944,380.16,883,738,0
19954,393.23,883,739,0
19964,402.42,883,737,0
19974,408.89,883,738,0
19984,410.38,883,738,0
19994,408.81,883,739,0
20004,402.18,883,737,0
20014,392.96,883,739,0
20024,380.15,883,738,0
20034,366.39,883,739,0
20044,350.33,883,737,0
20055,334.98,883,738,0
20065,319.04,883,738,0
20075,305.61,883,739,0
20085,293.26,883,737,0
20096,284.65,883,739,0
20105,277.77,883,738,0
20115,274.97,883,739,0
20125,273.91,883,737,0
20135,276.85,883,738,0
20145,281.27,883,738,0
20155,288.56,883,739,0
20165,295.72,883,737,0
20175,304.67,883,738,0
20185,312.92,883,738,0
20195,322.28,883,739,0
20205,329.87,883,737,0
20215,337.71,883,738,0
20225,343.67,883,738,0
20235,349.77,883,739,0
20245,353.52,883,737,0
20255,357.05,883,738,0
20265,357.94,883,738,0
20275,358.64,883,739,0
20285,356.78,883,737,0
20295,355.04,883,738,0
20305,351.43,883,738,0
20315,348.69,883,739,0
20325,344.67,883,738,0
20335,341.98,883,738,0
20345,338.56,883,738,0
20355,336.93,883,739,0
20365,334.68,883,738,0
20375,334.13,883,738,0
20385,332.77,883,738,0
20396,333.09,883,739,0
20406,332.59,883,737,0
20416,333.62,883,738,0
20426,333.60,883,737,0
20436,334.88,883,739,0
20446,335.09,883,737,0
20456,336.90,883,738,0
20466,338.48,883,737,0
20476,343.69,883,739,0
20486,351.80,883,737,0
20496,367.63,883,738,0
20506,390.24,883,736,0
20516,424.11,883,738,0
20526,464.54,883,738,0
20545,509.85,916,736,0
20547,555.75,916,739,0
20557,600.65,916,739,0
20567,640.10,916,738,0
20577,673.33,916,739,0
20587,696.63,916,738,0
20597,713.03,916,739,0
20608,724.46,916,738,0
20617,732.55,916,739,0
20627,738.17,916,738,0
20637,742.19,916,739,0
20647,744.96,916,739,0
20657,746.95,916,738,0
20667,748.29,916,738,0
20677,749.27,916,739,0
20687,749.92,916,739,0
20697,748.53,916,739,0
20707,739.89,916,738,0
20717,722.99,916,739,0
20727,695.74,916,738,0
20737,659.86,916,739,0
20747,614.73,916,738,0
20757,563.13,916,739,0
20767,507.07,916,738,0
20777,454.81,916,738,0
20787,407.94,916,738,0
20797,371.31,916,739,0
20807,343.45,916,738,0
20817,327.03,916,738,0
20827,318.75,916,737,0
20837,320.02,916,739,0
20847,326.57,916,738,0
20857,338.66,916,738,0
20867,351.96,916,737,0
20877,366.80,916,739,0
20887,379.33,916,738,0
20897,390.72,916,738,0
20908,397.40,916,738,0
20918,401.27,916,739,0
20928,400.03,916,738,0
20938,395.82,916,738,0
20948,387.09,916,738,0
20958,376.31,916,739,0
20968,361.94,916,738,0
20978,346.75,916,737,0
20988,328.78,916,737,0
20998,308.23,916,737,0
21008,286.09,916,737,0
21018,269.13,916,738,0
21028,256.28,916,738,0
21038,249.25,916,739,0
21048,246.09,916,738,0
21058,248.72,916,738,0
21068,257.85,916,738,0
21079,272.29,916,738,0
21089,285.58,916,738,0
21099,298.22,916,738,0
21109,308.91,916,738,0
21120,318.62,916,738,0
21129,326.24,916,738,0
21139,332.59,916,737,0
21149,336.74,916,738,0
21159,339.56,916,738,0
21169,340.59,916,738,0
21179,340.93,916,738,0
21189,340.52,916,738,0
21199,340.15,916,738,0
21209,339.21,916,738,0
21219,338.84,916,738,0
21229,338.72,916,737,0
21239,339.45,916,738,0
21249,340.26,916,738,0
21259,341.81,916,738,0
21269,343.58,916,737,0
21279,346.11,916,738,0
21289,348.52,916,738,0
21299,351.19,916,738,0
21309,353.40,916,737,0
21319,355.60,916,738,0
21329,357.13,916,738,0
21339,358.29,916,738,0
21349,358.20,916,737,0
21359,357.46,916,737,0
21369,355.73,916,738,0
21379,354.06,916,738,0
21389,352.75,916,737,0
21399,354.03,916,738,0
21409,360.11,916,738,0
21420,375.16,916,738,0
21430,402.20,916,738,0
21440,438.87,916,738,0
21459,481.89,914,736,0
21462,528.81,914,738,0
21471,576.31,914,738,0
21481,621.17,914,738,0
21491,659.35,914,738,0
21501,686.97,914,738,0
21511,706.31,914,738,0
21521,719.80,914,737,0
21531,729.25,914,738,0
21541,735.82,914,738,0
21551,740.41,914,738,0
21561,743.59,914,737,0
21571,745.90,914,738,0
21581,747.51,914,738,0
21591,748.65,914,737,0
21601,747.30,914,737,0
21611,739.96,914,738,0
21621,723.43,914,738,0
21632,697.33,914,737,0
21641,661.27,914,737,0
21651,616.41,914,738,0
21661,563.10,914,738,0
21671,505.47,914,737,0
21681,448.33,914,737,0
21691,395.77,914,736,0
21701,350.54,914,736,0
21711,313.78,914,735,0
21721,289.46,914,737,0
21731,278.95,914,738,0
21741,279.74,914,737,0
21751,291.56,914,737,0
21761,312.22,914,737,0
21771,339.03,914,738,0
21781,369.53,914,738,0
21791,398.17,914,737,0
21801,421.26,914,737,0
21811,438.97,914,738,0
21821,449.18,914,738,0
21831,453.33,914,738,0
21841,450.40,914,737,0
21851,442.57,914,738,0
21861,429.41,914,738,0
21871,413.73,914,738,0
21881,395.13,914,737,0
21891,375.89,914,738,0
21901,355.78,914,738,0
21911,337.29,914,738,0
21921,319.46,914,737,0
21932,304.71,914,739,0
21942,291.47,914,738,0
21952,282.15,914,738,0
21962,274.78,914,737,0
21972,271.46,914,739,0
21982,269.95,914,738,0
21992,271.94,914,738,0
22002,274.87,914,737,0
22012,280.91,914,739,0
22022,287.15,914,738,0
22032,295.72,914,739,0
22042,303.39,914,737,0
22052,312.44,914,739,0
22062,320.37,914,738,0
22072,329.04,914,738,0
22082,335.76,914,737,0
22092,342.86,914,739,0
22103,347.66,914,738,0
22113,352.60,914,739,0
22123,354.91,914,737,0
22133,356.95,914,739,0
22144,356.75,914,739,0
22153,356.40,914,739,0
22163,354.26,914,739,0
22173,352.68,914,738,0
22183,349.48,914,738,0
22193,347.24,914,738,0
22203,343.35,914,738,0
22213,339.22,914,737,0
22223,330.84,914,734,0
22233,325.10,914,738,0
22243,320.61,914,737,0
22253,320.77,914,738,0
22263,324.70,914,739,0
22273,336.57,914,739,0
22283,358.73,914,739,0
22293,397.04,914,739,0
22303,441.60,914,738,0
22313,490.53,914,739,0
22323,539.66,914,737,0
22333,587.80,914,739,0
22352,631.41,893,737,0
22354,667.37,893,740,0
22364,692.54,893,737,0
22374,710.21,893,739,0
22384,722.53,893,738,0
22394,731.24,893,739,0
22404,737.30,893,737,0
22414,741.58,893,739,0
22424,744.54,893,738,0
22434,746.65,893,739,0
22444,748.08,893,737,0
22454,749.09,893,739,0
22464,749.75,893,738,0
22474,749.65,893,739,0
22484,742.94,893,737,0
22494,728.69,893,738,0
22504,703.71,893,737,0
22514,669.21,893,739,0
22524,624.40,893,736,0
22534,571.91,893,738,0
22544,511.90,893,737,0
22554,451.11,893,737,0
22564,386.49,893,733,0
22574,324.03,893,734,0
22584,271.52,893,734,0
22594,232.84,893,735,0
22604,205.59,893,733,0
22615,191.52,893,735,0
22625,190.68,893,735,0
22635,204.49,893,734,0
22645,230.49,893,728,0
22656,263.77,893,737,0
22665,299.28,893,735,0
22675,335.45,893,735,0
22685,368.23,893,733,0
22695,396.28,893,735,0
22705,419.94,893,734,0
22715,438.08,893,734,0
22725,446.29,893,734,0
22735,446.29,893,735,0
22745,437.89,893,734,0
22755,424.63,893,735,0
22765,406.02,893,734,0
22775,386.68,893,736,0
22785,366.81,893,735,0
22795,347.75,893,736,0
22805,328.24,893,733,0
22815,309.14,893,734,0
22825,296.15,893,736,0
22835,291.82,893,737,0
22845,291.62,893,736,0
22855,296.19,893,737,0
22865,301.75,893,736,0
22875,311.08,893,736,0
22885,323.53,893,736,0
22895,333.53,893,738,0
22905,338.77,893,736,0
22915,340.81,893,737,0
22925,339.37,893,734,0
22935,339.56,893,738,0
22945,336.99,893,734,0
22956,334.34,893,737,0
22966,331.02,893,736,0
22976,326.64,893,737,0
22986,317.32,893,733,0
22996,306.64,893,730,0
23006,291.02,893,733,0
23016,279.70,893,735,0
23026,272.20,893,734,0
23036,268.46,893,735,0
23046,268.49,893,734,0
23056,277.34,893,736,0
23066,290.35,893,734,0
23076,309.23,893,736,0
23086,327.08,893,735,0
23096,343.90,893,736,0
23106,359.87,893,734,0
23116,378.90,893,736,0
23127,402.67,893,734,0
23137,435.25,893,736,0
23147,473.06,893,735,0
23166,514.66,814,733,0
23169,557.66,814,736,0
23179,600.41,814,736,0
23189,639.33,814,735,0
23199,671.67,814,736,0
23209,694.31,814,734,0
23219,710.16,814,736,0
23229,721.26,814,734,0
23239,728.98,814,737,0
23249,734.34,814,735,0
23259,738.10,814,736,0
23269,740.73,814,735,0
23279,742.56,814,737,0
23289,743.85,814,734,0
23299,744.75,814,736,0
23309,740.58,814,734,0
23319,728.84,814,736,0
23329,707.33,814,734,0
23340,676.07,814,736,0
23350,635.29,814,735,0
23360,586.05,814,736,0
23370,529.68,814,734,0
23380,472.47,814,735,0
23390,418.89,814,735,0
23400,373.02,814,736,0
23410,336.42,814,734,0
23420,310.32,814,735,0
23430,294.71,814,734,0
23440,289.14,814,735,0
23450,292.53,814,734,0
23460,303.00,814,735,0
23470,318.38,814,733,0
23480,336.61,814,735,0
23490,355.59,814,734,0
23500,373.62,814,734,0
23511,389.21,814,734,0
23521,401.02,814,735,0
23531,408.64,814,734,0
23541,411.32,814,735,0
23552,409.60,814,734,0
23561,403.67,814,735,0
23571,394.34,814,734,0
23581,382.07,814,734,0
23591,368.08,814,734,0
23601,352.88,814,735,0
23611,337.79,814,734,0
23621,322.98,814,734,0
23631,309.74,814,735,0
23641,298.21,814,735,0
23651,289.36,814,735,0
23661,282.69,814,735,0
23671,278.84,814,735,0
23681,277.18,814,736,0
23691,278.02,814,736,0
23701,280.24,814,736,0
23711,284.20,814,736,0
23721,288.77,814,737,0
23731,294.45,814,736,0
23741,300.02,814,736,0
23751,305.93,814,736,0
23761,311.39,814,737,0
23771,316.85,814,736,0
23781,321.43,814,736,0
23791,325.55,814,736,0
23801,328.51,814,736,0
23811,331.10,814,736,0
23821,332.91,814,736,0
23831,334.74,814,736,0
23841,335.97,814,736,0
23852,337.27,814,736,0
23862,338.13,814,736,0
23872,339.16,814,736,0
23882,339.67,814,736,0
23892,340.46,814,737,0
23902,340.36,814,736,0
23912,340.25,814,736,0
23922,339.02,814,736,0
23932,337.64,814,736,0
23942,335.99,814,737,0
23952,336.12,814,737,0
23962,338.61,814,736,0
23972,347.04,814,736,0
23982,363.23,814,736,0
23992,391.45,814,736,0
24002,429.20,814,736,0
24012,473.58,814,736,0
24032,521.02,866,734,0
24035,569.10,866,738,0
24044,613.94,866,736,0
24054,652.66,866,736,0
24065,681.22,866,735,0
24075,701.21,866,736,0
24085,715.20,866,736,0
24095,725.04,866,737,0
24105,731.93,866,735,0
24115,736.75,866,737,0
24125,740.13,866,735,0
24135,742.53,866,737,0
24145,744.21,866,735,0
24155,741.88,866,736,0
24165,731.37,866,735,0
24175,711.46,866,736,0
24185,681.02,866,735,0
24195,641.16,866,736,0
24205,591.91,866,735,0
24215,535.54,866,736,0
24225,476.10,866,735,0
24236,420.62,866,736,0
24246,371.15,866,735,0
24256,331.50,866,737,0
24266,301.44,866,735,0
24276,282.96,866,736,0
24286,274.19,866,735,0
24296,275.93,866,736,0
24306,284.91,866,735,0
24316,300.92,866,736,0
24326,320.23,866,735,0
24336,342.02,866,736,0
24346,362.76,866,735,0
24356,382.16,866,736,0
24366,397.41,866,735,0
24376,409.03,866,737,0
24386,415.15,866,735,0
24396,417.03,866,737,0
24407,413.64,866,735,0
24417,406.63,866,737,0
24427,395.09,866,735,0
24437,381.09,866,737,0
24448,364.78,866,735,0
24457,348.26,866,737,0
24467,331.47,866,735,0
24477,316.20,866,736,0
24487,301.87,866,735,0
24497,290.42,866,736,0
24507,281.38,866,735,0
24517,275.48,866,736,0
24527,271.44,866,734,0
24537,270.06,866,736,0
24547,270.52,866,735,0
24557,273.75,866,737,0
24567,278.11,866,735,0
24577,283.99,866,737,0
24587,290.59,866,735,0
24597,298.73,866,736,0
24607,307.00,866,735,0
24617,315.78,866,737,0
24627,323.99,866,736,0
24637,332.52,866,737,0
24647,340.29,866,736,0
24657,347.66,866,737,0
24667,353.42,866,735,0
24677,358.44,866,735,0
24687,362.16,866,735,0
24697,365.07,866,736,0
24707,366.08,866,735,0
24717,366.23,866,735,0
24727,364.83,866,735,0
24737,362.78,866,736,0
24748,360.10,866,735,0
24758,358.06,866,735,0
24768,357.70,866,734,0
24778,362.33,866,735,0
24788,374.57,866,735,0
24798,396.95,866,736,0
24808,430.05,866,734,0
24818,470.53,866,736,0
24838,515.24,805,734,0
24840,561.67,805,737,0
24850,606.34,805,735,0
24860,645.41,805,735,0
24870,676.23,805,735,0
24880,697.80,805,735,0
24890,712.91,805,735,0
24900,723.48,805,736,0
24910,730.96,805,736,0
24920,736.20,805,735,0
24930,739.91,805,736,0
24940,742.47,805,736,0
24950,744.30,805,736,0
24961,740.22,805,735,0
24971,728.63,805,735,0
24981,706.58,805,735,0
24991,674.74,805,735,0
25001,632.77,805,734,0
25011,583.00,805,735,0
25021,525.74,805,735,0
25031,468.95,805,735,0
25041,415.05,805,735,0
25051,369.95,805,736,0
25061,333.49,805,735,0
25071,308.49,805,736,0
25081,292.61,805,735,0
25091,287.24,805,735,0
25101,289.83,805,735,0
25111,300.89,805,736,0
25121,316.27,805,735,0
25132,336.33,805,735,0
25142,356.59,805,735,0
25152,377.58,805,735,0
25162,395.37,805,734,0
25172,410.04,805,735,0
25182,419.16,805,734,0
25192,424.08,805,735,0
25202,422.73,805,735,0
25212,417.71,805,734,0
25222,407.81,805,735,0
25232,396.00,805,735,0
25242,381.43,805,735,0
25252,366.60,805,735,0
25262,350.78,805,735,0
25272,336.74,805,736,0
25282,322.89,805,735,0
25292,311.65,805,736,0
25303,301.43,805,735,0
25313,294.01,805,736,0
25323,287.80,805,735,0
25333,284.60,805,735,0
25344,282.53,805,734,0
25353,283.87,805,735,0
25363,286.23,805,734,0
25373,291.73,805,736,0
25383,297.90,805,734,0
25393,306.46,805,736,0
25403,314.68,805,735,0
25413,324.29,805,736,0
25423,332.52,805,735,0
25433,340.50,805,736,0
25443,346.31,805,735,0
25453,352.05,805,734,0
25463,355.59,805,734,0
25473,359.53,805,735,0
25483,361.64,805,735,0
25493,364.19,805,735,0
25503,365.51,805,734,0
25513,367.37,805,736,0
25523,367.77,805,735,0
25533,368.74,805,736,0
25543,367.70,805,735,0
25553,366.85,805,737,0
25563,364.84,805,735,0
25573,364.93,805,736,0
25583,366.62,805,735,0
25593,374.66,805,736,0
25603,389.38,805,735,0
25613,416.74,805,736,0
25623,452.39,805,735,0
25633,494.40,805,735,0
25653,539.02,816,735,0
25656,584.44,816,736,0
25665,626.31,816,735,0
25675,662.52,816,736,0
25686,688.21,816,735,0
25695,706.23,816,736,0
25705,718.89,816,735,0
25715,727.75,816,736,0
25725,733.91,816,736,0
25735,738.22,816,736,0
25745,741.24,816,734,0
25755,743.40,816,737,0
25765,744.91,816,736,0
25775,745.92,816,735,0
25785,746.63,816,734,0
25795,745.76,816,736,0
25805,738.76,816,735,0
25815,724.17,816,735,0
25825,700.25,816,735,0
25835,667.52,816,736,0
25845,626.22,816,735,0
25856,577.81,816,735,0
25865,524.90,816,734,0
25875,475.21,816,737,0
25885,430.71,816,736,0
25895,394.41,816,735,0
25905,366.69,816,734,0
25915,349.72,816,736,0
25925,341.66,816,735,0
25935,342.32,816,736,0
25945,347.71,816,734,0
25955,357.27,816,736,0
25965,369.19,816,735,0
25975,381.99,816,735,0
25985,392.41,816,735,0
25995,401.07,816,736,0
26005,405.55,816,735,0
26015,407.44,816,736,0
26025,405.51,816,734,0
26035,400.94,816,736,0
26045,393.46,816,736,0
26055,383.98,816,735,0
26065,371.99,816,734,0
26075,360.72,816,736,0
26085,348.50,816,736,0
26095,336.82,816,736,0
26105,325.05,816,735,0
26115,315.65,816,736,0
26125,308.25,816,735,0
26135,303.72,816,736,0
26145,299.90,816,735,0
26156,298.60,816,736,0
26166,299.32,816,735,0
26176,302.87,816,737,0
26186,307.19,816,736,0
26196,312.58,816,737,0
26206,318.11,816,735,0
26216,324.54,816,736,0
26226,330.51,816,734,0
26236,337.26,816,737,0
26246,343.14,816,735,0
26256,349.14,816,737,0
26266,354.58,816,735,0
26276,359.47,816,736,0
26286,362.88,816,735,0
26296,366.05,816,736,0
26306,367.70,816,734,0
26316,368.86,816,737,0
26327,368.78,816,736,0
26337,367.77,816,736,0
26347,366.08,816,734,0
26357,365.03,816,736,0
26368,363.69,816,735,0
26377,362.11,816,736,0
26387,360.15,816,735,0
26397,357.83,816,736,0
26407,355.83,816,735,0
26417,354.72,816,737,0
26427,353.73,816,735,0
26437,353.38,816,736,0
26447,355.80,816,734,0
26457,363.74,816,737,0
26467,379.76,816,734,0
26477,407.22,816,737,0
26487,443.37,816,736,0
26497,485.39,816,736,0
26507,531.13,816,734,0
26526,577.55,873,734,0
26528,620.88,873,739,0
26539,658.12,873,736,0
26548,685.21,873,734,0
26558,704.18,873,737,0
26568,717.49,873,736,0
26578,726.82,873,736,0
26588,733.30,873,735,0
26598,737.84,873,737,0
26608,741.06,873,736,0
26618,743.31,873,736,0
26628,744.85,873,735,0
26638,745.92,873,737,0
26648,746.67,873,736,0
26658,747.20,873,736,0
26668,745.38,873,736,0
26678,737.00,873,736,0
26688,719.94,873,736,0
26698,693.82,873,736,0
26708,659.16,873,735,0
26718,616.98,873,736,0
26728,568.39,873,736,0
26738,517.01,873,736,0
26748,469.10,873,734,0
26758,427.88,873,736,0
26768,395.05,873,735,0
26778,371.67,873,736,0
26788,357.97,873,736,0
26798,351.68,873,735,0
26808,351.82,873,735,0
26818,356.80,873,736,0
26828,365.65,873,736,0
26839,375.10,873,735,0
26849,383.64,873,735,0
26859,389.70,873,736,0
26869,394.72,873,736,0
26880,396.01,873,734,0
26889,393.95,873,735,0
26899,388.13,873,736,0
26909,380.77,873,736,0
26919,370.85,873,735,0
26929,360.35,873,736,0
26939,347.52,873,735,0
26949,335.19,873,735,0
26959,323.35,873,735,0
26969,313.04,873,736,0
26979,303.30,873,735,0
26989,296.44,873,736,0
26999,290.39,873,735,0
27009,286.72,873,735,0
27019,285.77,873,736,0
27029,287.77,873,736,0
27039,290.33,873,734,0
27049,295.46,873,735,0
27059,301.28,873,736,0
27069,308.22,873,736,0
27079,316.34,873,735,0
27089,325.54,873,736,0
27099,332.92,873,735,0
27109,340.49,873,735,0
27119,347.16,873,735,0
27129,353.71,873,736,0
27139,358.90,873,735,0
27149,363.56,873,735,0
27159,365.62,873,735,0
27169,367.23,873,736,0
27180,367.98,873,735,0
27190,368.84,873,736,0
27200,367.43,873,734,0
27210,365.80,873,735,0
27220,363.03,873,735,0
27230,360.84,873,736,0
27240,357.71,873,735,0
27250,355.53,873,736,0
27260,351.38,873,735,0
27270,347.97,873,735,0
27280,344.85,873,735,0
27290,343.22,873,736,0
27300,342.60,873,735,0
27310,347.78,873,736,0
27320,357.62,873,735,0
27330,377.14,873,735,0
27340,408.77,873,735,0
27351,448.87,873,737,0
27361,493.61,873,734,0
27371,541.30,873,735,0
27381,587.24,873,736,0
27401,629.89,874,733,0
27403,665.37,874,736,0
27413,690.29,874,736,0
27423,707.69,874,736,0
27433,719.91,874,735,0
27443,728.42,874,734,0
27453,734.38,874,736,0
27463,738.55,874,734,0
27473,741.56,874,737,0
27483,743.58,874,735,0
27493,744.95,874,736,0
27503,741.75,874,735,0
27513,731.02,874,736,0
27523,710.75,874,732,0
27533,682.19,874,736,0
27543,643.95,874,735,0
27553,596.78,874,735,0
27564,542.07,874,733,0
27574,486.08,874,736,0
27584,432.44,874,734,0
27594,386.97,874,737,0
27604,348.23,874,734,0
27614,320.65,874,737,0
27624,304.98,874,737,0
27634,302.63,874,738,0
27644,310.41,874,736,0
27654,327.86,874,738,0
27664,349.59,874,737,0
27674,375.55,874,738,0
27684,400.93,874,737,0
27694,424.14,874,738,0
27704,440.38,874,737,0
27714,450.60,874,738,0
27724,453.29,874,737,0
27735,450.16,874,739,0
27745,440.64,874,738,0
27755,426.95,874,739,0
27765,409.09,874,738,0
27776,389.52,874,739,0
27785,368.54,874,738,0
27795,348.40,874,739,0
27805,329.04,874,738,0
27815,312.19,874,739,0
27825,297.47,874,738,0
27835,286.02,874,740,0
27845,277.10,874,738,0
27855,271.54,874,740,0
27865,268.25,874,738,0
27875,268.17,874,740,0
27885,270.14,874,738,0
27895,274.68,874,739,0
27905,280.39,874,738,0
27915,288.16,874,740,0
27925,296.47,874,738,0
27935,305.76,874,739,0
27945,314.87,874,739,0
27955,324.21,874,739,0
27965,332.50,874,738,0
27975,340.41,874,739,0
27985,346.76,874,738,0
27995,352.19,874,739,0
28005,355.86,874,738,0
28015,358.22,874,739,0
28025,358.45,874,738,0
28035,357.67,874,740,0
28045,355.33,874,738,0
28055,352.40,874,739,0
28065,348.64,874,739,0
28076,344.85,874,739,0
28086,340.78,874,738,0
28096,337.07,874,738,0
28106,333.62,874,738,0
28116,330.56,874,738,0
28126,328.21,874,738,0
28136,327.33,874,738,0
28146,329.42,874,738,0
28156,336.19,874,738,0
28166,349.98,874,738,0
28176,373.68,874,739,0
28186,409.05,874,739,0
28196,451.89,874,739,0
28206,499.32,874,739,0
28216,548.00,874,739,0
28226,595.14,874,739,0
28246,637.70,845,737,0
28248,671.90,845,741,0
28258,695.80,845,738,0
28268,712.58,845,739,0
28278,724.28,845,738,0
28289,732.51,845,739,0
28299,738.23,845,737,0
28309,742.23,845,739,0
28319,744.99,845,739,0
28329,746.96,845,739,0
28339,743.03,845,737,0
28349,731.62,845,739,0
28359,710.05,845,738,0
28369,679.18,845,739,0
28379,638.58,845,738,0
28389,590.02,845,739,0
28399,533.53,845,738,0
28409,476.80,845,739,0
28419,422.05,845,737,0
28429,374.72,845,738,0
28439,334.30,845,738,0
28449,303.87,845,739,0
28460,281.67,845,737,0
28470,269.98,845,739,0
28480,265.57,845,738,0
28490,269.51,845,739,0
28500,278.02,845,738,0
28510,291.64,845,739,0
28520,306.41,845,739,0
28530,322.74,845,739,0
28540,336.83,845,738,0
28550,349.87,845,739,0
28560,358.87,845,738,0
28570,365.38,845,739,0
28580,367.32,845,738,0
28590,366.62,845,739,0
28600,361.85,845,739,0
28610,355.30,845,739,0
28620,345.78,845,738,0
28631,335.69,845,739,0
28641,323.82,845,738,0
28651,312.65,845,739,0
28661,300.97,845,737,0
28672,291.12,845,739,0
28681,281.87,845,738,0
28691,275.39,845,739,0
28701,269.92,845,737,0
28711,267.50,845,739,0
28721,266.15,845,738,0
28731,267.69,845,739,0
28741,270.01,845,737,0
28751,274.81,845,739,0
28761,279.75,845,738,0
28771,286.60,845,739,0
28781,293.06,845,737,0
28791,300.89,845,739,0
28801,307.78,845,738,0
28811,315.64,845,739,0
28821,321.84,845,737,0
28831,328.27,845,739,0
28841,332.78,845,738,0
28851,337.34,845,739,0
28861,339.90,845,737,0
28871,342.41,845,739,0
28881,342.59,845,738,0
28891,342.93,845,739,0
28901,341.19,845,738,0
28911,339.81,845,739,0
28921,336.52,845,737,0
28931,333.84,845,739,0
28941,329.51,845,738,0
28951,326.02,845,739,0
28961,321.17,845,737,0
28972,317.60,845,739,0
28982,313.61,845,738,0
28992,312.48,845,739,0
29002,313.37,845,738,0
29012,320.76,845,739,0
29022,334.54,845,738,0
29032,359.71,845,739,0
29042,396.14,845,738,0
29052,441.10,845,739,0
29062,490.05,845,738,0
29072,540.91,845,739,0
29091,589.28,846,738,0
29094,633.25,846,740,0
29103,668.32,846,738,0
29113,692.95,846,739,0
29123,710.15,846,738,0
29133,722.24,846,740,0
29143,730.69,846,739,0
29153,736.66,846,740,0
29163,740.83,846,738,0
29173,743.80,846,740,0
29184,742.40,846,738,0
29193,734.82,846,740,0
29203,718.38,846,738,0
29213,692.85,846,740,0
29223,657.84,846,738,0
29233,614.86,846,740,0
29243,564.07,846,738,0
29253,510.61,846,740,0
29263,457.24,846,738,0
29273,408.82,846,740,0
29283,366.36,846,737,0
29293,332.31,846,740,0
29303,305.56,846,738,0
29313,287.35,846,739,0
29323,276.44,846,738,0
29333,273.65,846,740,0
29343,277.40,846,738,0
29353,287.69,846,740,0
29363,301.59,846,738,0
29373,318.98,846,740,0
29383,336.90,846,738,0
29393,354.59,846,739,0
29403,368.68,846,737,0
29413,378.94,846,739,0
29423,383.54,846,737,0
29433,383.76,846,738,0
29443,378.73,846,737,0
29453,371.61,846,739,0
29463,362.34,846,737,0
29473,352.04,846,738,0
29484,339.64,846,736,0
29494,329.04,846,739,0
29504,319.85,846,738,0
29514,313.17,846,739,0
29524,306.95,846,737,0
29534,302.08,846,740,0
29544,298.93,846,738,0
29554,299.03,846,739,0
29564,299.24,846,738,0
29574,300.28,846,740,0
29584,301.27,846,738,0
29594,303.59,846,739,0
29604,306.37,846,738,0
29614,310.37,846,739,0
29624,313.73,846,738,0
29634,317.58,846,738,0
29644,322.04,846,738,0
29655,327.77,846,739,0
29665,333.45,846,738,0
29675,338.97,846,739,0
29685,343.27,846,737,0
29696,347.43,846,739,0
29705,350.56,846,738,0
29715,352.02,846,739,0
29725,351.16,846,737,0
29735,348.71,846,739,0
29745,345.63,846,738,0
29755,345.05,846,739,0
29765,347.91,846,738,0
29775,355.82,846,740,0
29785,370.02,846,739,0
29795,393.33,846,739,0
29805,427.26,846,738,0
29815,468.88,846,740,0
29834,513.53,743,738,0
29837,558.84,743,740,0
29846,602.22,743,739,0
29856,641.54,743,740,0
29867,673.95,743,739,0
29876,697.15,743,740,0
29886,713.39,743,739,0
29896,724.76,743,740,0
29906,732.67,743,739,0
29916,738.21,743,740,0
29926,742.09,743,739,0
29936,744.77,743,740,0
29946,743.85,743,739,0
29956,736.65,743,740,0
29966,720.94,743,738,0
29976,695.80,743,739,0
29986,661.32,743,738,0
29996,618.11,743,739,0
30006,566.90,743,737,0
30016,511.86,743,739,0
30026,457.43,743,738,0
30036,407.55,743,739,0
30046,364.27,743,737,0
30056,329.30,743,738,0
30066,304.18,743,738,0
30076,288.83,743,739,0
30086,282.88,743,737,0
30096,287.12,743,740,0
30106,300.07,743,739,0
30116,319.85,743,740,0
30126,344.02,743,738,0
30136,369.34,743,739,0
30146,393.93,743,738,0
30156,415.46,743,739,0
30167,430.67,743,737,0
30177,438.70,743,739,0
30187,440.20,743,738,0
30197,434.83,743,738,0
30208,424.04,743,737,0
30217,409.11,743,738,0
30227,392.71,743,738,0
30237,375.05,743,738,0
30247,357.72,743,737,0
30257,341.65,743,739,0
30267,327.44,743,738,0
30277,315.56,743,739,0
30287,308.20,743,739,0
30297,303.64,743,740,0
30307,302.76,743,739,0
30317,304.20,743,740,0
30327,307.57,743,739,0
30337,312.67,743,740,0
30347,318.98,743,739,0
30357,323.75,743,739,0
30367,327.77,743,738,0
30377,330.32,743,739,0
30387,332.45,743,739,0
30397,333.56,743,739,0
30407,334.98,743,738,0
30417,336.06,743,739,0
30427,337.67,743,738,0
30437,339.14,743,739,0
30447,341.03,743,737,0
30457,342.22,743,738,0
30467,343.61,743,738,0
30477,345.23,743,739,0
30487,346.70,743,737,0
30497,347.52,743,738,0
30508,350.11,743,739,0
30518,353.67,743,739,0
30528,358.92,743,738,0
30538,364.55,743,739,0
30548,371.03,743,739,0
30558,379.46,743,739,0
30568,392.23,743,738,0
30578,409.81,743,738,0
30588,436.91,743,738,0
30607,470.88,773,737,0
30610,510.05,773,740,0
30619,551.48,773,738,0
30629,593.68,773,739,0
30639,633.63,773,738,0
30649,668.07,773,738,0
30659,692.78,773,738,0
30669,710.07,773,737,0
30679,722.09,773,739,0
30689,730.51,773,739,0
30699,736.36,773,738,0
30709,740.45,773,739,0
30720,743.27,773,738,0
30729,745.25,773,738,0
30739,746.59,773,738,0
30749,745.47,773,736,0
30759,740.31,773,738,0
30769,728.69,773,738,0
30779,707.83,773,737,0
30789,677.92,773,738,0
30799,637.83,773,736,0
30809,592.97,773,739,0
30819,545.45,773,738,0
30829,498.86,773,739,0
30839,455.70,773,738,0
30849,420.99,773,739,0
30859,394.64,773,738,0
30869,379.36,773,739,0
30879,369.57,773,738,0
30889,365.88,773,738,0
30899,364.85,773,735,0
30909,369.69,773,739,0
30919,378.18,773,738,0
30929,390.47,773,739,0
30939,403.14,773,738,0
30949,416.30,773,739,0
30959,427.27,773,738,0
30969,437.86,773,739,0
30979,443.26,773,738,0
30989,444.04,773,739,0
30999,438.46,773,739,0
31009,429.28,773,739,0
31020,415.44,773,737,0
31030,400.13,773,740,0
31040,382.22,773,739,0
31050,364.93,773,740,0
31060,347.03,773,737,0
31070,331.90,773,740,0
31080,317.78,773,739,0
31090,307.31,773,740,0
31100,298.73,773,737,0
31110,294.48,773,739,0
31120,292.24,773,738,0
31130,293.75,773,740,0
31140,296.35,773,737,0
31150,301.95,773,739,0
31160,308.09,773,738,0
31170,315.99,773,739,0
31180,322.90,773,737,0
31191,330.21,773,739,0
31201,335.98,773,738,0
31211,341.98,773,739,0
31221,345.72,773,736,0
31232,349.40,773,738,0
31241,351.81,773,737,0
31251,354.65,773,738,0
31261,355.53,773,734,0
31271,358.33,773,739,0
31281,359.56,773,735,0
31291,363.42,773,739,0
31301,367.79,773,738,0
31311,373.13,773,740,0
31321,377.42,773,738,0
31331,382.61,773,740,0
31341,384.74,773,738,0
31351,387.73,773,740,0
31361,389.10,773,738,0
31371,392.84,773,740,0
31381,400.90,773,738,0
31391,419.02,773,740,0
31401,447.21,773,738,0
31411,483.53,773,740,0
31430,524.52,823,738,0
31433,568.38,823,740,0
31442,611.03,823,738,0
31452,649.94,823,740,0
31462,680.30,823,738,0
31472,701.55,823,739,0
31482,716.39,823,738,0
31492,726.77,823,740,0
31502,734.00,823,738,0
31512,739.05,823,739,0
31522,742.51,823,737,0
31532,744.93,823,739,0
31542,746.58,823,738,0
31552,743.40,823,738,0
31562,731.33,823,737,0
31572,711.13,823,739,0
31582,682.76,823,738,0
31592,646.62,823,739,0
31602,602.16,823,738,0
31612,550.60,823,739,0
31622,496.85,823,738,0
31632,447.31,823,739,0
31642,402.26,823,738,0
31652,364.08,823,739,0
31662,333.16,823,738,0
31672,312.07,823,739,0
31682,298.89,823,737,0
31692,294.08,823,739,0
31703,297.31,823,738,0
31713,308.83,823,739,0
31723,325.60,823,738,0
31733,345.90,823,739,0
31744,363.98,823,736,0
31753,383.01,823,739,0
31763,401.82,823,738,0
31773,417.69,823,740,0
31783,427.98,823,739,0
31793,432.92,823,739,0
31803,432.30,823,738,0
31813,429.64,823,740,0
31823,421.90,823,739,0
31833,409.59,823,739,0
31843,393.17,823,738,0
31853,374.78,823,740,0
31863,354.87,823,739,0
31873,335.58,823,739,0
31883,317.02,823,737,0
31893,300.56,823,739,0
31903,284.10,823,737,0
31913,271.47,823,739,0
31923,259.85,823,736,0
31933,253.29,823,739,0
31943,251.49,823,739,0
31953,254.60,823,739,0
31963,261.11,823,738,0
31973,272.52,823,739,0
31983,284.28,823,738,0
31993,297.91,823,738,0
32003,308.52,823,737,0
32013,317.15,823,739,0
32023,324.39,823,739,0
32033,331.43,823,739,0
32044,337.69,823,738,0
32054,344.08,823,740,0
32064,350.10,823,738,0
32074,354.18,823,737,0
32084,358.07,823,738,0
32094,361.31,823,740,0
32104,362.59,823,738,0
32114,362.11,823,739,0
32124,356.76,823,736,0
32134,351.52,823,739,0
32144,350.42,823,739,0
32154,349.78,823,740,0
32164,348.90,823,739,0
32174,348.42,823,740,0
32184,348.89,823,739,0
32194,354.41,823,740,0
32204,363.03,823,739,0
32215,375.15,823,739,0
32225,394.69,823,739,0
32235,424.70,823,739,0
32245,462.16,823,739,0
32256,504.71,823,739,0
32265,549.97,823,740,0
32275,594.85,823,739,0
32285,636.60,823,739,0
32305,671.05,874,738,0
32307,695.37,874,740,0
32317,712.36,874,739,0
32327,724.25,874,739,0
32337,732.53,874,739,0
32347,738.42,874,740,0
32357,742.49,874,739,0
32367,745.34,874,739,0
32377,747.21,874,739,0
32387,748.61,874,740,0
32397,745.60,874,739,0
32407,735.60,874,739,0
32417,715.49,874,739,0
32428,685.86,874,740,0
32438,645.87,874,739,0
32448,597.57,874,739,0
32458,540.87,874,739,0
32468,482.58,874,740,0
32478,426.22,874,739,0
32488,377.90,874,739,0
32498,337.64,874,739,0
32508,308.91,874,740,0
32518,289.73,874,739,0
32528,282.19,874,739,0
32538,282.73,874,739,0
32548,292.03,874,740,0
32558,305.73,874,739,0
32568,324.07,874,738,0
32578,342.65,874,739,0
32588,362.08,874,739,0
32599,378.22,874,738,0
32609,392.25,874,739,0
32619,400.88,874,738,0
32629,405.97,874,740,0
32640,405.16,874,739,0
32649,401.34,874,739,0
32659,392.50,874,738,0
32669,381.72,874,740,0
32679,367.45,874,738,0
32689,353.04,874,739,0
32699,337.21,874,738,0
32709,323.09,874,740,0
32719,308.75,874,738,0
32729,297.13,874,739,0
32739,286.37,874,738,0
32749,279.28,874,740,0
32759,273.36,874,738,0
32769,270.90,874,739,0
32779,269.60,874,738,0
32789,271.69,874,740,0
32799,274.40,874,739,0
32809,279.81,874,739,0
32819,285.01,874,738,0
32829,292.12,874,740,0
32839,298.43,874,739,0
32849,305.88,874,739,0
32859,311.83,874,738,0
32869,318.57,874,740,0
32879,323.63,874,738,0
32889,329.31,874,739,0
32899,333.33,874,738,0
32909,338.03,874,740,0
32919,340.81,874,738,0
32929,344.08,874,739,0
32940,345.43,874,738,0
32950,347.14,874,739,0
32960,346.93,874,739,0
32970,347.08,874,739,0
32980,345.25,874,738,0
32990,344.06,874,739,0
33000,341.17,874,739,0
33010,339.06,874,739,0
33020,335.66,874,738,0
33030,333.45,874,739,0
33040,330.18,874,739,0
33050,328.03,874,739,0
33060,324.93,874,738,0
33070,323.37,874,739,0
33080,321.63,874,739,0
33090,322.85,874,739,0
33100,326.71,874,738,0
33111,337.64,874,739,0
33121,357.12,874,739,0
33131,389.91,874,739,0
33141,431.00,874,739,0
33152,478.35,874,740,0
33170,527.96,866,738,0
33172,577.65,866,740,0
33182,623.18,866,739,0
33192,661.53,866,739,0
33202,688.41,866,739,0
33212,707.23,866,740,0
33222,720.36,866,739,0
33232,729.60,866,740,0
33242,736.10,866,739,0
33252,740.66,866,740,0
33262,743.85,866,739,0
33272,746.08,866,740,0
33282,747.64,866,739,0
33292,748.73,866,740,0
33302,744.74,866,738,0
33312,732.91,866,739,0
33323,711.03,866,739,0
33332,679.48,866,739,0
33342,638.11,866,738,0
33352,588.15,866,739,0
33362,530.97,866,739,0
33372,473.21,866,740,0
33382,419.10,866,738,0
33392,373.09,866,740,0
33402,336.42,866,739,0
33412,310.92,866,739,0
33422,296.16,866,738,0
33432,291.95,866,739,0
33442,296.43,866,739,0
33452,308.60,866,739,0
33462,325.43,866,738,0
33472,345.32,866,739,0
33482,365.49,866,739,0
33492,384.76,866,739,0
33502,400.73,866,738,0
33512,413.07,866,739,0
33522,420.29,866,739,0
33532,423.03,866,739,0
33542,420.75,866,738,0
33552,414.57,866,740,0
33562,404.50,866,739,0
33572,391.79,866,740,0
33582,376.55,866,738,0
33592,360.62,866,739,0
33602,344.23,866,739,0
33612,328.78,866,739,0
33623,314.40,866,738,0
33633,302.02,866,739,0
33643,291.94,866,739,0
33653,284.59,866,739,0
33664,279.74,866,738,0
33673,277.55,866,739,0
33683,277.51,866,739,0
33693,279.54,866,739,0
33703,283.32,866,738,0
33713,288.41,866,739,0
33723,294.67,866,738,0
33733,301.50,866,739,0
33743,308.98,866,738,0
33753,316.53,866,739,0
33763,324.00,866,739,0
33773,331.07,866,739,0
33783,337.86,866,738,0
33793,344.03,866,739,0
33803,349.51,866,739,0
33813,354.03,866,739,0
33823,357.79,866,738,0
33833,360.64,866,739,0
33843,362.76,866,739,0
33853,363.95,866,739,0
33863,364.48,866,738,0
33873,364.33,866,739,0
33883,363.59,866,738,0
33893,362.17,866,740,0
33903,360.32,866,738,0
33913,357.78,866,739,0
33923,354.80,866,738,0
33933,351.61,866,739,0
33943,348.98,866,738,0
33953,347.92,866,739,0
33964,350.81,866,739,0
33974,359.83,866,739,0
33984,378.91,866,738,0
33994,410.09,866,739,0
34004,449.75,866,739,0
34014,494.82,866,739,0
34024,542.62,866,739,0
34034,589.71,866,739,0
34054,633.12,883,738,0
34056,668.44,883,740,0
34066,693.21,883,739,0
34076,710.55,883,738,0
34086,722.73,883,739,0
34096,731.25,883,739,0
34106,737.22,883,739,0
34116,741.35,883,738,0
34126,744.33,883,739,0
34136,746.42,883,739,0
34146,747.88,883,739,0
34156,748.82,883,738,0
34166,746.81,883,739,0
34177,737.31,883,739,0
34187,718.88,883,739,0
34197,689.60,883,738,0
34207,650.25,883,738,0
34217,601.14,883,738,0
34227,545.00,883,738,0
34237,485.22,883,737,0
34247,429.56,883,738,0
34257,380.62,883,738,0
34267,343.37,883,738,0
34277,316.77,883,737,0
34287,302.22,883,737,0
34297,299.89,883,738,0
34307,310.72,883,739,0
34317,329.88,883,738,0
34327,356.23,883,739,0
34337,384.19,883,739,0
34348,413.83,883,739,0
34358,440.92,883,738,0
34368,462.59,883,739,0
34378,474.88,883,738,0
34388,480.06,883,740,0
34398,476.57,883,738,0
34408,467.66,883,739,0
34418,452.33,883,739,0
34428,434.19,883,740,0
34438,412.75,883,738,0
34448,391.31,883,739,0
34458,368.63,883,739,0
34468,347.74,883,740,0
34478,327.46,883,737,0
34488,310.74,883,739,0
34498,295.86,883,739,0
34508,285.02,883,741,0
34519,276.61,883,739,0
34529,272.61,883,741,0
34539,271.27,883,739,0
34549,274.15,883,741,0
34560,278.95,883,739,0
34569,287.11,883,741,0
34579,296.07,883,739,0
34589,306.98,883,741,0
34599,317.61,883,738,0
34609,328.96,883,740,0
34619,338.96,883,738,0
34629,348.78,883,740,0
34639,356.05,883,737,0
34649,361.78,883,739,0
34659,364.16,883,736,0
34669,364.80,883,737,0
34679,365.76,883,737,0
34689,368.53,883,740,0
34699,371.11,883,739,0
34709,374.64,883,740,0
34719,377.45,883,737,0
34729,380.66,883,739,0
34739,381.96,883,736,0
34749,379.74,883,740,0
34759,374.89,883,737,0
34769,370.42,883,740,0
34779,365.20,883,739,0
34789,360.59,883,740,0
34799,354.80,883,737,0
34809,351.73,883,739,0
34819,351.94,883,738,0
34829,355.09,883,738,0
34839,365.82,883,738,0
34849,389.79,883,740,0
34860,423.71,883,739,0
34870,466.57,883,740,0
34880,514.05,883,738,0
34890,563.11,883,739,0
34900,611.68,883,738,0
34919,652.83,866,738,0
34922,682.15,866,740,0
34931,702.68,866,741,0
34941,717.05,866,739,0
34951,727.19,866,741,0
34961,734.33,866,739,0
34971,739.42,866,741,0
34981,743.02,866,739,0
34991,745.50,866,741,0
35001,747.24,866,739,0
35011,748.45,866,741,0
35021,749.26,866,739,0
35031,749.87,866,741,0
35041,750.21,866,739,0
35051,750.10,866,741,0
35061,744.33,866,739,0
35072,730.86,866,740,0
35081,708.10,866,738,0
35091,676.14,866,740,0
35101,635.13,866,738,0
35111,585.98,866,739,0
35121,531.90,866,738,0
35131,481.49,866,740,0
35141,436.94,866,738,0
35151,401.26,866,741,0
35161,374.27,866,738,0
35171,356.40,866,739,0
35181,349.17,866,739,0
35191,350.27,866,741,0
35201,354.48,866,738,0
35211,361.66,866,740,0
35221,370.85,866,739,0
35231,380.88,866,741,0
35241,386.70,866,735,0
35251,390.99,866,740,0
35261,392.07,866,739,0
35271,391.40,866,741,0
35281,387.90,866,739,0
35291,381.20,866,740,0
35301,371.58,866,739,0
35311,363.39,866,740,0
35321,350.80,866,738,0
35331,335.61,866,739,0
35341,317.21,866,737,0
35351,298.68,866,740,0
35361,279.79,866,738,0
35372,265.11,866,740,0
35382,253.76,866,738,0
35392,246.33,866,739,0
35402,240.62,866,738,0
35412,241.08,866,739,0
35422,244.82,866,737,0
35432,252.42,866,739,0
35442,259.84,866,738,0
35452,270.81,866,740,0
35462,284.11,866,738,0
35472,300.36,866,739,0
35482,314.06,866,734,0
35492,328.22,866,739,0
35502,341.14,866,737,0
35512,352.41,866,739,0
35522,361.76,866,738,0
35532,369.89,866,739,0
35543,375.97,866,737,0
35553,380.86,866,737,0
35563,384.80,866,739,0
35573,388.38,866,739,0
35584,390.92,866,738,0
35593,386.44,866,736,0
35603,380.48,866,738,0
35613,374.08,866,738,0
35623,368.79,866,738,0
35633,362.34,866,739,0
35643,356.32,866,739,0
35653,352.15,866,739,0
35663,353.18,866,738,0
35673,355.40,866,739,0
35683,361.75,866,738,0
35693,373.48,866,738,0
35703,396.61,866,738,0
35713,429.34,866,740,0
35723,468.62,866,739,0
35733,512.37,866,738,0
35743,558.41,866,738,0
35753,603.42,866,740,0
35763,645.04,866,739,0
35773,676.57,866,739,0
35783,698.64,866,738,0
35793,714.09,866,738,0
35812,725.04,893,738,0
35814,732.70,893,739,0
35824,738.06,893,739,0
35834,741.77,893,739,0
35844,744.41,893,739,0
35854,746.22,893,739,0
35864,747.52,893,739,0
35874,745.65,893,739,0
35884,736.46,893,738,0
35894,717.16,893,739,0
35904,686.43,893,735,0
35914,643.70,893,738,0
35924,594.29,893,739,0
35934,538.66,893,739,0
35944,480.90,893,739,0
35954,426.33,893,739,0
35964,379.73,893,739,0
35974,343.60,893,739,0
35984,321.05,893,738,0
35994,307.83,893,739,0
36004,304.07,893,739,0
36014,307.95,893,739,0
36024,318.89,893,738,0
36034,335.94,893,739,0
36044,356.61,893,738,0
36055,376.70,893,739,0
36065,395.99,893,739,0
36075,412.97,893,739,0
36085,427.20,893,739,0
36096,435.97,893,737,0
36105,440.18,893,738,0
36115,440.08,893,739,0
36125,434.79,893,738,0
36135,424.22,893,738,0
36145,411.90,893,739,0
36155,397.23,893,738,0
36165,382.42,893,738,0
36175,363.99,893,738,0
36185,347.24,893,739,0
36195,334.78,893,739,0
36205,326.27,893,739,0
36215,317.84,893,738,0
36225,311.58,893,738,0
36235,307.34,893,739,0
36245,307.41,893,738,0
36255,306.64,893,738,0
36265,303.96,893,738,0
36275,302.17,893,738,0
36285,303.79,893,739,0
36295,306.73,893,738,0
36305,309.08,893,736,0
36315,313.73,893,739,0
36325,322.42,893,739,0
36335,334.60,893,739,0
36345,346.97,893,738,0
36355,357.65,893,739,0
36365,368.09,893,739,0
36375,378.47,893,738,0
36385,384.63,893,738,0
36396,387.06,893,738,0
36406,387.13,893,738,0
36416,382.50,893,738,0
36426,376.69,893,738,0
36436,366.07,893,733,0
36446,360.05,893,739,0
36456,359.61,893,739,0
36466,365.94,893,738,0
36476,381.30,893,738,0
36486,411.17,893,739,0
36496,449.22,893,738,0
36506,496.77,893,738,0
36526,544.66,713,737,0
36529,591.35,713,740,0
36538,633.50,713,738,0
36548,668.58,713,739,0
36558,693.14,713,738,0
36568,710.41,713,740,0
36578,722.46,713,738,0
36588,730.85,713,738,0
36598,736.72,713,738,0
36609,740.92,713,740,0
36619,743.82,713,738,0
36629,744.73,713,738,0
36639,736.75,713,732,0
36649,721.57,713,739,0
36659,696.63,713,737,0
36669,658.12,713,737,0
36679,611.89,713,738,0
36689,558.56,713,739,0
36699,499.29,713,738,0
36709,443.15,713,739,0
36719,388.93,713,738,0
36729,342.88,713,739,0
36739,308.20,713,738,0
36749,281.91,713,739,0
36759,266.21,713,738,0
36769,262.68,713,740,0
36780,268.52,713,738,0
36790,284.00,713,739,0
36800,304.70,713,738,0
36810,330.25,713,739,0
36820,355.03,713,734,0
36830,378.98,713,739,0
36840,399.21,713,737,0
36850,415.48,713,739,0
36860,425.19,713,738,0
36870,428.99,713,739,0
36880,428.44,713,737,0
36890,426.08,713,739,0
36900,418.68,713,738,0
36910,406.78,713,739,0
36920,389.06,713,736,0
36930,372.07,713,740,0
36940,355.93,713,738,0
36951,340.18,713,739,0
36961,324.83,713,737,0
36971,310.74,713,739,0
36981,299.07,713,738,0
36992,293.01,713,739,0
37001,286.96,713,737,0
37011,283.37,713,740,0
37021,281.89,713,738,0
37031,282.87,713,739,0
37041,284.75,713,737,0
37051,288.47,713,739,0
37061,293.51,713,738,0
37071,301.07,713,739,0
37081,305.34,713,737,0
37091,311.79,713,740,0
37101,318.88,713,738,0
37111,327.40,713,739,0
37121,335.55,713,737,0
37131,341.90,713,739,0
37141,347.63,713,739,0
37151,355.54,713,739,0
37161,358.17,713,734,0
37171,359.53,713,739,0
37181,359.33,713,738,0
37191,357.00,713,738,0
37201,352.67,713,737,0
37211,347.28,713,739,0
37221,340.94,713,737,0
37231,337.75,713,740,0
37241,333.49,713,738,0
37251,334.97,713,740,0
37261,344.71,713,738,0
37271,366.53,713,740,0
37281,399.97,713,738,0
37292,442.32,713,739,0
37311,489.24,786,737,0
37314,540.60,786,740,0
37323,589.27,786,739,0
37334,632.91,786,739,0
37343,668.08,786,738,0
37353,692.74,786,739,0
37363,710.00,786,738,0
37373,722.09,786,739,0
37383,730.63,786,738,0
37393,736.49,786,737,0
37403,740.54,786,738,0
37413,743.42,786,739,0
37423,743.21,786,738,0
37433,735.39,786,738,0
37443,718.56,786,738,0
37453,692.12,786,739,0
37463,656.73,786,738,0
37473,610.05,786,738,0
37483,556.42,786,737,0
37493,497.84,786,737,0
37504,441.10,786,738,0
37513,390.46,786,739,0
37523,348.62,786,738,0
37533,315.05,786,738,0
37543,293.69,786,739,0
37553,281.44,786,739,0
37563,279.25,786,738,0
37573,284.45,786,737,0
37583,290.74,786,730,0
37593,302.86,786,739,0
37603,320.56,786,738,0
37613,340.24,786,738,0
37623,360.52,786,739,0
37633,379.14,786,739,0
37643,395.04,786,738,0
37653,410.16,786,738,0
37663,418.59,786,739,0
37673,419.14,786,738,0
37683,413.10,786,738,0
37693,401.67,786,739,0
37703,387.24,786,739,0
37713,370.54,786,739,0
37723,352.98,786,737,0
37733,334.64,786,739,0
37743,318.64,786,739,0
37753,305.03,786,739,0
37763,293.36,786,739,0
37773,281.90,786,739,0
37783,270.74,786,738,0
37793,262.46,786,738,0
37804,256.50,786,738,0
37814,251.72,786,739,0
37824,248.76,786,738,0
37834,246.77,786,738,0
37844,247.14,786,738,0
37854,251.51,786,738,0
37864,258.00,786,739,0
37874,264.43,786,738,0
37884,269.70,786,738,0
37894,275.28,786,738,0
37904,281.28,786,738,0
37914,286.64,786,739,0
37924,289.75,786,738,0
37934,291.75,786,738,0
37944,293.28,786,738,0
37954,296.84,786,739,0
37964,301.90,786,739,0
37975,307.12,786,738,0
37985,313.73,786,739,0
37995,320.32,786,738,0
38005,327.30,786,739,0
38016,334.96,786,738,0
38025,342.00,786,739,0
38035,345.56,786,739,0
38045,347.32,786,739,0
38055,345.72,786,738,0
38065,344.26,786,738,0
38075,340.50,786,738,0
38085,339.75,786,739,0
38095,342.48,786,738,0
38105,352.54,786,738,0
38115,370.50,786,739,0
38125,401.30,786,739,0
38145,441.24,833,738,0
38148,488.27,833,739,0
38157,536.14,833,738,0
38167,582.69,833,740,0
38177,624.82,833,737,0
38188,661.39,833,740,0
38198,687.93,833,738,0
38208,706.51,833,740,0
38218,719.47,833,738,0
38228,728.59,833,740,0
38238,734.92,833,738,0
38248,738.25,833,740,0
38258,734.57,833,738,0
38268,720.09,833,738,0
38278,696.88,833,738,0
38288,664.77,833,739,0
38298,624.08,833,737,0
38308,575.41,833,739,0
38318,520.86,833,738,0
38328,468.02,833,740,0
38338,420.65,833,737,0
38348,379.10,833,740,0
38359,342.90,833,736,0
38369,315.37,833,740,0
38379,295.33,833,737,0
38389,285.25,833,740,0
38400,282.00,833,738,0
38409,286.59,833,740,0
38419,295.80,833,738,0
38429,310.00,833,740,0
38439,326.24,833,738,0
38449,345.11,833,740,0
38459,362.14,833,737,0
38469,376.58,833,739,0
38479,388.28,833,738,0
38489,398.05,833,740,0
38499,401.98,833,730,0
38509,403.61,833,740,0
38519,401.59,833,738,0
38529,396.87,833,739,0
38539,388.29,833,737,0
38549,376.12,833,739,0
38559,360.10,833,738,0
38569,347.13,833,740,0
38579,332.60,833,737,0
38589,317.59,833,739,0
38599,302.84,833,738,0
38609,287.42,833,734,0
38619,275.68,833,738,0
38629,268.79,833,740,0
38639,263.11,833,738,0
38649,259.39,833,739,0
38659,258.07,833,738,0
38669,259.34,833,739,0
38679,261.72,833,731,0
38689,266.05,833,740,0
38700,270.92,833,738,0
38710,277.07,833,740,0
38720,283.22,833,738,0
38730,289.24,833,739,0
38740,293.03,833,737,0
38750,300.73,833,740,0
38760,305.91,833,738,0
38770,308.04,833,739,0
38780,307.51,833,736,0
38790,307.36,833,740,0
38800,306.44,833,736,0
38810,307.51,833,740,0
38820,308.43,833,738,0
38830,309.28,833,740,0
38840,310.74,833,738,0
38850,313.39,833,740,0
38860,313.87,833,738,0
38871,313.87,833,737,0
38881,313.78,833,739,0
38891,313.33,833,740,0
38901,312.72,833,738,0
38912,308.90,833,733,0
38921,305.50,833,738,0
38931,303.29,833,739,0
38941,302.65,833,738,0
38951,301.55,833,739,0
38961,303.96,833,739,0
38971,311.26,833,740,0
38981,327.51,833,738,0
38991,350.93,833,739,0
39001,382.75,833,738,0
39011,423.75,833,740,0
39030,471.18,886,738,0
39033,519.51,886,740,0
39042,566.29,886,740,0
39052,610.13,886,740,0
39062,647.93,886,739,0
39072,678.43,886,738,0
39083,699.77,886,739,0
39092,714.75,886,740,0
39102,725.24,886,739,0
39112,732.58,886,739,0
39122,734.55,886,739,0
39132,730.31,886,740,0
39142,718.48,886,739,0
39152,697.51,886,739,0
39162,667.74,886,739,0
39172,628.99,886,739,0
39182,580.86,886,738,0
39192,527.50,886,738,0
39202,473.57,886,739,0
39212,422.95,886,740,0
39222,378.10,886,739,0
39232,338.94,886,739,0
39242,307.20,886,739,0
39252,286.65,886,739,0
39262,276.82,886,739,0
39272,274.43,886,739,0
39282,278.89,886,739,0
39292,288.01,886,738,0
39302,303.60,886,739,0
39312,323.05,886,738,0
39322,342.84,886,739,0
39332,361.44,886,739,0
39342,379.52,886,739,0
39352,392.40,886,736,0
39362,403.98,886,738,0
39372,410.88,886,740,0
39383,415.16,886,739,0
39393,415.97,886,738,0
39403,412.59,886,737,0
39413,405.94,886,739,0
39424,399.79,886,739,0
39433,388.37,886,733,0
39443,376.43,886,739,0
39453,361.99,886,738,0
39463,347.08,886,739,0
39473,332.87,886,738,0
39483,319.96,886,739,0
39493,307.46,886,739,0
39503,299.48,886,739,0
39513,291.49,886,739,0
39523,287.40,886,739,0
39533,284.88,886,738,0
39543,286.07,886,739,0
39553,286.52,886,736,0
39563,289.97,886,739,0
39573,294.61,886,739,0
39583,301.45,886,739,0
39593,304.83,886,735,0
39603,305.95,886,736,0
39613,309.52,886,740,0
39623,318.11,886,740,0
39633,326.48,886,740,0
39643,335.42,886,740,0
39653,343.57,886,740,0
39663,353.90,886,740,0
39673,365.37,886,740,0
39683,372.24,886,740,0
39693,373.50,886,740,0
39703,371.85,886,740,0
39713,367.09,886,740,0
39724,361.75,886,740,0
39734,355.01,886,740,0
39744,349.05,886,741,0
39754,342.74,886,740,0
39764,338.19,886,741,0
39774,333.89,886,740,0
39784,331.69,886,741,0
39794,330.67,886,740,0
39804,333.81,886,741,0
39814,340.64,886,740,0
39824,354.33,886,741,0
39834,374.93,886,740,0
39844,405.72,886,741,0
39854,444.68,886,741,0
39864,489.22,886,741,0
39874,535.22,886,740,0
39884,580.97,886,741,0
39904,622.94,874,740,0
39906,659.21,874,743,0
39916,686.83,874,740,0
39926,706.21,874,741,0
39937,719.73,874,740,0
39947,729.24,874,742,0
39957,735.86,874,740,0
39967,738.73,874,741,0
39977,734.87,874,740,0
39987,723.72,874,741,0
39997,703.58,874,740,0
40007,675.07,874,741,0
40017,638.02,874,740,0
40027,593.96,874,741,0
40037,544.69,874,740,0
40047,495.62,874,741,0
40057,448.25,874,740,0
40067,406.69,874,741,0
40077,371.08,874,740,0
40087,343.72,874,741,0
40097,323.66,874,740,0
40108,312.53,874,741,0
40118,308.56,874,740,0
40128,312.33,874,741,0
40138,321.40,874,740,0
40148,335.55,874,741,0
40158,351.89,874,740,0
40168,370.01,874,741,0
40178,387.15,874,739,0
40188,403.26,874,741,0
40198,416.30,874,740,0
40208,426.41,874,741,0
40218,432.33,874,740,0
40228,434.76,874,741,0
40238,432.95,874,740,0
40248,428.29,874,741,0
40258,420.15,874,740,0
40268,409.95,874,741,0
40279,397.66,874,740,0
40289,384.61,874,741,0
40299,371.10,874,740,0
40309,358.30,874,741,0
40320,346.21,874,741,0
40329,336.07,874,741,0
40339,327.48,874,740,0
40349,321.12,874,741,0
40359,316.80,874,741,0
40369,314.72,874,741,0
40379,314.42,874,740,0
40389,315.83,874,741,0
40399,318.50,874,740,0
40409,322.38,874,741,0
40419,326.85,874,740,0
40429,331.78,874,741,0
40439,336.77,874,740,0
40449,341.69,874,741,0
40459,346.19,874,739,0
40469,350.16,874,741,0
40479,353.42,874,741,0
40489,356.03,874,741,0
40499,357.87,874,739,0
40509,359.15,874,741,0
40519,359.83,874,741,0
40529,360.14,874,741,0
40539,359.93,874,739,0
40549,359.52,874,741,0
40559,358.72,874,740,0
40569,357.78,874,741,0
40579,356.51,874,739,0
40589,355.29,874,741,0
40599,354.35,874,741,0
40609,354.46,874,741,0
40620,356.63,874,740,0
40630,362.53,874,741,0
40640,374.11,874,740,0
40650,393.54,874,740,0
40660,422.90,874,740,0
40679,460.39,775,739,0
40682,502.96,775,742,0
40691,547.59,775,741,0
40701,591.68,775,741,0
40711,632.32,775,741,0
40721,666.77,775,741,0
40731,692.29,775,741,0
40741,710.16,775,741,0
40751,722.59,775,741,0
40761,731.32,775,741,0
40771,737.40,775,741,0
40781,741.65,775,741,0
40791,744.63,775,741,0
40801,746.75,775,741,0
40811,748.20,775,741,0
40821,746.42,775,741,0
40832,738.58,775,741,0
40841,724.09,775,741,0
40851,701.61,775,741,0
40861,671.94,775,740,0
40871,635.06,775,741,0
40881,592.53,775,741,0
40891,547.67,775,741,0
40901,505.08,775,740,0
40911,465.97,775,741,0
40921,433.58,775,741,0
40931,407.73,775,741,0
40941,389.73,775,740,0
40951,378.28,775,741,0
40961,373.78,775,741,0
40971,374.62,775,741,0
40981,380.48,775,740,0
40991,388.90,775,741,0
41001,399.48,775,741,0
41011,409.96,775,741,0
41021,420.13,775,740,0
41031,427.93,775,741,0
41041,433.48,775,741,0
41051,435.65,775,741,0
41061,435.16,775,740,0
41071,430.87,775,741,0
41081,424.31,775,741,0
41091,414.91,775,741,0
41101,404.40,775,740,0
41111,392.15,775,741,0
41121,379.76,775,741,0
41132,366.80,775,741,0
41142,355.12,775,740,0
41152,344.03,775,741,0
41162,334.93,775,741,0
41172,326.85,775,741,0
41182,321.20,775,740,0
41192,316.94,775,740,0
41202,315.24,775,741,0
41212,314.70,775,741,0
41222,316.29,775,740,0
41232,318.47,775,740,0
41242,322.45,775,741,0
41252,326.43,775,740,0
41262,331.57,775,741,0
41272,336.16,775,740,0
41282,341.38,775,741,0
41292,345.51,775,740,0
41303,349.94,775,740,0
41313,352.92,775,740,0
41323,356.11,775,741,0
41333,357.66,775,740,0
41344,359.35,775,741,0
41353,359.55,775,740,0
41363,359.98,775,741,0
41373,359.04,775,740,0
41383,358.52,775,741,0
41393,356.73,775,740,0
41403,355.53,775,741,0
41413,353.10,775,740,0
41423,351.18,775,741,0
41433,348.26,775,740,0
41443,346.34,775,741,0
41453,344.18,775,740,0
41463,344.21,775,741,0
41473,346.12,775,740,0
41483,353.37,775,741,0
41493,366.20,775,740,0
41503,388.56,775,741,0
41513,420.19,775,740,0
41523,460.07,775,741,0
41542,504.11,863,740,0
41544,550.23,863,742,0
41554,594.61,863,740,0
41564,635.44,863,742,0
41574,668.91,863,740,0
41584,693.75,863,742,0
41594,711.10,863,739,0
41604,723.28,863,742,0
41614,731.77,863,740,0
41624,737.75,863,742,0
41634,741.90,863,740,0
41644,744.80,863,742,0
41654,746.06,863,741,0
41664,743.21,863,742,0
41674,733.42,863,740,0
41684,716.11,863,742,0
41694,690.28,863,740,0
41704,657.06,863,742,0
41714,616.16,863,740,0
41724,570.08,863,742,0
41734,521.84,863,740,0
41744,476.51,863,742,0
41754,435.34,863,740,0
41764,401.51,863,742,0
41774,374.23,863,740,0
41784,355.65,863,742,0
41794,344.14,863,739,0
41804,340.80,863,742,0
41815,343.09,863,740,0
41825,351.20,863,742,0
41835,362.28,863,739,0
41845,376.26,863,742,0
41856,390.07,863,740,0
41865,403.93,863,742,0
41875,415.22,863,739,0
41885,424.54,863,742,0
41895,429.95,863,740,0
41905,432.45,863,742,0
41915,430.82,863,739,0
41925,426.54,863,742,0
41935,418.41,863,740,0
41945,408.64,863,742,0
41955,396.36,863,739,0
41965,383.74,863,742,0
41975,369.85,863,740,0
41985,356.91,863,742,0
41995,344.29,863,740,0
42005,333.92,863,742,0
42015,324.56,863,740,0
42025,317.88,863,742,0
42035,312.47,863,740,0
42045,309.89,863,742,0
42055,308.51,863,740,0
42065,309.34,863,742,0
42075,310.95,863,740,0
42085,314.40,863,742,0
42095,318.09,863,740,0
42105,323.08,863,742,0
42115,327.68,863,740,0
42125,333.14,863,742,0
42135,337.94,863,740,0
42145,343.06,863,742,0
42156,347.15,863,740,0
42166,351.35,863,742,0
42176,354.42,863,740,0
42186,357.51,863,742,0
42196,359.28,863,740,0
42206,361.04,863,742,0
42216,361.63,863,740,0
42226,362.08,863,742,0
42236,361.37,863,740,0
42246,360.62,863,742,0
42256,358.93,863,740,0
42266,357.28,863,742,0
42276,355.14,863,740,0
42286,354.03,863,742,0
42296,354.06,863,740,0
42306,357.60,863,742,0
42316,365.56,863,740,0
42327,380.91,863,742,0
42337,404.98,863,740,0
42347,439.27,863,742,0
42366,479.90,824,740,0
42370,524.25,824,741,0
42379,569.09,824,741,0
42389,612.00,824,741,0
42399,649.85,824,741,0
42409,680.36,824,741,0
42419,701.77,824,741,0
42429,716.80,824,742,0
42439,727.31,824,741,0
42449,734.68,824,741,0
42459,739.83,824,741,0
42469,743.44,824,742,0
42479,742.92,824,741,0
42489,735.70,824,741,0
42499,720.83,824,740,0
42509,697.36,824,741,0
42519,665.49,824,741,0
42529,625.53,824,741,0
42540,578.74,824,741,0
42550,528.85,824,741,0
42560,480.51,824,741,0
42570,435.83,824,741,0
42580,397.91,824,741,0
42590,367.29,824,741,0
42600,345.35,824,741,0
42610,331.23,824,741,0
42620,325.63,824,741,0
42630,326.64,824,741,0
42640,334.08,824,741,0
42650,345.28,824,741,0
42660,359.90,824,741,0
42670,375.36,824,741,0
42680,391.19,824,741,0
42690,404.81,824,741,0
42700,416.61,824,741,0
42711,424.57,824,741,0
42721,429.50,824,741,0
42731,430.16,824,741,0
42741,427.76,824,741,0
42752,421.44,824,741,0
42761,413.21,824,741,0
42771,402.22,824,741,0
42781,390.41,824,741,0
42791,377.22,824,741,0
42801,364.29,824,741,0
42811,351.09,824,741,0
42821,339.62,824,741,0
42831,328.72,824,741,0
42841,319.98,824,741,0
42851,312.27,824,740,0
42861,307.26,824,741,0
42871,303.50,824,741,0
42881,302.23,824,741,0
42891,301.86,824,740,0
42901,303.58,824,741,0
42911,305.76,824,741,0
42921,309.56,824,741,0
42931,313.12,824,740,0
42941,317.80,824,741,0
42951,321.97,824,741,0
42961,326.82,824,741,0
42971,330.82,824,740,0
42981,335.12,824,741,0
42991,338.25,824,740,0
43001,341.69,824,741,0
43011,344.01,824,740,0
43021,346.71,824,741,0
43031,348.12,824,741,0
43041,349.67,824,742,0
43052,350.11,824,740,0
43062,350.98,824,742,0
43072,350.60,824,740,0
43082,350.55,824,742,0
43092,349.23,824,740,0
43102,348.47,824,742,0
43112,346.75,824,740,0
43122,345.66,824,742,0
43132,343.88,824,740,0
43142,343.66,824,742,0
43152,344.40,824,740,0
43162,349.08,824,742,0
43172,357.93,824,740,0
43182,374.45,824,742,0
43192,399.34,824,740,0
43202,434.77,824,742,0
43222,476.28,855,740,0
43225,521.58,855,743,0
43234,567.01,855,740,0
43244,610.51,855,742,0
43254,648.71,855,740,0
43265,679.57,855,742,0
43275,701.17,855,740,0
43285,716.33,855,742,0
43295,726.90,855,740,0
43305,734.35,855,742,0
43315,739.56,855,740,0
43325,743.25,855,742,0
43335,745.79,855,740,0
43345,747.52,855,742,0
43355,744.84,855,740,0
43365,736.01,855,742,0
43375,718.91,855,740,0
43385,693.44,855,742,0
43395,659.75,855,740,0
43405,619.11,855,742,0
43415,571.85,855,740,0
43425,523.38,855,742,0
43436,476.59,855,740,0
43446,435.32,855,742,0
43456,400.72,855,740,0
43466,374.15,855,742,0
43476,355.16,855,740,0
43486,344.44,855,742,0
43496,340.62,855,740,0
43506,343.18,855,742,0
43516,350.37,855,740,0
43526,361.14,855,742,0
43536,373.53,855,740,0
43546,386.44,855,742,0
43556,398.27,855,740,0
43566,408.43,855,742,0
43576,415.84,855,740,0
43586,420.30,855,742,0
43596,421.28,855,740,0
43607,419.10,855,742,0
43617,413.76,855,741,0
43627,405.81,855,742,0
43637,395.71,855,741,0
43648,384.01,855,742,0
43657,371.45,855,740,0
43667,358.85,855,742,0
43677,346.72,855,741,0
43687,335.53,855,742,0
43697,325.73,855,741,0
43707,317.45,855,742,0
43717,311.23,855,741,0
43727,306.66,855,742,0
43737,303.94,855,741,0
43747,302.93,855,742,0
43757,303.63,855,741,0
43767,305.42,855,741,0
43777,308.20,855,740,0
43787,311.66,855,742,0
43797,315.92,855,740,0
43807,320.36,855,741,0
43817,324.92,855,741,0
43827,329.44,855,741,0
43837,334.03,855,740,0
43847,338.30,855,742,0
43857,342.33,855,741,0
43867,345.83,855,741,0
43877,348.92,855,740,0
43887,351.30,855,742,0
43897,353.06,855,741,0
43907,354.15,855,741,0
43917,354.84,855,741,0
43927,354.76,855,742,0
43937,354.19,855,741,0
43948,352.93,855,741,0
43958,351.58,855,741,0
43968,349.56,855,741,0
43978,347.59,855,741,0
43988,345.10,855,741,0
43998,342.89,855,741,0
44008,340.56,855,741,0
44018,339.32,855,741,0
44028,339.14,855,741,0
44038,342.27,855,741,0
44048,349.56,855,741,0
44058,364.05,855,741,0
44068,387.09,855,741,0
44078,420.58,855,741,0
44088,461.33,855,741,0
44107,506.62,886,740,0
44110,553.06,886,741,0
44119,598.13,886,741,0
44129,638.50,886,741,0
44139,671.74,886,742,0
44149,695.73,886,741,0
44160,712.53,886,741,0
44169,724.24,886,741,0
44179,732.44,886,741,0
44189,738.14,886,741,0
44199,742.17,886,741,0
44209,744.95,886,741,0
44219,746.93,886,741,0
44229,744.51,886,741,0
44239,735.83,886,741,0
44249,718.82,886,741,0
44259,693.25,886,741,0
44269,658.67,886,741,0
44279,616.43,886,741,0
44289,567.01,886,741,0
44299,516.01,886,741,0
44309,466.34,886,741,0
44319,422.22,886,741,0
44329,384.87,886,741,0
44339,356.49,886,741,0
44349,336.25,886,741,0
44359,325.16,886,741,0
44369,321.38,886,741,0
44379,325.12,886,741,0
44389,333.74,886,741,0
44399,346.98,886,741,0
44409,361.94,886,741,0
44419,378.33,886,741,0
44429,393.23,886,741,0
44439,406.83,886,741,0
44449,416.87,886,741,0
44460,424.11,886,741,0
44470,426.73,886,741,0
44480,426.13,886,741,0
44490,421.20,886,740,0
44500,413.90,886,742,0
44510,403.47,886,741,0
44520,391.85,886,741,0
44530,378.26,886,740,0
44540,364.90,886,742,0
44550,351.17,886,741,0
44560,339.12,886,741,0
44570,327.68,886,741,0
44580,318.69,886,742,0
44590,310.86,886,741,0
44600,305.71,886,742,0
44610,301.86,886,740,0
44620,300.61,886,742,0
44631,300.26,886,740,0
44641,302.24,886,742,0
44651,304.65,886,740,0
44661,308.91,886,742,0
44672,313.27,886,740,0
44681,318.93,886,742,0
44691,323.97,886,740,0
44701,329.68,886,742,0
44711,334.19,886,740,0
44721,338.97,886,741,0
44731,342.58,886,740,0
44741,346.35,886,742,0
44751,348.73,886,740,0
44761,351.30,886,741,0
44771,352.71,886,740,0
44781,354.51,886,742,0
44791,355.13,886,740,0
44801,355.86,886,741,0
44811,355.26,886,740,0
44821,354.92,886,742,0
44831,353.45,886,740,0
44841,352.54,886,741,0
44851,351.18,886,740,0
44861,351.90,886,742,0
44871,354.76,886,740,0
44881,363.10,886,741,0
44891,377.34,886,740,0
44901,401.50,886,742,0
44911,435.42,886,740,0
44931,476.48,823,738,0
44934,520.86,823,742,0
44943,566.42,823,742,0
44953,609.62,823,740,0
44963,648.56,823,742,0
44973,679.42,823,740,0
44983,701.07,823,742,0
44993,716.22,823,740,0
45003,726.87,823,742,0
45014,734.32,823,740,0
45023,739.54,823,742,0
45033,743.15,823,740,0
45043,745.68,823,742,0
45053,747.44,823,740,0
45063,747.14,823,742,0
45073,740.93,823,740,0
45083,727.36,823,742,0
45093,704.67,823,740,0
45103,673.78,823,742,0
45113,634.46,823,740,0
45123,588.04,823,742,0
45133,536.85,823,740,0
45143,486.80,823,742,0
45153,440.27,823,740,0
45163,401.02,823,742,0
45173,369.21,823,740,0
45184,346.69,823,742,0
45193,332.51,823,740,0
45203,327.09,823,742,0
45213,328.48,823,740,0
45223,336.39,823,742,0
45233,348.27,823,741,0
45243,363.15,823,742,0
45253,378.32,823,740,0
45263,393.22,823,742,0
45273,405.63,823,740,0
45283,415.42,823,742,0
45293,420.95,823,740,0
45303,422.85,823,742,0
45313,420.33,823,740,0
45323,414.83,823,742,0
45333,405.84,823,740,0
45343,394.83,823,742,0
45353,381.68,823,740,0
45363,368.02,823,742,0
45373,353.61,823,740,0
45383,339.89,823,742,0
45393,326.63,823,740,0
45403,315.26,823,742,0
45413,305.28,823,740,0
45423,297.78,823,742,0
45433,292.15,823,740,0
45443,289.27,823,742,0
45453,288.29,823,740,0
45463,289.66,823,742,0
45473,292.29,823,740,0
45484,296.75,823,742,0
45494,301.84,823,740,0
45504,307.84,823,742,0
45514,313.76,823,740,0
45524,319.83,823,742,0
45534,325.28,823,740,0
45544,330.51,823,742,0
45554,334.86,823,740,0
45564,338.67,823,742,0
45574,341.56,823,740,0
45584,344.00,823,742,0
45594,346.19,823,741,0
45604,348.06,823,742,0
45614,349.50,823,740,0
45624,350.64,823,742,0
45634,351.13,823,740,0
45644,351.22,823,742,0
45655,350.90,823,740,0
45665,349.81,823,742,0
45675,348.37,823,741,0
45685,346.37,823,742,0
45696,344.12,823,740,0
45705,341.81,823,742,0
45715,339.64,823,741,0
45725,337.39,823,741,0
45735,335.77,823,740,0
45745,335.07,823,742,0
45755,336.81,823,741,0
45765,342.35,823,742,0
45775,354.07,823,740,0
45785,373.94,823,742,0
45795,404.68,823,741,0
45805,443.99,823,742,0
45815,488.74,823,741,0
45834,535.87,904,739,0
45837,582.54,904,742,0
45846,625.54,904,741,0
45856,662.02,904,741,0
45867,688.93,904,741,0
45876,707.76,904,741,0
45886,720.99,904,741,0
45896,730.21,904,741,0
45906,736.57,904,741,0
45916,741.03,904,741,0
45926,744.19,904,741,0
45936,746.41,904,741,0
45946,747.91,904,741,0
45956,748.97,904,741,0
45966,749.75,904,742,0
45976,750.30,904,741,0
45986,748.41,904,741,0
45996,741.43,904,741,0
46006,726.90,904,741,0
46016,704.13,904,741,0
46026,672.85,904,741,0
46036,634.49,904,741,0
46046,589.82,904,741,0
46056,542.77,904,741,0
46066,496.98,904,741,0
46076,457.13,904,741,0
46086,424.65,904,741,0
46096,401.31,904,741,0
46106,385.92,904,741,0
46116,378.66,904,741,0
46126,377.47,904,741,0
46136,381.75,904,741,0
46146,388.59,904,741,0
46156,397.29,904,741,0
46167,405.43,904,741,0
46177,412.71,904,741,0
46187,417.17,904,741,0
46197,419.22,904,741,0
46208,417.57,904,741,0
46217,413.37,904,741,0
46227,405.76,904,741,0
46237,396.23,904,742,0
46247,384.16,904,741,0
46257,371.56,904,741,0
46267,357.85,904,741,0
46277,345.04,904,741,0
46287,332.30,904,741,0
46297,321.62,904,742,0
46307,312.01,904,740,0
46317,305.06,904,741,0
46327,299.47,904,741,0
46337,296.59,904,742,0
46347,295.00,904,741,0
46357,295.90,904,741,0
46367,297.69,904,741,0
46377,301.42,904,742,0
46387,305.62,904,741,0
46397,311.18,904,741,0
46407,316.53,904,741,0
46417,322.71,904,742,0
46427,328.24,904,741,0
46437,334.21,904,741,0
46447,339.03,904,741,0
46457,343.95,904,741,0
46467,347.78,904,741,0
46477,351.92,904,742,0
46487,354.81,904,741,0
46497,357.78,904,742,0
46508,359.31,904,740,0
46518,361.06,904,742,0
46528,361.38,904,740,0
46538,361.74,904,742,0
46548,360.57,904,740,0
46558,359.67,904,742,0
46568,357.59,904,740,0
46578,355.82,904,742,0
46588,352.88,904,740,0
46598,350.60,904,742,0
46608,347.63,904,741,0
46618,345.82,904,742,0
46628,344.03,904,740,0
46638,344.79,904,742,0
46648,348.20,904,740,0
46658,357.99,904,742,0
46668,375.10,904,740,0
46679,403.82,904,742,0
46689,441.21,904,740,0
46699,484.82,904,742,0
46709,531.03,904,740,0
46729,577.86,894,739,0
46731,621.36,894,743,0
46741,659.10,894,742,0
46751,686.84,894,740,0
46761,706.30,894,742,0
46771,719.93,894,740,0
46781,729.50,894,742,0
46791,736.17,894,740,0
46801,740.83,894,742,0
46811,744.10,894,740,0
46821,746.42,894,742,0
46831,748.01,894,740,0
46841,749.12,894,742,0
46851,749.90,894,741,0
46861,749.37,894,742,0
46871,742.96,894,740,0
46881,728.57,894,742,0
46892,704.70,894,740,0
46902,671.88,894,742,0
46912,630.68,894,740,0
46922,582.65,894,742,0
46932,530.43,894,740,0
46942,480.50,894,742,0
46952,436.42,894,740,0
46962,401.45,894,742,0
46972,376.20,894,741,0
46982,361.06,894,742,0
46992,354.78,894,740,0
47002,356.48,894,742,0
47012,363.79,894,741,0
47022,375.17,894,742,0
47032,387.97,894,740,0
47042,400.92,894,742,0
47052,412.13,894,741,0
47063,420.75,894,742,0
47073,425.50,894,741,0
47083,426.38,894,742,0
47093,423.13,894,741,0
47104,416.28,894,742,0
47113,406.08,894,741,0
47123,393.50,894,742,0
47133,379.29,894,741,0
47143,364.08,894,742,0
47153,348.80,894,741,0
47163,334.16,894,742,0
47173,320.91,894,741,0
47183,309.19,894,742,0
47193,299.66,894,741,0
47203,292.61,894,742,0
47213,288.35,894,741,0
47223,286.53,894,742,0
47233,287.02,894,741,0
47243,289.71,894,741,0
47253,294.43,894,741,0
47263,300.38,894,742,0
47273,307.17,894,741,0
47283,314.36,894,741,0
47293,321.84,894,741,0
47303,329.17,894,742,0
47313,336.15,894,741,0
47323,342.58,894,741,0
47333,348.40,894,741,0
47343,353.25,894,742,0
47353,357.42,894,741,0
47363,360.68,894,741,0
47373,363.30,894,741,0
47383,365.06,894,742,0
47393,366.28,894,741,0
47404,366.84,894,741,0
47414,367.23,894,741,0
47424,366.78,894,741,0
47434,366.07,894,741,0
47444,364.59,894,741,0
47454,363.22,894,741,0
47464,361.35,894,741,0
47474,359.53,894,741,0
47484,357.14,894,741,0
47494,355.21,894,741,0
47504,353.39,894,741,0
47514,353.23,894,741,0
47524,355.01,894,741,0
47534,361.13,894,741,0
47544,373.61,894,741,0
47554,396.52,894,742,0
47564,429.80,894,741,0
47575,470.36,894,742,0
47585,514.95,894,742,0
47595,561.17,894,742,0
47614,605.90,886,740,0
47617,646.17,886,743,0
47627,677.79,886,741,0
47637,699.97,886,742,0
47647,715.45,886,740,0
47657,726.33,886,742,0
47667,733.94,886,741,0
47677,739.32,886,742,0
47687,743.04,886,740,0
47697,745.64,886,742,0
47707,747.46,886,741,0
47717,748.78,886,742,0
47727,749.66,886,740,0
47737,750.28,886,742,0
47747,749.04,886,741,0
47757,742.77,886,742,0
47767,728.05,886,740,0
47777,704.42,886,742,0
47788,671.42,886,741,0
47798,630.67,886,742,0
47808,582.60,886,740,0
47818,531.16,886,742,0
47828,480.58,886,740,0
47838,436.57,886,742,0
47848,400.14,886,740,0
47858,373.65,886,742,0
47868,355.84,886,740,0
47878,347.53,886,742,0
47888,346.04,886,740,0
47898,351.22,886,742,0
47908,359.64,886,740,0
47918,371.06,886,742,0
47928,382.10,886,740,0
47938,392.66,886,742,0
47948,400.09,886,740,0
47959,404.95,886,742,0
47969,405.22,886,740,0
47979,402.41,886,742,0
47989,395.34,886,740,0
48000,386.07,886,742,0
48009,373.92,886,740,0
48019,361.04,886,742,0
48029,346.97,886,741,0
48039,333.74,886,742,0
48049,320.75,886,740,0
48059,309.85,886,742,0
48069,300.25,886,741,0
48079,293.32,886,743,0
48089,288.00,886,741,0
48099,285.51,886,742,0
48109,284.63,886,741,0
48119,286.24,886,742,0
48129,288.91,886,741,0
48139,293.65,886,743,0
48149,298.90,886,741,0
48159,305.44,886,743,0
48169,311.70,886,741,0
48179,318.52,886,742,0
48189,324.53,886,741,0
48199,330.80,886,743,0
48209,335.92,886,741,0
48219,341.09,886,742,0
48229,345.00,886,741,0
48239,348.73,886,742,0
48249,351.34,886,741,0
48259,354.02,886,742,0
48269,355.56,886,740,0
48279,357.06,886,742,0
48289,357.43,886,741,0
48300,357.86,886,742,0
48310,357.51,886,741,0
48320,357.23,886,742,0
48330,356.05,886,741,0
48340,354.88,886,742,0
48350,353.03,886,741,0
48360,351.39,886,742,0
48370,349.17,886,741,0
48380,347.15,886,742,0
48390,344.92,886,741,0
48400,343.79,886,742,0
48410,344.06,886,741,0
48420,347.82,886,741,0
48430,356.40,886,740,0
48440,373.42,886,742,0
48450,401.28,886,741,0
48460,438.65,886,742,0
48471,481.92,886,741,0
48481,528.53,886,742,0
48500,575.30,886,741,0
48503,619.57,886,742,0
48513,657.45,886,742,0
48523,685.77,886,742,0
48533,705.60,886,742,0
48543,719.48,886,741,0
48553,729.19,886,742,0
48563,735.99,886,742,0
48573,740.79,886,742,0
48583,744.11,886,741,0
48593,746.44,886,742,0
48603,748.06,886,742,0
48613,749.20,886,742,0
48623,749.95,886,741,0
48633,747.18,886,742,0
48643,737.74,886,742,0
48653,719.91,886,742,0
48663,692.42,886,741,0
48673,656.12,886,741,0
48684,611.30,886,741,0
48694,559.95,886,742,0
48704,506.22,886,741,0
48714,455.63,886,742,0
48724,410.91,886,741,0
48734,375.24,886,742,0
48744,348.42,886,741,0
48754,331.80,886,742,0
48764,323.33,886,741,0
48774,323.02,886,742,0
48784,327.81,886,741,0
48794,337.34,886,742,0
48804,348.55,886,741,0
48814,361.11,886,741,0
48824,372.22,886,741,0
48834,382.18,886,741,0
48844,388.77,886,741,0
48855,393.00,886,742,0
48865,393.00,886,741,0
48875,390.43,886,742,0
48885,383.87,886,741,0
48896,375.34,886,742,0
48905,363.84,886,741,0
48915,351.80,886,742,0
48925,338.45,886,741,0
48935,326.23,886,742,0
48945,314.20,886,741,0
48955,304.58,886,742,0
48965,296.22,886,741,0
48975,291.01,886,742,0
48985,287.32,886,741,0
48995,286.76,886,742,0
49005,287.51,886,741,0
49015,290.87,886,742,0
49025,294.98,886,741,0
49035,301.03,886,742,0
49045,306.98,886,741,0
49055,314.19,886,742,0
49065,320.64,886,740,0
49075,327.87,886,742,0
49085,334.08,886,741,0
49095,340.78,886,742,0
49105,346.20,886,741,0
49115,352.01,886,742,0
49125,356.42,886,741,0
49135,361.05,886,742,0
49145,364.08,886,741,0
49155,367.19,886,742,0
49165,368.76,886,741,0
49175,370.42,886,742,0
49185,370.46,886,741,0
49196,370.50,886,742,0
49206,369.06,886,741,0
49216,367.76,886,742,0
49226,365.09,886,741,0
49236,362.53,886,742,0
49246,358.69,886,741,0
49256,355.22,886,742,0
49266,350.87,886,741,0
49276,347.40,886,742,0
49286,344.06,886,741,0
49296,343.62,886,742,0
49306,346.60,886,741,0
49316,357.14,886,742,0
49326,376.25,886,741,0
49336,408.06,886,743,0
49346,448.03,886,741,0
49356,493.79,886,742,0
49367,541.60,886,741,0
49386,589.08,886,740,0
49389,631.95,886,742,0
49398,667.92,886,743,0
49409,693.10,886,741,0
49419,710.73,886,743,0
49429,723.07,886,741,0
49439,731.70,886,742,0
49449,737.75,886,741,0
49459,742.03,886,743,0
49469,745.02,886,741,0
49479,747.11,886,742,0
49489,748.58,886,742,0
49499,749.61,886,743,0
49509,747.24,886,741,0
49519,738.12,886,742,0
49529,720.00,886,741,0
49539,692.66,886,742,0
49549,656.12,886,741,0
49559,611.47,886,742,0
49569,559.90,886,741,0
49580,506.36,886,742,0
49590,456.06,886,741,0
49600,412.97,886,742,0
49610,379.08,886,741,0
49620,355.44,886,742,0
49630,341.90,886,741,0
49640,337.77,886,742,0
49650,341.35,886,741,0
49660,350.55,886,742,0
49670,363.37,886,741,0
49680,377.19,886,742,0
49690,390.33,886,741,0
49700,401.07,886,742,0
49710,408.68,886,741,0
49720,412.55,886,742,0
49730,412.68,886,742,0
49740,408.84,886,742,0
49751,401.90,886,742,0
49761,391.94,886,741,0
49771,380.39,886,742,0
49781,367.16,886,742,0
49792,353.48,886,742,0
49801,339.62,886,741,0
49811,327.18,886,742,0
49821,315.85,886,742,0
49831,307.24,886,742,0
49841,300.57,886,742,0
49851,296.84,886,742,0
49861,295.35,886,742,0
49871,296.91,886,742,0
49881,299.98,886,742,0
49891,305.09,886,742,0
49901,310.72,886,742,0
49911,317.49,886,742,0
49921,324.20,886,742,0
49931,331.21,886,742,0
49941,337.10,886,742,0
49951,342.82,886,742,0
49961,347.41,886,742,0
49971,351.88,886,742,0
49981,355.17,886,742,0
49991,358.25,886,742,0
50001,360.10,886,742,0
50011,361.91,886,742,0
50021,362.84,886,742,0
50031,364.09,886,742,0
50041,364.58,886,742,0
50051,365.52,886,742,0
50061,366.09,886,742,0
50071,367.22,886,742,0
50081,367.88,886,742,0
50092,369.03,886,742,0
50102,369.37,886,742,0
50112,369.94,886,742,0
50122,369.57,886,742,0
50132,369.57,886,742,0
50142,369.62,886,742,0
50152,372.09,886,742,0
50162,377.89,886,742,0
50172,391.59,886,742,0
50182,414.60,886,742,0
50192,447.68,886,743,0
50202,486.99,886,742,0
50212,530.58,886,742,0
50231,575.10,845,741,0
50233,618.27,845,745,0
50243,655.56,845,742,0
50253,684.67,845,743,0
50263,704.99,845,742,0
50273,719.27,845,743,0
50283,729.22,845,742,0
50293,736.22,845,743,0
50304,741.08,845,741,0
50313,744.53,845,743,0
50323,746.90,845,742,0
50333,748.60,845,743,0
50343,749.75,845,742,0
50353,750.60,845,743,0
50363,748.10,845,742,0
50373,739.71,845,742,0
50383,722.40,845,741,0
50393,696.44,845,743,0
50403,661.03,845,741,0
50413,617.87,845,742,0
50423,567.16,845,741,0
50433,514.53,845,743,0
50443,463.58,845,741,0
50453,419.87,845,742,0
50463,383.91,845,741,0
50473,358.56,845,743,0
50483,342.24,845,741,0
50493,336.08,845,742,0
50503,337.08,845,741,0
50513,344.95,845,743,0
50523,356.19,845,741,0
50533,370.19,845,742,0
50543,383.42,845,741,0
50553,396.06,845,743,0
50563,405.22,845,741,0
50573,411.62,845,743,0
50583,413.24,845,741,0
50593,411.41,845,743,0
50604,404.99,845,741,0
50614,396.03,845,742,0
50624,383.59,845,741,0
50634,370.13,845,742,0
50644,354.79,845,741,0
50654,340.24,845,742,0
50664,325.72,845,741,0
50674,313.46,845,742,0
50684,302.44,845,741,0
50694,294.59,845,742,0
50704,288.50,845,741,0
50714,285.78,845,742,0
50724,284.82,845,741,0
50734,286.84,845,742,0
50744,290.06,845,741,0
50754,295.70,845,743,0
50764,301.92,845,741,0
50775,309.83,845,743,0
50785,317.68,845,741,0
50795,326.35,845,743,0
50805,334.26,845,741,0
50816,342.45,845,742,0
50825,349.47,845,741,0
50835,356.36,845,742,0
50845,361.57,845,741,0
50855,366.28,845,742,0
50865,369.50,845,741,0
50875,372.39,845,742,0
50885,373.77,845,741,0
50895,374.96,845,742,0
50905,374.80,845,741,0
50915,374.77,845,742,0
50925,373.77,845,741,0
50935,372.64,845,742,0
50945,370.35,845,741,0
50955,368.19,845,743,0
50965,364.83,845,741,0
50975,361.50,845,742,0
50985,357.15,845,741,0
50995,353.03,845,742,0
51005,348.61,845,741,0
51015,346.03,845,742,0
51025,345.80,845,741,0
51035,351.09,845,743,0
51045,363.49,845,741,0
51055,387.52,845,743,0
51065,422.25,845,741,0
51075,464.77,845,743,0
51085,511.34,845,741,0
51095,559.41,845,743,0
51115,605.40,883,741,0
51117,646.51,883,743,0
51127,678.16,883,741,0
51137,700.31,883,742,0
51147,715.82,883,741,0
51158,726.67,883,742,0
51167,734.27,883,741,0
51177,739.59,883,742,0
51187,743.31,883,741,0
51197,745.92,883,742,0
51207,747.74,883,741,0
51217,749.02,883,742,0
51227,747.26,883,741,0
51237,738.87,883,742,0
51247,722.02,883,741,0
51257,695.61,883,742,0
51267,659.73,883,741,0
51277,615.11,883,742,0
51287,562.96,883,741,0
51297,507.43,883,743,0
51307,453.77,883,741,0
51317,405.67,883,742,0
51328,366.00,883,742,0
51337,336.17,883,742,0
51347,316.66,883,741,0
51357,307.08,883,742,0
51367,306.58,883,741,0
51377,313.61,883,742,0
51387,326.33,883,741,0
51397,342.51,883,742,0
51407,360.27,883,741,0
51417,377.68,883,742,0
51427,393.16,883,741,0
51437,405.33,883,742,0
51447,413.59,883,742,0
51457,417.40,883,742,0
51467,416.85,883,741,0
51477,412.01,883,742,0
51487,403.56,883,742,0
51497,392.21,883,742,0
51507,379.03,883,741,0
51517,364.75,883,742,0
51527,350.38,883,742,0
51537,336.64,883,742,0
51547,324.36,883,741,0
51557,313.75,883,742,0
51567,305.26,883,742,0
51577,298.49,883,742,0
51587,293.80,883,742,0
51597,290.99,883,743,0
51607,289.96,883,743,0
51617,290.23,883,743,0
51628,292.09,883,743,0
51638,294.85,883,743,0
51648,298.92,883,743,0
51658,303.45,883,743,0
51668,308.71,883,743,0
51678,313.98,883,743,0
51688,319.60,883,743,0
51698,324.74,883,743,0
51708,330.04,883,742,0
51718,334.75,883,743,0
51728,339.58,883,743,0
51738,343.56,883,743,0
51748,347.47,883,743,0
51758,350.63,883,743,0
51768,353.61,883,743,0
51778,355.44,883,743,0
51788,356.98,883,743,0
51799,357.07,883,742,0
51809,356.66,883,743,0
51819,354.79,883,743,0
51829,352.37,883,743,0
51840,348.36,883,742,0
51849,344.22,883,743,0
51859,338.93,883,743,0
51869,334.11,883,743,0
51879,328.55,883,742,0
51889,323.88,883,743,0
51899,319.03,883,743,0
51909,315.64,883,743,0
51919,312.36,883,742,0
51929,310.54,883,743,0
51939,309.18,883,742,0
51949,310.62,883,743,0
51959,314.98,883,742,0
51969,325.23,883,743,0
51979,342.99,883,742,0
51989,372.35,883,743,0
51999,411.59,883,742,0
52009,457.87,883,743,0
52028,507.41,914,742,0
52030,557.69,914,744,0
52040,605.18,914,742,0
52050,646.74,914,743,0
52060,678.28,914,742,0
52070,700.39,914,743,0
52080,715.87,914,742,0
52090,726.71,914,743,0
52100,734.30,914,742,0
52110,739.61,914,743,0
52120,743.33,914,742,0
52130,745.93,914,744,0
52140,747.75,914,743,0
52150,745.30,914,744,0
52160,734.71,914,742,0
52170,714.82,914,743,0
52180,684.53,914,742,0
52190,645.16,914,743,0
52200,596.55,914,742,0
52210,540.80,914,744,0
52220,482.19,914,742,0
52230,427.32,914,743,0
52240,378.37,914,742,0
52250,339.00,914,744,0
52260,308.61,914,742,0
52270,289.40,914,744,0
52280,279.42,914,742,0
52290,279.60,914,744,0
52300,286.79,914,742,0
52311,300.78,914,744,0
52321,317.82,914,742,0
52331,337.54,914,744,0
52341,356.32,914,742,0
52352,374.10,914,744,0
52361,387.78,914,742,0
52371,397.96,914,744,0
52381,402.60,914,742,0
52391,403.19,914,744,0
52401,398.38,914,742,0
52411,390.38,914,744,0
52421,378.39,914,742,0
52431,364.95,914,744,0
52441,349.49,914,742,0
52451,334.43,914,743,0
52461,319.09,914,742,0
52471,305.77,914,744,0
52481,293.46,914,742,0
52491,284.19,914,743,0
52501,276.63,914,742,0
52511,272.42,914,744,0
52521,270.02,914,742,0
52531,270.87,914,744,0
52541,273.01,914,742,0
52551,277.76,914,744,0
52561,283.15,914,742,0
52571,290.30,914,743,0
52581,297.37,914,742,0
52591,305.44,914,744,0
52601,312.73,914,742,0
52611,320.52,914,743,0
52621,327.09,914,742,0
52631,333.71,914,744,0
52641,338.68,914,742,0
52652,343.41,914,743,0
52662,346.37,914,742,0
52672,348.92,914,743,0
52682,349.67,914,742,0
52692,350.03,914,743,0
52702,348.69,914,742,0
52712,347.33,914,744,0
52722,344.53,914,742,0
52732,341.84,914,743,0
52742,338.25,914,742,0
52752,335.26,914,744,0
52762,331.79,914,742,0
52772,329.07,914,743,0
52782,326.01,914,742,0
52792,323.95,914,744,0
52802,321.78,914,742,0
52812,320.52,914,743,0
52823,318.99,914,742,0
52833,318.09,914,743,0
52843,317.08,914,742,0
52853,316.58,914,743,0
52864,316.02,914,742,0
52873,316.23,914,743,0
52883,316.93,914,742,0
52893,320.08,914,743,0
52903,326.79,914,742,0
52913,339.45,914,743,0
52923,360.19,914,742,0
52933,391.97,914,743,0
52943,432.48,914,742,0
52962,478.79,934,740,0
52965,527.46,934,743,0
52974,575.66,934,743,0
52984,620.29,934,742,0
52994,658.35,934,743,0
53004,686.40,934,742,0
53014,706.08,934,743,0
53024,719.86,934,742,0
53035,729.50,934,743,0
53044,736.25,934,742,0
53054,740.97,934,743,0
53064,744.28,934,742,0
53074,745.65,934,743,0
53084,741.43,934,742,0
53094,729.00,934,743,0
53104,706.80,934,741,0
53114,674.80,934,742,0
53124,633.85,934,742,0
53134,584.74,934,743,0
53144,529.49,934,742,0
53154,473.41,934,743,0
53164,420.96,934,742,0
53174,375.59,934,743,0
53184,338.90,934,742,0
53194,311.58,934,743,0
53204,294.22,934,742,0
53214,286.53,934,743,0
53224,287.66,934,742,0
53234,296.29,934,743,0
53244,310.77,934,742,0
53254,329.23,934,743,0
53264,349.86,934,742,0
53274,370.26,934,742,0
53284,389.21,934,742,0
53294,405.22,934,743,0
53304,417.50,934,742,0
53314,425.36,934,743,0
53324,428.72,934,742,0
53335,427.26,934,742,0
53345,422.00,934,742,0
53355,413.00,934,743,0
53365,401.51,934,742,0
53376,387.73,934,742,0
53385,372.77,934,742,0
53395,357.11,934,743,0
53405,341.91,934,743,0
53415,327.28,934,743,0
53425,314.34,934,742,0
53435,302.96,934,743,0
53445,294.27,934,742,0
53455,287.59,934,743,0
53465,283.69,934,742,0
53475,281.94,934,743,0
53485,282.94,934,742,0
53495,285.57,934,742,0
53505,290.24,934,742,0
53515,295.87,934,743,0
53525,302.90,934,743,0
53535,310.08,934,742,0
53545,317.86,934,742,0
53555,325.14,934,742,0
53565,332.47,934,742,0
53575,338.89,934,743,0
53585,344.92,934,742,0
53595,349.83,934,743,0
53605,354.25,934,742,0
53615,357.31,934,743,0
53625,359.79,934,742,0
53635,361.09,934,742,0
53645,362.09,934,742,0
53655,361.89,934,743,0
53665,361.45,934,742,0
53676,360.08,934,742,0
53686,358.94,934,743,0
53696,357.03,934,742,0
53706,355.61,934,742,0
53716,353.54,934,742,0
53726,352.18,934,743,0
53736,350.32,934,742,0
53746,349.24,934,742,0
53756,347.67,934,742,0
53766,346.87,934,743,0
53776,345.49,934,743,0
53786,344.75,934,742,0
53796,343.58,934,742,0
53806,343.88,934,743,0
53816,345.54,934,742,0
53826,351.72,934,742,0
53836,363.51,934,742,0
53847,385.21,934,743,0
53857,417.85,934,742,0
53867,458.48,934,743,0
53877,503.59,934,742,0
53897,550.94,934,741,0
53900,596.95,934,742,0
53909,639.05,934,743,0
53919,672.93,934,742,0
53929,696.70,934,744,0
53939,713.33,934,742,0
53949,724.97,934,743,0
53959,733.12,934,742,0
53969,738.79,934,744,0
53979,742.75,934,742,0
53989,745.53,934,744,0
53999,747.43,934,742,0
54009,748.75,934,744,0
54019,749.64,934,742,0
54029,750.26,934,744,0
54039,749.84,934,742,0
54049,745.30,934,744,0
54060,733.56,934,742,0
54070,713.89,934,743,0
54080,685.51,934,742,0
54090,649.70,934,743,0
54100,606.93,934,742,0
54110,560.07,934,743,0
54120,512.95,934,742,0
54130,470.62,934,743,0
54140,434.78,934,742,0
54150,407.84,934,743,0
54160,389.12,934,742,0
54170,379.18,934,743,0
54180,375.87,934,742,0
54190,378.95,934,743,0
54200,385.70,934,742,0
54210,395.39,934,743,0
54220,405.39,934,742,0
54231,414.91,934,743,0
54241,421.88,934,742,0
54251,426.37,934,743,0
54261,427.03,934,742,0
54272,424.49,934,743,0
54281,418.17,934,742,0
54291,409.34,934,743,0
54301,397.96,934,742,0
54311,385.38,934,743,0
54321,371.63,934,741,0
54331,358.29,934,743,0
54341,345.64,934,742,0
54351,334.65,934,743,0
54361,325.24,934,742,0
54371,318.35,934,743,0
54381,313.79,934,742,0
54391,312.05,934,743,0
54401,312.51,934,742,0
54411,315.44,934,743,0
54421,320.02,934,742,0
54431,326.23,934,743,0
54441,333.19,934,742,0
54451,340.85,934,743,0
54461,348.26,934,742,0
54471,355.60,934,743,0
54481,362.15,934,742,0
54491,368.19,934,743,0
54501,373.02,934,742,0
54511,376.91,934,743,0
54521,379.55,934,742,0
54531,381.44,934,743,0
54541,382.21,934,742,0
54551,382.15,934,743,0
54561,381.07,934,742,0
54572,379.51,934,743,0
54582,377.43,934,742,0
54592,375.07,934,743,0
54602,372.56,934,742,0
54612,369.91,934,743,0
54622,367.36,934,742,0
54632,364.94,934,743,0
54642,362.64,934,742,0
54652,360.22,934,743,0
54662,357.80,934,742,0
54672,355.12,934,743,0
54682,352.47,934,742,0
54692,349.58,934,743,0
54702,347.14,934,742,0
54712,345.94,934,743,0
54722,348.06,934,742,0
54732,355.41,934,743,0
54743,371.27,934,742,0
54753,398.45,934,743,0
54763,435.39,934,742,0
54773,478.77,934,743,0
54793,525.81,896,741,0
54796,573.27,896,743,0
54805,618.14,896,743,0
54815,656.59,896,742,0
54825,685.21,896,743,0
54835,705.25,896,742,0
54845,719.27,896,743,0
54855,729.09,896,742,0
54865,735.96,896,743,0
54875,740.77,896,743,0
54885,744.14,896,743,0
54895,746.50,896,742,0
54905,748.15,896,743,0
54915,749.30,896,743,0
54925,750.11,896,743,0
54935,750.68,896,742,0
54945,751.08,896,743,0
54956,748.05,896,742,0
54966,739.21,896,743,0
54976,722.05,896,742,0
54986,696.70,896,743,0
54996,663.15,896,742,0
55006,623.33,896,743,0
55016,577.80,896,742,0
55026,532.13,896,744,0
55036,489.41,896,743,0
55046,454.19,896,744,0
55056,426.62,896,742,0
55066,408.22,896,744,0
55076,396.67,896,742,0
55086,392.22,896,744,0
55096,391.86,896,742,0
55106,395.50,896,744,0
55116,399.94,896,742,0
55127,405.31,896,744,0
55137,408.90,896,742,0
55147,411.46,896,744,0
55157,410.94,896,742,0
55168,408.56,896,743,0
55177,402.90,896,742,0
55187,395.86,896,744,0
55197,386.00,896,742,0
55207,375.37,896,743,0
55217,363.13,896,742,0
55227,351.48,896,744,0
55237,339.64,896,742,0
55247,329.42,896,743,0
55257,320.89,896,743,0
55267,314.54,896,744,0
55277,309.11,896,742,0
55287,306.12,896,744,0
55297,304.20,896,742,0
55307,304.65,896,744,0
55317,305.91,896,742,0
55327,307.87,896,744,0
55337,310.44,896,742,0
55347,314.85,896,743,0
55357,319.39,896,742,0
55367,325.15,896,744,0
55377,330.33,896,742,0
55387,336.32,896,744,0
55397,341.58,896,742,0
55407,347.23,896,744,0
55417,351.84,896,742,0
55427,356.38,896,744,0
55437,359.53,896,742,0
55447,362.50,896,744,0
55457,363.81,896,742,0
55468,364.81,896,743,0
55478,364.52,896,742,0
55488,363.98,896,743,0
55498,362.31,896,742,0
55508,360.68,896,743,0
55518,358.25,896,742,0
55528,356.29,896,743,0
55538,353.80,896,742,0
55548,351.67,896,743,0
55558,349.03,896,742,0
55568,346.79,896,743,0
55578,343.90,896,742,0
55588,341.31,896,744,0
55598,338.09,896,742,0
55608,335.79,896,744,0
55618,334.65,896,742,0
55628,337.42,896,744,0
55639,345.52,896,742,0
55649,362.59,896,744,0
55659,390.57,896,742,0
55669,428.80,896,744,0
55680,473.35,896,743,0
55698,521.54,906,741,0
55701,569.72,906,742,0
55710,615.11,906,743,0
55720,653.99,906,743,0
55730,683.35,906,744,0
55740,703.90,906,742,0
55750,718.29,906,743,0
55760,728.36,906,743,0
55770,735.45,906,743,0
55780,740.42,906,742,0
55790,743.89,906,743,0
55800,746.32,906,743,0
55810,748.03,906,744,0
55820,744.89,906,742,0
55830,734.04,906,743,0
55840,713.75,906,742,0
55851,683.87,906,743,0
55860,645.21,906,742,0
55870,598.56,906,743,0
55880,545.21,906,743,0
55890,490.76,906,743,0
55900,439.87,906,742,0
55910,395.85,906,743,0
55920,360.54,906,743,0
55930,334.11,906,743,0
55940,316.85,906,742,0
55950,308.41,906,743,0
55960,308.24,906,743,0
55970,314.64,906,743,0
55980,326.23,906,742,0
55990,340.91,906,743,0
56000,357.35,906,742,0
56010,373.92,906,743,0
56020,389.28,906,742,0
56030,402.06,906,743,0
56040,411.64,906,742,0
56050,417.15,906,743,0
56060,418.90,906,743,0
56070,416.62,906,743,0
56080,410.65,906,742,0
56090,400.90,906,743,0
56100,388.41,906,743,0
56110,373.80,906,743,0
56120,358.39,906,743,0
56130,342.42,906,743,0
56140,327.42,906,743,0
56151,313.71,906,743,0
56161,302.61,906,743,0
56171,293.60,906,743,0
56181,287.63,906,743,0
56192,283.80,906,743,0
56201,282.87,906,743,0
56211,283.64,906,743,0
56221,286.58,906,743,0
56231,290.35,906,743,0
56241,295.56,906,743,0
56251,300.83,906,743,0
56261,306.97,906,743,0
56271,312.55,906,743,0
56281,318.30,906,743,0
56291,323.27,906,743,0
56301,328.46,906,743,0
56311,332.82,906,743,0
56321,337.33,906,743,0
56331,341.09,906,743,0
56341,345.22,906,743,0
56351,348.41,906,743,0
56361,351.63,906,743,0
56371,353.58,906,743,0
56381,355.17,906,743,0
56391,355.24,906,743,0
56401,354.70,906,743,0
56411,352.43,906,743,0
56421,349.69,906,743,0
56431,345.41,906,742,0
56441,341.22,906,743,0
56451,336.87,906,743,0
56461,334.68,906,743,0
56471,335.46,906,743,0
56481,342.52,906,743,0
56492,357.54,906,743,0
56502,384.03,906,744,0
56512,421.01,906,743,0
56522,465.36,906,744,0
56532,513.30,906,743,0
56551,562.11,853,742,0
56553,607.98,853,744,0
56563,648.23,853,744,0
56573,679.32,853,743,0
56583,701.08,853,744,0
56593,716.31,853,742,0
56603,726.98,853,744,0
56613,734.44,853,743,0
56623,739.71,853,744,0
56633,743.40,853,742,0
56643,744.61,853,744,0
56653,739.28,853,743,0
56663,726.38,853,744,0
56673,703.68,853,742,0
56683,671.89,853,744,0
56693,630.57,853,742,0
56704,581.20,853,744,0
56713,525.81,853,742,0
56723,470.84,853,744,0
56733,418.22,853,742,0
56743,372.64,853,744,0
56753,334.30,853,742,0
56763,306.01,853,744,0
56773,286.64,853,742,0
56783,277.45,853,744,0
56793,276.07,853,742,0
56803,283.08,853,743,0
56813,295.31,853,742,0
56823,312.57,853,744,0
56833,331.22,853,742,0
56843,351.17,853,743,0
56853,369.03,853,742,0
56863,385.14,853,744,0
56873,396.67,853,742,0
56883,404.74,853,743,0
56893,407.43,853,742,0
56903,406.40,853,743,0
56913,400.45,853,742,0
56923,391.79,853,743,0
56933,379.55,853,742,0
56943,366.31,853,744,0
56953,351.18,853,742,0
56963,336.64,853,743,0
56973,322.09,853,742,0
56983,309.76,853,744,0
56993,298.48,853,742,0
57004,290.41,853,743,0
57014,284.07,853,742,0
57024,281.26,853,744,0
57034,280.24,853,742,0
57044,282.18,853,744,0
57054,285.09,853,742,0
57064,290.16,853,744,0
57074,295.30,853,742,0
57084,301.64,853,743,0
57094,307.36,853,742,0
57104,313.55,853,744,0
57114,318.70,853,742,0
57124,323.98,853,743,0
57134,327.93,853,742,0
57144,331.98,853,744,0
57154,334.68,853,742,0
57164,337.35,853,743,0
57175,338.70,853,742,0
57185,339.95,853,744,0
57195,340.01,853,742,0
57205,340.09,853,743,0
57216,339.08,853,742,0
57225,338.28,853,744,0
57235,336.53,853,742,0
57245,335.04,853,743,0
57255,332.67,853,742,0
57265,330.54,853,744,0
57275,327.64,853,742,0
57285,325.05,853,743,0
57295,321.86,853,742,0
57305,319.29,853,744,0
57315,316.76,853,742,0
57325,316.23,853,743,0
57335,318.43,853,742,0
57345,325.93,853,744,0
57355,340.14,853,742,0
57365,364.53,853,743,0
57375,400.20,853,742,0
57385,444.07,853,744,0
57395,492.35,853,743,0
57414,542.13,863,741,0
57417,590.18,863,744,0
57426,633.67,863,744,0
57436,668.95,863,743,0
57446,693.87,863,743,0
57456,711.31,863,743,0
57466,723.51,863,744,0
57476,732.06,863,742,0
57486,738.04,863,744,0
57496,742.23,863,743,0
57506,745.16,863,744,0
57516,747.21,863,742,0
57526,747.06,863,744,0
57536,741.13,863,742,0
57546,727.63,863,743,0
57556,705.50,863,742,0
57566,675.14,863,743,0
57576,636.70,863,742,0
57586,591.02,863,743,0
57596,540.83,863,743,0
57606,491.21,863,743,0
57616,445.20,863,742,0
57626,405.50,863,744,0
57636,372.91,863,743,0
57646,348.42,863,744,0
57656,331.88,863,742,0
57666,322.92,863,744,0
57676,320.63,863,743,0
57687,324.08,863,743,0
57697,331.60,863,743,0
57707,341.79,863,743,0
57717,353.30,863,743,0
57728,364.78,863,743,0
57737,375.05,863,743,0
57747,383.09,863,743,0
57757,388.51,863,743,0
57767,390.80,863,743,0
57777,390.34,863,743,0
57787,386.90,863,743,0
57797,381.27,863,743,0
57807,373.52,863,743,0
57817,364.62,863,743,0
57827,354.71,863,743,0
57837,344.68,863,743,0
57847,334.40,863,743,0
57857,324.85,863,743,0
57867,316.16,863,744,0
57877,309.04,863,743,0
57887,303.15,863,743,0
57897,299.12,863,743,0
57907,296.73,863,743,0
57917,296.30,863,743,0
57927,297.24,863,743,0
57937,299.82,863,743,0
57947,303.39,863,743,0
57957,308.16,863,743,0
57967,313.13,863,743,0
57977,318.62,863,743,0
57987,323.87,863,744,0
57997,329.23,863,743,0
58007,333.79,863,744,0
58017,338.01,863,743,0
58028,341.22,863,743,0
58038,344.20,863,743,0
58048,345.85,863,743,0
58058,347.10,863,743,0
58068,347.20,863,743,0
58078,347.09,863,744,0
58088,345.95,863,743,0
58098,344.77,863,743,0
58108,342.82,863,743,0
58118,341.29,863,743,0
58128,339.32,863,743,0
58138,337.94,863,743,0
58148,335.90,863,743,0
58158,334.60,863,744,0
58168,332.79,863,743,0
58178,331.48,863,743,0
58188,329.67,863,743,0
58199,328.35,863,743,0
58209,326.40,863,743,0
58219,325.64,863,743,0
58229,325.19,863,743,0
58240,327.53,863,744,0
58249,332.77,863,743,0
58259,344.20,863,743,0
58269,362.87,863,743,0
58279,392.48,863,744,0
58289,431.04,863,743,0
58308,475.85,894,741,0
58311,523.13,894,742,0
58320,570.79,894,744,0
58330,615.08,894,743,0
58340,653.67,894,744,0
58350,682.96,894,743,0
58360,703.50,894,744,0
58370,717.88,894,743,0
58380,727.99,894,744,0
58390,735.06,894,742,0
58400,740.06,894,744,0
58411,743.55,894,743,0
58420,746.05,894,744,0
58430,747.75,894,742,0
58440,747.31,894,744,0
58450,741.04,894,743,0
58460,728.30,894,744,0
58470,707.13,894,742,0
58480,678.25,894,744,0
58490,641.40,894,743,0
58500,598.42,894,744,0
58510,551.11,894,742,0
58520,505.22,894,744,0
58530,462.17,894,743,0
58540,425.86,894,744,0
58550,396.16,894,742,0
58560,375.11,894,744,0
58570,360.89,894,743,0
58580,354.62,894,744,0
58590,353.88,894,742,0
58600,358.80,894,744,0
58610,366.66,894,742,0
58620,377.35,894,744,0
58630,387.92,894,742,0
58640,398.78,894,744,0
58650,407.25,894,742,0
58660,414.12,894,744,0
58670,417.42,894,742,0
58680,418.41,894,744,0
58690,415.55,894,742,0
58700,410.62,894,744,0
58711,402.64,894,742,0
58721,393.62,894,744,0
58731,382.59,894,742,0
58741,371.48,894,744,0
58752,359.51,894,742,0
58761,348.77,894,744,0
58771,338.30,894,742,0
58781,329.72,894,744,0
58791,322.13,894,742,0
58801,317.04,894,744,0
58811,313.25,894,742,0
58821,312.06,894,744,0
