Time,PPG,IBI,GSR,GSR_Event
901018,724.82,863,742,0
901028,732.85,863,743,0
901038,738.25,863,744,0
901048,741.95,863,743,0
901058,744.28,863,743,0
901068,745.65,863,743,0
901079,742.33,863,743,0
901089,731.64,863,743,0
901099,712.51,863,743,0
901109,684.07,863,743,0
901120,645.35,863,742,0
901129,591.20,863,739,0
901139,534.31,863,744,0
901149,479.96,863,744,0
901159,431.97,863,744,0
901169,392.00,863,744,0
901179,362.13,863,744,0
901189,343.79,863,744,0
901199,343.12,863,744,0
901209,347.50,863,744,0
901219,356.18,863,744,0
901229,368.04,863,744,0
901239,382.43,863,744,0
901249,397.43,863,744,0
901259,412.56,863,744,0
901269,425.89,863,744,0
901279,436.89,863,744,0
901289,444.25,863,744,0
901299,448.04,863,745,0
901309,447.47,863,744,0
901319,442.87,863,744,0
901329,434.08,863,744,0
901339,422.18,863,745,0
901349,407.34,863,744,0
901359,390.74,863,745,0
901369,372.82,863,744,0
901379,355.13,863,745,0
901389,338.08,863,744,0
901399,322.75,863,745,0
901409,309.20,863,744,0
901420,298.43,863,745,0
901430,290.33,863,744,0
901440,285.21,863,744,0
901450,282.84,863,744,0
901460,283.27,863,744,0
901470,286.06,863,744,0
901480,291.10,863,744,0
901490,297.88,863,744,0
901500,306.10,863,744,0
901510,315.29,863,744,0
901520,324.89,863,745,0
901530,334.61,863,744,0
901540,343.68,863,744,0
901550,351.96,863,744,0
901560,359.05,863,744,0
901570,364.82,863,744,0
901580,369.07,863,744,0
901591,371.84,863,744,0
901601,372.96,863,744,0
901611,373.18,863,744,0
901621,372.23,863,744,0
901632,370.75,863,744,0
901641,368.64,863,744,0
901651,366.56,863,744,0
901661,364.29,863,744,0
901671,362.40,863,744,0
901681,360.40,863,744,0
901691,358.78,863,745,0
901701,356.87,863,744,0
901711,355.24,863,744,0
901721,353.24,863,744,0
901731,351.50,863,745,0
901741,349.42,863,744,0
901751,347.45,863,744,0
901761,345.09,863,744,0
901771,343.09,863,745,0
901781,340.83,863,744,0
901791,339.21,863,744,0
901801,338.25,863,744,0
901811,339.76,863,744,0
901821,344.85,863,744,0
901831,356.72,863,744,0
901841,377.80,863,744,0
901851,410.61,863,745,0
901861,451.14,863,745,0
901880,496.70,903,744,0
901883,544.23,903,747,0
901892,591.22,903,747,0
901902,633.97,903,746,0
901912,668.95,903,747,0
901922,693.56,903,746,0
901932,710.92,903,747,0
901942,723.20,903,746,0
901952,731.80,903,746,0
901962,737.77,903,746,0
901972,741.96,903,747,0
901982,744.84,903,746,0
901992,746.82,903,747,0
902002,748.16,903,746,0
902012,746.95,903,747,0
902022,739.34,903,746,0
902032,723.34,903,746,0
902042,697.44,903,746,0
902052,662.46,903,747,0
902062,618.91,903,746,0
902072,568.49,903,747,0
902082,514.47,903,746,0
902092,463.29,903,747,0
902103,418.20,903,746,0
902113,382.91,903,747,0
902123,357.44,903,746,0
902133,342.95,903,747,0
902144,337.69,903,746,0
902153,341.30,903,747,0
902163,350.81,903,746,0
902173,365.27,903,747,0
902183,381.22,903,746,0
902193,397.87,903,747,0
902203,412.01,903,746,0
902213,423.79,903,747,0
902223,430.97,903,746,0
902233,434.23,903,747,0
902243,432.15,903,746,0
902253,426.28,903,747,0
902263,415.82,903,746,0
902273,403.06,903,747,0
902283,387.36,903,746,0
902293,371.09,903,747,0
902303,353.79,903,746,0
902313,337.83,903,747,0
902323,322.88,903,746,0
902333,310.74,903,747,0
902343,300.49,903,746,0
902353,293.70,903,747,0
902363,289.21,903,746,0
902373,288.29,903,747,0
902383,289.40,903,746,0
902393,293.39,903,747,0
902403,298.55,903,746,0
902413,305.97,903,747,0
902423,313.78,903,746,0
902433,322.67,903,747,0
902444,330.96,903,746,0
902454,339.54,903,747,0
902464,346.88,903,746,0
902474,354.29,903,747,0
902484,359.94,903,746,0
902494,365.27,903,747,0
902504,368.96,903,746,0
902514,372.32,903,747,0
902524,373.98,903,746,0
902534,375.31,903,747,0
902544,375.09,903,746,0
902554,374.55,903,747,0
902564,372.50,903,745,0
902574,370.68,903,747,0
902584,367.82,903,746,0
902594,365.34,903,747,0
902604,361.94,903,746,0
902615,359.09,903,747,0
902625,355.80,903,746,0
902635,353.38,903,747,0
902645,350.31,903,746,0
902656,347.99,903,747,0
902665,345.29,903,746,0
902675,343.62,903,747,0
902685,341.46,903,746,0
902695,340.17,903,747,0
902705,338.36,903,746,0
902715,337.35,903,747,0
902725,335.96,903,746,0
902735,335.80,903,747,0
902745,336.37,903,746,0
902755,340.42,903,747,0
902765,349.12,903,745,0
902775,366.57,903,747,0
902785,394.04,903,746,0
902795,431.53,903,747,0
902814,475.00,934,746,0
902817,522.27,934,747,0
902827,569.89,934,746,0
902836,615.01,934,747,0
902846,653.49,934,746,0
902856,682.96,934,747,0
902866,703.59,934,746,0
902876,718.07,934,747,0
902886,728.16,934,746,0
902896,735.23,934,747,0
902906,740.17,934,746,0
902916,743.68,934,747,0
902926,746.09,934,746,0
902936,747.78,934,747,0
902946,745.62,934,746,0
902956,737.07,934,747,0
902966,719.01,934,746,0
902976,691.23,934,747,0
902986,653.54,934,746,0
902996,607.39,934,747,0
903006,553.87,934,746,0
903016,498.63,934,747,0
903026,445.85,934,746,0
903036,401.11,934,747,0
903046,365.93,934,746,0
903056,342.73,934,747,0
903066,330.59,934,746,0
903076,329.73,934,747,0
903086,337.40,934,746,0
903096,352.75,934,747,0
903106,372.41,934,746,0
903116,395.00,934,747,0
903127,416.90,934,746,0
903137,436.99,934,746,0
903147,452.38,934,746,0
903157,462.72,934,747,0
903168,466.70,934,746,0
903177,465.16,934,746,0
903187,457.49,934,746,0
903197,445.34,934,747,0
903207,429.12,934,746,0
903217,410.79,934,746,0
903227,391.05,934,746,0
903237,371.36,934,747,0
903247,352.27,934,746,0
903257,335.30,934,746,0
903267,320.30,934,746,0
903277,308.38,934,747,0
903287,299.35,934,746,0
903297,294.10,934,746,0
903307,291.80,934,746,0
903317,292.67,934,747,0
903327,295.73,934,746,0
903337,301.34,934,746,0
903347,308.35,934,746,0
903357,316.73,934,747,0
903367,325.30,934,746,0
903377,334.29,934,746,0
903387,342.78,934,746,0
903397,351.16,934,747,0
903407,358.65,934,746,0
903417,365.66,934,746,0
903427,371.67,934,746,0
903437,377.04,934,747,0
903447,381.10,934,746,0
903457,384.33,934,746,0
903468,386.24,934,746,0
903478,387.33,934,747,0
903488,387.23,934,747,0
903498,386.18,934,746,0
903508,384.32,934,746,0
903518,382.25,934,747,0
903528,379.65,934,746,0
903538,376.80,934,746,0
903548,373.77,934,746,0
903558,370.84,934,747,0
903568,368.02,934,746,0
903578,365.23,934,746,0
903588,362.46,934,746,0
903598,359.92,934,747,0
903608,357.50,934,746,0
903618,354.95,934,746,0
903628,352.22,934,746,0
903639,349.50,934,747,0
903649,347.08,934,747,0
903659,345.08,934,746,0
903669,344.76,934,746,0
903680,347.75,934,746,0
903689,356.35,934,746,0
903699,373.22,934,746,0
903709,401.31,934,747,0
903719,438.67,934,747,0
903729,482.36,934,747,0
903748,529.18,934,745,0
903751,576.22,934,748,0
903760,620.34,934,747,0
903770,658.21,934,747,0
903780,686.31,934,746,0
903790,705.97,934,747,0
903800,719.74,934,746,0
903810,729.37,934,747,0
903820,736.08,934,747,0
903830,740.77,934,747,0
903840,744.05,934,747,0
903851,746.39,934,747,0
903860,747.99,934,747,0
903870,743.71,934,747,0
903880,730.12,934,746,0
903890,706.34,934,747,0
903900,672.13,934,746,0
903910,628.50,934,747,0
903920,576.37,934,746,0
903930,517.97,934,747,0
903940,460.42,934,747,0
903950,409.72,934,747,0
903960,368.71,934,746,0
903970,339.74,934,747,0
903980,322.63,934,746,0
903990,317.94,934,747,0
904000,323.70,934,746,0
904010,338.75,934,747,0
904020,359.95,934,746,0
904030,385.21,934,746,0
904040,411.03,934,746,0
904050,435.97,934,747,0
904060,456.76,934,746,0
904070,472.78,934,746,0
904080,482.10,934,746,0
904090,485.20,934,747,0
904100,481.32,934,746,0
904110,472.06,934,746,0
904120,457.38,934,747,0
904130,439.57,934,747,0
904140,418.87,934,746,0
904151,397.27,934,746,0
904161,374.94,934,746,0
904171,354.17,934,747,0
904181,334.88,934,746,0
904192,319.14,934,746,0
904201,306.37,934,746,0
904211,297.82,934,747,0
904221,292.64,934,747,0
904231,291.76,934,746,0
904241,293.68,934,746,0
904251,298.87,934,747,0
904261,305.38,934,747,0
904271,314.10,934,747,0
904281,323.11,934,746,0
904291,333.06,934,747,0
904301,342.26,934,746,0
904311,351.61,934,746,0
904321,359.66,934,746,0
904331,367.43,934,747,0
904341,373.43,934,746,0
904351,378.96,934,747,0
904361,382.70,934,746,0
904371,386.00,934,747,0
904381,387.50,934,746,0
904391,388.55,934,747,0
904401,388.00,934,746,0
904411,387.19,934,747,0
904421,385.03,934,746,0
904431,383.01,934,747,0
904441,380.00,934,746,0
904451,377.52,934,747,0
904461,374.41,934,747,0
904471,372.10,934,747,0
904481,369.24,934,746,0
904492,367.15,934,747,0
904502,364.45,934,746,0
904512,362.60,934,747,0
904522,360.11,934,746,0
904532,358.40,934,747,0
904542,356.01,934,746,0
904552,354.46,934,747,0
904562,352.31,934,746,0
904572,351.06,934,747,0
904582,349.20,934,746,0
904592,348.80,934,747,0
904602,349.54,934,746,0
904612,354.87,934,747,0
904622,365.58,934,746,0
904632,386.28,934,747,0
904642,417.95,934,746,0
904652,457.95,934,747,0
904672,502.62,924,746,0
904675,549.84,924,748,0
904684,595.74,924,746,0
904694,637.99,924,747,0
904705,672.15,924,747,0
904715,696.11,924,747,0
904725,712.87,924,746,0
904735,724.61,924,747,0
904745,732.83,924,747,0
904755,738.58,924,747,0
904765,742.61,924,746,0
904775,745.42,924,747,0
904785,747.40,924,746,0
904795,748.78,924,747,0
904805,748.33,924,746,0
904815,742.45,924,747,0
904825,727.83,924,746,0
904835,704.18,924,747,0
904845,667.05,924,741,0
904855,613.77,924,742,0
904865,550.36,924,743,0
904876,485.54,924,745,0
904886,426.58,924,745,0
904896,379.05,924,746,0
904906,343.85,924,746,0
904916,326.24,924,746,0
904926,328.61,924,746,0
904936,345.40,924,747,0
904946,368.72,924,746,0
904956,394.56,924,747,0
904966,419.76,924,745,0
904976,443.28,924,747,0
904986,462.69,924,746,0
904996,477.61,924,747,0
905006,486.47,924,746,0
905016,489.50,924,747,0
905026,486.22,924,746,0
905036,477.67,924,747,0
905047,463.71,924,746,0
905057,446.23,924,746,0
905067,425.97,924,746,0
905077,404.51,924,747,0
905088,382.59,924,746,0
905097,361.84,924,747,0
905107,342.52,924,746,0
905117,325.82,924,747,0
905127,311.99,924,746,0
905137,301.71,924,747,0
905147,294.76,924,746,0
905157,291.11,924,746,0
905167,290.39,924,746,0
905177,292.67,924,747,0
905187,297.53,924,746,0
905197,304.48,924,747,0
905207,312.78,924,746,0
905217,322.06,924,747,0
905227,331.90,924,746,0
905237,342.00,924,747,0
905247,351.60,924,746,0
905257,360.38,924,747,0
905267,368.15,924,746,0
905277,374.88,924,747,0
905287,380.49,924,746,0
905297,384.88,924,747,0
905307,387.83,924,746,0
905317,389.68,924,747,0
905327,390.51,924,746,0
905337,390.35,924,747,0
905347,389.22,924,747,0
905357,387.40,924,747,0
905367,385.05,924,746,0
905377,382.33,924,747,0
905388,379.41,924,747,0
905398,376.16,924,747,0
905408,373.07,924,746,0
905418,370.05,924,747,0
905428,367.29,924,747,0
905438,364.55,924,747,0
905448,361.98,924,746,0
905458,359.37,924,747,0
905468,357.29,924,747,0
905478,355.19,924,747,0
905488,353.25,924,747,0
905498,351.16,924,747,0
905508,349.44,924,747,0
905518,348.28,924,747,0
905528,348.84,924,746,0
905538,352.44,924,747,0
905548,361.91,924,747,0
905559,380.15,924,747,0
905569,410.28,924,747,0
905579,448.85,924,747,0
905589,493.04,924,747,0
905609,540.04,936,746,0
905612,586.96,936,747,0
905621,630.30,936,747,0
905631,666.59,936,747,0
905641,692.26,936,746,0
905651,710.22,936,747,0
905661,722.80,936,746,0
905671,731.60,936,747,0
905681,737.76,936,746,0
905691,742.08,936,747,0
905701,745.05,936,746,0
905711,747.14,936,747,0
905721,748.60,936,746,0
905731,747.65,936,747,0
905741,739.91,936,746,0
905751,723.65,936,747,0
905761,697.31,936,746,0
905772,662.08,936,747,0
905782,618.04,936,746,0
905792,567.41,936,747,0
905802,513.12,936,746,0
905812,462.38,936,747,0
905822,418.04,936,746,0
905832,384.04,936,747,0
905842,359.94,936,746,0
905852,347.49,936,747,0
905862,344.39,936,746,0
905872,350.66,936,747,0
905882,362.63,936,746,0
905892,379.63,936,747,0
905902,397.95,936,746,0
905912,416.78,936,747,0
905922,432.70,936,746,0
905932,445.65,936,747,0
905943,453.17,936,746,0
905953,456.29,936,747,0
905963,453.46,936,746,0
905973,446.42,936,747,0
905984,434.47,936,746,0
905993,419.97,936,747,0
906003,402.58,936,746,0
906013,384.88,936,747,0
906023,366.40,936,746,0
906033,349.61,936,747,0
906043,333.83,936,746,0
906053,321.06,936,747,0
906063,310.37,936,746,0
906073,303.36,936,747,0
906083,298.62,936,746,0
906093,297.49,936,747,0
906103,298.37,936,746,0
906113,302.38,936,747,0
906123,307.75,936,746,0
906133,315.37,936,747,0
906143,323.40,936,746,0
906153,332.71,936,747,0
906163,341.32,936,746,0
906173,350.27,936,747,0
906183,357.82,936,746,0
906193,365.07,936,747,0
906203,370.49,936,746,0
906213,375.36,936,747,0
906223,378.42,936,746,0
906233,381.30,936,747,0
906243,382.54,936,746,0
906253,383.62,936,747,0
906263,383.22,936,746,0
906273,382.72,936,747,0
906284,380.96,936,747,0
906294,379.17,936,747,0
906304,376.29,936,746,0
906314,373.55,936,747,0
906324,370.13,936,746,0
906334,367.30,936,747,0
906344,364.04,936,746,0
906354,361.54,936,747,0
906364,358.77,936,746,0
906374,356.74,936,747,0
906384,354.46,936,746,0
906394,352.99,936,747,0
906404,351.24,936,746,0
906414,350.22,936,747,0
906424,348.78,936,746,0
906434,347.95,936,747,0
906444,346.85,936,746,0
906455,346.77,936,747,0
906465,347.18,936,746,0
906475,350.60,936,747,0
906485,358.35,936,746,0
906496,374.19,936,747,0
906505,399.72,936,746,0
906515,435.24,936,747,0
906534,477.13,926,746,0
906537,522.99,926,748,0
906546,569.58,926,746,0
906556,614.02,926,747,0
906566,652.46,926,747,0
906576,682.28,926,747,0
906586,703.15,926,746,0
906596,717.76,926,747,0
906606,728.03,926,747,0
906616,735.22,926,747,0
906626,740.26,926,746,0
906636,743.78,926,747,0
906646,746.25,926,747,0
906656,747.97,926,747,0
906667,744.98,926,746,0
906676,734.66,926,747,0
906686,714.92,926,747,0
906696,685.54,926,747,0
906706,646.98,926,746,0
906716,600.44,926,747,0
906726,547.25,926,747,0
906736,493.31,926,747,0
906746,443.03,926,746,0
906756,400.46,926,747,0
906766,367.54,926,747,0
906776,345.22,926,747,0
906786,333.41,926,747,0
906796,331.49,926,747,0
906806,337.90,926,747,0
906816,350.96,926,747,0
906826,368.28,926,747,0
906836,387.91,926,747,0
906846,407.53,926,746,0
906856,425.24,926,747,0
906866,439.31,926,746,0
906876,448.82,926,747,0
906886,453.24,926,747,0
906896,452.74,926,747,0
906906,446.95,926,747,0
906916,436.72,926,747,0
906926,423.00,926,747,0
906936,406.89,926,747,0
906946,389.35,926,747,0
906956,371.20,926,747,0
906967,353.44,926,747,0
906977,337.07,926,747,0
906987,322.86,926,747,0
906997,310.95,926,747,0
907008,302.09,926,747,0
907017,296.15,926,747,0
907027,293.36,926,747,0
907037,293.17,926,746,0
907047,295.56,926,747,0
907057,299.85,926,747,0
907067,305.94,926,747,0
907077,312.98,926,746,0
907087,321.22,926,747,0
907097,329.81,926,747,0
907107,338.70,926,747,0
907117,347.23,926,746,0
907127,355.47,926,747,0
907137,363.00,926,747,0
907147,369.73,926,747,0
907157,374.95,926,746,0
907167,378.91,926,747,0
907177,381.25,926,747,0
907187,382.76,926,747,0
907197,383.00,926,746,0
907207,382.53,926,747,0
907217,381.04,926,747,0
907227,379.27,926,747,0
907237,377.05,926,746,0
907247,374.81,926,747,0
907257,371.91,926,747,0
907267,369.15,926,747,0
907277,366.15,926,746,0
907287,363.57,926,747,0
907297,360.87,926,747,0
907308,358.60,926,747,0
907318,356.32,926,746,0
907328,354.51,926,747,0
907338,352.34,926,747,0
907348,350.40,926,747,0
907358,348.01,926,746,0
907368,345.82,926,747,0
907378,343.34,926,747,0
907388,342.38,926,747,0
907398,343.30,926,746,0
907408,348.99,926,747,0
907418,360.82,926,747,0
907428,382.78,926,747,0
907438,415.80,926,747,0
907448,457.00,926,747,0
907467,502.60,933,746,0
907470,550.34,933,749,0
907479,596.52,933,747,0
907489,638.58,933,747,0
907499,672.39,933,747,0
907509,696.23,933,747,0
907520,712.92,933,746,0
907529,724.60,933,747,0
907539,732.78,933,747,0
907549,738.54,933,747,0
907559,742.54,933,746,0
907569,745.33,933,747,0
907579,745.45,933,747,0
907589,739.53,933,747,0
907599,724.28,933,746,0
907609,699.60,933,747,0
907619,664.83,933,747,0
907629,621.38,933,747,0
907639,569.67,933,747,0
907649,513.88,933,747,0
907659,458.85,933,747,0
907669,410.59,933,747,0
907679,370.60,933,746,0
907689,341.88,933,747,0
907699,323.61,933,747,0
907709,316.92,933,747,0
907719,319.51,933,746,0
907729,331.10,933,747,0
907739,348.34,933,746,0
907749,370.18,933,747,0
907759,393.06,933,746,0
907769,416.10,933,747,0
907779,436.17,933,746,0
907789,452.92,933,747,0
907799,463.79,933,746,0
907809,469.68,933,747,0
907820,469.00,933,746,0
907830,463.43,933,747,0
907840,452.37,933,746,0
907850,438.16,933,747,0
907860,420.41,933,746,0
907870,401.99,933,747,0
907880,382.28,933,746,0
907890,363.72,933,747,0
907900,345.76,933,746,0
907910,330.83,933,748,0
907920,317.90,933,746,0
907930,308.80,933,747,0
907940,302.09,933,746,0
907950,299.15,933,747,0
907960,298.50,933,746,0
907970,301.18,933,747,0
907980,305.11,933,747,0
907991,311.46,933,747,0
908001,318.40,933,747,0
908011,326.81,933,747,0
908021,334.96,933,746,0
908032,343.89,933,748,0
908041,351.85,933,747,0
908051,360.08,933,747,0
908061,366.61,933,746,0
908071,372.82,933,748,0
908081,377.07,933,747,0
908091,380.95,933,747,0
908101,383.02,933,747,0
908111,384.82,933,748,0
908121,384.87,933,747,0
908131,384.95,933,747,0
908141,383.68,933,747,0
908151,382.71,933,747,0
908161,380.65,933,747,0
908171,379.13,933,747,0
908181,376.73,933,746,0
908191,375.01,933,748,0
908201,372.48,933,747,0
908211,370.54,933,747,0
908221,367.76,933,746,0
908231,365.60,933,748,0
908241,362.59,933,747,0
908251,360.23,933,747,0
908261,356.99,933,746,0
908271,354.76,933,748,0
908281,352.52,933,747,0
908291,352.88,933,747,0
908301,356.09,933,746,0
908311,365.75,933,747,0
908321,383.22,933,747,0
908332,412.51,933,748,0
908342,450.12,933,747,0
908352,493.80,933,748,0
908371,539.89,904,746,0
908375,586.08,904,748,0
908383,628.61,904,747,0
908393,664.77,904,748,0
908403,690.94,904,747,0
908413,709.26,904,747,0
908423,722.08,904,747,0
908433,731.06,904,748,0
908443,737.34,904,747,0
908453,741.74,904,747,0
908463,744.82,904,747,0
908473,744.14,904,747,0
908483,735.57,904,747,0
908493,717.57,904,747,0
908503,689.37,904,746,0
908513,651.72,904,747,0
908523,604.79,904,747,0
908533,550.47,904,747,0
908544,492.81,904,746,0
908553,438.70,904,747,0
908563,391.30,904,747,0
908573,353.93,904,747,0
908583,327.16,904,746,0
908593,312.46,904,747,0
908603,308.55,904,746,0
908613,315.20,904,747,0
908623,329.84,904,746,0
908633,351.02,904,747,0
908643,375.35,904,746,0
908653,401.26,904,747,0
908663,425.74,904,746,0
908673,447.72,904,747,0
908683,464.52,904,746,0
908693,475.85,904,747,0
908703,480.61,904,746,0
908713,479.61,904,747,0
908723,472.53,904,747,0
908733,461.06,904,747,0
908743,445.22,904,746,0
908753,427.37,904,747,0
908763,407.80,904,746,0
908773,388.36,904,747,0
908783,369.35,904,746,0
908793,352.19,904,747,0
908803,336.83,904,747,0
908813,324.84,904,747,0
908823,315.67,904,746,0
908833,310.11,904,747,0
908844,307.42,904,746,0
908854,307.94,904,747,0
908864,310.79,904,746,0
908874,316.08,904,747,0
908884,322.74,904,747,0
908894,330.70,904,747,0
908904,338.98,904,746,0
908914,347.73,904,747,0
908924,356.17,904,747,0
908934,364.56,904,747,0
908944,372.06,904,746,0
908954,378.69,904,747,0
908964,384.18,904,747,0
908974,388.97,904,747,0
908984,392.54,904,746,0
908994,395.08,904,747,0
909004,396.38,904,747,0
909015,396.87,904,747,0
909025,396.48,904,746,0
909035,395.39,904,747,0
909045,393.65,904,747,0
909056,391.35,904,747,0
909065,388.93,904,746,0
909075,386.38,904,747,0
909085,383.82,904,747,0
909095,381.01,904,747,0
909105,378.13,904,746,0
909115,375.09,904,747,0
909125,372.15,904,747,0
909135,369.02,904,747,0
909145,366.19,904,747,0
909155,364.50,904,747,0
909165,365.77,904,747,0
909175,371.88,904,747,0
909185,385.16,904,746,0
909195,408.60,904,747,0
909205,442.15,904,747,0
909215,482.52,904,747,0
909225,526.80,904,747,0
909235,572.08,904,747,0
909254,615.30,883,746,0
909257,653.44,883,748,0
909266,683.01,883,747,0
909276,703.70,883,747,0
909286,718.19,883,747,0
909296,728.33,883,747,0
909306,735.43,883,747,0
909316,740.40,883,747,0
909326,743.88,883,747,0
909336,746.32,883,747,0
909346,747.42,883,747,0
909356,743.52,883,747,0
909366,732.31,883,747,0
909376,712.12,883,747,0
909386,683.15,883,747,0
909396,645.52,883,747,0
909406,600.79,883,747,0
909416,550.46,883,747,0
909426,500.35,883,747,0
909436,454.09,883,746,0
909446,415.40,883,747,0
909456,385.24,883,747,0
909466,365.15,883,747,0
909476,353.84,883,746,0
909486,351.44,883,747,0
909496,355.90,883,747,0
909506,366.47,883,747,0
909516,380.51,883,746,0
909527,396.82,883,747,0
909537,412.64,883,747,0
909547,427.54,883,747,0
909557,439.08,883,746,0
909568,447.45,883,747,0
909577,451.09,883,747,0
909587,450.50,883,747,0
909597,444.70,883,746,0
909607,435.10,883,747,0
909617,421.36,883,747,0
909627,405.44,883,747,0
909637,387.05,883,746,0
909647,368.56,883,747,0
909657,350.22,883,747,0
909667,334.60,883,747,0
909677,321.43,883,746,0
909687,312.73,883,747,0
909697,307.71,883,747,0
909707,307.84,883,747,0
909717,311.45,883,746,0
909727,319.20,883,747,0
909737,328.78,883,747,0
909747,340.50,883,747,0
909757,352.05,883,746,0
909767,363.95,883,747,0
909777,373.95,883,747,0
909787,382.75,883,747,0
909797,388.65,883,746,0
909807,392.96,883,747,0
909817,394.47,883,747,0
909827,394.54,883,747,0
909837,392.15,883,746,0
909847,388.94,883,747,0
909857,384.07,883,747,0
909868,379.25,883,747,0
909878,373.30,883,746,0
909888,367.98,883,747,0
909898,362.07,883,746,0
909908,357.25,883,748,0
909918,352.25,883,746,0
909928,348.57,883,747,0
909938,344.84,883,746,0
909948,342.79,883,747,0
909958,340.71,883,746,0
909968,340.20,883,747,0
909978,339.54,883,746,0
909988,339.98,883,748,0
909998,339.94,883,746,0
910008,340.52,883,747,0
910018,340.06,883,747,0
910028,340.13,883,748,0
910039,339.62,883,746,0
910049,341.19,883,747,0
910059,345.29,883,747,0
910069,355.36,883,747,0
910080,372.95,883,746,0
910089,401.42,883,748,0
910099,438.93,883,747,0
910109,483.00,883,748,0
910129,529.76,874,746,0
910132,576.80,874,748,0
910141,620.41,874,747,0
910151,657.96,874,748,0
910161,686.25,874,747,0
910171,706.11,874,748,0
910181,719.96,874,747,0
910191,729.70,874,748,0
910201,736.52,874,747,0
910211,741.33,874,747,0
910221,744.15,874,747,0
910231,741.92,874,748,0
910241,731.49,874,747,0
910252,712.18,874,748,0
910262,683.11,874,748,0
910272,645.37,874,750,0
910282,599.36,874,751,0
910292,547.31,874,755,0
910302,493.51,874,759,0
910312,442.92,874,761,0
910322,397.51,874,762,0
910332,359.95,874,763,0
910342,330.48,874,764,0
910352,310.23,874,764,0
910362,298.29,874,764,0
910372,294.82,874,764,0
910382,298.30,874,764,0
910392,308.03,874,763,0
910402,321.95,874,764,0
910412,338.76,874,763,0
910423,356.11,874,764,0
910433,372.75,874,763,0
910443,387.09,874,764,0
910453,398.42,874,763,0
910464,405.84,874,764,0
910473,409.36,874,763,0
910483,408.52,874,763,0
910493,403.95,874,762,0
910503,396.17,874,763,0
910513,385.79,874,762,0
910523,373.42,874,763,0
910533,359.75,874,762,0
910543,345.38,874,763,0
910553,331.13,874,762,0
910563,317.25,874,763,0
910573,304.23,874,763,0
910583,292.63,874,763,0
910593,282.97,874,762,0
910603,275.69,874,763,0
910613,270.86,874,762,0
910623,268.67,874,763,0
910633,269.41,874,762,0
910643,272.72,874,763,0
910653,278.25,874,762,0
910663,285.50,874,763,0
910673,293.88,874,762,0
910683,302.96,874,763,0
910693,312.14,874,762,0
910703,320.89,874,763,0
910713,328.81,874,762,0
910723,335.55,874,763,0
910733,341.13,874,762,0
910743,345.33,874,763,0
910753,348.10,874,762,0
910764,349.70,874,762,0
910774,350.01,874,761,0
910784,349.40,874,763,0
910794,347.74,874,762,0
910804,345.50,874,763,0
910814,342.44,874,762,0
910824,339.05,874,763,0
910834,335.09,874,762,0
910844,331.21,874,763,0
910854,327.03,874,761,0
910864,323.08,874,763,0
910874,318.77,874,761,0
910884,314.85,874,763,0
910894,310.91,874,761,0
910904,307.51,874,763,0
910914,304.70,874,762,0
910924,304.23,874,763,0
910935,307.29,874,762,0
910945,316.42,874,763,0
910955,332.96,874,762,0
910965,359.42,874,762,0
910976,396.15,874,759,0
910985,441.10,874,761,0
910995,490.27,874,759,0
911014,540.55,886,758,0
911017,588.34,886,759,0
911026,631.18,886,761,0
911036,666.10,886,761,0
911046,691.87,886,763,0
911056,709.91,886,761,0
911066,720.48,886,763,0
911076,721.75,886,762,0
911086,713.51,886,762,0
911096,694.67,886,761,0
911106,666.66,886,762,0
911116,629.39,886,761,0
911126,584.31,886,762,0
911136,533.82,886,761,0
911147,483.17,886,763,0
911156,434.26,886,761,0
911166,390.73,886,762,0
911176,352.37,886,761,0
911186,321.49,886,763,0
911196,297.38,886,761,0
911206,281.32,886,763,0
911216,271.80,886,761,0
911226,269.54,886,763,0
911236,272.64,886,762,0
911246,281.28,886,763,0
911256,292.98,886,762,0
911266,307.86,886,763,0
911276,323.41,886,762,0
911286,339.83,886,762,0
911296,354.67,886,761,0
911306,368.23,886,763,0
911316,378.27,886,762,0
911326,385.78,886,763,0
911336,388.97,886,762,0
911346,389.19,886,763,0
911356,385.19,886,762,0
911366,378.79,886,763,0
911376,369.25,886,762,0
911386,358.85,886,763,0
911396,346.77,886,761,0
911406,335.05,886,762,0
911416,323.21,886,752,0
911426,313.24,886,750,0
911436,303.87,886,749,0
911447,296.62,886,750,0
911457,289.92,886,748,0
911467,285.23,886,748,0
911477,281.00,886,748,0
911488,278.43,886,748,0
911497,275.77,886,747,0
911507,274.60,886,748,0
911517,273.35,886,747,0
911527,273.54,886,748,0
911537,273.38,886,747,0
911547,274.51,886,748,0
911557,275.43,886,747,0
911567,277.61,886,748,0
911577,279.49,886,747,0
911587,282.51,886,748,0
911597,285.14,886,747,0
911607,288.83,886,748,0
911617,291.97,886,747,0
911627,295.88,886,748,0
911637,298.83,886,747,0
911647,302.39,886,748,0
911657,304.85,886,747,0
911667,307.76,886,748,0
911677,309.55,886,747,0
911687,311.74,886,748,0
911697,312.59,886,747,0
911707,313.66,886,748,0
911717,313.25,886,747,0
911727,313.09,886,749,0
911737,311.52,886,748,0
911747,310.20,886,748,0
911757,307.61,886,748,0
911767,305.46,886,749,0
911777,302.66,886,748,0
911788,301.39,886,748,0
911798,301.36,886,747,0
911808,305.71,886,749,0
911818,314.88,886,748,0
911828,331.80,886,748,0
911838,356.46,886,748,0
911848,390.74,886,749,0
911867,432.65,853,747,0
911870,479.98,853,748,0
911879,528.46,853,748,0
911889,575.55,853,748,0
911899,617.98,853,748,0
911909,654.37,853,748,0
911919,681.13,853,747,0
911929,697.12,853,748,0
911939,701.20,853,747,0
911949,694.50,853,748,0
911959,676.82,853,747,0
911969,649.53,853,748,0
911979,613.07,853,747,0
911989,570.45,853,748,0
912000,523.73,853,748,0
912009,477.18,853,748,0
912019,432.04,853,748,0
912029,391.36,853,748,0
912039,355.42,853,748,0
912049,325.94,853,749,0
912059,302.47,853,748,0
912069,286.30,853,748,0
912079,276.27,853,748,0
912089,273.06,853,749,0
912099,275.06,853,748,0
912109,282.58,853,749,0
912119,293.76,853,748,0
912129,308.58,853,749,0
912139,324.60,853,748,0
912149,341.82,853,749,0
912159,358.08,853,748,0
912169,373.44,853,749,0
912179,385.91,853,748,0
912189,395.75,853,749,0
912199,401.57,853,748,0
912209,404.27,853,748,0
912219,402.95,853,748,0
912229,398.98,853,749,0
912239,391.78,853,748,0
912249,382.81,853,749,0
912259,371.85,853,748,0
912269,360.54,853,749,0
912279,348.33,853,747,0
912289,336.75,853,749,0
912300,325.29,853,748,0
912310,315.48,853,748,0
912320,306.68,853,747,0
912330,300.05,853,748,0
912340,294.89,853,748,0
912350,292.27,853,748,0
912360,291.03,853,747,0
912370,291.75,853,748,0
912380,293.37,853,748,0
912390,296.43,853,748,0
912400,299.81,853,747,0
912410,303.77,853,748,0
912420,307.48,853,748,0
912430,311.54,853,748,0
912440,315.15,853,747,0
912450,318.79,853,748,0
912460,321.90,853,748,0
912471,324.84,853,748,0
912481,327.29,853,748,0
912491,329.39,853,748,0
912501,330.90,853,748,0
912512,331.96,853,748,0
912521,332.44,853,747,0
912531,332.48,853,748,0
912541,331.87,853,748,0
912551,330.79,853,748,0
912561,329.27,853,747,0
912571,327.47,853,748,0
912581,325.66,853,748,0
912591,324.05,853,748,0
912601,323.26,853,747,0
912611,324.51,853,748,0
912621,329.03,853,748,0
912631,338.32,853,748,0
912641,353.40,853,747,0
912651,375.99,853,748,0
912661,406.64,853,748,0
912680,444.93,813,746,0
912684,488.32,813,748,0
912692,533.53,813,748,0
912702,577.73,813,748,0
912712,618.65,813,748,0
912722,653.94,813,748,0
912732,682.20,813,748,0
912742,701.04,813,748,0
912752,709.77,813,748,0
912762,708.94,813,748,0
912772,699.02,813,748,0
912782,680.41,813,748,0
912792,653.50,813,748,0
912802,619.45,813,748,0
912812,580.92,813,748,0
912822,540.78,813,748,0
912832,500.86,813,748,0
912842,463.28,813,748,0
912852,429.21,813,748,0
912862,400.13,813,748,0
912872,375.79,813,748,0
912882,356.91,813,748,0
912892,343.14,813,748,0
912902,335.00,813,748,0
912912,331.53,813,748,0
912922,332.87,813,748,0
912932,337.58,813,748,0
912942,345.72,813,748,0
912952,355.79,813,748,0
912962,367.34,813,748,0
912972,378.89,813,748,0
912983,390.20,813,748,0
912993,399.74,813,748,0
913003,407.79,813,748,0
913013,412.91,813,748,0
913024,415.64,813,748,0
913033,415.32,813,748,0
913043,412.69,813,748,0
913053,407.04,813,748,0
913063,399.74,813,748,0
913073,390.26,813,748,0
913083,380.20,813,748,0
913093,369.00,813,748,0
913103,358.33,813,748,0
913113,347.60,813,748,0
913123,338.42,813,748,0
913133,329.85,813,748,0
913143,323.21,813,748,0
913153,317.58,813,748,0
913163,314.02,813,748,0
913173,311.23,813,747,0
913183,310.34,813,748,0
913193,309.98,813,748,0
913203,311.10,813,748,0
913213,312.40,813,747,0
913223,314.77,813,748,0
913233,316.89,813,748,0
913243,319.67,813,748,0
913253,321.74,813,747,0
913263,324.30,813,748,0
913273,326.01,813,748,0
913283,327.98,813,748,0
913293,329.01,813,747,0
913303,330.38,813,748,0
913313,330.82,813,748,0
913324,331.56,813,748,0
913334,331.22,813,747,0
913344,331.50,813,748,0
913354,331.01,813,748,0
913364,331.05,813,748,0
913374,330.18,813,747,0
913384,329.82,813,748,0
913394,328.72,813,748,0
913404,328.16,813,748,0
913414,326.53,813,747,0
913424,325.38,813,748,0
913434,323.25,813,747,0
913444,321.72,813,748,0
913454,319.62,813,747,0
913464,318.66,813,748,0
913474,318.16,813,747,0
913484,320.51,813,748,0
913495,325.42,813,747,0
913505,335.79,813,748,0
913515,351.41,813,747,0
913525,374.86,813,748,0
913545,404.99,864,746,0
913548,442.92,864,749,0
913557,485.72,864,747,0
913567,530.80,864,748,0
913577,574.53,864,747,0
913587,615.39,864,748,0
913597,650.28,864,747,0
913607,678.01,864,748,0
913617,695.02,864,747,0
913627,702.00,864,748,0
913637,699.13,864,747,0
913647,687.95,864,748,0
913657,668.42,864,746,0
913667,642.62,864,748,0
913677,611.62,864,747,0
913687,578.99,864,748,0
913697,545.22,864,747,0
913708,513.36,864,748,0
913718,483.38,864,747,0
913728,457.29,864,748,0
913738,434.19,864,747,0
913748,415.23,864,748,0
913758,399.44,864,747,0
913768,387.65,864,748,0
913778,378.88,864,747,0
913788,373.86,864,748,0
913798,371.50,864,747,0
913808,372.17,864,748,0
913818,374.60,864,747,0
913828,379.01,864,748,0
913838,384.23,864,747,0
913848,390.51,864,748,0
913858,396.31,864,747,0
913868,401.88,864,748,0
913879,406.07,864,747,0
913889,409.22,864,748,0
913899,410.57,864,747,0
913909,410.36,864,748,0
913920,407.93,864,747,0
913929,404.23,864,748,0
913939,398.80,864,747,0
913949,392.35,864,748,0
913959,384.79,864,748,0
913969,376.75,864,748,0
913979,368.34,864,747,0
913989,360.18,864,748,0
913999,352.45,864,748,0
914009,345.55,864,748,0
914019,339.47,864,747,0
914029,334.44,864,748,0
914039,330.54,864,748,0
914049,327.89,864,748,0
914059,326.12,864,747,0
914069,325.06,864,748,0
914079,324.65,864,748,0
914089,324.89,864,748,0
914099,325.56,864,747,0
914109,326.64,864,748,0
914119,327.86,864,748,0
914129,329.23,864,748,0
914139,330.53,864,747,0
914149,331.92,864,748,0
914159,333.23,864,747,0
914169,334.40,864,748,0
914179,335.31,864,747,0
914189,336.07,864,748,0
914199,336.69,864,748,0
914209,337.04,864,748,0
914220,337.07,864,748,0
914230,336.62,864,748,0
914240,336.09,864,748,0
914250,335.21,864,748,0
914260,334.37,864,748,0
914270,333.19,864,748,0
914280,332.15,864,748,0
914290,330.86,864,748,0
914300,329.96,864,748,0
914310,328.94,864,748,0
914320,328.19,864,748,0
914330,327.06,864,748,0
914340,326.27,864,748,0
914350,325.38,864,747,0
914360,324.79,864,748,0
914370,323.78,864,748,0
914380,322.99,864,748,0
914391,322.14,864,747,0
914401,322.14,864,748,0
914411,322.65,864,748,0
914421,325.16,864,748,0
914432,329.74,864,747,0
914441,338.30,864,748,0
914451,351.15,864,748,0
914470,370.09,926,746,0
914473,395.05,926,749,0
914482,427.14,926,748,0
914492,463.65,926,748,0
914502,504.09,926,748,0
914512,544.86,926,747,0
914522,584.50,926,748,0
914532,619.11,926,748,0
914542,647.10,926,748,0
914552,665.20,926,747,0
914562,674.48,926,748,0
914572,673.57,926,748,0
914582,664.35,926,748,0
914592,646.68,926,747,0
914603,623.50,926,748,0
914612,595.75,926,747,0
914622,566.55,926,748,0
914632,536.05,926,747,0
914642,507.06,926,748,0
914652,479.66,926,748,0
914662,455.89,926,748,0
914672,434.88,926,747,0
914682,418.03,926,748,0
914692,404.05,926,748,0
914702,394.35,926,748,0
914712,387.43,926,747,0
914722,384.43,926,748,0
914732,383.74,926,748,0
914742,386.26,926,748,0
914752,390.04,926,747,0
914762,396.16,926,748,0
914772,402.67,926,747,0
914782,410.31,926,748,0
914792,417.20,926,747,0
914802,424.21,926,748,0
914812,429.64,926,748,0
914822,434.42,926,748,0
914832,436.82,926,748,0
914842,438.03,926,748,0
914852,436.61,926,748,0
914862,433.98,926,748,0
914872,428.89,926,748,0
914882,423.01,926,748,0
914892,415.25,926,747,0
914903,407.50,926,748,0
914913,398.57,926,748,0
914923,390.34,926,748,0
914933,381.54,926,748,0
914944,374.05,926,748,0
914953,366.66,926,748,0
914963,361.11,926,748,0
914973,355.85,926,747,0
914983,352.55,926,748,0
914993,349.68,926,747,0
915003,348.62,926,748,0
915013,347.84,926,747,0
915023,348.70,926,749,0
915033,349.56,926,748,0
915043,351.75,926,748,0
915053,353.45,926,747,0
915063,356.10,926,749,0
915073,358.13,926,748,0
915083,360.88,926,748,0
915093,362.58,926,747,0
915103,364.68,926,749,0
915113,365.63,926,747,0
915123,367.12,926,748,0
915133,367.51,926,747,0
915143,368.43,926,749,0
915153,368.21,926,747,0
915163,368.49,926,748,0
915173,367.70,926,747,0
915183,367.45,926,748,0
915193,366.24,926,748,0
915203,365.61,926,748,0
915213,364.06,926,747,0
915223,363.23,926,748,0
915233,361.62,926,747,0
915244,360.83,926,748,0
915254,359.34,926,748,0
915264,358.59,926,749,0
915274,357.13,926,747,0
915284,356.41,926,748,0
915294,355.00,926,747,0
915304,354.44,926,749,0
915314,353.19,926,748,0
915324,352.84,926,748,0
915334,352.11,926,747,0
915344,352.98,926,749,0
915354,354.57,926,748,0
915364,359.07,926,748,0
915374,365.91,926,747,0
915384,377.72,926,748,0
915394,394.35,926,748,0
915414,417.90,943,746,0
915417,447.59,943,748,0
915426,483.84,943,749,0
915436,523.27,943,748,0
915446,564.03,943,748,0
915457,603.02,943,748,0
915467,638.80,943,749,0
915477,669.08,943,748,0
915487,691.77,943,748,0
915497,704.91,943,748,0
915507,709.48,943,749,0
915517,705.95,943,748,0
915527,694.99,943,748,0
915537,677.21,943,748,0
915547,653.58,943,748,0
915557,625.76,943,748,0
915567,596.13,943,748,0
915577,566.01,943,748,0
915587,537.38,943,748,0
915597,511.12,943,748,0
915607,488.16,943,748,0
915617,468.69,943,748,0
915628,453.36,943,748,0
915638,442.02,943,748,0
915648,434.60,943,748,0
915658,430.91,943,748,0
915668,430.59,943,748,0
915678,433.29,943,748,0
915688,438.77,943,748,0
915698,446.55,943,748,0
915708,455.77,943,748,0
915718,465.87,943,748,0
915728,475.77,943,748,0
915738,485.14,943,748,0
915748,492.90,943,748,0
915758,498.63,943,748,0
915768,501.52,943,748,0
915778,501.80,943,748,0
915788,499.16,943,748,0
915799,494.35,943,748,0
915809,487.13,943,748,0
915819,478.69,943,748,0
915829,468.63,943,748,0
915840,458.33,943,748,0
915849,447.43,943,748,0
915859,437.01,943,748,0
915869,426.64,943,748,0
915879,417.62,943,748,0
915889,409.33,943,748,0
915899,402.85,943,748,0
915909,397.36,943,748,0
915919,393.87,943,748,0
915929,391.38,943,748,0
915939,390.54,943,748,0
915949,390.08,943,748,0
915959,390.78,943,748,0
915969,391.62,943,748,0
915979,393.10,943,748,0
915989,394.14,943,748,0
915999,395.73,943,748,0
916009,396.75,943,748,0
916019,398.24,943,748,0
916029,399.11,943,748,0
916039,400.32,943,748,0
916049,400.87,943,748,0
916059,401.72,943,748,0
916069,401.89,943,748,0
916079,402.48,943,748,0
916089,402.42,943,748,0
916099,402.60,943,748,0
916109,401.99,943,748,0
916119,401.69,943,748,0
916129,400.63,943,748,0
916140,399.84,943,748,0
916150,398.17,943,748,0
916160,396.79,943,748,0
916170,394.71,943,748,0
916180,393.17,943,748,0
916190,391.06,943,748,0
916200,389.67,943,748,0
916210,387.63,943,748,0
916220,386.45,943,748,0
916230,384.86,943,748,0
916240,384.30,943,748,0
916250,383.23,943,748,0
916260,383.03,943,748,0
916270,382.21,943,748,0
916280,382.19,943,748,0
916290,381.57,943,747,0
916300,382.30,943,748,0
916311,383.45,943,748,0
916321,387.65,943,748,0
916331,394.61,943,747,0
916341,407.71,943,748,0
916361,427.00,947,747,0
916364,455.58,947,750,0
916373,490.60,947,748,0
916383,529.93,947,748,0
916393,570.28,947,748,0
916403,610.01,947,749,0
916413,645.84,947,748,0
916423,676.49,947,748,0
916433,699.05,947,748,0
916443,714.89,947,749,0
916453,725.98,947,748,0
916463,733.75,947,748,0
916473,739.18,947,748,0
916483,743.03,947,749,0
916493,745.72,947,748,0
916503,747.60,947,748,0
916513,748.88,947,748,0
916524,748.27,947,749,0
916534,743.39,947,748,0
916544,733.72,947,748,0
916554,718.12,947,748,0
916564,697.04,947,748,0
916574,670.46,947,747,0
916584,639.59,947,748,0
916594,606.24,947,747,0
916604,574.41,947,748,0
916614,545.06,947,747,0
916624,520.74,947,748,0
916634,501.41,947,748,0
916644,488.08,947,748,0
916654,479.66,947,748,0
916664,476.59,947,748,0
916674,477.14,947,747,0
916684,481.26,947,748,0
916695,486.96,947,748,0
916705,493.79,947,748,0
916715,500.07,947,747,0
916725,505.45,947,749,0
916736,508.66,947,748,0
916745,509.70,947,748,0
916755,507.73,947,747,0
916765,503.36,947,748,0
916775,496.52,947,748,0
916785,488.09,947,748,0
916795,478.04,947,747,0
916805,467.14,947,749,0
916815,455.53,947,748,0
916825,444.27,947,748,0
916835,433.26,947,747,0
916845,423.07,947,749,0
916855,413.62,947,748,0
916865,405.59,947,749,0
916875,398.73,947,747,0
916885,393.45,947,749,0
916895,389.33,947,748,0
916905,386.62,947,748,0
916915,384.93,947,747,0
916925,384.40,947,749,0
916935,384.53,947,748,0
916945,385.36,947,748,0
916955,386.54,947,747,0
916965,388.13,947,749,0
916975,389.76,947,748,0
916985,391.55,947,748,0
916995,393.10,947,747,0
917005,394.70,947,749,0
917015,395.99,947,748,0
917025,397.06,947,748,0
917036,397.60,947,747,0
917046,397.85,947,748,0
917056,397.77,947,748,0
917066,397.28,947,748,0
917076,396.51,947,748,0
917086,395.59,947,748,0
917096,394.47,947,748,0
917106,393.13,947,748,0
917116,391.80,947,748,0
917126,390.23,947,748,0
917136,388.83,947,748,0
917146,387.08,947,748,0
917156,385.43,947,748,0
917166,383.67,947,748,0
917176,382.06,947,748,0
917186,380.20,947,748,0
917196,378.59,947,748,0
917207,376.70,947,748,0
917217,375.16,947,748,0
917227,373.31,947,748,0
917237,371.76,947,748,0
917248,370.03,947,748,0
917257,368.78,947,748,0
917267,367.39,947,748,0
917277,366.97,947,748,0
917287,367.28,947,748,0
917297,369.98,947,748,0
917307,375.52,947,748,0
917317,386.46,947,748,0
917327,403.72,947,748,0
917346,429.31,986,747,0
917349,463.24,986,749,0
917358,502.77,986,748,0
917368,544.71,986,748,0
917378,586.88,986,749,0
917388,626.22,986,748,0
917398,660.65,986,748,0
917408,688.01,986,748,0
917419,707.25,986,749,0
917428,720.72,986,748,0
917438,730.15,986,748,0
917448,736.75,986,748,0
917458,741.41,986,749,0
917468,744.67,986,748,0
917478,746.96,986,748,0
917488,745.55,986,748,0
917498,739.09,986,749,0
917508,726.12,986,748,0
917518,706.58,986,748,0
917528,679.67,986,748,0
917538,646.81,986,749,0
917548,608.17,986,748,0
917558,568.13,986,748,0
917568,528.75,986,748,0
917578,493.47,986,749,0
917588,462.86,986,748,0
917598,439.46,986,748,0
917608,422.13,986,748,0
917618,412.11,986,749,0
917628,407.79,986,748,0
917638,409.70,986,748,0
917648,415.44,986,748,0
917658,425.17,986,749,0
917668,436.17,986,748,0
917678,448.42,986,748,0
917688,459.44,986,748,0
917698,469.46,986,749,0
917708,476.31,986,748,0
917719,480.59,986,748,0
917729,480.63,986,747,0
917739,478.08,986,749,0
917749,471.80,986,748,0
917760,463.55,986,749,0
917769,452.54,986,748,0
917779,440.85,986,749,0
917789,427.69,986,748,0
917799,415.14,986,749,0
917809,401.99,986,747,0
917819,390.33,986,749,0
917829,379.09,986,748,0
917839,369.98,986,749,0
917849,361.67,986,748,0
917859,355.73,986,749,0
917869,350.67,986,748,0
917879,348.15,986,749,0
917889,346.26,986,747,0
917899,346.31,986,749,0
917909,346.69,986,748,0
917919,348.54,986,749,0
917929,350.35,986,747,0
917939,353.33,986,749,0
917949,355.59,986,748,0
917959,358.80,986,749,0
917969,361.22,986,747,0
917979,364.19,986,749,0
917989,366.15,986,748,0
917999,368.50,986,749,0
918009,369.68,986,748,0
918019,371.19,986,749,0
918029,371.35,986,748,0
918039,371.80,986,749,0
918049,371.05,986,748,0
918060,370.82,986,749,0
918070,369.63,986,748,0
918080,368.93,986,749,0
918090,367.41,986,747,0
918100,366.68,986,749,0
918110,365.41,986,748,0
918120,364.99,986,749,0
918130,363.96,986,748,0
918140,363.59,986,749,0
918150,362.73,986,748,0
918160,362.59,986,749,0
918170,361.52,986,747,0
918180,360.85,986,749,0
918190,359.22,986,748,0
918200,358.04,986,749,0
918210,355.97,986,747,0
918220,354.61,986,749,0
918231,352.84,986,748,0
918241,352.76,986,749,0
918251,353.99,986,748,0
918261,359.09,986,749,0
918272,368.24,986,748,0
918281,384.37,986,749,0
918291,407.36,986,747,0
918310,439.35,964,746,0
918313,477.99,964,748,0
918322,520.63,964,749,0
918332,563.77,964,747,0
918342,605.41,964,749,0
918352,642.62,964,748,0
918362,674.02,964,749,0
918372,697.50,964,747,0
918382,713.93,964,749,0
918392,725.40,964,748,0
918402,733.08,964,749,0
918412,734.60,964,748,0
918422,729.06,964,749,0
918432,715.03,964,748,0
918443,692.52,964,749,0
918452,661.81,964,748,0
918462,623.76,964,749,0
918472,579.14,964,748,0
918482,532.55,964,749,0
918492,486.36,964,748,0
918502,444.08,964,749,0
918512,407.07,964,748,0
918522,376.83,964,749,0
918532,353.44,964,748,0
918542,338.05,964,749,0
918552,329.98,964,748,0
918562,329.26,964,749,0
918572,334.37,964,748,0
918582,345.06,964,749,0
918592,359.40,964,748,0
918602,376.59,964,749,0
918612,394.54,964,747,0
918622,412.72,964,749,0
918632,429.39,964,748,0
918642,444.10,964,749,0
918652,455.13,964,748,0
918662,462.76,964,749,0
918672,466.30,964,748,0
918682,466.26,964,749,0
918692,462.07,964,748,0
918702,454.89,964,749,0
918712,444.64,964,748,0
918722,432.53,964,749,0
918732,418.70,964,748,0
918743,404.18,964,749,0
918753,389.29,964,748,0
918763,374.98,964,749,0
918773,361.36,964,748,0
918784,349.21,964,748,0
918793,338.99,964,748,0
918803,330.93,964,749,0
918813,324.95,964,748,0
918823,320.94,964,748,0
918833,318.81,964,748,0
918843,318.40,964,749,0
918853,319.52,964,748,0
918863,321.51,964,748,0
918873,324.18,964,748,0
918883,327.34,964,749,0
918893,330.93,964,748,0
918903,334.55,964,748,0
918913,338.11,964,748,0
918923,341.38,964,749,0
918933,344.39,964,748,0
918943,346.89,964,748,0
918953,349.15,964,748,0
918963,350.86,964,749,0
918973,352.32,964,748,0
918983,353.38,964,748,0
918993,354.34,964,748,0
919003,354.92,964,749,0
919013,355.33,964,748,0
919023,355.27,964,748,0
919033,355.11,964,748,0
919043,354.65,964,749,0
919053,354.15,964,748,0
919063,353.21,964,748,0
919073,352.24,964,748,0
919084,350.97,964,748,0
919094,349.69,964,748,0
919104,348.16,964,748,0
919114,346.70,964,748,0
919124,344.90,964,748,0
919134,343.69,964,748,0
919144,343.14,964,748,0
919154,344.90,964,748,0
919164,349.21,964,748,0
919174,357.89,964,749,0
919184,371.64,964,748,0
919194,392.62,964,749,0
919204,420.63,964,748,0
919223,455.97,913,747,0
919226,496.18,913,748,0
919235,538.81,913,749,0
919245,580.78,913,748,0
919255,620.15,913,749,0
919265,654.30,913,748,0
919275,682.33,913,749,0
919285,703.27,913,748,0
919296,716.69,913,749,0
919305,722.05,913,748,0
919315,719.55,913,749,0
919325,708.24,913,748,0
919335,688.71,913,749,0
919345,660.99,913,748,0
919355,626.32,913,748,0
919365,585.94,913,748,0
919375,543.61,913,749,0
919385,500.87,913,748,0
919395,461.22,913,749,0
919405,425.11,913,748,0
919415,394.65,913,749,0
919425,369.34,913,748,0
919435,351.20,913,749,0
919445,339.14,913,748,0
919455,334.25,913,749,0
919465,334.78,913,748,0
919475,341.40,913,748,0
919485,352.00,913,748,0
919495,366.78,913,749,0
919505,383.18,913,748,0
919515,401.04,913,748,0
919525,418.08,913,748,0
919535,434.47,913,749,0
919545,447.92,913,748,0
919555,458.96,913,748,0
919565,465.74,913,748,0
919575,469.42,913,749,0
919585,468.69,913,748,0
919596,465.01,913,749,0
919606,457.34,913,748,0
919616,447.72,913,749,0
919626,435.29,913,748,0
919636,422.26,913,749,0
919646,407.91,913,748,0
919656,394.35,913,749,0
919666,380.62,913,748,0
919676,368.86,913,749,0
919686,357.97,913,748,0
919696,349.67,913,749,0
919706,342.52,913,748,0
919716,337.91,913,749,0
919726,334.38,913,748,0
919736,333.28,913,749,0
919746,332.85,913,748,0
919756,334.40,913,749,0
919767,336.16,913,748,0
919777,339.37,913,749,0
919787,342.47,913,748,0
919797,346.62,913,749,0
919808,350.12,913,748,0
919817,354.37,913,749,0
919827,357.60,913,748,0
919837,361.36,913,749,0
919847,364.00,913,748,0
919857,366.96,913,749,0
919867,368.68,913,748,0
919877,370.79,913,748,0
919887,371.71,913,748,0
919897,373.00,913,749,0
919907,373.08,913,748,0
919917,373.53,913,748,0
919927,372.90,913,748,0
919937,372.76,913,749,0
919947,371.76,913,748,0
919957,371.75,913,748,0
919967,371.95,913,748,0
919977,374.84,913,749,0
919987,380.29,913,748,0
919997,391.34,913,749,0
920007,408.43,913,748,0
920017,434.44,913,749,0
920036,468.34,813,748,0
920039,507.75,813,749,0
920048,549.23,813,748,0
920058,590.99,813,749,0
920068,629.69,813,748,0
920078,663.64,813,749,0
920088,690.06,813,748,0
920098,708.73,813,749,0
920108,721.80,813,748,0
920118,730.94,813,749,0
920128,737.30,813,748,0
920138,741.80,813,749,0
920148,744.94,813,748,0
920158,747.15,813,749,0
920168,747.92,813,748,0
920178,745.07,813,749,0
920188,736.26,813,748,0
920198,721.27,813,749,0
920208,698.90,813,748,0
920218,669.92,813,749,0
920228,634.59,813,748,0
920238,595.20,813,749,0
920248,554.42,813,748,0
920258,516.41,813,749,0
920268,482.04,813,748,0
920279,454.09,813,749,0
920289,432.33,813,748,0
920299,417.83,813,749,0
920309,409.18,813,748,0
920320,406.77,813,749,0
920329,408.85,813,748,0
920339,415.20,813,749,0
920349,423.62,813,748,0
920359,433.81,813,749,0
920369,443.64,813,748,0
920379,452.75,813,749,0
920389,459.64,813,748,0
920399,464.16,813,749,0
920409,465.48,813,748,0
920419,464.27,813,749,0
920429,459.73,813,748,0
920439,452.61,813,749,0
920449,442.87,813,748,0
920459,431.89,813,749,0
920469,419.76,813,748,0
920479,407.53,813,749,0
920489,395.11,813,748,0
920499,383.68,813,749,0
920509,373.19,813,748,0
920519,364.52,813,749,0
920529,357.08,813,748,0
920539,351.61,813,749,0
920549,347.36,813,748,0
920559,344.85,813,749,0
920569,343.52,813,748,0
920579,343.88,813,749,0
920589,345.20,813,748,0
920599,347.80,813,749,0
920609,350.90,813,748,0
920620,354.70,813,749,0
920630,358.56,813,748,0
920640,362.55,813,749,0
920650,366.24,813,748,0
920660,369.60,813,749,0
920670,372.42,813,748,0
920680,374.78,813,749,0
920690,376.77,813,748,0
920700,378.43,813,749,0
920710,379.63,813,748,0
920720,380.34,813,749,0
920730,380.67,813,748,0
920740,380.51,813,749,0
920750,380.01,813,748,0
920760,378.98,813,749,0
920770,377.62,813,748,0
920780,375.97,813,749,0
920791,374.65,813,749,0
920801,374.16,813,749,0
920811,376.00,813,748,0
920821,381.31,813,748,0
920832,392.62,813,749,0
920841,411.20,813,749,0
920851,439.21,813,748,0
920870,474.98,834,748,0
920873,515.66,834,749,0
920882,558.19,834,749,0
920892,600.22,834,748,0
920902,638.51,834,748,0
920912,671.14,834,749,0
920922,695.61,834,748,0
920932,712.79,834,749,0
920942,724.85,834,748,0
920952,733.30,834,749,0
920962,739.21,834,748,0
920972,743.34,834,749,0
920982,746.24,834,748,0
920992,748.27,834,749,0
921003,748.83,834,748,0
921012,745.97,834,749,0
921022,736.98,834,748,0
921032,721.21,834,749,0
921042,697.58,834,748,0
921052,667.19,834,749,0
921062,630.10,834,748,0
921072,588.84,834,749,0
921082,545.99,834,748,0
921092,506.35,834,748,0
921102,471.45,834,748,0
921112,444.05,834,749,0
921122,423.55,834,748,0
921132,411.00,834,749,0
921142,404.92,834,748,0
921152,405.71,834,749,0
921162,410.77,834,748,0
921172,419.88,834,749,0
921182,430.59,834,748,0
921192,442.41,834,749,0
921202,453.13,834,748,0
921212,462.39,834,749,0
921222,468.36,834,748,0
921232,471.77,834,749,0
921242,470.85,834,748,0
921252,466.91,834,749,0
921262,459.18,834,748,0
921272,449.31,834,749,0
921282,436.88,834,748,0
921292,423.71,834,749,0
921303,409.18,834,748,0
921313,395.50,834,749,0
921323,381.81,834,748,0
921333,369.99,834,749,0
921344,358.98,834,748,0
921353,350.59,834,749,0
921363,343.47,834,748,0
921373,339.13,834,749,0
921383,336.00,834,748,0
921393,335.27,834,749,0
921403,335.32,834,748,0
921413,337.50,834,749,0
921423,339.83,834,748,0
921433,343.57,834,749,0
921443,346.87,834,748,0
921453,351.11,834,749,0
921463,354.63,834,748,0
921473,358.77,834,749,0
921483,361.84,834,748,0
921493,365.23,834,749,0
921503,367.30,834,748,0
921513,369.87,834,749,0
921523,371.15,834,748,0
921533,372.61,834,749,0
921543,372.72,834,747,0
921553,372.98,834,749,0
921563,371.96,834,748,0
921573,371.24,834,749,0
921583,369.20,834,748,0
921593,367.47,834,749,0
921603,365.01,834,748,0
921613,363.89,834,749,0
921623,363.71,834,748,0
921633,367.57,834,749,0
921644,375.67,834,748,0
921654,391.58,834,749,0
921664,415.49,834,748,0
921674,449.55,834,749,0
921694,489.50,823,748,0
921697,533.15,823,750,0
921706,576.77,823,748,0
921716,618.50,823,749,0
921726,654.78,823,749,0
921736,684.24,823,749,0
921746,704.87,823,748,0
921756,719.31,823,749,0
921766,729.42,823,748,0
921776,736.49,823,749,0
921786,737.59,823,748,0
921796,731.63,823,749,0
921806,717.12,823,748,0
921816,694.41,823,749,0
921826,663.26,823,748,0
921836,624.78,823,749,0
921846,579.38,823,748,0
921857,532.21,823,749,0
921867,485.94,823,748,0
921877,443.79,823,749,0
921887,406.74,823,748,0
921897,376.47,823,749,0
921907,352.93,823,748,0
921917,336.92,823,749,0
921927,327.90,823,748,0
921937,325.66,823,749,0
921947,329.06,823,748,0
921957,337.44,823,749,0
921967,349.23,823,748,0
921977,363.43,823,749,0
921987,378.21,823,748,0
921997,392.72,823,749,0
922007,405.62,823,748,0
922017,416.28,823,749,0
922028,423.52,823,748,0
922038,427.35,823,749,0
922048,427.46,823,748,0
922058,424.15,823,749,0
922068,417.51,823,749,0
922078,408.10,823,749,0
922088,396.50,823,748,0
922098,383.62,823,749,0
922108,370.10,823,748,0
922118,356.66,823,749,0
922128,343.90,823,748,0
922138,332.15,823,749,0
922148,322.07,823,749,0
922158,313.82,823,749,0
922168,307.75,823,749,0
922178,303.58,823,749,0
922188,301.48,823,749,0
922199,301.12,823,749,0
922209,302.63,823,749,0
922219,305.10,823,749,0
922229,308.75,823,749,0
922240,312.68,823,748,0
922249,317.32,823,749,0
922259,321.73,823,749,0
922269,326.22,823,749,0
922279,329.97,823,748,0
922289,333.58,823,749,0
922299,336.15,823,748,0
922309,338.46,823,749,0
922319,339.69,823,748,0
922329,340.73,823,749,0
922339,340.90,823,748,0
922349,341.14,823,749,0
922359,340.46,823,748,0
922369,339.85,823,749,0
922379,338.56,823,748,0
922389,337.45,823,749,0
922399,335.43,823,748,0
922409,333.59,823,749,0
922419,330.97,823,748,0
922429,328.75,823,749,0
922439,325.95,823,748,0
922449,323.74,823,749,0
922459,321.33,823,748,0
922469,320.33,823,749,0
922479,320.53,823,748,0
922489,324.19,823,749,0
922499,331.59,823,748,0
922509,345.25,823,749,0
922519,365.58,823,748,0
922529,394.63,823,749,0
922540,431.34,823,749,0
922559,474.48,866,747,0
922562,520.07,866,748,0
922571,565.73,866,749,0
922582,608.28,866,748,0
922591,645.91,866,749,0
922601,676.28,866,748,0
922611,698.14,866,749,0
922621,709.24,866,748,0
922631,711.10,866,749,0
922641,703.01,866,748,0
922651,686.12,866,749,0
922661,660.11,866,748,0
922671,627.08,866,749,0
922681,587.93,866,748,0
922691,547.11,866,749,0
922701,505.37,866,748,0
922711,466.60,866,749,0
922721,430.85,866,748,0
922731,400.68,866,749,0
922741,374.59,866,748,0
922752,354.53,866,749,0
922761,339.07,866,748,0
922771,329.45,866,749,0
922781,323.87,866,748,0
922791,323.57,866,749,0
922801,326.40,866,748,0
922811,333.26,866,749,0
922821,341.84,866,748,0
922831,352.82,866,749,0
922841,363.89,866,748,0
922851,375.71,866,749,0
922861,385.69,866,748,0
922871,394.83,866,749,0
922881,401.05,866,748,0
922891,405.58,866,749,0
922901,406.65,866,748,0
922911,405.73,866,749,0
922921,401.39,866,748,0
922931,395.62,866,749,0
922941,387.25,866,748,0
922951,378.26,866,749,0
922961,367.64,866,748,0
922971,357.46,866,749,0
922981,346.52,866,748,0
922991,336.85,866,749,0
923001,327.34,866,748,0
923011,319.95,866,749,0
923021,313.32,866,748,0
923031,309.11,866,749,0
923041,305.56,866,748,0
923052,304.45,866,749,0
923062,303.93,866,748,0
923072,305.37,866,749,0
923082,306.88,866,748,0
923092,309.75,866,749,0
923102,312.14,866,748,0
923112,315.48,866,749,0
923122,318.17,866,748,0
923132,321.46,866,749,0
923142,323.89,866,748,0
923152,326.75,866,749,0
923162,328.54,866,748,0
923172,330.48,866,749,0
923182,331.36,866,748,0
923192,332.54,866,749,0
923202,332.76,866,748,0
923212,333.22,866,749,0
923223,332.60,866,748,0
923233,332.29,866,749,0
923243,331.26,866,748,0
923253,330.71,866,749,0
923264,329.47,866,748,0
923273,328.86,866,749,0
923283,327.66,866,748,0
923293,327.16,866,749,0
923303,326.21,866,748,0
923313,326.11,866,749,0
923323,325.52,866,748,0
923333,325.36,866,749,0
923343,324.70,866,748,0
923353,324.53,866,749,0
923363,323.77,866,748,0
923373,323.41,866,749,0
923383,322.60,866,748,0
923393,322.81,866,749,0
923403,323.68,866,748,0
923413,327.08,866,749,0
923423,333.18,866,748,0
923433,344.27,866,749,0
923443,360.52,866,748,0
923462,384.11,903,746,0
923465,414.93,903,749,0
923474,453.57,903,749,0
923484,496.42,903,748,0
923494,541.00,903,749,0
923504,584.11,903,748,0
923514,624.24,903,749,0
923524,658.67,903,748,0
923534,686.28,903,749,0
923544,703.77,903,748,0
923554,711.59,903,749,0
923564,710.30,903,748,0
923574,700.57,903,749,0
923584,682.61,903,748,0
923594,657.19,903,749,0
923604,625.20,903,748,0
923614,590.00,903,749,0
923624,553.57,903,748,0
923634,518.17,903,749,0
923644,484.95,903,748,0
923654,455.56,903,749,0
923664,430.32,903,748,0
923674,409.57,903,749,0
923684,393.11,903,749,0
923694,381.29,903,749,0
923704,373.45,903,748,0
923714,369.71,903,749,0
923724,369.37,903,748,0
923735,372.35,903,749,0
923745,377.90,903,748,0
923755,385.30,903,749,0
923765,393.95,903,749,0
923776,403.10,903,748,0
923785,412.15,903,748,0
923795,420.25,903,749,0
923805,427.07,903,749,0
923815,431.72,903,749,0
923825,434.38,903,748,0
923835,434.48,903,749,0
923845,432.49,903,749,0
923855,427.97,903,749,0
923865,421.77,903,748,0
923875,413.69,903,749,0
923885,404.74,903,749,0
923895,394.88,903,748,0
923905,385.06,903,748,0
923915,375.48,903,749,0
923925,366.90,903,749,0
923935,359.08,903,749,0
923945,352.67,903,749,0
923955,347.50,903,749,0
923965,343.96,903,749,0
923975,341.45,903,749,0
923985,340.33,903,749,0
923995,340.06,903,749,0
924005,340.90,903,749,0
924015,342.21,903,749,0
924025,344.29,903,749,0
924035,346.56,903,749,0
924045,349.44,903,749,0
924055,352.18,903,748,0
924065,355.17,903,749,0
924076,357.77,903,748,0
924086,360.71,903,749,0
924096,363.11,903,749,0
924106,365.61,903,749,0
924116,367.31,903,748,0
924126,368.89,903,749,0
924136,369.69,903,748,0
924146,370.43,903,749,0
924156,370.04,903,748,0
924166,369.73,903,749,0
924176,368.65,903,749,0
924186,367.94,903,749,0
924196,366.46,903,748,0
924206,365.38,903,749,0
924216,363.77,903,749,0
924226,362.68,903,749,0
924236,361.02,903,748,0
924247,360.03,903,749,0
924257,358.43,903,748,0
924267,357.66,903,749,0
924277,356.22,903,748,0
924288,355.55,903,749,0
924297,354.40,903,748,0
924307,354.07,903,749,0
924317,353.15,903,748,0
924327,353.10,903,749,0
924337,352.86,903,748,0
924347,354.57,903,749,0
924357,357.79,903,748,0
924367,365.09,903,749,0
924377,376.38,903,748,0
924387,394.69,903,749,0
924397,419.86,903,748,0
924417,453.89,954,747,0
924420,493.39,954,749,0
924429,535.92,954,749,0
924439,578.16,954,748,0
924449,618.48,954,750,0
924460,653.69,954,749,0
924470,682.80,954,749,0
924480,703.73,954,748,0
924490,718.38,954,749,0
924500,728.60,954,748,0
924510,735.79,954,749,0
924520,740.78,954,748,0
924530,744.32,954,750,0
924540,744.35,954,749,0
924550,740.35,954,749,0
924560,730.64,954,748,0
924570,715.49,954,749,0
924580,694.04,954,748,0
924590,667.33,954,749,0
924600,635.05,954,748,0
924610,601.09,954,749,0
924620,566.48,954,748,0
924631,534.53,954,749,0
924641,505.36,954,748,0
924651,481.21,954,749,0
924661,461.65,954,748,0
924672,448.08,954,749,0
924681,439.14,954,748,0
924691,435.63,954,749,0
924701,435.91,954,748,0
924711,440.18,954,749,0
924721,446.56,954,748,0
924731,454.83,954,749,0
924741,463.02,954,748,0
924751,470.99,954,749,0
924761,477.04,954,748,0
924771,481.40,954,749,0
924781,482.86,954,748,0
924791,482.13,954,749,0
924801,478.41,954,748,0
924811,472.93,954,749,0
924821,465.06,954,748,0
924831,456.00,954,749,0
924841,445.42,954,748,0
924851,434.88,954,749,0
924861,423.90,954,748,0
924871,413.56,954,749,0
924881,403.62,954,748,0
924891,395.12,954,749,0
924901,387.63,954,748,0
924911,381.82,954,749,0
924921,377.12,954,748,0
924931,374.21,954,749,0
924941,372.39,954,748,0
924951,371.93,954,749,0
924961,372.29,954,748,0
924972,373.79,954,749,0
924982,375.78,954,749,0
924992,378.25,954,749,0
925002,380.83,954,748,0
925012,383.62,954,749,0
925022,386.18,954,749,0
925032,388.53,954,749,0
925042,390.34,954,748,0
925052,391.78,954,749,0
925062,392.75,954,748,0
925072,393.25,954,749,0
925082,393.48,954,748,0
925092,393.38,954,749,0
925102,393.18,954,749,0
925112,392.70,954,749,0
925122,392.06,954,748,0
925132,391.14,954,749,0
925143,389.98,954,749,0
925153,388.27,954,749,0
925163,386.52,954,749,0
925173,384.26,954,749,0
925184,382.30,954,749,0
925193,380.15,954,749,0
925203,378.26,954,749,0
925213,376.26,954,749,0
925223,374.72,954,749,0
925233,373.09,954,749,0
925243,372.08,954,749,0
925253,370.90,954,749,0
925263,370.33,954,749,0
925273,369.76,954,749,0
925283,369.75,954,749,0
925293,369.61,954,749,0
925303,369.81,954,749,0
925313,369.78,954,749,0
925323,369.93,954,748,0
925333,369.61,954,749,0
925343,369.64,954,749,0
925353,369.28,954,749,0
925363,369.45,954,749,0
925373,369.83,954,749,0
925383,371.94,954,749,0
925393,376.29,954,749,0
925403,384.86,954,749,0
925413,398.74,954,749,0
925423,420.76,954,749,0
925433,451.61,954,749,0
925452,489.22,1036,747,0
925455,530.26,1036,749,0
925464,572.52,1036,750,0
925474,613.25,1036,749,0
925484,650.12,1036,749,0
925494,680.30,1036,749,0
925504,702.11,1036,749,0
925514,717.38,1036,749,0
925524,728.06,1036,749,0
925534,735.54,1036,749,0
925544,740.78,1036,749,0
925554,744.45,1036,749,0
925564,747.01,1036,749,0
925574,748.81,1036,749,0
925584,750.07,1036,749,0
925594,750.95,1036,749,0
925604,751.56,1036,749,0
925614,751.99,1036,749,0
925624,752.30,1036,749,0
925634,749.38,1036,749,0
925644,741.72,1036,749,0
925655,727.62,1036,749,0
925665,707.38,1036,749,0
925675,680.56,1036,748,0
925685,648.72,1036,749,0
925696,612.29,1036,748,0
925705,576.33,1036,749,0
925715,542.68,1036,749,0
925725,514.53,1036,749,0
925735,491.66,1036,748,0
925745,475.73,1036,749,0
925755,464.71,1036,748,0
925765,459.23,1036,750,0
925775,456.59,1036,748,0
925785,457.10,1036,749,0
925795,458.22,1036,748,0
925805,460.34,1036,750,0
925815,461.01,1036,748,0
925825,461.39,1036,749,0
925835,459.35,1036,748,0
925845,456.03,1036,750,0
925855,449.89,1036,748,0
925865,442.68,1036,750,0
925875,433.22,1036,749,0
925885,423.43,1036,750,0
925895,412.11,1036,748,0
925905,401.28,1036,750,0
925915,390.27,1036,748,0
925925,380.93,1036,750,0
925935,371.99,1036,748,0
925945,365.18,1036,750,0
925955,359.21,1036,748,0
925965,355.81,1036,750,0
925975,353.34,1036,748,0
925985,353.02,1036,750,0
925996,353.14,1036,749,0
926006,355.07,1036,749,0
926016,357.06,1036,748,0
926026,360.52,1036,750,0
926036,363.49,1036,748,0
926046,367.37,1036,750,0
926056,370.26,1036,748,0
926066,373.70,1036,750,0
926076,375.93,1036,748,0
926086,378.48,1036,749,0
926096,379.79,1036,749,0
926106,381.18,1036,750,0
926116,381.26,1036,748,0
926126,381.57,1036,750,0
926136,380.71,1036,748,0
926146,380.24,1036,749,0
926156,378.71,1036,748,0
926167,377.43,1036,750,0
926177,375.11,1036,748,0
926187,373.11,1036,749,0
926197,370.29,1036,749,0
926208,367.85,1036,750,0
926217,364.85,1036,748,0
926227,362.49,1036,749,0
926237,359.56,1036,748,0
926247,357.34,1036,749,0
926257,354.71,1036,748,0
926267,352.95,1036,750,0
926277,350.95,1036,749,0
926287,349.68,1036,750,0
926297,348.06,1036,748,0
926307,347.27,1036,750,0
926317,346.33,1036,748,0
926327,346.23,1036,749,0
926337,345.73,1036,748,0
926347,346.11,1036,750,0
926357,346.17,1036,749,0
926367,346.97,1036,749,0
926377,347.54,1036,748,0
926387,348.75,1036,749,0
926397,349.51,1036,749,0
926407,350.81,1036,749,0
926417,351.56,1036,748,0
926427,352.80,1036,750,0
926437,353.42,1036,749,0
926447,354.62,1036,749,0
926457,355.68,1036,748,0
926467,358.60,1036,749,0
926477,363.48,1036,749,0
926487,372.98,1036,749,0
926497,388.41,1036,749,0
926508,412.93,1036,749,0
926518,446.64,1036,749,0
926537,486.86,1085,747,0
926540,530.15,1085,749,0
926550,574.46,1085,750,0
926559,616.58,1085,749,0
926569,653.99,1085,749,0
926579,683.69,1085,749,0
926589,704.49,1085,749,0
926599,719.04,1085,749,0
926609,729.23,1085,749,0
926619,736.36,1085,749,0
926629,741.35,1085,749,0
926639,744.85,1085,749,0
926649,747.34,1085,750,0
926659,749.08,1085,749,0
926669,750.30,1085,749,0
926679,751.15,1085,749,0
926689,750.38,1085,749,0
926699,745.12,1085,749,0
926709,733.64,1085,749,0
926720,714.89,1085,749,0
926729,689.04,1085,749,0
926739,656.41,1085,749,0
926749,617.59,1085,749,0
926759,574.94,1085,749,0
926769,532.40,1085,749,0
926779,492.90,1085,749,0
926789,458.51,1085,749,0
926799,430.29,1085,749,0
926809,408.69,1085,750,0
926819,393.78,1085,749,0
926829,385.02,1085,749,0
926839,381.67,1085,749,0
926849,382.67,1085,749,0
926859,386.80,1085,749,0
926869,392.86,1085,749,0
926879,399.67,1085,749,0
926889,405.94,1085,749,0
926899,410.93,1085,748,0
926909,414.08,1085,749,0
926919,415.00,1085,749,0
926929,413.41,1085,749,0
926939,409.26,1085,748,0
926949,402.71,1085,748,0
926959,394.53,1085,749,0
926969,384.94,1085,749,0
926979,374.63,1085,749,0
926989,363.94,1085,749,0
926999,353.67,1085,749,0
927009,343.83,1085,749,0
927020,335.27,1085,749,0
927030,327.77,1085,748,0
927040,321.93,1085,749,0
927050,317.19,1085,749,0
927060,314.18,1085,749,0
927070,312.24,1085,748,0
927080,312.00,1085,749,0
927090,312.47,1085,749,0
927100,314.26,1085,749,0
927110,316.45,1085,748,0
927120,319.62,1085,749,0
927130,322.69,1085,749,0
927140,326.42,1085,749,0
927150,329.85,1085,748,0
927160,333.58,1085,749,0
927170,336.54,1085,749,0
927180,339.59,1085,749,0
927191,341.60,1085,748,0
927201,343.65,1085,749,0
927211,344.52,1085,749,0
927221,345.27,1085,749,0
927232,344.84,1085,748,0
927241,344.55,1085,749,0
927251,343.27,1085,749,0
927261,342.25,1085,749,0
927271,340.16,1085,748,0
927281,338.57,1085,749,0
927291,336.25,1085,749,0
927301,334.64,1085,749,0
927311,332.47,1085,748,0
927321,331.00,1085,749,0
927331,329.16,1085,749,0
927341,328.17,1085,749,0
927351,326.66,1085,749,0
927361,325.95,1085,749,0
927371,324.76,1085,749,0
927381,324.36,1085,750,0
927391,323.35,1085,748,0
927401,323.12,1085,749,0
927411,322.40,1085,749,0
927421,322.49,1085,750,0
927431,321.92,1085,749,0
927441,322.16,1085,749,0
927451,321.72,1085,749,0
927461,322.28,1085,749,0
927471,322.32,1085,749,0
927481,323.17,1085,749,0
927491,323.42,1085,749,0
927501,324.58,1085,749,0
927511,325.18,1085,748,0
927521,326.45,1085,749,0
927532,327.09,1085,749,0
927542,328.65,1085,750,0
927552,330.47,1085,748,0
927562,334.96,1085,750,0
927572,342.21,1085,749,0
927582,354.96,1085,749,0
927592,374.05,1085,748,0
927611,402.49,1074,747,0
927614,439.80,1074,750,0
927623,483.19,1074,750,0
927633,528.77,1074,749,0
927643,574.44,1074,750,0
927653,617.08,1074,749,0
927663,654.69,1074,750,0
927673,684.18,1074,749,0
927683,704.83,1074,750,0
927693,719.24,1074,749,0
927703,729.41,1074,750,0
927713,736.53,1074,749,0
927723,741.51,1074,750,0
927733,745.00,1074,749,0
927744,746.33,1074,750,0
927753,742.50,1074,749,0
927763,732.49,1074,749,0
927773,714.56,1074,748,0
927783,689.24,1074,749,0
927793,656.55,1074,749,0
927803,617.77,1074,749,0
927813,574.13,1074,748,0
927823,530.46,1074,750,0
927833,488.36,1074,749,0
927843,451.36,1074,749,0
927853,419.28,1074,749,0
927863,393.91,1074,750,0
927873,373.92,1074,749,0
927883,360.87,1074,749,0
927893,352.94,1074,748,0
927903,350.94,1074,750,0
927913,352.72,1074,749,0
927923,358.80,1074,749,0
927933,366.66,1074,749,0
927943,376.83,1074,750,0
927953,386.70,1074,749,0
927963,396.82,1074,749,0
927973,404.93,1074,748,0
927983,411.81,1074,750,0
927993,415.68,1074,749,0
928003,417.66,1074,749,0
928013,416.22,1074,749,0
928023,412.85,1074,750,0
928033,406.43,1074,749,0
928044,398.63,1074,749,0
928054,388.62,1074,748,0
928064,378.19,1074,750,0
928074,366.61,1074,749,0
928084,355.84,1074,749,0
928094,345.09,1074,749,0
928104,335.98,1074,750,0
928114,327.63,1074,749,0
928124,321.18,1074,749,0
928134,315.56,1074,748,0
928144,312.05,1074,750,0
928154,309.55,1074,749,0
928164,308.78,1074,749,0
928174,308.80,1074,749,0
928184,310.36,1074,750,0
928194,312.44,1074,749,0
928204,315.69,1074,749,0
928215,318.87,1074,749,0
928225,322.47,1074,750,0
928235,325.80,1074,749,0
928245,329.12,1074,749,0
928256,331.78,1074,749,0
928265,334.42,1074,750,0
928275,336.44,1074,748,0
928285,338.45,1074,750,0
928295,339.81,1074,748,0
928305,340.98,1074,750,0
928315,341.59,1074,749,0
928325,342.10,1074,750,0
928335,342.11,1074,749,0
928345,342.12,1074,750,0
928355,341.48,1074,748,0
928365,340.87,1074,749,0
928375,339.96,1074,749,0
928385,339.25,1074,750,0
928395,338.27,1074,749,0
928405,337.33,1074,750,0
928415,336.12,1074,749,0
928425,335.14,1074,750,0
928435,333.94,1074,748,0
928445,332.84,1074,750,0
928455,331.56,1074,749,0
928465,330.41,1074,749,0
928475,329.21,1074,749,0
928485,328.34,1074,750,0
928495,327.51,1074,748,0
928505,326.97,1074,749,0
928515,326.42,1074,748,0
928525,326.38,1074,750,0
928535,326.48,1074,749,0
928545,326.94,1074,750,0
928556,327.34,1074,749,0
928566,327.88,1074,750,0
928576,328.43,1074,749,0
928586,328.99,1074,749,0
928596,329.42,1074,749,0
928606,329.81,1074,749,0
928616,330.25,1074,749,0
928626,330.78,1074,749,0
928636,332.17,1074,749,0
928646,335.08,1074,749,0
928656,341.05,1074,749,0
928666,351.24,1074,749,0
928676,367.84,1074,749,0
928695,391.93,1084,748,0
928698,425.81,1084,751,0
928707,466.58,1084,749,0
928717,511.32,1084,750,0
928727,556.91,1084,749,0
928737,600.82,1084,749,0
928747,640.18,1084,749,0
928757,673.12,1084,749,0
928768,697.09,1084,749,0
928777,713.86,1084,749,0
928787,725.60,1084,749,0
928797,733.82,1084,750,0
928807,739.58,1084,749,0
928817,743.60,1084,749,0
928827,746.42,1084,749,0
928837,746.30,1084,750,0
928847,740.55,1084,749,0
928857,728.51,1084,749,0
928867,709.03,1084,749,0
928877,682.45,1084,749,0
928887,648.89,1084,749,0
928897,609.66,1084,749,0
928907,567.29,1084,749,0
928917,526.11,1084,750,0
928927,487.33,1084,749,0
928937,453.93,1084,749,0
928947,426.22,1084,749,0
928957,405.41,1084,749,0
928967,390.55,1084,749,0
928977,382.33,1084,749,0
928987,379.19,1084,749,0
928997,381.44,1084,749,0
929007,386.97,1084,749,0
929017,395.68,1084,749,0
929027,405.46,1084,749,0
929037,416.25,1084,749,0
929047,425.86,1084,749,0
929057,434.73,1084,749,0
929068,440.98,1084,749,0
929078,445.45,1084,750,0
929088,446.47,1084,749,0
929098,445.21,1084,749,0
929108,440.44,1084,749,0
929118,433.92,1084,750,0
929128,424.64,1084,749,0
929138,414.51,1084,749,0
929148,402.61,1084,748,0
929158,390.94,1084,750,0
929168,378.79,1084,749,0
929178,368.14,1084,750,0
929188,357.85,1084,748,0
929198,349.67,1084,749,0
929208,342.44,1084,749,0
929218,337.64,1084,750,0
929228,333.76,1084,749,0
929239,332.16,1084,750,0
929249,331.08,1084,748,0
929259,332.00,1084,750,0
929269,333.07,1084,748,0
929280,335.71,1084,750,0
929289,338.11,1084,748,0
929299,341.76,1084,750,0
929309,344.88,1084,748,0
929319,348.86,1084,750,0
929329,351.73,1084,748,0
929339,355.15,1084,750,0
929349,357.38,1084,748,0
929359,360.01,1084,750,0
929369,361.42,1084,749,0
929379,363.14,1084,750,0
929389,363.61,1084,748,0
929399,364.50,1084,750,0
929409,364.31,1084,749,0
929419,364.56,1084,750,0
929429,363.70,1084,748,0
929439,363.19,1084,750,0
929449,361.51,1084,749,0
929459,360.50,1084,750,0
929469,358.63,1084,748,0
929479,357.37,1084,750,0
929489,355.20,1084,748,0
929499,353.86,1084,750,0
929509,351.89,1084,748,0
929519,350.98,1084,750,0
929529,349.40,1084,748,0
929539,348.85,1084,750,0
929549,347.87,1084,748,0
929559,347.82,1084,750,0
929569,347.10,1084,749,0
929580,347.33,1084,750,0
929590,346.84,1084,748,0
929600,347.11,1084,750,0
929610,346.65,1084,749,0
929620,346.79,1084,750,0
929630,346.26,1084,748,0
929640,346.48,1084,750,0
929650,345.99,1084,749,0
929660,346.12,1084,750,0
929670,345.61,1084,748,0
929680,346.20,1084,750,0
929690,347.21,1084,749,0
929700,351.01,1084,750,0
929710,357.22,1084,748,0
929720,368.94,1084,750,0
929730,387.00,1084,749,0
929750,414.51,1054,747,0
929753,450.49,1054,749,0
929762,492.26,1054,750,0
929772,536.19,1054,749,0
929782,580.54,1054,750,0
929793,621.90,1054,748,0
929803,658.28,1054,750,0
929813,686.65,1054,749,0
929823,706.55,1054,750,0
929833,720.49,1054,749,0
929843,730.24,1054,750,0
929853,737.07,1054,749,0
929863,741.85,1054,750,0
929873,745.19,1054,749,0
929883,747.54,1054,750,0
929893,749.18,1054,749,0
929903,750.32,1054,750,0
929913,749.58,1054,749,0
929923,744.61,1054,750,0
929933,733.41,1054,749,0
929943,714.99,1054,750,0
929953,689.11,1054,749,0
929964,656.29,1054,749,0
929974,617.72,1054,749,0
929984,575.72,1054,749,0
929994,534.32,1054,749,0
930004,496.59,1054,749,0
930014,465.17,1054,749,0
930024,441.03,1054,749,0
930034,424.78,1054,749,0
930044,415.68,1054,749,0
930054,413.54,1054,749,0
930064,416.81,1054,749,0
930074,424.58,1054,749,0
930084,434.82,1054,749,0
930094,446.53,1054,749,0
930104,457.82,1054,749,0
930114,467.94,1054,749,0
930124,475.25,1054,749,0
930135,479.54,1054,749,0
930145,479.85,1054,749,0
930155,476.81,1054,749,0
930165,469.88,1054,749,0
930176,460.57,1054,750,0
930185,448.57,1054,749,0
930195,435.54,1054,749,0
930205,421.28,1054,749,0
930215,407.57,1054,750,0
930225,393.81,1054,749,0
930235,381.65,1054,750,0
930245,370.10,1054,749,0
930255,360.68,1054,750,0
930265,352.47,1054,749,0
930275,346.50,1054,749,0
930285,341.55,1054,749,0
930295,338.85,1054,750,0
930305,337.31,1054,749,0
930315,337.73,1054,749,0
930325,338.63,1054,749,0
930335,341.01,1054,749,0
930345,343.62,1054,749,0
930355,347.38,1054,749,0
930365,350.74,1054,749,0
930375,354.67,1054,750,0
930385,357.90,1054,749,0
930395,361.66,1054,750,0
930405,364.55,1054,749,0
930415,367.68,1054,750,0
930425,369.71,1054,749,0
930435,372.02,1054,750,0
930445,373.30,1054,748,0
930455,374.75,1054,750,0
930465,375.09,1054,749,0
930476,375.53,1054,750,0
930486,374.94,1054,748,0
930496,374.70,1054,750,0
930506,373.42,1054,749,0
930516,372.48,1054,750,0
930526,370.66,1054,748,0
930536,369.31,1054,750,0
930546,367.24,1054,749,0
930556,365.80,1054,750,0
930566,363.63,1054,748,0
930576,362.24,1054,750,0
930586,360.07,1054,748,0
930596,358.81,1054,750,0
930606,356.98,1054,748,0
930616,356.08,1054,750,0
930626,354.60,1054,749,0
930636,354.12,1054,750,0
930647,352.97,1054,748,0
930657,352.85,1054,750,0
930667,352.12,1054,749,0
930677,352.30,1054,750,0
930688,351.78,1054,748,0
930697,352.40,1054,750,0
930707,352.67,1054,749,0
930717,354.74,1054,750,0
930727,358.16,1054,748,0
930737,365.53,1054,750,0
930747,377.33,1054,749,0
930757,397.24,1054,750,0
930777,425.54,1027,748,0
930780,462.36,1027,751,0
930789,503.87,1027,749,0
930799,547.84,1027,750,0
930809,591.13,1027,749,0
930819,631.63,1027,750,0
930829,665.81,1027,749,0
930839,692.01,1027,750,0
930849,710.35,1027,749,0
930860,723.19,1027,750,0
930870,732.18,1027,749,0
930880,738.47,1027,750,0
930890,742.87,1027,748,0
930900,745.95,1027,750,0
930910,748.07,1027,749,0
930920,749.55,1027,750,0
930930,750.58,1027,748,0
930940,747.88,1027,750,0
930950,738.92,1027,749,0
930960,722.40,1027,750,0
930970,697.29,1027,748,0
930980,664.33,1027,750,0
930990,624.25,1027,749,0
931000,578.44,1027,750,0
931010,531.64,1027,748,0
931020,487.95,1027,750,0
931031,450.16,1027,749,0
931041,420.84,1027,749,0
931051,400.58,1027,749,0
931061,389.65,1027,749,0
931072,387.22,1027,749,0
931081,392.13,1027,750,0
931091,402.89,1027,749,0
931101,417.79,1027,749,0
931111,434.96,1027,749,0
931121,452.28,1027,750,0
931131,468.06,1027,749,0
931141,480.85,1027,750,0
931151,489.94,1027,749,0
931161,494.63,1027,749,0
931171,494.57,1027,749,0
931181,489.94,1027,749,0
931191,481.39,1027,749,0
931201,469.53,1027,750,0
931211,455.14,1027,749,0
931221,438.90,1027,749,0
931231,421.91,1027,749,0
931241,404.84,1027,749,0
931251,388.35,1027,749,0
931261,372.86,1027,749,0
931271,358.97,1027,749,0
931281,346.89,1027,749,0
931291,337.15,1027,749,0
931301,329.35,1027,749,0
931311,324.02,1027,749,0
931321,320.67,1027,749,0
931331,319.44,1027,749,0
931341,319.86,1027,749,0
931351,322.01,1027,749,0
931361,325.13,1027,749,0
931372,329.34,1027,749,0
931382,333.78,1027,749,0
931392,338.77,1027,749,0
931402,343.56,1027,749,0
931412,348.62,1027,750,0
931422,353.23,1027,749,0
931432,357.79,1027,749,0
931442,361.63,1027,749,0
931452,365.47,1027,749,0
931462,368.63,1027,749,0
931472,371.82,1027,750,0
931482,373.89,1027,749,0
931492,375.77,1027,750,0
931502,376.61,1027,748,0
931512,377.41,1027,750,0
931522,377.12,1027,749,0
931532,376.65,1027,750,0
931543,375.09,1027,749,0
931553,373.60,1027,750,0
931563,371.24,1027,749,0
931573,369.32,1027,750,0
931584,366.53,1027,748,0
931593,364.27,1027,750,0
931603,361.44,1027,749,0
931613,359.47,1027,750,0
931623,357.14,1027,749,0
931633,355.64,1027,749,0
931643,353.65,1027,749,0
931653,352.64,1027,750,0
931663,351.12,1027,748,0
931673,350.27,1027,750,0
931683,348.77,1027,749,0
931693,348.20,1027,750,0
931703,347.80,1027,748,0
931713,349.83,1027,750,0
931723,354.51,1027,749,0
931733,365.07,1027,750,0
931743,382.45,1027,748,0
931753,410.04,1027,750,0
931772,446.42,996,748,0
931775,488.98,996,751,0
931784,534.07,996,749,0
931794,579.56,996,750,0
931804,621.91,996,749,0
931814,658.96,996,750,0
931824,687.30,996,748,0
931834,707.18,996,750,0
931844,721.06,996,749,0
931854,730.81,996,750,0
931864,737.60,996,749,0
931874,742.39,996,750,0
931884,745.70,996,749,0
931894,748.06,996,750,0
931904,749.67,996,749,0
931914,750.84,996,750,0
931924,747.46,996,749,0
931934,737.98,996,750,0
931944,719.60,996,748,0
931954,692.59,996,750,0
931964,656.37,996,749,0
931974,612.93,996,750,0
931984,562.59,996,749,0
931994,511.93,996,750,0
932004,463.57,996,749,0
932014,422.77,996,750,0
932024,390.18,996,749,0
932034,368.44,996,750,0
932044,356.14,996,749,0
932055,354.30,996,750,0
932065,360.25,996,749,0
932075,373.85,996,750,0
932085,391.64,996,749,0
932096,412.92,996,750,0
932105,434.16,996,749,0
932115,454.68,996,750,0
932125,471.45,996,749,0
932135,484.56,996,750,0
932145,491.80,996,749,0
932155,494.22,996,750,0
932165,490.64,996,749,0
932175,483.03,996,750,0
932185,470.59,996,749,0
932195,455.59,996,750,0
932205,437.63,996,749,0
932215,419.18,996,750,0
932225,399.80,996,749,0
932235,381.69,996,750,0
932245,364.17,996,749,0
932255,349.20,996,750,0
932265,335.98,996,749,0
932275,326.13,996,750,0
932285,318.16,996,749,0
932295,313.53,996,750,0
932305,310.58,996,749,0
932315,310.32,996,749,0
932325,311.34,996,749,0
932335,314.71,996,750,0
932345,318.65,996,749,0
932355,324.42,996,750,0
932365,330.20,996,749,0
932375,337.17,996,750,0
932385,343.59,996,749,0
932396,350.31,996,750,0
932406,355.79,996,749,0
932416,361.47,996,750,0
932426,365.78,996,749,0
932436,369.88,996,749,0
932446,372.53,996,749,0
932456,374.94,996,750,0
932466,376.16,996,749,0
932476,377.14,996,749,0
932486,376.76,996,749,0
932496,376.27,996,750,0
932506,374.82,996,749,0
932516,373.24,996,749,0
932526,370.94,996,749,0
932536,368.82,996,750,0
932546,366.13,996,749,0
932556,363.82,996,749,0
932567,361.00,996,749,0
932577,358.64,996,750,0
932587,356.09,996,749,0
932597,354.01,996,749,0
932608,351.86,996,749,0
932617,350.40,996,750,0
932627,348.78,996,749,0
932637,347.69,996,749,0
932647,346.46,996,749,0
932657,345.80,996,750,0
932667,345.48,996,749,0
932677,346.58,996,750,0
932687,350.05,996,749,0
932697,358.00,996,750,0
932707,372.15,996,749,0
932717,395.54,996,749,0
932727,429.32,996,749,0
932746,470.28,974,748,0
932749,515.24,974,750,0
932758,561.37,974,749,0
932768,605.87,974,749,0
932779,645.94,974,750,0
932788,678.23,974,749,0
932798,700.83,974,750,0
932808,716.65,974,749,0
932818,727.69,974,750,0
932828,735.45,974,749,0
932838,740.84,974,750,0
932848,744.66,974,749,0
932858,747.34,974,750,0
932868,749.25,974,749,0
932878,750.55,974,750,0
932888,751.50,974,749,0
932898,752.16,974,750,0
932908,752.67,974,749,0
932918,749.64,974,750,0
932928,740.11,974,749,0
932938,722.25,974,749,0
932948,695.90,974,749,0
932958,661.60,974,750,0
932968,620.41,974,749,0
932978,573.53,974,749,0
932988,526.06,974,750,0
932998,482.37,974,750,0
933008,445.74,974,749,0
933018,417.62,974,750,0
933028,398.53,974,749,0
933038,387.96,974,750,0
933048,385.14,974,749,0
933058,388.31,974,749,0
933068,396.11,974,749,0
933079,406.36,974,749,0
933089,417.57,974,749,0
933099,427.60,974,749,0
933109,435.86,974,750,0
933120,440.75,974,749,0
933129,442.32,974,749,0
933139,439.78,974,749,0
933149,433.93,974,750,0
933159,424.35,974,749,0
933169,412.63,974,749,0
933179,398.51,974,749,0
933189,383.83,974,750,0
933199,368.24,974,749,0
933209,353.51,974,749,0
933219,339.47,974,749,0
933229,327.63,974,750,0
933239,317.33,974,749,0
933249,309.64,974,749,0
933259,303.88,974,749,0
933269,301.00,974,750,0
933279,299.76,974,749,0
933289,300.77,974,749,0
933299,302.90,974,749,0
933309,306.83,974,749,0
933319,311.34,974,749,0
933329,317.06,974,749,0
933339,322.79,974,749,0
933349,329.19,974,750,0
933359,335.09,974,749,0
933369,341.37,974,749,0
933379,346.78,974,749,0
933389,352.21,974,750,0
933399,356.43,974,749,0
933409,360.46,974,749,0
933420,363.15,974,749,0
933430,365.68,974,750,0
933440,366.84,974,749,0
933450,367.79,974,749,0
933460,367.34,974,749,0
933470,366.77,974,750,0
933480,364.99,974,749,0
933490,363.45,974,749,0
933500,360.96,974,749,0
933510,358.96,974,750,0
933520,356.18,974,749,0
933530,354.24,974,749,0
933540,351.86,974,749,0
933550,350.40,974,750,0
933560,348.48,974,749,0
933570,347.48,974,750,0
933580,345.83,974,749,0
933591,345.11,974,750,0
933601,343.62,974,749,0
933611,342.79,974,750,0
933621,341.10,974,749,0
933632,340.30,974,750,0
933641,339.35,974,749,0
933651,340.57,974,750,0
933661,343.83,974,749,0
933671,352.97,974,750,0
933681,368.45,974,749,0
933691,394.63,974,750,0
933701,430.44,974,749,0
933721,473.25,974,748,0
933724,519.38,974,750,0
933733,566.71,974,750,0
933743,611.24,974,749,0
933753,650.94,974,750,0
933763,681.77,974,749,0
933773,703.40,974,750,0
933783,718.49,974,749,0
933793,729.10,974,750,0
933804,736.53,974,749,0
933814,741.68,974,750,0
933824,745.25,974,749,0
933834,747.75,974,750,0
933844,749.49,974,749,0
933854,750.72,974,750,0
933864,751.53,974,749,0
933874,752.10,974,750,0
933884,751.73,974,749,0
933894,747.35,974,750,0
933904,735.76,974,749,0
933914,715.95,974,750,0
933924,687.12,974,749,0
933934,650.44,974,750,0
933944,606.34,974,749,0
933954,557.55,974,750,0
933964,508.19,974,749,0
933975,463.30,974,750,0
933985,425.11,974,749,0
933995,396.02,974,750,0
934005,375.53,974,749,0
934016,364.01,974,750,0
934025,359.59,974,749,0
934035,361.34,974,750,0
934045,367.20,974,749,0
934055,375.88,974,750,0
934065,385.22,974,749,0
934075,394.11,974,750,0
934085,400.98,974,749,0
934095,405.27,974,750,0
934105,406.47,974,749,0
934115,404.57,974,750,0
934125,399.13,974,749,0
934135,390.65,974,750,0
934145,379.61,974,749,0
934155,367.26,974,750,0
934165,354.07,974,749,0
934175,340.85,974,750,0
934185,328.03,974,749,0
934195,316.58,974,750,0
934205,306.81,974,749,0
934215,299.02,974,750,0
934225,293.10,974,749,0
934235,289.13,974,750,0
934245,286.99,974,749,0
934255,286.74,974,750,0
934265,288.23,974,749,0
934275,291.42,974,750,0
934285,295.92,974,749,0
934295,301.47,974,750,0
934305,307.89,974,749,0
934316,314.74,974,750,0
934326,321.72,974,749,0
934336,328.27,974,749,0
934346,334.45,974,749,0
934356,339.93,974,749,0
934366,344.71,974,750,0
934376,348.69,974,749,0
934386,352.13,974,749,0
934396,354.79,974,749,0
934406,357.12,974,750,0
934416,358.63,974,749,0
934426,359.86,974,749,0
934436,360.33,974,749,0
934446,360.53,974,749,0
934456,359.98,974,749,0
934466,359.30,974,749,0
934476,358.01,974,749,0
934487,356.89,974,750,0
934497,355.21,974,749,0
934507,353.91,974,749,0
934517,352.05,974,749,0
934528,350.75,974,750,0
934537,349.11,974,749,0
934547,348.05,974,749,0
934557,346.49,974,749,0
934567,345.49,974,750,0
934577,343.97,974,749,0
934587,343.08,974,749,0
934597,341.64,974,749,0
934607,340.85,974,750,0
934617,339.69,974,749,0
934627,339.44,974,749,0
934637,339.78,974,749,0
934647,342.93,974,750,0
934657,349.64,974,749,0
934667,363.20,974,749,0
934677,385.39,974,749,0
934687,418.87,974,750,0
934707,459.67,986,749,0
934710,505.24,986,750,0
934719,552.27,986,749,0
934729,598.39,986,750,0
934739,639.93,986,749,0
934749,673.98,986,750,0
934759,697.81,986,749,0
934769,714.54,986,750,0
934779,726.29,986,749,0
934789,734.52,986,750,0
934799,740.23,986,749,0
934809,744.28,986,750,0
934819,747.07,986,749,0
934829,749.02,986,750,0
934839,750.34,986,749,0
934849,751.27,986,750,0
934859,748.92,986,749,0
934870,740.46,986,750,0
934879,723.22,986,748,0
934889,696.97,986,750,0
934899,661.28,986,749,0
934909,617.57,986,750,0
934919,566.65,986,749,0
934929,513.87,986,750,0
934939,463.08,986,749,0
934949,419.51,986,750,0
934959,384.13,986,749,0
934969,359.58,986,750,0
934979,344.75,986,749,0
934989,340.32,986,750,0
934999,343.35,986,749,0
935009,353.79,986,750,0
935019,367.91,986,749,0
935029,385.38,986,750,0
935040,402.58,986,748,0
935049,419.25,986,750,0
935059,432.29,986,749,0
935069,442.36,986,750,0
935079,447.18,986,749,0
935089,448.11,986,750,0
935099,443.66,986,749,0
935109,435.66,986,750,0
935119,423.17,986,749,0
935129,408.76,986,750,0
935139,391.77,986,749,0
935149,374.70,986,750,0
935159,356.87,986,748,0
935169,340.80,986,750,0
935179,325.69,986,749,0
935189,313.65,986,750,0
935199,303.34,986,748,0
935209,296.51,986,750,0
935219,291.69,986,749,0
935229,290.37,986,750,0
935239,290.68,986,748,0
935249,293.95,986,750,0
935259,298.17,986,749,0
935269,304.37,986,750,0
935279,310.86,986,748,0
935289,318.75,986,750,0
935299,326.15,986,749,0
935309,334.25,986,750,0
935319,341.20,986,749,0
935329,348.47,986,750,0
935340,354.29,986,749,0
935350,359.86,986,750,0
935360,363.71,986,748,0
935370,367.31,986,750,0
935380,369.32,986,749,0
935390,371.24,986,750,0
935400,371.51,986,748,0
935410,371.79,986,750,0
935420,371.04,986,749,0
935430,370.38,986,750,0
935440,368.64,986,749,0
935450,367.03,986,750,0
935460,364.45,986,749,0
935470,362.39,986,750,0
935480,359.61,986,749,0
935490,357.20,986,750,0
935500,354.40,986,749,0
935511,352.26,986,750,0
935521,349.79,986,749,0
935531,347.92,986,750,0
935541,345.63,986,749,0
935552,343.86,986,750,0
935561,341.80,986,749,0
935571,340.36,986,750,0
935581,338.54,986,749,0
935591,337.35,986,750,0
935601,336.26,986,749,0
935611,336.91,986,750,0
935621,339.59,986,749,0
935631,346.74,986,750,0
935641,359.34,986,749,0
935651,381.35,986,750,0
935661,414.42,986,749,0
935681,455.48,974,748,0
935684,500.89,974,750,0
935693,548.41,974,750,0
935703,594.57,974,749,0
935713,637.09,974,750,0
935724,671.86,974,750,0
935734,696.42,974,749,0
935744,713.61,974,750,0
935754,725.64,974,749,0
935764,734.06,974,750,0
935774,739.91,974,749,0
935784,744.01,974,750,0
935794,746.88,974,750,0
935804,748.89,974,750,0
935814,750.25,974,749,0
935824,751.25,974,750,0
935834,747.74,974,749,0
935844,736.89,974,750,0
935854,716.87,974,749,0
935864,687.42,974,750,0
935874,648.55,974,749,0
935884,601.63,974,750,0
935895,547.57,974,749,0
935905,492.97,974,750,0
935915,442.24,974,749,0
935925,399.69,974,750,0
935936,366.61,974,749,0
935945,344.96,974,750,0
935955,334.00,974,749,0
935965,333.87,974,750,0
935975,341.75,974,749,0
935985,356.48,974,750,0
935995,374.64,974,749,0
936005,395.28,974,750,0
936015,414.86,974,749,0
936025,432.65,974,750,0
936035,445.95,974,749,0
936045,455.14,974,750,0
936055,458.48,974,749,0
936065,457.18,974,750,0
936075,450.23,974,749,0
936085,439.62,974,750,0
936095,424.82,974,749,0
936105,408.33,974,750,0
936115,389.93,974,749,0
936125,371.91,974,750,0
936135,353.72,974,749,0
936145,337.48,974,750,0
936155,322.68,974,749,0
936165,311.12,974,750,0
936175,301.61,974,749,0
936185,295.60,974,750,0
936195,291.99,974,749,0
936205,292.16,974,750,0
936215,294.34,974,749,0
936225,299.38,974,750,0
936236,305.57,974,749,0
936246,313.93,974,750,0
936256,322.39,974,748,0
936266,332.05,974,750,0
936276,340.95,974,749,0
936286,350.52,974,750,0
936296,358.85,974,748,0
936306,367.21,974,750,0
936316,373.87,974,749,0
936326,380.38,974,750,0
936336,384.81,974,748,0
936346,388.60,974,750,0
936356,390.26,974,749,0
936366,391.51,974,750,0
936376,390.84,974,748,0
936386,389.82,974,750,0
936396,387.17,974,749,0
936407,384.72,974,750,0
936417,381.20,974,749,0
936427,378.10,974,750,0
936437,374.00,974,749,0
936448,370.48,974,750,0
936457,366.61,974,749,0
936467,363.77,974,750,0
936477,360.37,974,749,0
936487,358.03,974,750,0
936497,355.32,974,749,0
936507,353.94,974,750,0
936517,352.33,974,749,0
936527,351.72,974,750,0
936537,350.52,974,749,0
936547,350.36,974,750,0
936557,349.65,974,749,0
936567,349.97,974,750,0
936577,350.15,974,749,0
936587,352.85,974,750,0
936597,358.29,974,749,0
936607,370.38,974,750,0
936617,390.66,974,749,0
936627,422.48,974,750,0
936637,461.59,974,749,0
936656,505.99,976,748,0
936659,552.19,976,750,0
936668,597.95,976,750,0
936678,639.41,976,749,0
936688,673.70,976,750,0
936698,697.70,976,749,0
936708,714.55,976,750,0
936718,726.34,976,749,0
936728,734.60,976,750,0
936738,740.33,976,749,0
936748,744.35,976,750,0
936758,747.16,976,749,0
936768,749.17,976,750,0
936778,750.53,976,749,0
936788,751.49,976,750,0
936798,752.15,976,749,0
936808,752.67,976,750,0
936818,749.25,976,749,0
936828,739.28,976,750,0
936838,720.85,976,749,0
936848,693.90,976,750,0
936858,658.18,976,749,0
936868,615.36,976,750,0
936878,566.35,976,749,0
936888,517.17,976,750,0
936898,471.44,976,749,0
936908,433.33,976,749,0
936919,403.79,976,749,0
936929,384.52,976,750,0
936939,374.12,976,749,0
936949,372.33,976,750,0
936960,376.60,976,749,0
936969,386.06,976,750,0
936979,397.49,976,749,0
936989,409.90,976,750,0
936999,420.86,976,749,0
937009,429.90,976,750,0
937019,435.16,976,749,0
937029,436.61,976,750,0
937039,433.68,976,749,0
937049,427.27,976,750,0
937059,417.11,976,749,0
937069,404.48,976,750,0
937079,389.59,976,749,0
937089,374.20,976,750,0
937099,358.58,976,749,0
937109,344.01,976,750,0
937119,330.68,976,749,0
937129,319.67,976,750,0
937139,310.77,976,749,0
937149,304.71,976,750,0
937159,300.94,976,749,0
937169,300.02,976,750,0
937179,301.04,976,749,0
937189,304.16,976,750,0
937199,308.65,976,749,0
937209,314.59,976,750,0
937219,321.10,976,749,0
937229,328.40,976,750,0
937239,335.65,976,749,0
937249,343.04,976,750,0
937260,349.97,976,749,0
937270,356.45,976,749,0
937280,362.23,976,749,0
937290,367.22,976,750,0
937300,371.27,976,750,0
937310,374.40,976,750,0
937320,376.51,976,749,0
937330,377.81,976,750,0
937340,378.34,976,749,0
937350,378.11,976,750,0
937360,377.26,976,749,0
937370,375.68,976,750,0
937380,373.68,976,749,0
937390,371.29,976,750,0
937400,368.55,976,749,0
937410,365.38,976,750,0
937420,362.18,976,750,0
937431,358.83,976,749,0
937441,355.79,976,750,0
937451,352.73,976,749,0
937461,350.19,976,750,0
937472,347.78,976,749,0
937481,346.13,976,750,0
937491,344.63,976,749,0
937501,344.02,976,750,0
937511,343.37,976,749,0
937521,343.56,976,750,0
937531,343.69,976,750,0
937541,344.55,976,750,0
937551,345.29,976,749,0
937561,346.49,976,750,0
937571,347.28,976,749,0
937581,348.57,976,750,0
937591,349.64,976,749,0
937601,351.72,976,750,0
937611,355.58,976,749,0
937621,364.15,976,750,0
937631,379.32,976,749,0
937641,405.06,976,750,0
937651,440.06,976,750,0
937670,481.61,1014,748,0
937673,526.81,1014,751,0
937682,573.24,1014,750,0
937692,617.27,1014,750,0
937702,656.06,1014,750,0
937712,685.44,1014,750,0
937722,706.01,1014,750,0
937732,720.41,1014,750,0
937742,730.57,1014,750,0
937752,737.69,1014,750,0
937762,742.67,1014,750,0
937772,746.11,1014,750,0
937782,748.52,1014,750,0
937792,750.21,1014,750,0
937802,751.39,1014,750,0
937812,752.17,1014,750,0
937822,752.72,1014,750,0
937832,753.10,1014,750,0
937842,753.37,1014,750,0
937852,753.56,1014,749,0
937862,752.62,1014,750,0
937872,746.39,1014,749,0
937882,733.29,1014,750,0
937892,711.43,1014,749,0
937902,681.82,1014,750,0
937912,644.46,1014,750,0
937922,601.08,1014,750,0
937932,553.40,1014,749,0
937943,507.68,1014,750,0
937953,466.03,1014,749,0
937963,432.38,1014,750,0
937973,405.82,1014,749,0
937984,387.88,1014,751,0
937993,376.47,1014,749,0
938003,371.70,1014,750,0
938013,370.72,1014,749,0
938023,373.46,1014,750,0
938033,376.88,1014,749,0
938043,381.20,1014,750,0
938053,383.71,1014,749,0
938063,385.04,1014,750,0
938073,383.49,1014,749,0
938083,380.21,1014,750,0
938093,374.02,1014,749,0
938103,366.60,1014,750,0
938113,357.03,1014,749,0
938123,347.30,1014,750,0
938133,336.54,1014,749,0
938143,326.86,1014,750,0
938153,317.43,1014,749,0
938163,310.10,1014,750,0
938173,303.73,1014,749,0
938183,300.04,1014,750,0
938193,297.71,1014,749,0
938203,298.18,1014,750,0
938213,299.71,1014,749,0
938223,303.66,1014,750,0
938233,308.09,1014,749,0
938243,314.15,1014,750,0
938253,320.06,1014,749,0
938263,327.03,1014,750,0
938273,333.28,1014,749,0
938284,340.05,1014,750,0
938294,345.31,1014,749,0
938304,350.53,1014,750,0
938314,354.27,1014,749,0
938324,357.88,1014,750,0
938334,359.88,1014,749,0
938344,361.93,1014,750,0
938354,362.51,1014,749,0
938364,363.43,1014,750,0
938374,363.13,1014,749,0
938384,363.05,1014,750,0
938394,361.70,1014,749,0
938404,360.59,1014,750,0
938414,358.19,1014,749,0
938424,355.99,1014,750,0
938434,352.61,1014,749,0
938444,349.68,1014,750,0
938455,346.01,1014,749,0
938465,342.96,1014,750,0
938475,339.33,1014,749,0
938485,336.53,1014,750,0
938496,333.59,1014,749,0
938505,331.78,1014,750,0
938515,329.96,1014,749,0
938525,329.24,1014,750,0
938535,328.31,1014,749,0
938545,328.35,1014,750,0
938555,328.20,1014,749,0
938565,328.74,1014,750,0
938575,328.86,1014,749,0
938585,329.63,1014,750,0
938595,329.96,1014,749,0
938605,331.08,1014,750,0
938615,331.66,1014,749,0
938625,332.83,1014,750,0
938635,333.87,1014,749,0
938645,336.48,1014,750,0
938655,341.01,1014,749,0
938665,350.43,1014,750,0
938675,366.12,1014,749,0
938685,392.31,1014,750,0
938695,428.22,1014,749,0
938715,471.05,1044,748,0
938718,517.54,1044,750,0
938727,565.12,1044,750,0
938737,610.30,1044,749,0
938747,650.45,1044,750,0
938757,681.52,1044,749,0
938767,703.30,1044,750,0
938777,718.56,1044,749,0
938787,729.19,1044,750,0
938797,736.63,1044,749,0
938807,741.84,1044,750,0
938817,745.49,1044,749,0
938827,748.04,1044,750,0
938838,749.83,1044,750,0
938847,751.08,1044,750,0
938857,751.96,1044,749,0
938867,751.84,1044,750,0
938877,746.79,1044,750,0
938887,734.64,1044,750,0
938897,713.66,1044,749,0
938907,683.59,1044,750,0
938917,644.84,1044,749,0
938927,598.48,1044,750,0
938937,546.26,1044,749,0
938947,493.64,1044,750,0
938957,444.55,1044,750,0
938967,402.17,1044,750,0
938977,367.92,1044,749,0
938987,342.79,1044,750,0
938997,326.74,1044,749,0
939008,319.36,1044,750,0
939017,319.55,1044,749,0
939027,325.73,1044,750,0
939037,336.14,1044,749,0
939047,349.08,1044,750,0
939057,362.77,1044,749,0
939067,375.65,1044,750,0
939077,386.47,1044,749,0
939087,394.22,1044,750,0
939097,398.35,1044,749,0
939107,398.67,1044,750,0
939117,395.47,1044,749,0
939127,388.73,1044,750,0
939137,379.13,1044,750,0
939147,367.43,1044,750,0
939157,354.53,1044,750,0
939167,341.00,1044,750,0
939177,327.71,1044,750,0
939187,315.24,1044,750,0
939197,304.28,1044,750,0
939207,295.07,1044,750,0
939217,288.02,1044,750,0
939227,283.17,1044,750,0
939237,280.59,1044,749,0
939247,280.20,1044,750,0
939257,282.07,1044,750,0
939267,285.78,1044,750,0
939277,291.16,1044,750,0
939287,297.41,1044,750,0
939297,304.53,1044,750,0
939308,311.74,1044,750,0
939318,318.98,1044,750,0
939328,325.37,1044,749,0
939338,331.56,1044,750,0
939348,336.66,1044,749,0
939358,341.22,1044,750,0
939368,344.58,1044,749,0
939378,347.58,1044,750,0
939388,349.51,1044,749,0
939398,351.24,1044,750,0
939408,351.72,1044,749,0
939418,351.94,1044,750,0
939428,351.23,1044,749,0
939438,350.43,1044,750,0
939448,348.76,1044,749,0
939458,346.99,1044,750,0
939468,344.46,1044,749,0
939479,342.31,1044,750,0
939489,339.82,1044,749,0
939499,337.90,1044,750,0
939509,335.49,1044,749,0
939520,333.71,1044,750,0
939529,331.78,1044,749,0
939539,330.39,1044,750,0
939549,328.35,1044,749,0
939559,326.83,1044,750,0
939569,324.78,1044,749,0
939579,323.56,1044,750,0
939589,321.98,1044,749,0
939599,321.43,1044,750,0
939609,320.70,1044,749,0
939619,321.09,1044,750,0
939629,321.23,1044,749,0
939639,322.24,1044,750,0
939649,322.81,1044,749,0
939659,324.07,1044,750,0
939669,324.43,1044,749,0
939679,325.59,1044,750,0
939689,326.70,1044,749,0
939699,329.92,1044,750,0
939709,335.73,1044,749,0
939719,347.81,1044,750,0
939729,367.67,1044,749,0
939739,398.67,1044,750,0
939758,438.15,1044,748,0
939761,483.62,1044,751,0
939770,531.61,1044,749,0
939780,579.68,1044,750,0
939790,623.79,1044,749,0
939800,661.27,1044,750,0
939810,688.96,1044,749,0
939820,708.39,1044,750,0
939830,721.94,1044,749,0
939840,731.43,1044,750,0
939850,738.03,1044,749,0
939860,742.69,1044,751,0
939870,745.91,1044,749,0
939880,748.21,1044,751,0
939890,748.45,1044,749,0
939900,743.04,1044,750,0
939910,728.93,1044,749,0
939920,705.29,1044,750,0
939930,671.18,1044,749,0
939940,627.92,1044,750,0
939950,575.83,1044,749,0
939960,518.45,1044,750,0
939970,460.42,1044,749,0
939980,407.62,1044,750,0
939991,361.96,1044,749,0
940001,327.00,1044,750,0
940011,302.10,1044,749,0
940021,288.91,1044,750,0
940032,285.30,1044,749,0
940041,291.68,1044,750,0
940051,304.68,1044,749,0
940061,323.76,1044,750,0
940071,344.87,1044,749,0
940081,367.41,1044,750,0
940091,388.20,1044,749,0
940101,407.04,1044,750,0
940111,421.34,1044,749,0
940121,431.70,1044,750,0
940131,436.20,1044,749,0
940141,436.48,1044,750,0
940151,431.32,1044,749,0
940161,422.61,1044,750,0
940171,409.70,1044,749,0
940181,394.75,1044,750,0
940191,377.21,1044,749,0
940201,359.79,1044,750,0
940211,341.85,1044,749,0
940221,325.91,1044,750,0
940231,311.02,1044,749,0
940241,299.19,1044,750,0
940251,289.23,1044,749,0
940261,282.95,1044,750,0
940271,278.68,1044,749,0
940281,277.87,1044,750,0
940291,278.77,1044,749,0
940301,282.44,1044,750,0
940311,287.06,1044,749,0
940321,293.64,1044,750,0
940332,300.27,1044,749,0
940342,307.90,1044,750,0
940352,315.00,1044,749,0
940362,322.46,1044,750,0
940372,329.01,1044,749,0
940382,335.60,1044,750,0
940392,340.91,1044,749,0
940402,346.12,1044,750,0
940412,350.20,1044,749,0
940422,354.21,1044,750,0
940432,356.98,1044,749,0
940442,359.34,1044,750,0
940452,360.35,1044,749,0
940462,361.19,1044,750,0
940472,360.70,1044,749,0
940482,359.98,1044,750,0
940492,358.10,1044,749,0
940503,356.18,1044,750,0
940513,353.69,1044,749,0
940523,351.29,1044,750,0
940533,348.33,1044,749,0
940544,345.62,1044,750,0
940553,342.56,1044,749,0
940563,339.95,1044,750,0
940573,337.31,1044,749,0
940583,334.94,1044,750,0
940593,332.65,1044,749,0
940603,331.04,1044,750,0
940613,329.70,1044,749,0
940623,328.97,1044,750,0
940633,328.30,1044,749,0
940643,328.21,1044,750,0
940653,328.27,1044,749,0
940663,328.83,1044,750,0
940673,329.14,1044,749,0
940683,329.83,1044,750,0
940693,330.48,1044,749,0
940703,331.58,1044,750,0
940713,333.25,1044,749,0
940723,336.99,1044,750,0
940733,344.15,1044,749,0
940743,357.43,1044,750,0
940753,379.25,1044,750,0
940763,411.70,1044,750,0
940782,452.08,1024,749,0
940785,497.40,1024,750,0
940794,544.68,1024,750,0
940804,591.15,1024,750,0
940814,633.66,1024,750,0
940824,668.86,1024,750,0
940834,694.32,1024,750,0
940844,712.14,1024,750,0
940854,724.61,1024,749,0
940864,733.34,1024,750,0
940874,739.50,1024,750,0
940884,743.76,1024,750,0
940894,746.75,1024,749,0
940904,748.84,1024,750,0
940914,750.34,1024,750,0
940924,748.10,1024,750,0
940934,739.28,1024,749,0
940944,721.71,1024,750,0
940954,694.67,1024,750,0
940964,658.00,1024,750,0
940974,612.87,1024,749,0
940984,560.28,1024,750,0
940994,505.17,1024,750,0
941004,452.10,1024,750,0
941015,405.40,1024,750,0
941025,367.44,1024,749,0
941035,340.26,1024,750,0
941045,323.56,1024,750,0
941056,317.73,1024,750,0
941065,321.20,1024,750,0
941075,332.75,1024,750,0
941085,349.80,1024,750,0
941095,370.82,1024,750,0
941105,392.94,1024,750,0
941115,414.77,1024,750,0
941125,433.74,1024,750,0
941135,449.25,1024,750,0
941145,459.84,1024,749,0
941155,465.68,1024,750,0
941165,465.69,1024,749,0
941175,460.90,1024,749,0
941185,451.37,1024,749,0
941195,438.53,1024,750,0
941205,422.51,1024,750,0
941215,405.09,1024,750,0
941225,386.29,1024,750,0
941235,368.20,1024,750,0
941245,350.70,1024,750,0
941255,335.19,1024,750,0
941265,321.38,1024,750,0
941275,310.59,1024,750,0
941285,302.10,1024,750,0
941295,297.01,1024,749,0
941305,294.09,1024,749,0
941315,294.15,1024,750,0
941325,295.95,1024,749,0
941335,300.21,1024,749,0
941345,305.50,1024,750,0
941356,312.47,1024,750,0
941366,319.65,1024,750,0
941376,327.90,1024,750,0
941386,335.60,1024,749,0
941396,343.86,1024,750,0
941406,351.06,1024,750,0
941416,358.33,1024,750,0
941426,364.06,1024,749,0
941436,369.57,1024,750,0
941446,373.43,1024,749,0
941456,377.03,1024,750,0
941466,378.86,1024,749,0
941476,380.45,1024,750,0
941486,380.48,1024,749,0
941496,380.38,1024,750,0
941506,378.85,1024,749,0
941516,377.40,1024,750,0
941527,374.79,1024,749,0
941537,372.37,1024,750,0
941547,368.92,1024,749,0
941557,365.86,1024,750,0
941568,362.08,1024,749,0
941577,359.06,1024,750,0
941587,355.44,1024,749,0
941597,352.87,1024,750,0
941607,349.78,1024,749,0
941617,347.83,1024,750,0
941627,345.40,1024,749,0
941637,344.12,1024,750,0
941647,342.76,1024,749,0
941657,342.53,1024,750,0
941667,341.68,1024,749,0
941677,341.95,1024,751,0
941687,341.79,1024,749,0
941697,343.14,1024,750,0
941707,345.20,1024,749,0
941717,350.84,1024,750,0
941727,360.92,1024,749,0
941737,379.63,1024,750,0
941747,407.77,1024,749,0
941757,445.21,1024,751,0
941776,488.13,994,749,0
941779,534.51,994,751,0
941788,580.55,994,749,0
941798,623.93,994,751,0
941808,660.55,994,750,0
941818,688.46,994,751,0
941828,707.95,994,749,0
941838,721.64,994,751,0
941848,731.17,994,749,0
941858,737.89,994,751,0
941868,742.55,994,749,0
941878,745.86,994,750,0
941888,748.13,994,750,0
941898,749.76,994,750,0
941908,750.86,994,749,0
941918,751.67,994,751,0
941928,752.20,994,749,0
941938,748.76,994,750,0
941948,737.60,994,749,0
941958,718.09,994,750,0
941968,689.01,994,749,0
941978,651.55,994,750,0
941988,606.25,994,749,0
941998,555.56,994,750,0
942008,504.14,994,749,0
942018,458.32,994,750,0
942028,419.87,994,749,0
942039,392.31,994,750,0
942049,374.99,994,749,0
942059,368.69,994,750,0
942069,370.84,994,749,0
942080,381.17,994,750,0
942089,396.12,994,749,0
942099,414.90,994,750,0
942109,433.70,994,749,0
942119,451.66,994,750,0
942129,465.91,994,749,0
942139,476.26,994,750,0
942149,480.90,994,749,0
942159,480.76,994,750,0
942169,474.74,994,749,0
942179,464.62,994,750,0
942189,450.08,994,749,0
942199,433.17,994,750,0
942209,414.00,994,750,0
942219,394.76,994,750,0
942229,375.25,994,749,0
942239,357.43,994,750,0
942249,340.89,994,750,0
942259,327.29,994,750,0
942269,315.93,994,749,0
942279,308.11,994,750,0
942289,302.81,994,750,0
942299,300.94,994,750,0
942309,301.04,994,749,0
942319,303.90,994,750,0
942329,308.26,994,749,0
942339,314.78,994,750,0
942349,321.92,994,749,0
942359,330.26,994,750,0
942369,338.41,994,749,0
942380,346.99,994,750,0
942390,354.83,994,749,0
942400,362.55,994,750,0
942410,369.33,994,749,0
942420,375.62,994,750,0
942430,380.53,994,749,0
942440,384.83,994,750,0
942450,387.97,994,749,0
942460,390.46,994,750,0
942470,391.61,994,749,0
942480,392.03,994,750,0
942490,391.25,994,749,0
942500,389.84,994,750,0
942510,387.45,994,749,0
942520,384.57,994,750,0
942530,380.97,994,749,0
942540,377.25,994,750,0
942551,373.06,994,749,0
942561,369.23,994,750,0
942571,365.65,994,749,0
942581,362.58,994,750,0
942592,360.05,994,749,0
942601,358.23,994,750,0
942611,357.01,994,749,0
942621,356.23,994,750,0
942631,355.82,994,750,0
942641,355.53,994,750,0
942651,355.41,994,749,0
942661,355.20,994,750,0
942671,355.49,994,750,0
942681,356.84,994,750,0
942691,360.83,994,749,0
942701,369.54,994,750,0
942711,386.09,994,750,0
942721,412.94,994,750,0
942731,448.87,994,750,0
942750,490.69,974,748,0
942753,535.83,974,751,0
942763,581.57,974,750,0
942772,624.68,974,750,0
942782,661.55,974,750,0
942792,689.24,974,750,0
942802,708.67,974,750,0
942812,722.27,974,750,0
942822,731.79,974,750,0
942832,738.45,974,750,0
942842,743.12,974,750,0
942852,746.38,974,750,0
942862,748.67,974,750,0
942872,750.27,974,750,0
942882,751.34,974,749,0
942892,752.10,974,750,0
942902,752.63,974,750,0
942912,753.00,974,750,0
942922,752.05,974,749,0
942932,746.25,974,750,0
942942,733.15,974,750,0
942952,711.63,974,750,0
942962,681.27,974,749,0
942972,643.39,974,750,0
942982,599.00,974,750,0
942992,551.13,974,750,0
943002,504.50,974,749,0
943012,463.77,974,750,0
943022,430.84,974,750,0
943032,407.57,974,750,0
943042,393.04,974,749,0
943052,387.24,974,750,0
943063,387.81,974,750,0
943073,393.91,974,750,0
943083,402.25,974,749,0
943093,412.29,974,750,0
943104,421.08,974,749,0
943113,428.42,974,750,0
943123,432.15,974,749,0
943133,432.92,974,750,0
943143,429.35,974,750,0
943153,422.94,974,750,0
943163,412.72,974,749,0
943173,400.84,974,750,0
943183,386.62,974,750,0
943193,372.03,974,750,0
943203,356.64,974,749,0
943213,342.56,974,750,0
943223,329.15,974,749,0
943233,318.26,974,750,0
943243,309.01,974,750,0
943253,302.92,974,750,0
943263,298.75,974,750,0
943273,297.75,974,750,0
943283,298.25,974,749,0
943293,301.31,974,750,0
943303,305.37,974,750,0
943313,311.47,974,750,0
943323,317.80,974,749,0
943333,325.32,974,750,0
943343,332.47,974,749,0
943353,340.34,974,750,0
943363,347.48,974,750,0
943373,354.71,974,750,0
943383,360.41,974,750,0
943393,365.90,974,750,0
943404,369.79,974,749,0
943414,373.28,974,750,0
943424,375.08,974,749,0
943434,376.60,974,751,0
943444,376.59,974,749,0
943454,376.59,974,750,0
943464,375.17,974,749,0
943474,374.00,974,751,0
943484,371.64,974,749,0
943494,369.78,974,750,0
943504,366.89,974,749,0
943514,364.56,974,750,0
943524,361.35,974,749,0
943534,358.93,974,750,0
943544,355.78,974,749,0
943554,353.53,974,751,0
943564,350.72,974,749,0
943575,348.83,974,750,0
943585,346.44,974,749,0
943595,345.06,974,750,0
943605,343.24,974,749,0
943616,342.49,974,750,0
943625,341.40,974,749,0
943635,341.32,974,750,0
943645,340.75,974,749,0
943655,341.17,974,750,0
943665,341.25,974,749,0
943675,342.59,974,750,0
943685,344.60,974,749,0
943695,350.29,974,750,0
943705,360.15,974,749,0
943715,378.83,974,751,0
943725,407.98,974,749,0
943745,446.09,994,748,0
943748,489.56,994,750,0
943757,536.36,994,751,0
943767,582.80,994,750,0
943777,626.74,994,750,0
943788,663.68,994,749,0
943798,690.77,994,751,0
943808,709.74,994,750,0
943818,723.02,994,750,0
943828,732.31,994,750,0
943838,738.82,994,751,0
943848,743.37,994,750,0
943858,746.56,994,750,0
943868,748.79,994,750,0
943878,750.36,994,751,0
943888,751.45,994,750,0
943898,752.21,994,750,0
943908,752.75,994,750,0
943918,753.12,994,751,0
943928,752.57,994,750,0
943938,747.34,994,750,0
943948,735.11,994,750,0
943959,714.12,994,750,0
943969,684.21,994,749,0
943979,645.92,994,750,0
943989,600.52,994,750,0
944000,550.00,994,750,0
944009,499.90,994,750,0
944019,453.99,994,750,0
944029,415.55,994,750,0
944039,385.68,994,750,0
944049,364.78,994,750,0
944059,352.07,994,749,0
944069,346.82,994,750,0
944079,347.43,994,750,0
944089,352.27,994,750,0
944099,359.52,994,749,0
944109,367.85,994,750,0
944119,375.61,994,750,0
944129,382.03,994,750,0
944139,386.05,994,750,0
944149,387.32,994,750,0
944159,385.34,994,750,0
944169,380.56,994,750,0
944179,373.07,994,750,0
944189,363.70,994,750,0
944199,352.69,994,750,0
944209,341.17,994,750,0
944219,329.38,994,750,0
944229,318.51,994,750,0
944239,308.54,994,750,0
944249,300.28,994,750,0
944259,293.77,994,750,0
944269,289.42,994,750,0
944279,286.85,994,750,0
944289,286.43,994,750,0
944300,287.50,994,750,0
944310,290.52,994,750,0
944320,294.56,994,750,0
944330,300.05,994,750,0
944340,306.04,994,750,0
944350,312.80,994,750,0
944360,319.29,994,750,0
944370,326.10,994,750,0
944380,331.94,994,749,0
944390,337.70,994,750,0
944400,342.08,994,750,0
944410,346.00,994,750,0
944420,348.44,994,750,0
944430,350.49,994,750,0
944440,351.12,994,750,0
944450,351.47,994,750,0
944460,350.68,994,750,0
944471,349.79,994,750,0
944481,347.88,994,750,0
944491,346.25,994,750,0
944501,343.86,994,749,0
944512,341.97,994,750,0
944521,339.50,994,750,0
944531,337.55,994,750,0
944541,335.11,994,750,0
944551,333.41,994,750,0
944561,331.23,994,750,0
944571,329.79,994,750,0
944581,327.75,994,749,0
944591,326.63,994,750,0
944601,324.98,994,750,0
944611,324.30,994,750,0
944621,323.27,994,750,0
944631,323.23,994,750,0
944641,322.73,994,749,0
944651,323.20,994,750,0
944661,323.31,994,750,0
944671,324.42,994,750,0
944681,325.02,994,750,0
944691,326.39,994,750,0
944701,327.04,994,750,0
944711,328.66,994,750,0
944721,330.26,994,750,0
944731,333.87,994,750,0
944741,339.95,994,749,0
944751,352.35,994,750,0
944761,372.77,994,749,0
944771,404.94,994,750,0
944790,445.03,1046,749,0
944793,490.71,1046,750,0
944802,538.62,1046,750,0
944812,586.44,1046,751,0
944822,630.15,1046,749,0
944832,666.83,1046,750,0
944842,692.94,1046,750,0
944852,711.22,1046,751,0
944862,724.01,1046,749,0
944872,732.96,1046,750,0
944882,739.19,1046,749,0
944892,743.55,1046,750,0
944902,746.60,1046,749,0
944912,748.77,1046,750,0
944922,750.26,1046,749,0
944932,751.29,1046,750,0
944942,751.68,1046,750,0
944952,747.45,1046,750,0
944962,735.05,1046,749,0
944972,713.70,1046,750,0
944983,682.46,1046,749,0
944993,642.68,1046,750,0
945003,594.65,1046,749,0
945013,540.84,1046,751,0
945024,486.20,1046,749,0
945033,436.73,1046,750,0
945043,394.21,1046,749,0
945053,361.79,1046,750,0
945063,338.54,1046,750,0
945073,325.73,1046,750,0
945083,321.18,1046,749,0
945093,325.16,1046,751,0
945103,334.50,1046,749,0
945113,348.62,1046,750,0
945123,364.12,1046,749,0
945133,380.67,1046,750,0
945143,395.38,1046,749,0
945153,408.17,1046,750,0
945163,416.56,1046,749,0
945173,421.45,1046,750,0
945183,421.40,1046,750,0
945193,417.85,1046,750,0
945203,410.05,1046,749,0
945213,399.84,1046,751,0
945223,386.69,1046,750,0
945233,372.72,1046,750,0
945243,357.42,1046,749,0
945253,342.89,1046,751,0
945263,328.57,1046,750,0
945273,316.23,1046,750,0
945283,305.06,1046,749,0
945293,296.81,1046,751,0
945303,290.35,1046,750,0
945313,287.03,1046,750,0
945324,285.40,1046,749,0
945334,286.48,1046,750,0
945344,288.99,1046,750,0
945354,293.75,1046,750,0
945364,299.35,1046,749,0
945374,306.53,1046,750,0
945384,313.70,1046,750,0
945394,321.63,1046,750,0
945404,329.29,1046,749,0
945414,337.00,1046,750,0
945424,343.60,1046,750,0
945434,349.76,1046,750,0
945444,354.59,1046,749,0
945454,359.04,1046,750,0
945464,362.12,1046,750,0
945474,364.48,1046,750,0
945484,365.49,1046,749,0
945495,366.12,1046,750,0
945505,365.70,1046,749,0
945515,365.02,1046,751,0
945525,363.38,1046,749,0
945536,361.51,1046,750,0
945545,358.96,1046,750,0
945555,356.44,1046,750,0
945565,353.48,1046,749,0
945575,350.55,1046,750,0
945585,347.30,1046,749,0
945595,344.30,1046,750,0
945605,341.38,1046,749,0
945615,338.86,1046,750,0
945625,336.59,1046,749,0
945635,334.87,1046,751,0
945645,333.41,1046,749,0
945655,332.39,1046,750,0
945665,331.46,1046,749,0
945675,331.15,1046,750,0
945685,331.02,1046,749,0
945695,331.18,1046,750,0
945705,331.30,1046,750,0
945715,331.64,1046,751,0
945725,331.88,1046,749,0
945735,332.43,1046,750,0
945745,333.28,1046,750,0
945755,335.56,1046,751,0
945765,340.45,1046,749,0
945775,350.38,1046,750,0
945785,367.88,1046,750,0
945795,395.60,1046,751,0
945805,432.88,1046,749,0
945824,476.42,1034,748,0
945827,523.35,1034,751,0
945836,570.86,1034,751,0
945846,615.64,1034,750,0
945856,654.41,1034,750,0
945866,684.24,1034,750,0
945876,705.13,1034,750,0
945886,719.70,1034,750,0
945896,729.86,1034,750,0
945906,736.98,1034,750,0
945916,741.95,1034,750,0
945926,745.40,1034,750,0
945936,747.81,1034,750,0
945946,749.54,1034,750,0
945956,749.12,1034,750,0
945966,743.00,1034,750,0
945976,728.30,1034,750,0
945986,703.87,1034,750,0
945996,669.28,1034,750,0
946007,625.44,1034,750,0
946017,573.23,1034,750,0
946027,516.46,1034,750,0
946037,460.01,1034,750,0
946048,409.31,1034,750,0
946057,367.04,1034,750,0
946067,335.79,1034,750,0
946077,315.67,1034,750,0
946087,307.37,1034,750,0
946097,308.76,1034,749,0
946107,319.33,1034,750,0
946117,336.20,1034,750,0
946127,358.00,1034,750,0
946137,381.57,1034,750,0
946147,405.44,1034,750,0
946157,426.70,1034,750,0
946167,444.79,1034,750,0
946177,457.79,1034,749,0
946187,465.91,1034,750,0
946197,468.00,1034,750,0
946207,465.13,1034,750,0
946217,456.73,1034,749,0
946227,444.73,1034,750,0
946237,429.12,1034,750,0
946247,411.81,1034,750,0
946257,392.80,1034,750,0
946267,374.17,1034,750,0
946277,355.74,1034,750,0
946287,339.53,1034,750,0
946297,324.97,1034,750,0
946307,313.62,1034,750,0
946317,304.78,1034,750,0
946327,299.49,1034,750,0
946337,296.60,1034,749,0
946348,297.15,1034,750,0
946358,299.59,1034,750,0
946368,304.73,1034,750,0
946378,310.89,1034,749,0
946388,318.98,1034,751,0
946398,327.39,1034,750,0
946408,336.70,1034,750,0
946418,345.28,1034,749,0
946428,354.19,1034,750,0
946438,361.81,1034,750,0
946448,369.32,1034,750,0
946458,374.97,1034,749,0
946468,380.21,1034,751,0
946478,383.57,1034,750,0
946488,386.36,1034,750,0
946498,387.28,1034,749,0
946508,387.97,1034,750,0
946519,387.08,1034,749,0
946529,386.20,1034,751,0
946539,383.91,1034,749,0
946549,382.01,1034,751,0
946560,379.22,1034,749,0
946569,376.93,1034,751,0
946579,373.65,1034,749,0
946589,371.01,1034,751,0
946599,367.58,1034,750,0
946609,364.88,1034,751,0
946619,361.44,1034,749,0
946629,358.87,1034,751,0
946639,355.86,1034,749,0
946649,353.93,1034,751,0
946659,351.47,1034,749,0
946669,350.13,1034,750,0
946679,348.46,1034,749,0
946689,348.02,1034,751,0
946699,347.24,1034,749,0
946709,347.47,1034,750,0
946719,347.24,1034,750,0
946729,348.07,1034,751,0
946739,348.31,1034,749,0
946749,350.01,1034,750,0
946759,352.92,1034,750,0
946769,360.28,1034,750,0
946779,372.79,1034,749,0
946789,394.97,1034,750,0
946799,427.38,1034,750,0
946819,467.59,994,748,0
946822,511.99,994,750,0
946831,558.41,994,751,0
946841,603.24,994,750,0
946851,644.27,994,751,0
946861,677.10,994,749,0
946871,700.13,994,751,0
946881,716.25,994,750,0
946891,727.53,994,751,0
946902,735.39,994,749,0
946911,740.88,994,751,0
946921,744.69,994,750,0
946931,747.40,994,751,0
946941,749.25,994,750,0
946951,750.55,994,751,0
946961,751.41,994,750,0
946971,752.06,994,751,0
946981,752.47,994,750,0
946991,751.73,994,751,0
947001,745.21,994,750,0
947011,731.22,994,750,0
947021,708.10,994,749,0
947031,677.04,994,750,0
947041,638.20,994,749,0
947051,593.44,994,751,0
947061,544.79,994,750,0
947072,498.96,994,750,0
947081,458.81,994,750,0
947091,427.93,994,751,0
947101,405.62,994,750,0
947111,392.83,994,750,0
947121,387.61,994,749,0
947131,389.66,994,750,0
947141,396.19,994,750,0
947151,406.20,994,750,0
947161,416.77,994,749,0
947171,427.43,994,751,0
947181,435.83,994,750,0
947191,442.05,994,750,0
947201,444.35,994,750,0
947211,443.56,994,750,0
947221,438.59,994,750,0
947231,430.66,994,750,0
947241,419.32,994,750,0
947251,406.36,994,751,0
947261,391.56,994,750,0
947271,376.69,994,750,0
947281,361.52,994,750,0
947291,347.91,994,750,0
947301,335.47,994,750,0
947311,325.60,994,750,0
947321,317.75,994,750,0
947331,313.07,994,750,0
947341,310.47,994,750,0
947351,310.72,994,750,0
947361,312.65,994,750,0
947372,316.87,994,751,0
947382,322.18,994,749,0
947392,328.72,994,750,0
947402,335.62,994,750,0
947412,343.28,994,750,0
947422,350.74,994,749,0
947432,358.27,994,750,0
947442,365.18,994,749,0
947452,371.60,994,750,0
947462,377.33,994,750,0
947472,382.50,994,750,0
947482,386.42,994,750,0
947492,389.51,994,750,0
947502,391.37,994,749,0
947512,392.46,994,750,0
947522,392.58,994,750,0
947532,391.89,994,750,0
947543,390.17,994,750,0
947553,387.89,994,750,0
947563,385.01,994,750,0
947573,381.88,994,750,0
947584,378.36,994,750,0
947593,374.74,994,750,0
947603,370.79,994,750,0
947613,366.78,994,750,0
947623,363.16,994,750,0
947633,359.64,994,750,0
947643,356.62,994,750,0
947653,353.86,994,750,0
947663,351.72,994,750,0
947673,350.13,994,750,0
947683,348.98,994,750,0
947693,348.04,994,750,0
947703,347.56,994,750,0
947713,347.18,994,750,0
947723,347.17,994,750,0
947733,346.99,994,750,0
947743,347.12,994,750,0
947753,347.90,994,750,0
947763,350.41,994,750,0
947773,356.38,994,750,0
947783,368.39,994,750,0
947793,389.49,994,750,0
947803,421.78,994,750,0
947813,461.62,994,750,0
947832,506.35,1014,749,0
947835,553.09,1014,751,0
947844,599.05,1014,750,0
947854,640.82,1014,750,0
947864,674.73,1014,750,0
947874,698.47,1014,750,0
947884,715.08,1014,750,0
947894,726.72,1014,750,0
947904,734.90,1014,750,0
947914,740.63,1014,750,0
947924,744.64,1014,750,0
947934,747.45,1014,750,0
947944,749.41,1014,750,0
947954,750.79,1014,750,0
947964,751.75,1014,750,0
947974,752.43,1014,750,0
947984,752.90,1014,751,0
947994,753.23,1014,750,0
948004,753.46,1014,750,0
948014,751.01,1014,750,0
948024,743.03,1014,750,0
948034,727.21,1014,750,0
948044,703.28,1014,750,0
948055,671.01,1014,750,0
948065,632.05,1014,751,0
948075,587.03,1014,750,0
948085,540.65,1014,750,0
948096,496.53,1014,750,0
948105,459.00,1014,751,0
948115,428.74,1014,750,0
948125,407.60,1014,750,0
948135,393.79,1014,750,0
948145,387.56,1014,750,0
948155,386.19,1014,750,0
948165,389.35,1014,750,0
948175,394.17,1014,750,0
948185,400.42,1014,750,0
948195,405.44,1014,750,0
948205,409.55,1014,750,0
948215,410.67,1014,749,0
948225,409.74,1014,750,0
948235,405.45,1014,750,0
948245,399.10,1014,750,0
948255,389.77,1014,750,0
948265,379.25,1014,751,0
948275,366.92,1014,750,0
948285,354.82,1014,750,0
948295,342.23,1014,749,0
948305,331.19,1014,751,0
948315,320.89,1014,750,0
948325,313.08,1014,750,0
948335,306.67,1014,750,0
948345,303.13,1014,751,0
948355,301.16,1014,750,0
948365,301.97,1014,750,0
948375,303.99,1014,750,0
948385,308.28,1014,750,0
948396,313.21,1014,750,0
948406,319.70,1014,751,0
948416,325.96,1014,749,0
948426,333.18,1014,751,0
948436,339.59,1014,750,0
948446,346.27,1014,750,0
948456,351.72,1014,749,0
948466,357.12,1014,751,0
948476,361.07,1014,750,0
948486,364.99,1014,750,0
948496,367.35,1014,749,0
948506,369.73,1014,751,0
948516,370.50,1014,750,0
948526,371.21,1014,751,0
948536,370.46,1014,749,0
948546,369.85,1014,750,0
948556,368.01,1014,750,0
948567,366.38,1014,750,0
948577,363.61,1014,749,0
948587,361.41,1014,751,0
948597,358.29,1014,749,0
948608,355.89,1014,750,0
948617,352.75,1014,749,0
948627,350.38,1014,751,0
948637,347.44,1014,749,0
948647,345.21,1014,750,0
948657,342.36,1014,749,0
948667,340.49,1014,751,0
948677,338.16,1014,750,0
948687,336.83,1014,750,0
948697,335.16,1014,749,0
948707,334.64,1014,751,0
948717,333.94,1014,749,0
948727,334.38,1014,750,0
948737,334.40,1014,749,0
948747,335.52,1014,751,0
948757,336.22,1014,749,0
948767,337.74,1014,751,0
948777,338.46,1014,749,0
948787,340.12,1014,751,0
948797,341.76,1014,750,0
948807,346.20,1014,751,0
948817,353.90,1014,750,0
948827,368.59,1014,751,0
948837,392.02,1014,750,0
948847,426.35,1014,751,0
948867,467.38,1034,749,0
948870,513.17,1034,751,0
948879,560.05,1034,750,0
948889,605.59,1034,751,0
948899,646.04,1034,750,0
948909,678.43,1034,750,0
948919,701.10,1034,750,0
948929,716.97,1034,751,0
948939,728.08,1034,749,0
948950,735.86,1034,751,0
948959,741.30,1034,750,0
948969,745.11,1034,751,0
948979,747.78,1034,749,0
948989,749.64,1034,751,0
948999,750.95,1034,750,0
949009,751.87,1034,751,0
949019,752.46,1034,749,0
949029,748.30,1034,751,0
949039,736.46,1034,750,0
949049,715.58,1034,751,0
949059,685.06,1034,749,0
949069,645.66,1034,751,0
949079,598.36,1034,750,0
949089,544.94,1034,751,0
949099,491.26,1034,749,0
949109,442.32,1034,751,0
949120,401.04,1034,750,0
949129,369.57,1034,751,0
949139,348.10,1034,749,0
949149,336.84,1034,751,0
949159,334.45,1034,750,0
949169,339.88,1034,751,0
949179,350.68,1034,749,0
949189,365.26,1034,751,0
949199,381.04,1034,749,0
949209,396.88,1034,750,0
949219,410.50,1034,749,0
949229,421.20,1034,751,0
949239,427.69,1034,750,0
949249,430.19,1034,751,0
949259,427.99,1034,749,0
949269,422.03,1034,751,0
949279,412.21,1034,750,0
949289,399.72,1034,750,0
949299,384.89,1034,749,0
949309,369.11,1034,750,0
949319,352.79,1034,750,0
949329,337.25,1034,750,0
949339,322.91,1034,749,0
949349,310.59,1034,750,0
949359,300.43,1034,750,0
949369,293.01,1034,750,0
949379,288.17,1034,749,0
949389,286.15,1034,750,0
949399,286.44,1034,749,0
949409,289.23,1034,750,0
949420,293.83,1034,750,0
949430,300.18,1034,750,0
949440,307.54,1034,750,0
949450,315.48,1034,750,0
949460,323.61,1034,750,0
949470,331.61,1034,750,0
949480,338.93,1034,750,0
949490,345.55,1034,750,0
949500,351.30,1034,750,0
949510,356.18,1034,750,0
949520,360.20,1034,750,0
949530,363.10,1034,750,0
949540,365.25,1034,750,0
949550,366.51,1034,750,0
949560,367.04,1034,750,0
949570,366.73,1034,750,0
949580,365.95,1034,750,0
949591,364.68,1034,750,0
949601,363.19,1034,750,0
949611,360.95,1034,750,0
949621,358.65,1034,750,0
949632,355.84,1034,750,0
949641,353.15,1034,750,0
949651,349.97,1034,750,0
949661,346.90,1034,750,0
949671,343.54,1034,749,0
949681,340.76,1034,750,0
949691,337.88,1034,750,0
949701,335.81,1034,750,0
949711,333.68,1034,750,0
949721,332.36,1034,750,0
949731,331.14,1034,750,0
949741,330.80,1034,750,0
949751,330.43,1034,749,0
949761,330.86,1034,750,0
949771,331.16,1034,750,0
949781,332.05,1034,750,0
949791,332.51,1034,749,0
949801,333.38,1034,750,0
949811,333.70,1034,750,0
949821,334.39,1034,750,0
949831,334.91,1034,749,0
949841,337.17,1034,750,0
949851,341.79,1034,750,0
949861,351.80,1034,750,0
949871,369.17,1034,749,0
949881,397.88,1034,750,0
949891,435.76,1034,750,0
949910,479.97,1044,749,0
949913,527.04,1044,751,0
949922,574.68,1044,751,0
949932,619.44,1044,750,0
949942,658.13,1044,751,0
949952,686.81,1044,749,0
949962,706.88,1044,751,0
949972,720.93,1044,750,0
949982,730.81,1044,751,0
949992,737.68,1044,750,0
950002,742.49,1044,751,0
950012,745.86,1044,750,0
950022,748.26,1044,751,0
950032,749.89,1044,750,0
950042,751.00,1044,751,0
950052,745.98,1044,750,0
950062,732.66,1044,750,0
950072,708.68,1044,749,0
950082,674.66,1044,750,0
950092,630.28,1044,749,0
950103,577.48,1044,751,0
950113,517.38,1044,749,0
950123,458.46,1044,751,0
950133,404.37,1044,749,0
950144,360.33,1044,751,0
950153,326.63,1044,749,0
950163,306.00,1044,750,0
950173,296.87,1044,749,0
950183,299.57,1044,751,0
950193,310.67,1044,749,0
950203,329.58,1044,750,0
950213,352.21,1044,749,0
950223,377.73,1044,751,0
950233,402.11,1044,749,0
950243,424.79,1044,750,0
950253,442.60,1044,749,0
950263,456.00,1044,751,0
950273,462.95,1044,749,0
950283,464.80,1044,751,0
950293,460.36,1044,750,0
950303,451.60,1044,751,0
950313,437.79,1044,750,0
950323,421.57,1044,751,0
950333,402.37,1044,750,0
950343,382.71,1044,751,0
950353,362.10,1044,750,0
950363,343.04,1044,751,0
950373,324.81,1044,750,0
950383,309.78,1044,751,0
950393,296.78,1044,750,0
950403,287.76,1044,751,0
950413,281.36,1044,750,0
950423,279.11,1044,751,0
950433,278.99,1044,750,0
950444,282.46,1044,751,0
950454,287.47,1044,750,0
950464,295.00,1044,751,0
950474,303.19,1044,750,0
950484,312.73,1044,750,0
950494,321.81,1044,750,0
950504,331.60,1044,751,0
950514,340.25,1044,750,0
950524,348.96,1044,750,0
950534,356.30,1044,750,0
950544,363.45,1044,751,0
950554,368.97,1044,750,0
950564,374.00,1044,750,0
950574,377.25,1044,750,0
950584,380.31,1044,750,0
