Time,PPG,IBI,GSR,GSR_Event
203904,664.61,863,747,0
203913,612.70,863,749,0
203923,551.12,863,747,0
203933,485.68,863,749,0
203943,421.45,863,748,0
203953,364.49,863,749,0
203963,316.47,863,747,0
203973,286.07,863,749,0
203983,271.65,863,748,0
203993,271.03,863,749,0
204003,280.49,863,747,0
204013,298.47,863,748,0
204023,320.62,863,747,0
204033,345.29,863,748,0
204043,367.40,863,747,0
204053,388.54,863,748,0
204063,405.73,863,747,0
204073,419.31,863,748,0
204083,427.15,863,747,0
204093,430.28,863,748,0
204103,427.75,863,747,0
204113,420.71,863,747,0
204123,409.44,863,747,0
204133,396.41,863,748,0
204143,380.73,863,747,0
204153,364.70,863,748,0
204163,348.20,863,747,0
204173,333.53,863,748,0
204183,321.88,863,747,0
204193,312.19,863,747,0
204204,303.60,863,746,0
204214,297.94,863,747,0
204224,293.46,863,746,0
204234,290.10,863,743,0
204244,288.53,863,747,0
204254,293.43,863,748,0
204264,302.43,863,748,0
204274,315.29,863,749,0
204284,329.21,863,748,0
204294,345.05,863,749,0
204304,361.92,863,748,0
204314,378.23,863,749,0
204324,388.70,863,748,0
204334,394.88,863,749,0
204344,396.46,863,748,0
204354,395.85,863,749,0
204364,392.64,863,748,0
204375,388.67,863,749,0
204385,383.37,863,748,0
204395,378.29,863,749,0
204405,372.80,863,748,0
204416,368.28,863,749,0
204425,363.65,863,748,0
204435,360.07,863,749,0
204445,356.41,863,748,0
204455,353.63,863,749,0
204465,350.61,863,748,0
204475,348.20,863,749,0
204485,345.31,863,749,0
204495,342.77,863,749,0
204505,339.63,863,748,0
204515,337.30,863,749,0
204525,335.45,863,749,0
204535,336.30,863,749,0
204545,340.50,863,748,0
204555,351.53,863,749,0
204565,371.73,863,749,0
204575,404.34,863,749,0
204585,445.04,863,749,0
204595,491.18,863,750,0
204605,539.34,863,749,0
204615,587.11,863,749,0
204635,630.66,883,750,0
204638,666.81,883,752,0
204647,692.24,883,752,0
204657,710.12,883,751,0
204667,722.77,883,752,0
204677,731.71,883,752,0
204687,738.06,883,752,0
204697,742.58,883,751,0
204707,745.79,883,752,0
204717,748.04,883,752,0
204727,749.61,883,751,0
204737,750.67,883,751,0
204747,747.60,883,752,0
204758,737.22,883,752,0
204767,717.91,883,751,0
204777,689.14,883,751,0
204787,651.34,883,751,0
204797,605.55,883,751,0
204807,553.36,883,752,0
204817,500.24,883,751,0
204827,451.27,883,751,0
204837,409.66,883,752,0
204847,377.36,883,752,0
204857,355.31,883,752,0
204867,343.30,883,752,0
204877,340.34,883,752,0
204887,344.65,883,751,0
204897,354.44,883,751,0
204907,367.81,883,751,0
204917,382.82,883,751,0
204928,397.36,883,752,0
204937,410.07,883,751,0
204947,419.60,883,751,0
204957,425.42,883,752,0
204967,427.05,883,752,0
204977,424.34,883,752,0
204987,417.68,883,752,0
204997,407.62,883,752,0
205007,394.83,883,752,0
205017,380.18,883,752,0
205027,364.57,883,751,0
205037,348.84,883,752,0
205047,334.02,883,752,0
205057,320.64,883,752,0
205067,309.43,883,752,0
205077,300.73,883,752,0
205087,294.77,883,752,0
205097,291.45,883,752,0
205107,290.67,883,751,0
205117,292.14,883,752,0
205127,295.57,883,752,0
205137,300.50,883,752,0
205147,306.48,883,752,0
205157,313.11,883,752,0
205167,320.27,883,752,0
205177,327.48,883,752,0
205187,334.53,883,751,0
205197,341.15,883,752,0
205207,347.27,883,752,0
205217,352.59,883,752,0
205228,357.30,883,751,0
205238,361.02,883,752,0
205248,364.15,883,752,0
205258,366.16,883,751,0
205268,367.53,883,752,0
205278,367.84,883,752,0
205288,367.54,883,752,0
205298,365.97,883,751,0
205308,363.79,883,752,0
205318,360.47,883,752,0
205328,356.73,883,752,0
205338,352.05,883,752,0
205348,347.62,883,752,0
205358,343.75,883,752,0
205368,342.75,883,752,0
205378,345.91,883,751,0
205388,356.61,883,751,0
205399,377.21,883,751,0
205409,410.19,883,752,0
205419,451.36,883,752,0
205429,497.93,883,752,0
205440,546.38,883,752,0
205458,593.96,824,750,0
205461,636.87,824,752,0
205470,671.93,824,752,0
205480,696.42,824,752,0
205490,713.61,824,752,0
205500,725.64,824,752,0
205510,734.11,824,752,0
205520,739.99,824,751,0
205530,744.11,824,752,0
205540,745.62,824,751,0
205550,741.19,824,752,0
205560,727.42,824,751,0
205570,703.94,824,752,0
205580,670.01,824,752,0
205590,626.64,824,752,0
205600,574.12,824,751,0
205611,515.75,824,752,0
205620,456.47,824,752,0
205630,402.16,824,752,0
205640,354.54,824,751,0
205650,316.96,824,752,0
205660,289.46,824,752,0
205670,273.76,824,752,0
205680,268.22,824,751,0
205690,273.08,824,752,0
205700,285.36,824,751,0
205710,304.41,824,752,0
205720,326.70,824,751,0
205730,351.18,824,752,0
205740,374.31,824,751,0
205750,395.56,824,752,0
205760,412.02,824,751,0
205770,424.36,824,752,0
205780,430.59,824,751,0
205790,432.00,824,752,0
205800,427.67,824,751,0
205810,419.46,824,752,0
205820,406.89,824,751,0
205830,392.39,824,752,0
205840,375.43,824,751,0
205850,358.55,824,753,0
205860,340.98,824,751,0
205870,325.09,824,752,0
205880,310.23,824,751,0
205890,298.33,824,752,0
205900,288.21,824,751,0
205911,281.54,824,753,0
205921,276.80,824,751,0
205931,275.61,824,753,0
205941,276.16,824,751,0
205952,279.54,824,752,0
205961,284.01,824,751,0
205971,290.52,824,752,0
205981,297.26,824,751,0
205991,305.37,824,752,0
206001,312.84,824,751,0
206011,320.91,824,752,0
206021,327.88,824,751,0
206031,334.94,824,752,0
206041,340.53,824,751,0
206051,345.94,824,752,0
206061,349.69,824,751,0
206071,353.38,824,752,0
206081,355.45,824,751,0
206091,357.50,824,752,0
206101,358.04,824,751,0
206111,358.54,824,752,0
206121,357.61,824,751,0
206131,356.74,824,752,0
206141,354.33,824,751,0
206151,352.00,824,752,0
206161,348.32,824,751,0
206171,344.96,824,752,0
206181,340.90,824,752,0
206191,338.36,824,752,0
206201,337.27,824,751,0
206211,340.87,824,752,0
206221,350.17,824,751,0
206231,369.45,824,752,0
206241,399.78,824,751,0
206252,439.71,824,752,0
206262,485.09,824,752,0
206272,533.54,824,752,0
206282,581.29,824,751,0
206302,625.82,843,750,0
206305,662.86,843,753,0
206314,690.11,843,752,0
206324,709.15,843,751,0
206334,722.52,843,752,0
206344,731.88,843,752,0
206354,738.47,843,752,0
206364,743.04,843,751,0
206374,746.25,843,752,0
206384,748.49,843,752,0
206394,746.58,843,752,0
206404,737.07,843,751,0
206414,718.40,843,752,0
206424,690.17,843,752,0
206434,652.87,843,752,0
206444,606.97,843,751,0
206454,553.88,843,752,0
206465,498.50,843,752,0
206475,446.28,843,752,0
206485,400.60,843,751,0
206495,363.65,843,752,0
206505,336.54,843,752,0
206515,319.70,843,752,0
206525,312.59,843,751,0
206535,314.26,843,752,0
206545,323.14,843,752,0
206555,337.11,843,752,0
206565,353.92,843,751,0
206575,371.60,843,752,0
206585,388.61,843,752,0
206595,403.42,843,752,0
206605,414.87,843,752,0
206615,422.02,843,752,0
206625,424.72,843,752,0
206636,423.09,843,752,0
206646,417.40,843,752,0
206656,408.03,843,752,0
206666,395.93,843,752,0
206676,381.72,843,752,0
206686,366.55,843,752,0
206696,351.13,843,752,0
206706,336.52,843,752,0
206716,322.95,843,752,0
206726,311.44,843,752,0
206736,301.83,843,752,0
206746,294.94,843,752,0
206756,290.24,843,752,0
206766,288.16,843,752,0
206776,288.02,843,751,0
206786,290.25,843,752,0
206796,293.90,843,752,0
206807,299.20,843,752,0
206817,305.06,843,752,0
206827,311.94,843,752,0
206837,318.64,843,752,0
206848,325.69,843,752,0
206857,332.00,843,751,0
206867,338.17,843,752,0
206877,343.09,843,752,0
206887,347.65,843,752,0
206897,350.75,843,752,0
206907,353.44,843,752,0
206917,354.60,843,752,0
206927,355.36,843,752,0
206937,354.78,843,751,0
206947,353.95,843,752,0
206957,351.82,843,752,0
206967,349.60,843,752,0
206977,346.46,843,752,0
206987,343.80,843,752,0
206997,341.11,843,752,0
207007,340.48,843,752,0
207017,342.56,843,751,0
207027,350.41,843,752,0
207037,365.46,843,752,0
207047,391.21,843,752,0
207057,427.14,843,752,0
207067,470.26,843,752,0
207086,516.85,785,751,0
207089,564.43,785,754,0
207098,609.51,785,751,0
207108,649.43,785,753,0
207118,680.63,785,752,0
207128,702.51,785,753,0
207138,717.79,785,751,0
207148,728.52,785,752,0
207158,736.08,785,752,0
207168,741.41,785,753,0
207178,745.10,785,751,0
207188,745.93,785,752,0
207198,740.42,785,751,0
207208,727.14,785,752,0
207218,704.00,785,751,0
207228,671.81,785,752,0
207238,630.64,785,752,0
207248,582.15,785,752,0
207258,528.53,785,751,0
207268,475.79,785,753,0
207278,426.57,785,752,0
207288,385.25,785,752,0
207298,352.01,785,751,0
207308,328.90,785,752,0
207319,314.79,785,751,0
207329,310.61,785,753,0
207339,314.07,785,751,0
207349,325.02,785,752,0
207360,340.40,785,751,0
207369,359.65,785,752,0
207379,379.34,785,751,0
207389,399.12,785,752,0
207399,415.93,785,751,0
207409,430.01,785,753,0
207419,439.05,785,751,0
207429,444.05,785,752,0
207439,443.43,785,752,0
207449,438.98,785,753,0
207459,429.55,785,751,0
207469,417.64,785,752,0
207479,402.37,785,751,0
207489,386.31,785,752,0
207499,368.95,785,751,0
207509,352.59,785,752,0
207519,336.43,785,751,0
207529,322.63,785,752,0
207539,310.18,785,751,0
207549,300.91,785,752,0
207559,293.44,785,751,0
207569,289.24,785,752,0
207579,286.77,785,751,0
207589,287.35,785,752,0
207599,289.30,785,751,0
207609,293.67,785,752,0
207619,298.61,785,751,0
207629,305.41,785,753,0
207639,312.15,785,752,0
207649,320.03,785,752,0
207660,327.35,785,751,0
207670,335.35,785,752,0
207680,342.31,785,751,0
207690,349.55,785,752,0
207700,355.21,785,752,0
207710,360.76,785,752,0
207720,364.61,785,752,0
207730,368.24,785,752,0
207740,370.52,785,752,0
207750,373.41,785,752,0
207760,376.72,785,752,0
207770,383.44,785,752,0
207780,394.37,785,751,0
207790,412.90,785,752,0
207800,439.59,785,752,0
207810,474.55,785,753,0
207820,514.20,785,752,0
207831,556.53,785,752,0
207850,598.15,764,751,0
207853,636.94,764,754,0
207862,669.74,764,752,0
207873,694.93,764,752,0
207883,712.57,764,752,0
207893,724.95,764,752,0
207903,733.63,764,752,0
207913,739.74,764,752,0
207923,742.82,764,752,0
207933,740.09,764,752,0
207943,729.35,764,752,0
207953,709.48,764,752,0
207963,680.54,764,752,0
207973,642.79,764,752,0
207983,596.74,764,752,0
207993,544.49,764,752,0
208003,490.56,764,752,0
208013,438.96,764,752,0
208023,392.52,764,752,0
208033,352.85,764,752,0
208044,321.48,764,752,0
208054,299.18,764,752,0
208064,286.31,764,752,0
208074,282.36,764,752,0
208084,286.79,764,752,0
208094,297.91,764,752,0
208104,314.31,764,752,0
208114,333.67,764,752,0
208124,354.56,764,752,0
208134,374.53,764,752,0
208144,392.59,764,752,0
208154,406.85,764,751,0
208164,417.18,764,752,0
208174,422.74,764,752,0
208184,423.76,764,752,0
208194,419.98,764,751,0
208204,412.78,764,752,0
208215,402.22,764,752,0
208225,389.73,764,752,0
208235,375.62,764,751,0
208245,361.38,764,752,0
208256,347.34,764,752,0
208265,334.94,764,752,0
208275,323.85,764,751,0
208285,315.37,764,752,0
208295,308.74,764,752,0
208305,304.84,764,752,0
208315,302.61,764,751,0
208325,302.77,764,752,0
208335,304.00,764,752,0
208345,307.04,764,753,0
208355,310.33,764,752,0
208365,314.77,764,753,0
208375,319.00,764,752,0
208385,323.88,764,753,0
208395,328.38,764,752,0
208405,333.19,764,753,0
208415,337.03,764,752,0
208425,341.05,764,753,0
208435,343.99,764,752,0
208445,346.82,764,753,0
208455,348.38,764,753,0
208465,349.51,764,754,0
208475,349.40,764,753,0
208485,349.49,764,754,0
208495,349.34,764,753,0
208505,351.30,764,753,0
208515,355.79,764,752,0
208525,365.76,764,753,0
208535,382.29,764,752,0
208545,408.17,764,753,0
208556,443.05,764,752,0
208566,484.56,764,753,0
208576,528.88,764,753,0
208595,573.83,745,751,0
208599,616.01,745,753,0
208607,653.29,745,753,0
208617,682.90,745,752,0
208627,704.10,745,753,0
208637,718.90,745,752,0
208647,727.12,745,753,0
208657,726.70,745,752,0
208667,717.44,745,753,0
208677,698.15,745,752,0
208687,670.16,745,753,0
208697,633.34,745,751,0
208707,589.31,745,753,0
208717,540.53,745,752,0
208727,492.16,745,753,0
208737,445.74,745,751,0
208747,404.89,745,753,0
208757,369.14,745,751,0
208768,340.68,745,752,0
208777,318.41,745,751,0
208787,303.80,745,753,0
208797,295.16,745,751,0
208807,293.40,745,752,0
208817,296.28,745,751,0
208827,304.29,745,753,0
208837,314.96,745,752,0
208847,328.56,745,753,0
208857,342.41,745,752,0
208867,356.64,745,753,0
208877,368.96,745,752,0
208887,379.86,745,753,0
208897,387.36,745,752,0
208907,392.44,745,753,0
208917,393.42,745,752,0
208927,391.67,745,753,0
208937,386.11,745,752,0
208947,378.49,745,753,0
208957,368.06,745,752,0
208967,356.77,745,753,0
208977,343.90,745,752,0
208987,331.63,745,754,0
208997,319.14,745,752,0
209007,308.43,745,753,0
209017,298.57,745,752,0
209027,291.24,745,753,0
209037,285.17,745,752,0
209047,281.73,745,753,0
209057,279.41,745,752,0
209068,279.46,745,753,0
209078,280.27,745,752,0
209088,282.76,745,753,0
209098,285.40,745,752,0
209108,289.18,745,753,0
209118,292.60,745,752,0
209128,296.70,745,753,0
209138,300.14,745,752,0
209148,303.95,745,753,0
209158,306.84,745,752,0
209168,309.93,745,753,0
209178,311.92,745,752,0
209188,313.96,745,753,0
209198,314.74,745,752,0
209208,315.59,745,753,0
209218,315.11,745,752,0
209228,314.61,745,753,0
209239,313.05,745,752,0
209249,312.01,745,752,0
209259,311.28,745,752,0
209269,313.08,745,753,0
209280,317.51,745,752,0
209289,327.13,745,753,0
209299,342.22,745,752,0
209309,365.13,745,753,0
209319,395.30,745,752,0
209329,432.63,745,753,0
209348,474.52,753,751,0
209351,518.64,753,755,0
209360,562.42,753,753,0
209370,602.88,753,753,0
209380,635.66,753,752,0
209390,658.60,753,753,0
209400,669.52,753,752,0
209410,668.81,753,752,0
209420,656.91,753,752,0
209430,634.56,753,753,0
209440,603.88,753,752,0
209451,567.79,753,753,0
209460,528.72,753,752,0
209470,489.55,753,753,0
209480,451.46,753,752,0
209490,416.60,753,753,0
209500,385.69,753,752,0
209510,359.60,753,753,0
209520,338.38,753,752,0
209530,322.24,753,753,0
209540,310.85,753,752,0
209550,304.42,753,753,0
209560,302.11,753,752,0
209570,303.66,753,753,0
209580,308.35,753,752,0
209590,315.96,753,753,0
209600,325.36,753,752,0
209610,335.92,753,753,0
209620,346.62,753,752,0
209630,356.97,753,753,0
209640,366.11,753,752,0
209650,373.49,753,753,0
209660,378.36,753,752,0
209670,380.95,753,753,0
209680,380.84,753,752,0
209690,378.23,753,753,0
209700,373.19,753,752,0
209710,366.40,753,753,0
209720,358.10,753,752,0
209730,348.85,753,753,0
209740,338.91,753,752,0
209751,328.91,753,752,0
209761,319.34,753,753,0
209771,310.49,753,753,0
209781,302.76,753,753,0
209792,296.27,753,752,0
209801,291.43,753,753,0
209811,288.18,753,753,0
209821,286.67,753,752,0
209831,286.51,753,752,0
209841,287.90,753,753,0
209851,290.29,753,753,0
209861,293.89,753,752,0
209871,297.91,753,752,0
209881,302.43,753,753,0
209891,306.89,753,753,0
209901,311.47,753,752,0
209911,315.35,753,752,0
209921,318.76,753,752,0
209931,321.28,753,753,0
209941,323.25,753,752,0
209951,324.12,753,752,0
209961,324.34,753,753,0
209971,323.51,753,752,0
209981,322.24,753,752,0
209991,320.28,753,752,0
210001,318.10,753,753,0
210011,315.67,753,753,0
210021,314.05,753,752,0
210031,313.70,753,753,0
210041,316.14,753,753,0
210051,322.06,753,752,0
210061,332.93,753,752,0
210071,349.45,753,752,0
210081,372.76,753,753,0
210092,402.23,753,752,0
210111,437.18,763,751,0
210114,474.75,763,753,0
210123,513.91,763,753,0
210134,550.80,763,752,0
210143,583.34,763,753,0
210153,607.97,763,752,0
210163,623.62,763,753,0
210173,628.66,763,752,0
210183,624.61,763,753,0
210193,610.67,763,752,0
210203,589.94,763,753,0
210213,563.09,763,752,0
210223,533.53,763,752,0
210233,502.17,763,752,0
210243,471.91,763,753,0
210253,442.66,763,752,0
210263,416.79,763,753,0
210273,393.58,763,752,0
210283,374.77,763,753,0
210293,359.36,763,752,0
210304,348.76,763,753,0
210313,341.76,763,752,0
210323,339.47,763,753,0
210333,340.36,763,752,0
210343,345.31,763,753,0
210353,352.46,763,752,0
210363,362.22,763,753,0
210373,372.53,763,752,0
210383,383.85,763,753,0
210393,394.18,763,752,0
210403,403.94,763,753,0
210413,411.29,763,753,0
210423,417.07,763,754,0
210433,419.79,763,753,0
210443,420.71,763,754,0
210453,418.44,763,753,0
210463,414.54,763,754,0
210473,408.08,763,753,0
210483,400.81,763,754,0
210493,392.00,763,753,0
210503,383.43,763,753,0
210513,374.21,763,752,0
210523,366.18,763,754,0
210533,358.28,763,753,0
210543,352.20,763,754,0
210553,346.65,763,753,0
210563,343.03,763,755,0
210573,340.02,763,753,0
210583,338.94,763,753,0
210593,338.19,763,752,0
210604,339.12,763,753,0
210614,340.07,763,752,0
210624,342.36,763,753,0
210634,344.31,763,752,0
210644,347.13,763,753,0
210654,349.19,763,752,0
210664,351.88,763,753,0
210674,353.63,763,752,0
210684,355.80,763,753,0
210694,356.84,763,752,0
210704,358.18,763,753,0
210714,358.38,763,751,0
210724,358.91,763,753,0
210734,358.42,763,752,0
210744,358.34,763,753,0
210754,357.29,763,751,0
210764,356.73,763,753,0
210775,355.36,763,752,0
210785,354.61,763,753,0
210795,353.18,763,751,0
210805,352.48,763,753,0
210816,351.18,763,752,0
210825,350.87,763,753,0
210835,350.57,763,751,0
210845,352.15,763,753,0
210855,355.06,763,752,0
210865,361.60,763,753,0
210875,371.58,763,751,0
210885,387.73,763,753,0
210895,409.80,763,752,0
210914,438.96,803,750,0
210917,473.43,803,752,0
210926,512.81,803,753,0
210936,553.50,803,752,0
210946,593.63,803,753,0
210956,630.13,803,752,0
210966,661.81,803,753,0
210976,686.16,803,752,0
210987,702.44,803,753,0
210996,709.25,803,752,0
211006,707.76,803,753,0
211016,698.02,803,752,0
211026,681.21,803,752,0
211036,657.62,803,752,0
211046,629.62,803,752,0
211056,598.71,803,752,0
211066,567.55,803,753,0
211076,537.04,803,752,0
211086,509.60,803,753,0
211096,485.08,803,752,0
211106,464.87,803,753,0
211116,448.32,803,752,0
211126,436.35,803,753,0
211136,427.93,803,752,0
211146,423.88,803,753,0
211156,422.93,803,752,0
211166,425.57,803,753,0
211176,430.28,803,752,0
211186,437.40,803,753,0
211196,445.25,803,752,0
211206,454.05,803,753,0
211216,461.96,803,752,0
211226,469.17,803,753,0
211236,474.26,803,752,0
211246,477.87,803,753,0
211256,478.64,803,752,0
211266,477.55,803,753,0
211276,473.74,803,752,0
211287,468.37,803,752,0
211297,460.93,803,752,0
211307,452.64,803,753,0
211317,443.06,803,752,0
211328,433.44,803,752,0
211337,423.37,803,752,0
211347,414.00,803,753,0
211357,405.09,803,752,0
211367,397.43,803,752,0
211377,390.74,803,752,0
211387,385.68,803,753,0
211397,381.87,803,752,0
211407,379.68,803,752,0
211417,378.49,803,752,0
211427,378.65,803,753,0
211437,379.61,803,752,0
211447,381.44,803,752,0
211457,383.49,803,752,0
211467,386.17,803,753,0
211477,388.78,803,752,0
211487,391.46,803,752,0
211497,393.81,803,752,0
211507,396.09,803,753,0
211517,397.87,803,752,0
211527,399.45,803,752,0
211537,400.34,803,752,0
211547,400.97,803,753,0
211557,401.06,803,752,0
211567,400.74,803,752,0
211577,399.75,803,752,0
211587,398.62,803,753,0
211597,397.07,803,752,0
211607,395.29,803,752,0
211617,393.19,803,752,0
211628,390.95,803,752,0
211638,388.52,803,752,0
211648,386.13,803,752,0
211658,383.82,803,753,0
211668,381.99,803,752,0
211678,381.31,803,752,0
211688,382.59,803,752,0
211698,387.13,803,752,0
211708,396.34,803,752,0
211718,411.71,803,752,0
211728,434.43,803,752,0
211747,465.03,833,751,0
211750,501.66,833,753,0
211759,541.54,833,753,0
211769,581.87,833,752,0
211779,620.31,833,753,0
211789,654.59,833,752,0
211799,682.78,833,753,0
211809,703.76,833,752,0
211819,718.45,833,753,0
211829,728.73,833,752,0
211840,735.11,833,753,0
211849,736.41,833,752,0
211859,732.34,833,753,0
211869,722.08,833,752,0
211879,705.99,833,753,0
211889,683.96,833,752,0
211899,656.63,833,752,0
211909,625.07,833,752,0
211919,592.52,833,753,0
211929,560.31,833,752,0
211939,530.73,833,752,0
211949,504.15,833,752,0
211959,481.91,833,753,0
211969,463.89,833,752,0
211979,450.90,833,753,0
211989,441.84,833,752,0
211999,437.22,833,753,0
212009,435.65,833,752,0
212019,437.47,833,753,0
212029,441.14,833,752,0
212039,446.63,833,753,0
212049,452.27,833,752,0
212059,458.19,833,753,0
212069,462.72,833,752,0
212079,466.27,833,753,0
212089,467.35,833,752,0
212099,466.90,833,753,0
212109,463.97,833,752,0
212119,459.40,833,753,0
212129,452.42,833,752,0
212140,444.37,833,753,0
212150,434.78,833,752,0
212160,425.21,833,753,0
212170,414.77,833,752,0
212180,404.90,833,753,0
212190,395.24,833,752,0
212200,387.16,833,753,0
212210,379.65,833,752,0
212220,374.10,833,753,0
212230,369.31,833,752,0
212240,366.56,833,753,0
212250,364.38,833,752,0
212260,363.79,833,753,0
212270,363.47,833,752,0
212280,364.61,833,753,0
212290,365.67,833,752,0
212300,367.74,833,753,0
212311,369.32,833,752,0
212321,371.67,833,753,0
212331,373.27,833,752,0
212341,375.29,833,753,0
212352,376.36,833,752,0
212361,377.75,833,753,0
212371,378.17,833,752,0
212381,378.72,833,753,0
212391,378.20,833,752,0
212401,377.97,833,754,0
212411,376.78,833,752,0
212421,375.95,833,753,0
212431,374.12,833,752,0
212441,372.63,833,753,0
212451,370.30,833,752,0
212461,368.49,833,753,0
212471,365.86,833,752,0
212481,363.80,833,753,0
212491,361.08,833,752,0
212501,359.04,833,753,0
212511,356.46,833,752,0
212521,355.16,833,754,0
212531,354.08,833,752,0
212541,355.60,833,753,0
212551,359.54,833,752,0
212561,368.42,833,753,0
212571,382.01,833,752,0
212581,402.83,833,753,0
212600,429.88,853,752,0
212603,464.08,853,754,0
212612,503.18,853,753,0
212622,544.66,853,753,0
212632,585.13,853,753,0
212642,623.19,853,754,0
212652,655.15,853,752,0
212662,679.53,853,753,0
212672,693.34,853,752,0
212682,696.63,853,753,0
212692,689.62,853,752,0
212702,674.18,853,752,0
212712,650.30,853,751,0
212722,620.94,853,753,0
212732,587.18,853,752,0
212742,552.89,853,752,0
212752,518.51,853,752,0
212762,486.94,853,753,0
212772,457.73,853,752,0
212782,433.17,853,753,0
212792,411.95,853,752,0
212802,395.51,853,753,0
212812,382.41,853,752,0
212823,373.84,853,753,0
212833,368.49,853,752,0
212843,367.23,853,753,0
212853,368.45,853,752,0
212864,372.81,853,752,0
212873,378.65,853,752,0
212883,386.39,853,753,0
212893,394.11,853,752,0
212903,402.22,853,753,0
212913,409.06,853,752,0
212923,415.12,853,753,0
212933,418.90,853,752,0
212943,421.07,853,753,0
212953,420.41,853,752,0
212963,418.10,853,753,0
212973,413.23,853,752,0
212983,407.07,853,753,0
212993,398.95,853,752,0
213003,390.69,853,753,0
213013,381.53,853,752,0
213023,372.93,853,753,0
213033,364.29,853,752,0
213043,357.00,853,753,0
213053,350.19,853,752,0
213063,345.08,853,753,0
213073,340.42,853,752,0
213083,337.55,853,753,0
213093,335.37,853,752,0
213103,334.79,853,753,0
213113,334.68,853,751,0
213123,336.15,853,753,0
213133,337.86,853,752,0
213143,340.60,853,753,0
213153,343.12,853,751,0
213164,346.26,853,753,0
213174,348.88,853,752,0
213184,351.62,853,753,0
213194,353.53,853,752,0
213204,355.17,853,753,0
213214,355.89,853,752,0
213224,356.35,853,753,0
213234,355.86,853,752,0
213244,355.00,853,753,0
213254,353.42,853,752,0
213264,351.58,853,753,0
213274,349.30,853,752,0
213284,346.98,853,753,0
213294,344.33,853,752,0
213304,341.92,853,753,0
213314,339.41,853,752,0
213324,337.32,853,753,0
213335,335.29,853,752,0
213345,333.71,853,752,0
213355,332.77,853,752,0
213365,332.92,853,752,0
213376,334.70,853,752,0
213385,338.99,853,752,0
213395,346.49,853,752,0
213405,358.26,853,752,0
213415,375.28,853,752,0
213425,397.65,853,752,0
213444,425.23,844,750,0
213447,456.53,844,753,0
213456,491.04,844,753,0
213466,525.96,844,752,0
213476,558.93,844,752,0
213486,587.02,844,752,0
213496,608.44,844,753,0
213506,621.55,844,752,0
213516,626.27,844,752,0
213526,621.43,844,752,0
213536,608.66,844,753,0
213547,589.01,844,752,0
213556,565.05,844,752,0
213566,538.12,844,752,0
213576,510.40,844,752,0
213586,482.85,844,752,0
213596,457.31,844,752,0
213606,434.12,844,752,0
213616,414.41,844,753,0
213626,397.57,844,752,0
213636,384.33,844,752,0
213646,374.12,844,752,0
213656,367.44,844,753,0
213666,363.36,844,752,0
213676,362.35,844,753,0
213686,363.45,844,752,0
213696,367.04,844,753,0
213706,371.92,844,752,0
213716,378.28,844,753,0
213726,384.80,844,752,0
213736,391.76,844,753,0
213746,397.79,844,752,0
213756,403.21,844,753,0
213766,406.96,844,752,0
213776,409.59,844,753,0
213786,410.01,844,752,0
213796,409.06,844,752,0
213806,406.05,844,752,0
213816,401.96,844,752,0
213826,396.27,844,752,0
213836,390.02,844,753,0
213847,382.77,844,752,0
213857,375.68,844,753,0
213867,368.15,844,752,0
213877,361.50,844,753,0
213888,355.05,844,752,0
213897,349.98,844,753,0
213907,345.40,844,752,0
213917,342.41,844,753,0
213927,339.93,844,752,0
213937,339.09,844,753,0
213947,338.51,844,752,0
213957,339.26,844,753,0
213967,339.99,844,752,0
213977,341.50,844,753,0
213987,342.55,844,752,0
213997,344.23,844,753,0
214007,345.23,844,752,0
214017,346.66,844,753,0
214027,347.36,844,752,0
214037,348.45,844,753,0
214047,348.83,844,752,0
214057,349.65,844,753,0
214067,349.84,844,752,0
214077,350.62,844,753,0
214087,350.78,844,752,0
214097,351.44,844,753,0
214107,351.44,844,752,0
214117,352.04,844,753,0
214127,351.98,844,751,0
214137,352.46,844,753,0
214147,352.28,844,752,0
214157,352.58,844,753,0
214167,352.06,844,751,0
214177,351.92,844,753,0
214188,350.96,844,752,0
214198,350.41,844,753,0
214208,349.26,844,751,0
214218,348.97,844,753,0
214228,348.85,844,752,0
214238,350.91,844,753,0
214248,354.79,844,751,0
214258,362.87,844,753,0
214268,375.04,844,751,0
214287,393.37,843,750,0
214290,417.39,843,753,0
214299,448.51,843,753,0
214309,484.02,843,752,0
214319,523.14,843,753,0
214329,562.06,843,752,0
214339,599.54,843,753,0
214349,631.61,843,752,0
214359,657.22,843,753,0
214369,673.19,843,752,0
214379,680.50,843,753,0
214389,678.21,843,752,0
214400,668.76,843,753,0
214409,652.12,843,752,0
214419,631.47,843,753,0
214429,607.11,843,752,0
214439,582.01,843,753,0
214449,556.59,843,752,0
214459,533.31,843,753,0
214469,511.49,843,752,0
214479,492.83,843,753,0
214489,476.38,843,752,0
214499,463.24,843,753,0
214509,452.15,843,752,0
214519,443.92,843,753,0
214529,437.34,843,752,0
214539,433.77,843,753,0
214549,431.61,843,752,0
214559,431.90,843,753,0
214569,433.17,843,752,0
214579,436.29,843,752,0
214589,439.59,843,752,0
214599,444.00,843,753,0
214609,447.68,843,752,0
214619,451.47,843,752,0
214629,453.64,843,752,0
214639,455.33,843,753,0
214649,455.15,843,752,0
214659,454.25,843,753,0
214669,451.22,843,752,0
214679,447.29,843,753,0
214689,441.59,843,752,0
214700,435.50,843,752,0
214710,427.98,843,752,0
214720,420.48,843,753,0
214730,412.37,843,752,0
214740,405.01,843,753,0
214750,397.64,843,752,0
214760,391.53,843,753,0
214770,385.80,843,752,0
214780,381.62,843,752,0
214790,378.09,843,752,0
214800,376.09,843,753,0
214810,374.69,843,752,0
214820,374.53,843,752,0
214830,374.67,843,752,0
214840,375.93,843,753,0
214850,377.23,843,752,0
214860,379.31,843,752,0
214871,381.19,843,752,0
214881,383.27,843,753,0
214891,385.08,843,752,0
214901,387.03,843,752,0
214912,388.43,843,752,0
214921,389.89,843,753,0
214931,390.65,843,752,0
214941,391.27,843,752,0
214951,391.36,843,752,0
214961,391.25,843,753,0
214971,390.58,843,752,0
214981,389.72,843,752,0
214991,388.39,843,752,0
215001,387.07,843,753,0
215011,385.38,843,752,0
215021,383.77,843,752,0
215031,381.82,843,752,0
215041,380.03,843,753,0
215051,378.05,843,752,0
215061,376.28,843,752,0
215071,374.69,843,752,0
215081,374.10,843,752,0
215091,374.80,843,752,0
215101,378.29,843,752,0
215111,385.49,843,752,0
215121,397.94,843,752,0
215131,416.47,843,752,0
215150,442.17,863,750,0
215153,474.99,863,754,0
215162,512.97,863,753,0
215172,553.01,863,752,0
215182,592.60,863,752,0
215192,629.45,863,752,0
215202,661.84,863,753,0
215212,688.12,863,753,0
215222,707.37,863,752,0
215232,720.84,863,752,0
215242,729.51,863,753,0
215252,733.00,863,753,0
215262,731.15,863,752,0
215272,723.65,863,752,0
215282,710.43,863,753,0
215292,691.91,863,752,0
215302,668.50,863,752,0
215312,641.35,863,752,0
215322,612.53,863,752,0
215332,583.78,863,752,0
215342,556.76,863,752,0
215352,532.58,863,752,0
215362,511.62,863,752,0
215372,494.46,863,753,0
215383,481.08,863,752,0
215393,471.88,863,752,0
215403,466.22,863,752,0
215413,464.05,863,752,0
215424,464.59,863,752,0
215433,467.67,863,752,0
215443,472.23,863,752,0
215453,478.07,863,753,0
215463,483.71,863,752,0
215473,489.15,863,752,0
215483,493.05,863,752,0
215493,495.52,863,753,0
215503,495.54,863,752,0
215513,493.58,863,752,0
215523,488.99,863,752,0
215533,482.99,863,753,0
215543,474.98,863,752,0
215553,466.11,863,752,0
215563,456.18,863,752,0
215573,446.31,863,753,0
215583,436.06,863,752,0
215593,426.57,863,752,0
215603,417.23,863,752,0
215613,409.23,863,753,0
215623,401.96,863,752,0
215633,396.23,863,752,0
215643,391.45,863,752,0
215653,388.36,863,753,0
215663,386.02,863,752,0
215673,385.20,863,752,0
215683,384.93,863,752,0
215693,385.81,863,753,0
215703,386.81,863,752,0
215713,388.58,863,752,0
215724,390.16,863,752,0
215734,392.43,863,753,0
215744,394.14,863,752,0
215754,396.16,863,752,0
215764,397.44,863,752,0
215774,399.02,863,753,0
215784,399.74,863,752,0
215794,400.63,863,752,0
215804,400.57,863,752,0
215814,400.70,863,753,0
215824,399.98,863,752,0
215834,399.47,863,752,0
215844,397.91,863,752,0
215854,396.61,863,753,0
215864,394.41,863,752,0
215874,392.53,863,752,0
215884,390.02,863,752,0
215895,388.34,863,753,0
215905,386.95,863,752,0
215915,388.04,863,752,0
215925,391.71,863,752,0
215936,400.76,863,753,0
215945,415.49,863,752,0
215955,438.61,863,753,0
215974,469.37,824,752,0
215977,506.37,824,754,0
215986,546.16,824,752,0
215996,586.66,824,753,0
216006,624.73,824,752,0
216016,658.80,824,753,0
216026,686.12,824,752,0
216036,706.18,824,753,0
216046,720.23,824,752,0
216056,730.06,824,753,0
216066,736.94,824,752,0
216076,741.76,824,753,0
216086,742.56,824,752,0
216096,738.62,824,753,0
216107,728.49,824,752,0
216116,712.49,824,753,0
216126,689.93,824,752,0
216136,661.71,824,753,0
216146,627.89,824,752,0
216156,592.57,824,753,0
216166,557.04,824,752,0
216176,524.67,824,753,0
216186,495.71,824,752,0
216196,472.48,824,753,0
216206,454.38,824,752,0
216216,442.65,824,753,0
216226,435.73,824,752,0
216236,434.40,824,753,0
216246,436.63,824,751,0
216256,442.70,824,753,0
216266,450.29,824,752,0
216276,459.46,824,753,0
216286,467.94,824,751,0
216296,475.93,824,753,0
216306,481.43,824,752,0
216316,484.86,824,753,0
216326,484.73,824,751,0
216336,482.37,824,753,0
216346,476.64,824,752,0
216356,469.04,824,753,0
216366,458.78,824,751,0
216376,447.66,824,753,0
216386,435.12,824,752,0
216396,422.87,824,753,0
216407,410.09,824,751,0
216417,398.45,824,753,0
216427,387.35,824,752,0
216437,378.24,824,753,0
216448,370.28,824,751,0
216457,364.84,824,753,0
216467,360.69,824,752,0
216477,358.77,824,753,0
216487,358.02,824,752,0
216497,359.09,824,753,0
216507,360.78,824,752,0
216517,363.63,824,753,0
216527,366.57,824,751,0
216537,370.34,824,753,0
216547,373.80,824,752,0
216557,377.71,824,752,0
216567,381.06,824,751,0
216577,384.60,824,752,0
216587,387.38,824,752,0
216597,390.05,824,752,0
216607,391.62,824,751,0
216617,392.89,824,752,0
216627,392.88,824,752,0
216637,392.40,824,752,0
216647,390.74,824,752,0
216657,388.85,824,752,0
216667,386.28,824,752,0
216677,384.48,824,752,0
216687,383.74,824,752,0
216697,386.22,824,752,0
216707,392.75,824,752,0
216717,406.07,824,752,0
216727,427.22,824,752,0
216737,457.88,824,752,0
216748,494.99,824,752,0
216767,535.92,793,750,0
216770,577.56,793,753,0
216779,617.81,793,752,0
216790,653.56,793,752,0
216799,682.92,793,752,0
216809,703.95,793,752,0
216819,718.66,793,752,0
216829,728.96,793,752,0
216839,736.17,793,752,0
216849,741.22,793,752,0
216859,742.53,793,752,0
216869,738.25,793,752,0
216879,727.68,793,752,0
216889,710.12,793,752,0
216899,685.44,793,752,0
216909,654.28,793,752,0
216919,617.38,793,752,0
216929,577.67,793,752,0
216939,538.21,793,752,0
216949,501.16,793,752,0
216960,468.16,793,752,0
216969,440.64,793,752,0
216979,418.89,793,752,0
216989,403.15,793,752,0
216999,393.16,793,752,0
217009,388.70,793,752,0
217019,388.88,793,752,0
217029,393.11,793,752,0
217039,399.98,793,752,0
217049,408.51,793,752,0
217059,417.23,793,752,0
217069,425.48,793,752,0
217079,432.10,793,752,0
217089,436.57,793,752,0
217099,438.37,793,752,0
217109,437.62,793,752,0
217119,433.92,793,752,0
217129,427.86,793,752,0
217139,419.54,793,752,0
217149,409.74,793,752,0
217159,398.67,793,752,0
217169,387.24,793,753,0
217179,375.56,793,752,0
217189,364.46,793,752,0
217199,354.17,793,752,0
217209,345.20,793,753,0
217219,337.73,793,752,0
217229,332.07,793,753,0
217239,327.85,793,752,0
217249,325.41,793,753,0
217260,324.38,793,752,0
217270,324.87,793,753,0
217280,326.15,793,752,0
217290,328.46,793,753,0
217300,331.07,793,752,0
217310,334.22,793,753,0
217320,337.20,793,752,0
217330,340.44,793,753,0
217340,343.09,793,752,0
217350,345.94,793,753,0
217360,347.88,793,752,0
217370,349.85,793,753,0
217380,350.75,793,751,0
217390,351.47,793,753,0
217400,350.98,793,752,0
217410,350.17,793,753,0
217420,348.28,793,752,0
217431,346.44,793,753,0
217441,344.12,793,752,0
217451,343.23,793,753,0
217461,343.85,793,752,0
217472,348.56,793,753,0
217481,357.69,793,752,0
217491,373.77,793,753,0
217501,396.98,793,752,0
217511,428.57,793,753,0
217521,466.46,793,752,0
217540,508.96,773,751,0
217543,552.30,773,752,0
217552,594.60,773,753,0
217562,632.65,773,752,0
217572,663.65,773,753,0
217582,683.81,773,752,0
217592,692.91,773,753,0
217602,690.37,773,752,0
217612,677.87,773,753,0
217622,655.62,773,752,0
217632,625.57,773,753,0
217643,589.48,773,752,0
217652,551.49,773,753,0
217662,512.65,773,752,0
217672,476.07,773,753,0
217682,441.76,773,752,0
217692,412.22,773,753,0
217702,386.31,773,752,0
217712,365.43,773,753,0
217722,348.03,773,752,0
217732,335.38,773,753,0
217742,326.05,773,752,0
217752,321.19,773,753,0
217762,318.86,773,752,0
217772,320.23,773,753,0
217782,323.59,773,752,0
217792,329.71,773,753,0
217802,336.61,773,752,0
217812,344.74,773,753,0
217822,352.15,773,752,0
217832,359.60,773,753,0
217842,365.12,773,752,0
217852,369.63,773,753,0
217862,371.50,773,752,0
217872,371.91,773,753,0
217882,369.58,773,752,0
217892,365.93,773,753,0
217902,360.04,773,752,0
217912,353.47,773,753,0
217922,345.31,773,752,0
217932,337.33,773,753,0
217943,328.62,773,752,0
217953,320.81,773,753,0
217963,312.98,773,752,0
217973,306.60,773,753,0
217984,300.76,773,752,0
217993,296.63,773,752,0
218003,292.97,773,752,0
218013,291.05,773,753,0
218023,289.54,773,752,0
218033,289.55,773,752,0
218043,289.68,773,752,0
218053,290.98,773,753,0
218063,292.14,773,752,0
218073,294.24,773,752,0
218083,295.80,773,752,0
218093,298.00,773,753,0
218103,299.46,773,752,0
218113,301.33,773,752,0
218123,302.35,773,752,0
218133,303.66,773,753,0
218143,303.89,773,752,0
218153,304.18,773,752,0
218163,303.27,773,752,0
218173,302.46,773,753,0
218183,300.56,773,752,0
218193,298.77,773,752,0
218203,296.09,773,752,0
218213,294.18,773,753,0
218223,292.45,773,752,0
218233,292.83,773,752,0
218243,294.81,773,752,0
218253,300.65,773,753,0
218263,310.14,773,752,0
218273,324.97,773,752,0
218284,344.22,773,752,0
218294,368.63,773,753,0
218313,396.00,773,751,0
218316,425.44,773,752,0
218326,454.71,773,752,0
218335,482.14,773,753,0
218345,504.73,773,752,0
218355,521.48,773,752,0
218365,530.64,773,752,0
218375,532.67,773,752,0
218385,527.76,773,752,0
218395,516.39,773,752,0
218405,499.73,773,752,0
218415,479.97,773,752,0
218425,458.25,773,752,0
218435,436.15,773,752,0
218445,414.33,773,752,0
218455,393.96,773,753,0
218465,375.29,773,752,0
218475,359.00,773,752,0
218485,344.94,773,752,0
218496,333.39,773,752,0
218505,324.19,773,752,0
218515,317.49,773,753,0
218525,313.01,773,752,0
218535,310.95,773,752,0
218545,310.71,773,752,0
218555,312.30,773,753,0
218565,315.29,773,752,0
218575,319.36,773,752,0
218585,323.84,773,752,0
218595,328.56,773,753,0
218605,332.85,773,752,0
218615,336.54,773,752,0
218625,339.12,773,752,0
218635,340.67,773,753,0
218645,340.90,773,752,0
218655,340.07,773,752,0
218665,337.95,773,752,0
218675,334.92,773,753,0
218685,331.05,773,752,0
218695,326.70,773,752,0
218705,321.91,773,752,0
218715,317.18,773,752,0
218725,312.50,773,752,0
218735,308.19,773,752,0
218745,304.19,773,752,0
218755,300.83,773,752,0
218765,298.10,773,751,0
218775,296.05,773,752,0
218785,294.71,773,752,0
218796,293.98,773,752,0
218806,293.90,773,752,0
218816,294.23,773,752,0
218826,295.10,773,752,0
218836,296.10,773,752,0
218846,297.40,773,752,0
218856,298.65,773,752,0
218866,300.17,773,752,0
218876,301.40,773,752,0
218886,302.83,773,752,0
218896,303.91,773,752,0
218906,305.09,773,753,0
218916,305.88,773,752,0
218926,306.52,773,752,0
218936,306.53,773,752,0
218946,306.54,773,752,0
218956,306.04,773,752,0
218967,305.60,773,752,0
218977,304.78,773,752,0
218987,304.29,773,753,0
218997,303.73,773,752,0
219008,304.24,773,752,0
219017,305.45,773,752,0
219027,308.40,773,752,0
219037,313.60,773,752,0
219047,322.29,773,752,0
219057,333.69,773,752,0
219067,348.61,773,753,0
219086,365.61,773,751,0
219089,385.23,773,753,0
219098,406.16,773,752,0
219108,426.98,773,753,0
219118,445.37,773,752,0
219128,461.16,773,752,0
219138,472.73,773,752,0
219148,480.57,773,752,0
219158,483.53,773,752,0
219168,482.51,773,753,0
219179,477.00,773,752,0
219188,468.81,773,753,0
219198,457.73,773,752,0
219208,445.89,773,753,0
219218,432.77,773,753,0
219228,419.68,773,754,0
219238,405.72,773,753,0
219248,392.69,773,753,0
219258,379.88,773,753,0
219268,368.99,773,754,0
219278,358.54,773,753,0
219288,350.19,773,754,0
219298,343.02,773,753,0
219308,338.60,773,754,0
219318,335.72,773,753,0
219328,335.37,773,754,0
219338,336.21,773,753,0
219348,339.32,773,754,0
219358,342.91,773,753,0
219368,347.82,773,754,0
219378,352.25,773,753,0
219388,357.23,773,754,0
219398,361.23,773,753,0
219408,365.02,773,754,0
219418,367.11,773,753,0
219428,368.79,773,754,0
219438,368.86,773,753,0
219448,368.68,773,754,0
219458,366.94,773,753,0
219468,365.16,773,754,0
219479,362.15,773,753,0
219489,359.53,773,754,0
219499,356.12,773,752,0
219509,353.30,773,754,0
219520,349.91,773,753,0
219529,347.45,773,754,0
219539,344.61,773,753,0
219549,342.84,773,754,0
219559,340.79,773,753,0
219569,339.83,773,754,0
219579,338.63,773,752,0
219589,338.57,773,754,0
219599,338.23,773,753,0
219609,338.89,773,754,0
219619,339.18,773,753,0
219629,340.28,773,754,0
219639,340.93,773,753,0
219649,342.32,773,754,0
219659,343.04,773,752,0
219669,344.40,773,754,0
219679,344.92,773,753,0
219689,346.02,773,754,0
219699,346.27,773,752,0
219709,346.92,773,754,0
219719,346.73,773,753,0
219729,346.94,773,754,0
219739,346.31,773,752,0
219749,346.22,773,754,0
219759,345.38,773,753,0
219769,345.40,773,754,0
219779,345.19,773,752,0
219789,346.38,773,754,0
219799,348.19,773,753,0
219809,352.38,773,754,0
219820,358.39,773,752,0
219830,368.05,773,754,0
219840,380.38,773,753,0
219859,396.81,773,751,0
219863,416.11,773,753,0
219871,438.83,773,754,0
219881,462.45,773,753,0
219891,486.45,773,754,0
219901,508.26,773,753,0
219911,527.72,773,754,0
219921,542.55,773,753,0
219931,552.80,773,754,0
219941,557.19,773,752,0
219951,557.30,773,754,0
219961,552.88,773,753,0
219971,545.76,773,754,0
219981,535.89,773,753,0
219991,525.17,773,753,0
220001,513.37,773,753,0
220011,502.12,773,754,0
220021,490.94,773,753,0
220032,480.93,773,753,0
220041,471.52,773,753,0
220051,463.57,773,754,0
220061,456.20,773,753,0
220071,450.35,773,753,0
220081,445.15,773,753,0
220091,441.33,773,754,0
220101,438.45,773,753,0
220111,437.03,773,753,0
220121,436.38,773,753,0
220131,437.21,773,754,0
220141,438.56,773,753,0
220151,440.88,773,753,0
220161,443.01,773,753,0
220171,445.62,773,754,0
220181,447.54,773,753,0
220191,449.18,773,753,0
220201,449.64,773,753,0
220211,449.49,773,753,0
220221,448.10,773,753,0
220231,446.23,773,753,0
220241,443.03,773,753,0
220251,439.51,773,754,0
220261,435.03,773,753,0
220271,430.43,773,753,0
220281,425.37,773,753,0
220291,420.68,773,754,0
220301,415.97,773,753,0
220311,411.91,773,753,0
220321,408.04,773,753,0
220332,405.07,773,754,0
220342,402.43,773,753,0
220352,400.68,773,753,0
220362,399.27,773,753,0
220372,398.59,773,754,0
220382,398.20,773,753,0
220392,398.31,773,753,0
220402,398.65,773,753,0
220412,399.27,773,753,0
220422,399.92,773,753,0
220432,400.67,773,753,0
220442,401.28,773,753,0
220452,401.84,773,753,0
220462,402.23,773,753,0
220472,402.55,773,753,0
220482,402.64,773,753,0
220492,402.49,773,753,0
220503,402.13,773,753,0
220513,401.53,773,753,0
220523,400.94,773,753,0
220533,400.06,773,753,0
220544,399.10,773,753,0
220553,398.21,773,753,0
220563,397.42,773,753,0
220573,396.48,773,753,0
220583,395.78,773,753,0
220593,395.03,773,753,0
220603,395.19,773,753,0
220613,396.12,773,753,0
220623,399.04,773,754,0
220633,404.30,773,753,0
220643,413.51,773,753,0
220653,427.33,773,753,0
220673,446.94,813,752,0
220676,472.03,813,755,0
220685,503.39,813,754,0
220695,538.42,813,753,0
220705,575.06,813,754,0
220716,610.70,813,753,0
220726,643.66,813,754,0
220736,672.22,813,753,0
220746,695.68,813,754,0
220756,712.15,813,752,0
220766,722.95,813,754,0
220776,728.15,813,753,0
220786,729.05,813,754,0
220796,725.52,813,752,0
220806,718.76,813,754,0
220816,708.46,813,753,0
220826,696.15,813,754,0
220836,681.36,813,752,0
220846,666.47,813,754,0
220856,650.81,813,753,0
220866,636.08,813,754,0
220876,621.27,813,752,0
220887,608.16,813,754,0
220897,595.73,813,753,0
220907,585.57,813,754,0
220917,576.53,813,752,0
220928,570.20,813,754,0
220937,565.34,813,753,0
220947,563.09,813,754,0
220957,561.61,813,752,0
220967,561.98,813,754,0
220977,562.42,813,753,0
220987,563.71,813,754,0
220997,563.88,813,752,0
221007,563.92,813,754,0
221017,562.14,813,752,0
221027,559.78,813,754,0
221037,555.18,813,752,0
221047,549.68,813,753,0
221057,542.15,813,752,0
221067,534.18,813,754,0
221077,524.52,813,752,0
221087,514.94,813,754,0
221097,504.41,813,753,0
221107,494.90,813,754,0
221117,485.38,813,752,0
221127,477.16,813,753,0
221137,469.23,813,753,0
221147,463.25,813,754,0
221157,457.60,813,753,0
221167,453.56,813,754,0
221177,449.58,813,753,0
221187,447.01,813,754,0
221197,444.60,813,753,0
221207,443.31,813,753,0
221217,441.50,813,752,0
221228,440.58,813,754,0
221238,439.29,813,753,0
221248,438.78,813,753,0
221258,437.64,813,752,0
221268,437.06,813,753,0
221278,435.89,813,752,0
221288,435.32,813,753,0
221298,434.20,813,752,0
221308,433.45,813,753,0
221318,432.12,813,752,0
221328,431.10,813,753,0
221338,429.31,813,752,0
221348,427.80,813,753,0
221358,425.50,813,752,0
221368,423.38,813,753,0
221378,420.52,813,753,0
221388,418.01,813,753,0
221399,415.09,813,753,0
221409,412.96,813,753,0
221419,411.60,813,753,0
221429,412.71,813,753,0
221440,416.78,813,753,0
221449,425.89,813,753,0
221459,440.49,813,753,0
221469,462.50,813,753,0
221479,491.50,813,753,0
221489,525.98,813,753,0
221508,562.88,836,752,0
221511,600.03,836,754,0
221520,634.99,836,753,0
221530,666.02,836,753,0
221540,691.13,836,753,0
221550,709.73,836,753,0
221560,722.71,836,753,0
221570,731.80,836,753,0
221580,737.90,836,753,0
221590,740.07,836,753,0
221600,737.57,836,753,0
221611,729.94,836,752,0
221620,717.23,836,753,0
221630,699.42,836,753,0
221640,676.62,836,753,0
221650,649.48,836,752,0
221660,620.19,836,753,0
221670,590.69,836,753,0
221680,562.54,836,753,0
221690,536.62,836,752,0
221700,513.76,836,753,0
221710,494.63,836,753,0
221720,479.40,836,753,0
221730,468.22,836,752,0
221740,460.83,836,753,0
221750,456.68,836,753,0
221760,455.23,836,753,0
221770,456.11,836,753,0
221780,458.47,836,753,0
221790,461.76,836,753,0
221800,464.96,836,753,0
221810,467.50,836,753,0
221820,468.98,836,753,0
221830,469.11,836,753,0
221840,467.41,836,753,0
221850,463.90,836,753,0
221860,458.53,836,753,0
221870,451.86,836,753,0
221880,443.97,836,753,0
221890,435.15,836,753,0
221900,425.85,836,753,0
221911,416.38,836,753,0
221921,407.18,836,753,0
221931,398.43,836,753,0
221941,390.54,836,753,0
221952,383.69,836,753,0
221961,378.21,836,753,0
221971,373.82,836,753,0
221981,370.87,836,753,0
221991,368.77,836,753,0
222001,367.94,836,753,0
222011,367.57,836,753,0
222021,368.13,836,753,0
222031,368.78,836,753,0
222041,369.87,836,753,0
222051,370.81,836,753,0
222061,372.07,836,753,0
222071,372.86,836,753,0
222081,373.76,836,753,0
222091,373.96,836,753,0
222101,374.19,836,753,0
222111,373.75,836,753,0
222121,373.14,836,753,0
222131,371.85,836,753,0
222141,370.40,836,753,0
222151,368.22,836,753,0
222161,366.10,836,753,0
222171,363.54,836,753,0
222181,361.49,836,753,0
222191,359.84,836,753,0
222201,360.28,836,754,0
222211,363.15,836,753,0
222221,370.31,836,754,0
222231,382.30,836,754,0
222241,400.77,836,755,0
222252,425.52,836,753,0
222262,456.74,836,754,0
222281,492.00,773,752,0
222284,529.89,773,755,0
222294,567.42,773,753,0
222303,602.48,773,753,0
222313,631.31,773,753,0
222323,652.47,773,753,0
222333,663.65,773,752,0
222343,665.68,773,752,0
222353,658.23,773,752,0
222363,642.95,773,753,0
222373,620.34,773,752,0
222383,594.01,773,753,0
222393,564.69,773,752,0
222403,535.47,773,753,0
222413,506.44,773,752,0
222423,479.95,773,753,0
222433,455.58,773,752,0
222443,435.01,773,753,0
222453,416.66,773,752,0
222464,401.93,773,753,0
222473,389.48,773,752,0
222483,380.47,773,753,0
222493,373.47,773,752,0
222503,369.64,773,753,0
222513,367.44,773,752,0
222523,367.91,773,753,0
222533,369.43,773,752,0
222543,373.16,773,753,0
222553,377.27,773,753,0
222563,382.50,773,754,0
222573,386.98,773,753,0
222583,391.53,773,753,0
222593,394.46,773,753,0
222603,396.72,773,754,0
222613,396.50,773,753,0
222623,395.07,773,753,0
222633,391.32,773,753,0
222643,386.81,773,754,0
222653,380.52,773,753,0
222663,374.11,773,753,0
222673,366.49,773,752,0
222683,359.53,773,754,0
222693,352.04,773,753,0
222703,345.51,773,753,0
222713,338.85,773,752,0
222723,333.66,773,754,0
222733,328.84,773,753,0
222743,325.71,773,754,0
222753,322.76,773,752,0
222764,321.46,773,754,0
222774,320.38,773,752,0
222784,320.74,773,754,0
222794,321.03,773,753,0
222804,322.26,773,753,0
222814,323.21,773,753,0
222824,325.03,773,753,0
222834,326.18,773,752,0
222844,327.97,773,753,0
222854,328.88,773,753,0
222864,330.20,773,753,0
222874,330.61,773,752,0
222884,331.29,773,754,0
222894,331.03,773,753,0
222904,331.19,773,753,0
222914,330.36,773,752,0
222924,329.95,773,754,0
222935,328.64,773,753,0
222945,327.76,773,754,0
222955,326.12,773,753,0
222965,324.84,773,754,0
222976,322.83,773,754,0
222985,321.55,773,755,0
222995,320.10,773,753,0
223005,319.99,773,754,0
223015,320.80,773,753,0
223025,324.42,773,754,0
223035,330.72,773,752,0
223045,341.69,773,754,0
223055,356.78,773,753,0
223074,377.33,793,751,0
223077,402.09,793,754,0
223086,431.51,793,753,0
223096,462.77,793,753,0
223106,494.72,793,754,0
223116,524.12,793,753,0
223126,549.88,793,753,0
223136,569.29,793,753,0
223147,582.02,793,753,0
223156,586.34,793,752,0
223166,583.67,793,753,0
223176,574.08,793,753,0
223186,559.66,793,753,0
223196,541.37,793,752,0
223206,521.42,793,753,0
223216,500.42,793,752,0
223226,480.07,793,753,0
223236,460.59,793,752,0
223246,443.27,793,753,0
223256,427.63,793,752,0
223266,414.11,793,753,0
223276,402.08,793,752,0
223286,392.16,793,753,0
223296,383.67,793,752,0
223306,377.12,793,753,0
223316,371.86,793,752,0
223326,368.60,793,753,0
223336,366.62,793,752,0
223346,366.35,793,753,0
223356,367.10,793,752,0
223366,369.17,793,753,0
223376,371.48,793,752,0
223386,374.21,793,753,0
223396,376.42,793,752,0
223406,378.43,793,753,0
223416,379.50,793,752,0
223426,379.74,793,753,0
223436,378.66,793,752,0
223447,376.83,793,753,0
223457,373.93,793,753,0
223467,370.39,793,753,0
223477,366.07,793,753,0
223488,361.42,793,753,0
223497,356.58,793,753,0
223507,351.86,793,753,0
223517,347.28,793,753,0
223527,343.04,793,753,0
223537,339.17,793,753,0
223547,335.90,793,753,0
223557,333.28,793,753,0
223567,331.26,793,753,0
223577,329.81,793,754,0
223587,328.88,793,754,0
223597,328.58,793,754,0
223607,328.70,793,754,0
223617,329.18,793,754,0
223627,329.98,793,754,0
223637,331.02,793,754,0
223647,332.17,793,754,0
223657,333.40,793,754,0
223667,334.57,793,754,0
223677,335.73,793,754,0
223687,336.67,793,754,0
223697,337.49,793,754,0
223707,338.07,793,754,0
223717,338.48,793,754,0
223727,338.64,793,753,0
223737,338.66,793,753,0
223747,338.59,793,753,0
223757,338.46,793,753,0
223767,338.06,793,753,0
223777,337.57,793,753,0
223788,336.84,793,753,0
223798,336.16,793,753,0
223808,335.17,793,753,0
223818,334.48,793,754,0
223828,334.03,793,754,0
223838,334.58,793,755,0
223848,336.38,793,754,0
223858,340.72,793,755,0
223868,347.83,793,754,0
223878,358.98,793,754,0
223897,373.95,823,752,0
223900,394.02,823,755,0
223909,418.31,823,753,0
223919,446.29,823,754,0
223929,475.56,823,753,0
223939,505.01,823,754,0
223949,532.05,823,753,0
223959,555.65,823,754,0
223969,573.24,823,752,0
223979,584.61,823,753,0
223989,588.76,823,753,0
224000,587.07,823,753,0
224009,579.64,823,752,0
224019,568.52,823,754,0
224029,553.88,823,753,0
224039,537.97,823,753,0
224049,521.05,823,752,0
224059,504.96,823,753,0
224069,489.37,823,753,0
224079,475.51,823,754,0
224089,462.58,823,752,0
224099,451.74,823,753,0
224109,441.92,823,753,0
224119,434.06,823,754,0
224129,427.18,823,752,0
224139,422.20,823,753,0
224149,418.24,823,753,0
224159,416.24,823,753,0
224169,415.10,823,752,0
224179,415.58,823,753,0
224189,416.44,823,753,0
224199,418.58,823,753,0
224209,420.59,823,752,0
224219,423.11,823,753,0
224229,424.79,823,753,0
224239,426.48,823,754,0
224249,426.81,823,753,0
224259,426.82,823,754,0
224269,425.33,823,753,0
224279,423.48,823,754,0
224289,420.08,823,753,0
224300,416.54,823,754,0
224310,411.62,823,753,0
224320,406.98,823,754,0
224330,401.41,823,753,0
224340,396.32,823,754,0
224350,390.74,823,753,0
224360,386.10,823,754,0
224370,381.19,823,752,0
224380,377.62,823,754,0
224390,374.04,823,753,0
224400,371.85,823,754,0
224410,369.75,823,753,0
224420,368.97,823,754,0
224430,368.33,823,753,0
224440,368.88,823,754,0
224450,369.17,823,753,0
224460,370.45,823,754,0
224471,371.26,823,753,0
224481,372.77,823,754,0
224491,373.61,823,753,0
224501,374.93,823,754,0
224512,375.46,823,753,0
224521,376.65,823,754,0
224531,376.93,823,752,0
224541,377.59,823,754,0
224551,377.29,823,753,0
224561,377.37,823,754,0
224571,376.49,823,753,0
224581,376.00,823,754,0
224591,374.63,823,753,0
224601,374.05,823,754,0
224611,373.39,823,753,0
224621,374.56,823,754,0
224631,377.01,823,753,0
224641,382.71,823,754,0
224651,391.41,823,753,0
224661,405.13,823,753,0
224671,422.88,823,753,0
224681,445.88,823,754,0
224700,471.85,803,752,0
224703,500.44,803,754,0
224712,529.75,803,753,0
224722,558.58,803,754,0
224732,583.65,803,753,0
224742,604.45,803,753,0
224752,618.33,803,753,0
224762,626.08,803,754,0
224772,626.82,803,753,0
224782,621.52,803,753,0
224792,610.31,803,753,0
224802,595.30,803,753,0
224812,577.00,803,753,0
224822,557.93,803,753,0
224832,538.28,803,753,0
224842,519.98,803,754,0
224852,502.54,803,753,0
224862,487.38,803,753,0
224872,473.81,803,752,0
224882,462.85,803,753,0
224892,453.42,803,752,0
224902,446.48,803,753,0
224912,440.90,803,752,0
224922,437.54,803,753,0
224932,435.45,803,752,0
224942,435.57,803,753,0
224952,436.47,803,752,0
224962,438.99,803,753,0
224972,441.56,803,752,0
224983,445.04,803,752,0
224993,447.90,803,752,0
225003,450.76,803,753,0
225013,452.37,803,752,0
225024,453.33,803,752,0
225033,452.72,803,752,0
225043,451.35,803,753,0
225053,448.20,803,752,0
225063,444.24,803,752,0
225073,438.85,803,752,0
225083,433.03,803,753,0
225093,426.42,803,752,0
225103,419.78,803,753,0
225113,412.82,803,752,0
225123,406.40,803,753,0
225133,400.19,803,752,0
225143,394.95,803,753,0
225153,390.17,803,752,0
225163,386.64,803,753,0
225173,383.67,803,752,0
225183,381.71,803,753,0
225193,380.25,803,752,0
225203,379.79,803,753,0
225213,379.51,803,752,0
225223,379.83,803,752,0
225233,380.09,803,752,0
225243,380.88,803,753,0
225253,381.60,803,752,0
225263,382.54,803,753,0
225273,383.28,803,752,0
225283,384.35,803,753,0
225293,385.10,803,753,0
225303,385.84,803,753,0
225313,386.06,803,752,0
225324,386.09,803,753,0
225334,385.67,803,752,0
225344,385.04,803,752,0
225354,383.96,803,753,0
225364,382.94,803,753,0
225374,382.02,803,752,0
225384,382.01,803,753,0
225394,383.55,803,752,0
225404,387.59,803,753,0
225414,394.91,803,752,0
225424,406.81,803,752,0
225434,424.05,803,752,0
225444,446.96,803,753,0
225454,474.83,803,753,0
225473,506.64,773,751,0
225476,540.78,773,753,0
225485,575.69,773,753,0
225495,608.74,773,753,0
225505,637.36,773,753,0
225515,659.84,773,753,0
225525,674.84,773,753,0
225536,682.13,773,753,0
225545,681.71,773,753,0
225555,674.00,773,752,0
225565,660.03,773,752,0
225575,641.72,773,753,0
225585,620.46,773,752,0
225595,598.12,773,752,0
225605,575.37,773,752,0
225615,553.62,773,753,0
225625,533.12,773,752,0
225635,514.87,773,752,0
225645,498.75,773,752,0
225655,485.07,773,753,0
225665,473.60,773,753,0
225675,464.81,773,752,0
225685,458.01,773,752,0
225695,453.64,773,753,0
225705,450.79,773,752,0
225715,449.82,773,752,0
225725,449.92,773,752,0
225735,451.27,773,753,0
225745,452.90,773,752,0
225755,454.95,773,753,0
225765,456.59,773,752,0
225775,458.21,773,753,0
225785,458.71,773,752,0
225795,458.62,773,753,0
225805,457.19,773,752,0
225815,454.99,773,753,0
225825,451.31,773,752,0
225836,446.80,773,753,0
225846,441.03,773,752,0
225856,435.07,773,753,0
225866,428.10,773,752,0
225876,421.09,773,753,0
225886,413.47,773,752,0
225896,406.48,773,753,0
225906,399.22,773,752,0
225916,392.90,773,753,0
225926,386.67,773,752,0
225936,381.71,773,753,0
225946,377.13,773,753,0
225956,374.00,773,753,0
225966,371.34,773,752,0
225976,370.13,773,753,0
225986,369.06,773,753,0
225996,369.17,773,753,0
226007,369.25,773,752,0
226017,370.29,773,753,0
226027,371.02,773,753,0
226037,372.34,773,753,0
226048,373.22,773,753,0
226057,374.66,773,753,0
226067,375.32,773,753,0
226077,376.38,773,753,0
226087,376.44,773,752,0
226097,376.73,773,753,0
226107,376.04,773,753,0
226117,375.64,773,753,0
226127,374.21,773,752,0
226137,373.12,773,753,0
226147,371.15,773,752,0
226157,370.08,773,753,0
226167,368.94,773,752,0
226177,369.64,773,753,0
226187,371.64,773,752,0
226197,377.27,773,753,0
226207,386.15,773,752,0
226217,400.72,773,753,0
226227,420.00,773,753,0
226237,445.20,773,753,0
226247,474.37,773,752,0
226267,507.26,793,751,0
226270,540.44,793,753,0
226279,573.56,793,753,0
226289,602.62,793,752,0
226299,626.74,793,753,0
226309,643.19,793,753,0
226319,652.26,793,753,0
226329,652.74,793,752,0
226339,646.47,793,753,0
226349,632.96,793,752,0
226359,614.97,793,753,0
226369,592.82,793,752,0
226379,569.56,793,753,0
226390,545.31,793,752,0
226399,522.42,793,753,0
226409,500.61,793,752,0
226419,481.40,793,753,0
226429,464.01,793,752,0
226439,449.86,793,753,0
226449,437.52,793,752,0
226459,428.15,793,753,0
226469,420.43,793,753,0
226479,415.50,793,753,0
226489,412.01,793,752,0
226499,410.98,793,753,0
226509,411.03,793,752,0
226519,412.90,793,753,0
226529,415.12,793,752,0
226539,418.43,793,753,0
226549,421.30,793,752,0
226560,424.47,793,753,0
226569,426.34,793,752,0
226579,427.95,793,753,0
226589,427.88,793,752,0
226599,427.23,793,753,0
226609,424.80,793,752,0
226619,421.73,793,753,0
226629,416.97,793,752,0
226639,411.88,793,753,0
226649,405.49,793,752,0
226659,399.30,793,753,0
226669,392.44,793,752,0
226679,386.31,793,753,0
226689,380.04,793,752,0
226699,375.02,793,753,0
226709,370.13,793,752,0
226719,366.44,793,753,0
226729,363.10,793,752,0
226739,361.05,793,753,0
226749,359.24,793,752,0
226759,358.65,793,753,0
226769,358.16,793,752,0
226779,358.84,793,753,0
226789,359.49,793,752,0
226799,360.93,793,753,0
226809,362.02,793,752,0
226819,363.69,793,753,0
226829,364.77,793,753,0
226839,366.12,793,753,0
226849,366.60,793,752,0
226860,367.28,793,753,0
226870,367.15,793,753,0
226880,367.06,793,753,0
226890,366.23,793,752,0
226900,365.60,793,753,0
226910,364.78,793,752,0
226920,365.06,793,753,0
226930,366.33,793,752,0
226940,370.13,793,753,0
226950,376.65,793,752,0
226960,387.38,793,753,0
226970,402.44,793,752,0
226980,422.71,793,753,0
226990,446.88,793,752,0
227000,474.65,793,753,0
227019,503.77,753,752,0
227022,532.59,753,752,0
227031,559.37,753,753,0
227041,582.36,753,753,0
227051,599.22,753,753,0
227061,609.53,753,753,0
227072,612.24,753,753,0
227081,608.23,753,753,0
227091,598.13,753,753,0
227101,582.45,753,753,0
227111,562.73,753,753,0
227121,540.82,753,753,0
227131,517.95,753,753,0
227141,495.46,753,753,0
227151,474.07,753,753,0
227161,454.63,753,754,0
227171,437.47,753,753,0
227181,422.80,753,753,0
227191,410.56,753,754,0
227201,400.92,753,754,0
227211,393.79,753,753,0
227221,389.18,753,753,0
227231,386.94,753,754,0
227241,387.00,753,753,0
227251,388.80,753,753,0
227261,392.12,753,752,0
227271,396.45,753,753,0
227281,401.33,753,753,0
227291,406.16,753,753,0
227301,410.57,753,752,0
227311,414.17,753,753,0
227321,416.65,753,753,0
227331,417.87,753,752,0
227341,417.74,753,752,0
227351,416.19,753,752,0
227361,413.30,753,752,0
227372,409.27,753,752,0
227382,404.13,753,752,0
227392,398.39,753,752,0
227402,392.02,753,752,0
227412,385.71,753,753,0
227422,379.54,753,752,0
227432,373.85,753,753,0
227442,368.54,753,752,0
227452,364.09,753,753,0
227462,360.29,753,752,0
227472,357.46,753,753,0
227482,354.97,753,752,0
227492,353.35,753,753,0
227502,352.13,753,752,0
227512,351.75,753,753,0
227522,351.52,753,752,0
227532,352.01,753,753,0
227543,352.56,753,752,0
227553,353.68,753,753,0
227563,354.63,753,752,0
227573,356.16,753,753,0
227584,357.18,753,752,0
227593,358.63,753,753,0
227603,359.47,753,752,0
227613,360.57,753,753,0
227623,360.91,753,752,0
227633,361.58,753,753,0
227643,361.79,753,752,0
227653,363.10,753,753,0
227663,365.13,753,752,0
227673,369.50,753,753,0
227683,376.29,753,752,0
227693,387.48,753,753,0
227703,402.68,753,752,0
227713,423.00,753,753,0
227723,447.43,753,752,0
227733,475.84,753,753,0
227752,505.93,733,752,0
227756,536.51,733,754,0
227764,565.33,733,753,0
227774,590.52,733,753,0
227784,609.35,733,752,0
227794,621.71,733,753,0
227804,626.26,733,752,0
227814,624.25,733,753,0
227824,615.30,733,752,0
227834,600.98,733,753,0
227844,582.39,733,752,0
227854,562.39,733,753,0
227864,540.84,733,752,0
227874,519.93,733,753,0
227884,499.38,733,752,0
227894,481.05,733,753,0
227904,463.98,733,752,0
227914,449.71,733,753,0
227924,436.94,733,752,0
227934,427.02,733,753,0
227944,418.70,733,752,0
227954,413.17,733,752,0
227964,409.18,733,752,0
227974,407.97,733,753,0
227984,407.81,733,752,0
227994,409.75,733,752,0
228004,412.18,733,752,0
228014,415.98,733,753,0
228024,419.42,733,752,0
228034,423.32,733,752,0
228044,426.01,733,752,0
228055,428.45,733,753,0
228065,429.04,733,752,0
228075,429.03,733,753,0
228085,427.09,733,752,0
228096,424.58,733,753,0
228105,420.42,733,752,0
228115,416.01,733,753,0
228125,410.31,733,752,0
228135,404.77,733,753,0
228145,398.41,733,752,0
228155,392.67,733,753,0
228165,386.39,733,752,0
228175,381.00,733,753,0
228185,375.34,733,752,0
228195,370.91,733,753,0
228205,366.57,733,752,0
228215,363.52,733,753,0
228225,360.58,733,752,0
228235,359.08,733,753,0
228245,357.64,733,752,0
228255,357.45,733,753,0
228265,357.06,733,752,0
228275,357.68,733,753,0
228285,357.99,733,752,0
228295,359.15,733,753,0
228305,359.66,733,752,0
228315,360.75,733,753,0
228325,361.13,733,752,0
228335,361.99,733,753,0
228345,362.03,733,752,0
228355,362.58,733,753,0
228365,362.36,733,752,0
228375,362.98,733,753,0
228385,363.42,733,752,0
228396,365.56,733,753,0
228406,368.91,733,752,0
228416,375.54,733,753,0
228426,385.10,733,752,0
228436,399.64,733,753,0
228446,418.22,733,752,0
228456,442.07,733,753,0
228466,469.01,733,752,0
228476,498.96,733,753,0
228495,528.97,743,752,0
228498,557.82,743,755,0
228507,583.08,743,753,0
228517,603.67,743,753,0
228527,617.22,743,752,0
228537,624.19,743,753,0
228547,623.32,743,752,0
228557,616.19,743,753,0
228567,603.19,743,752,0
228577,585.86,743,753,0
228587,565.25,743,752,0
228597,543.57,743,753,0
228608,521.33,743,752,0
228617,500.44,743,753,0
228627,480.73,743,752,0
228637,463.41,743,753,0
228647,447.86,743,752,0
228657,434.91,743,753,0
228667,423.80,743,752,0
228677,415.42,743,753,0
228687,408.99,743,752,0
228697,405.31,743,753,0
228707,403.33,743,752,0
228717,403.53,743,753,0
228727,404.96,743,752,0
228737,407.97,743,753,0
228747,411.32,743,752,0
228757,415.25,743,753,0
228767,418.56,743,752,0
228777,421.48,743,753,0
228787,423.31,743,752,0
228797,424.42,743,753,0
228807,423.95,743,752,0
228817,422.46,743,753,0
228827,419.50,743,752,0
228837,415.83,743,753,0
228847,411.13,743,752,0
228857,405.99,743,753,0
228867,400.03,743,752,0
228877,394.32,743,753,0
228887,388.44,743,752,0
228897,382.99,743,753,0
228908,377.60,743,752,0
228918,372.92,743,753,0
228928,368.70,743,752,0
228938,365.36,743,753,0
228948,362.51,743,753,0
228958,360.51,743,753,0
228968,359.03,743,752,0
228978,358.34,743,753,0
228988,358.19,743,753,0
228998,358.56,743,753,0
229008,359.12,743,752,0
229018,359.81,743,753,0
229028,360.56,743,753,0
229038,361.42,743,753,0
229048,362.06,743,752,0
229058,362.52,743,753,0
229068,362.79,743,753,0
229079,362.90,743,753,0
229089,362.84,743,752,0
229099,362.50,743,753,0
229109,362.14,743,753,0
229120,361.97,743,752,0
229129,362.49,743,752,0
229139,364.14,743,753,0
229149,368.00,743,753,0
229159,374.60,743,752,0
229169,384.88,743,752,0
229179,399.23,743,753,0
229189,418.27,743,753,0
229199,441.16,743,753,0
229209,467.09,743,753,0
229228,494.23,733,751,0
229231,521.16,733,754,0
229240,545.88,733,752,0
229250,566.83,733,753,0
229260,581.84,733,752,0
229270,590.72,733,753,0
229280,592.39,733,752,0
229291,587.64,733,753,0
229300,576.78,733,752,0
229310,561.37,733,753,0
229320,542.28,733,752,0
229330,521.62,733,753,0
229340,499.84,733,752,0
229350,479.06,733,753,0
229360,459.37,733,752,0
229370,442.03,733,753,0
229380,426.63,733,752,0
229390,414.02,733,753,0
229400,403.38,733,752,0
229410,395.60,733,753,0
229420,389.85,733,752,0
229430,386.76,733,753,0
229440,385.38,733,752,0
229450,386.29,733,753,0
229460,388.22,733,752,0
229470,391.88,733,753,0
229480,395.82,733,753,0
229490,400.50,733,753,0
229500,404.55,733,752,0
229510,408.63,733,753,0
229520,411.44,733,753,0
229530,413.71,733,753,0
229540,414.14,733,752,0
229550,413.75,733,753,0
229560,411.51,733,752,0
229570,408.62,733,753,0
229580,404.23,733,752,0
229591,399.53,733,753,0
229601,393.67,733,752,0
229611,388.07,733,753,0
229621,381.75,733,752,0
229632,376.17,733,753,0
229641,370.37,733,752,0
229651,365.76,733,753,0
229661,361.08,733,752,0
229671,357.75,733,753,0
229681,354.53,733,752,0
229691,352.74,733,753,0
229701,351.02,733,752,0
229711,350.54,733,753,0
229721,349.78,733,752,0
229731,350.02,733,753,0
229741,349.88,733,752,0
229751,350.60,733,753,0
229761,350.85,733,753,0
229771,351.84,733,753,0
229781,352.14,733,752,0
229791,353.00,733,753,0
229801,353.17,733,752,0
229811,354.11,733,753,0
229821,354.63,733,752,0
229831,356.41,733,753,0
229841,358.78,733,752,0
229851,363.69,733,753,0
229861,370.59,733,752,0
229871,381.52,733,753,0
229881,395.50,733,752,0
229891,413.91,733,753,0
229901,435.07,733,752,0
229911,459.17,733,753,0
229921,483.64,733,752,0
229932,508.09,733,753,0
229951,529.45,723,751,0
229954,547.14,723,755,0
229963,559.79,723,752,0
229974,567.44,723,753,0
229983,568.68,723,752,0
229993,565.00,723,753,0
230003,555.83,723,752,0
230013,543.45,723,753,0
230023,528.40,723,752,0
230033,512.00,723,753,0
230043,494.34,723,752,0
230053,477.44,723,753,0
230063,460.81,723,752,0
230073,446.16,723,753,0
230083,432.62,723,752,0
230093,421.33,723,753,0
230103,411.16,723,752,0
230113,403.48,723,753,0
230123,397.25,723,752,0
230133,393.66,723,753,0
230144,391.49,723,752,0
230153,391.86,723,753,0
230163,393.14,723,752,0
230173,396.27,723,753,0
230183,399.62,723,752,0
230193,403.89,723,753,0
230203,407.48,723,752,0
230213,411.15,723,753,0
230223,413.46,723,752,0
230233,415.30,723,753,0
230243,415.42,723,752,0
230253,414.91,723,753,0
230263,412.66,723,752,0
230273,410.11,723,753,0
230283,406.18,723,752,0
230293,402.18,723,753,0
230303,397.15,723,752,0
230313,392.48,723,753,0
230323,387.32,723,752,0
230333,382.98,723,754,0
230343,378.44,723,752,0
230353,374.88,723,753,0
230363,371.19,723,752,0
230373,368.65,723,753,0
230383,366.10,723,753,0
230393,364.57,723,753,0
230403,363.03,723,753,0
230413,362.42,723,754,0
230423,361.69,723,752,0
230433,361.83,723,753,0
230444,361.71,723,753,0
230454,362.27,723,753,0
230464,362.44,723,753,0
230474,363.08,723,753,0
230484,363.27,723,753,0
230494,363.88,723,754,0
230504,363.87,723,753,0
230514,364.21,723,753,0
230524,364.19,723,753,0
230534,364.78,723,753,0
230544,365.44,723,753,0
230554,367.37,723,753,0
230564,370.56,723,753,0
230574,376.48,723,753,0
230584,384.99,723,753,0
230594,397.46,723,753,0
230604,413.87,723,753,0
230615,434.69,723,753,0
230625,458.79,723,753,0
230635,485.55,723,753,0
230654,513.11,703,752,0
230658,539.95,703,754,0
230667,565.04,703,754,0
230677,586.24,703,752,0
230687,602.33,703,754,0
230697,612.43,703,753,0
230707,616.59,703,753,0
230717,614.91,703,752,0
230727,608.72,703,753,0
230737,597.53,703,753,0
230747,583.53,703,753,0
230757,567.39,703,752,0
230767,550.68,703,753,0
230777,533.55,703,753,0
230787,517.49,703,753,0
230797,502.38,703,752,0
230807,489.20,703,754,0
230817,477.27,703,753,0
230828,467.41,703,754,0
230838,459.06,703,752,0
230848,453.00,703,753,0
230858,448.37,703,753,0
230868,445.86,703,754,0
230878,444.40,703,752,0
230888,444.71,703,753,0
230898,445.65,703,752,0
230908,448.03,703,753,0
230918,450.55,703,752,0
230928,453.64,703,753,0
230938,455.85,703,752,0
230948,458.17,703,754,0
230958,459.06,703,752,0
230968,459.56,703,753,0
230978,458.36,703,753,0
230988,456.41,703,754,0
230999,452.69,703,752,0
231009,448.62,703,754,0
231019,443.08,703,752,0
231029,437.74,703,753,0
231040,431.48,703,752,0
231049,425.72,703,754,0
231059,419.59,703,753,0
231069,414.48,703,754,0
231079,409.15,703,752,0
231089,405.04,703,753,0
231099,400.91,703,752,0
231109,398.07,703,754,0
231119,395.22,703,752,0
231129,393.61,703,753,0
231139,391.97,703,752,0
231149,391.59,703,753,0
231159,391.12,703,752,0
231169,391.72,703,753,0
231179,392.06,703,753,0
231189,393.16,703,754,0
231199,393.58,703,752,0
231209,394.61,703,754,0
231219,394.85,703,753,0
231229,395.41,703,754,0
231239,395.07,703,753,0
231249,395.35,703,754,0
231259,395.59,703,753,0
231269,397.68,703,754,0
231279,401.21,703,752,0
231289,408.39,703,754,0
231299,419.07,703,753,0
231309,435.34,703,754,0
231319,456.28,703,753,0
231329,482.77,703,754,0
231340,512.66,703,753,0
231350,545.72,703,754,0
231360,578.72,703,752,0
231379,610.86,725,750,0
231383,638.72,725,753,0
231391,662.33,725,753,0
231401,678.82,725,752,0
231411,688.69,725,752,0
231421,690.54,725,752,0
231431,686.35,725,753,0
231441,675.66,725,752,0
231451,660.97,725,753,0
231461,641.83,725,752,0
231471,621.18,725,753,0
231481,598.80,725,752,0
231491,577.09,725,753,0
231501,555.37,725,752,0
231511,535.80,725,753,0
231521,517.56,725,752,0
231531,502.01,725,752,0
231541,488.16,725,752,0
231552,477.57,725,753,0
231561,469.26,725,752,0
231571,464.47,725,752,0
231581,461.63,725,752,0
231591,461.65,725,753,0
231601,463.09,725,752,0
231611,466.57,725,752,0
231621,470.52,725,752,0
231631,475.29,725,753,0
231641,479.10,725,752,0
231651,482.59,725,752,0
231661,484.17,725,751,0
231671,484.63,725,752,0
231681,482.77,725,751,0
231691,479.97,725,751,0
231701,475.09,725,751,0
231711,469.41,725,752,0
231721,462.21,725,752,0
231731,454.86,725,752,0
231741,446.72,725,751,0
231751,439.05,725,752,0
231761,430.85,725,751,0
231771,423.61,725,752,0
231781,416.44,725,751,0
231791,410.48,725,752,0
231801,404.81,725,751,0
231811,400.54,725,752,0
231821,396.78,725,751,0
231831,394.40,725,752,0
231841,392.22,725,752,0
231852,391.38,725,752,0
231862,390.58,725,751,0
231872,390.67,725,752,0
231882,390.59,725,752,0
231892,391.06,725,752,0
231902,391.17,725,751,0
231912,391.72,725,752,0
231922,391.76,725,752,0
231932,392.26,725,752,0
231942,392.83,725,751,0
231952,394.63,725,752,0
231962,397.74,725,752,0
231972,403.65,725,752,0
231982,412.75,725,751,0
231992,426.93,725,752,0
232002,446.32,725,752,0
232012,471.72,725,752,0
232023,502.02,725,752,0
232033,536.43,725,752,0
232043,572.34,725,752,0
232053,607.77,725,752,0
232064,640.28,725,752,0
232082,668.18,703,750,0
232085,688.40,703,753,0
232094,700.97,703,752,0
232104,705.09,703,752,0
232114,701.46,703,752,0
232124,690.78,703,752,0
232134,673.58,703,752,0
232144,651.07,703,752,0
232154,626.07,703,752,0
232164,598.92,703,752,0
232174,571.13,703,752,0
232184,544.13,703,752,0
232194,518.81,703,752,0
232204,495.98,703,752,0
232214,475.84,703,752,0
232224,458.49,703,752,0
232235,444.16,703,752,0
232244,433.18,703,752,0
232254,425.28,703,752,0
232264,420.74,703,752,0
232274,419.02,703,752,0
232284,420.17,703,752,0
232294,423.38,703,752,0
232304,428.36,703,751,0
232314,434.00,703,752,0
232324,439.87,703,752,0
232334,444.97,703,752,0
232344,449.30,703,751,0
232354,451.91,703,752,0
232364,453.05,703,752,0
232374,452.22,703,752,0
232384,449.84,703,752,0
232394,445.48,703,752,0
232404,439.80,703,752,0
232414,432.62,703,752,0
232424,424.72,703,751,0
232434,415.89,703,752,0
232444,407.01,703,752,0
232454,398.13,703,752,0
232464,390.08,703,752,0
232474,382.56,703,752,0
232484,376.17,703,752,0
232494,370.68,703,752,0
232504,366.49,703,752,0
232514,363.09,703,753,0
232524,360.92,703,753,0
232535,359.36,703,753,0
232545,358.82,703,753,0
232555,358.49,703,754,0
232565,358.90,703,755,0
232576,359.23,703,753,0
232585,360.06,703,753,0
232595,360.43,703,753,0
232605,361.03,703,754,0
232615,361.06,703,753,0
232625,361.90,703,754,0
232635,363.26,703,753,0
232645,367.00,703,753,0
232655,373.17,703,752,0
232665,383.62,703,752,0
232675,398.78,703,752,0
232685,420.36,703,753,0
232695,447.42,703,752,0
232705,479.95,703,753,0
232715,515.62,703,752,0
232725,553.28,703,753,0
232735,589.67,703,752,0
232745,622.77,703,753,0
232764,649.49,682,751,0
232767,667.90,682,754,0
232776,677.83,682,752,0
232786,679.21,682,753,0
232796,671.52,682,752,0
232806,656.75,682,753,0
232816,635.35,682,752,0
232826,609.79,682,752,0
232836,582.17,682,752,0
232846,553.40,682,753,0
232856,524.35,682,752,0
232866,497.20,682,753,0
232876,471.73,682,752,0
232886,449.57,682,753,0
232896,429.81,682,752,0
232906,413.45,682,753,0
232916,399.52,682,752,0
232926,389.21,682,753,0
232936,381.34,682,752,0
232946,377.00,682,753,0
232956,374.81,682,752,0
232966,375.77,682,753,0
232976,378.20,682,752,0
232986,382.81,682,753,0
232996,387.71,682,752,0
233006,393.50,682,753,0
233016,398.32,682,752,0
233026,402.94,682,753,0
233036,405.66,682,752,0
233047,407.35,682,753,0
233057,406.47,682,752,0
233067,404.57,682,754,0
233077,400.24,682,752,0
233088,395.11,682,753,0
233097,388.22,682,752,0
233107,381.26,682,753,0
233117,373.34,682,752,0
233127,366.08,682,753,0
233137,358.38,682,752,0
233147,352.01,682,753,0
233157,345.79,682,752,0
233167,341.14,682,753,0
233177,336.73,682,752,0
233187,333.85,682,753,0
233197,331.24,682,752,0
233207,330.22,682,753,0
233217,329.26,682,752,0
233227,329.57,682,753,0
233237,329.65,682,752,0
233247,330.74,682,753,0
233257,331.38,682,752,0
233267,332.81,682,753,0
233277,333.42,682,751,0
233287,334.67,682,753,0
233297,335.07,682,752,0
233307,335.99,682,753,0
233317,336.12,682,751,0
233327,336.86,682,753,0
233337,337.11,682,752,0
233347,338.58,682,753,0
233357,340.59,682,752,0
233367,345.39,682,753,0
233377,352.64,682,752,0
233388,364.62,682,753,0
233398,381.02,682,751,0
233408,403.43,682,753,0
233418,430.34,682,752,0
233428,461.61,682,753,0
233438,494.26,682,752,0
233457,527.35,693,750,0
233460,556.90,693,754,0
233469,581.92,693,752,0
233479,599.34,693,751,0
233489,609.44,693,752,0
233499,611.11,693,751,0
233509,605.85,693,752,0
233519,594.62,693,752,0
233529,579.73,693,753,0
233539,560.96,693,752,0
233549,540.57,693,753,0
233559,518.58,693,752,0
233569,496.72,693,753,0
233579,474.44,693,752,0
233589,452.19,693,752,0
233600,430.36,693,752,0
233609,410.80,693,752,0
233619,393.29,693,752,0
233629,378.71,693,752,0
233639,367.06,693,752,0
233649,359.63,693,752,0
233659,355.37,693,752,0
233669,354.36,693,752,0
233679,354.76,693,751,0
233689,356.68,693,752,0
233699,359.35,693,751,0
233709,362.76,693,752,0
233719,365.92,693,751,0
233729,370.14,693,752,0
233739,374.17,693,752,0
233749,378.45,693,752,0
233759,381.78,693,752,0
233769,384.16,693,752,0
233779,384.59,693,752,0
233789,383.47,693,752,0
233799,379.30,693,752,0
233809,372.95,693,752,0
233819,364.87,693,751,0
233829,356.46,693,752,0
233839,347.84,693,751,0
233849,340.04,693,751,0
233859,332.83,693,751,0
233869,327.05,693,752,0
233879,322.84,693,751,0
233889,320.44,693,751,0
233900,318.55,693,751,0
233910,317.53,693,751,0
233920,316.86,693,751,0
233930,317.63,693,752,0
233940,319.58,693,752,0
233950,322.15,693,753,0
233960,324.21,693,752,0
233970,326.37,693,752,0
233980,328.23,693,753,0
233990,329.75,693,753,0
234000,329.78,693,753,0
234010,328.13,693,752,0
234020,325.39,693,753,0
234030,322.49,693,753,0
234040,319.60,693,752,0
234050,316.89,693,752,0
234060,314.27,693,752,0
234071,312.09,693,752,0
234081,310.69,693,753,0
234091,310.35,693,752,0
234101,311.66,693,753,0
234112,314.59,693,753,0
234121,320.63,693,755,0
234131,330.85,693,754,0
234141,345.00,693,755,0
234151,362.31,693,754,0
234161,382.02,693,754,0
234171,403.10,693,752,0
234190,425.40,733,752,0
234193,448.38,733,754,0
234202,470.85,733,754,0
234212,490.48,733,753,0
234222,506.58,733,754,0
234232,517.98,733,753,0
234242,524.46,733,754,0
234252,525.30,733,752,0
234262,520.03,733,754,0
234272,508.53,733,752,0
234283,493.72,733,753,0
234292,477.00,733,752,0
234302,460.54,733,753,0
234312,443.84,733,751,0
234322,428.72,733,752,0
234332,414.19,733,751,0
234342,402.94,733,753,0
234352,393.83,733,752,0
234362,386.47,733,753,0
234372,379.64,733,752,0
234382,374.74,733,753,0
234392,370.40,733,752,0
234402,367.45,733,752,0
234412,363.33,733,752,0
234422,359.46,733,752,0
234432,355.76,733,751,0
234442,354.51,733,752,0
234452,354.48,733,752,0
234462,355.80,733,752,0
234472,357.44,733,751,0
234482,360.44,733,752,0
234492,362.75,733,750,0
234502,367.24,733,753,0
234512,370.98,733,753,0
234522,374.24,733,753,0
234532,376.27,733,752,0
234542,377.82,733,753,0
234552,377.32,733,752,0
234562,376.41,733,753,0
234572,372.04,733,752,0
234583,366.03,733,753,0
234593,358.61,733,752,0
234603,351.65,733,753,0
234613,344.64,733,752,0
234624,339.14,733,753,0
234633,334.29,733,752,0
234643,331.04,733,753,0
234653,328.32,733,752,0
234663,327.37,733,753,0
234673,326.66,733,752,0
234683,327.19,733,753,0
234693,327.43,733,752,0
234703,328.55,733,752,0
234713,329.37,733,752,0
234723,330.97,733,752,0
234733,332.27,733,752,0
234743,334.20,733,752,0
234753,335.64,733,752,0
234763,338.79,733,753,0
234773,342.03,733,752,0
234783,345.83,733,753,0
234793,348.54,733,752,0
234803,350.86,733,753,0
234813,351.93,733,752,0
234823,353.24,733,752,0
234833,352.52,733,751,0
234843,351.90,733,752,0
234853,352.87,733,752,0
234863,358.52,733,753,0
234873,367.45,733,752,0
234883,380.86,733,753,0
234893,396.93,733,752,0
234903,416.54,733,752,0
234913,437.16,733,752,0
234924,457.43,733,752,0
234943,475.47,753,751,0
234946,491.06,753,753,0
234955,502.70,753,751,0
234966,512.56,753,753,0
234975,518.78,753,752,0
234985,521.93,753,752,0
234995,519.98,753,751,0
235005,515.01,753,753,0
235015,507.85,753,752,0
235025,499.58,753,753,0
235035,487.97,753,752,0
235045,474.95,753,753,0
235055,460.78,753,751,0
235065,448.50,753,752,0
235075,436.87,753,752,0
235085,426.49,753,753,0
235095,416.53,753,752,0
235105,408.48,753,753,0
235115,401.53,753,752,0
235125,396.70,753,752,0
235136,392.42,753,751,0
235145,389.38,753,752,0
235155,386.82,753,751,0
235165,386.40,753,752,0
235175,388.98,753,752,0
235185,394.73,753,753,0
235195,401.37,753,752,0
235205,409.36,753,753,0
235215,416.02,753,752,0
235225,422.02,753,753,0
235235,425.61,753,752,0
235245,425.60,753,753,0
235255,421.60,753,751,0
235265,416.28,753,752,0
235275,410.88,753,752,0
235285,406.97,753,753,0
235295,403.17,753,752,0
235305,400.29,753,753,0
235315,397.33,753,752,0
235325,395.43,753,753,0
235335,392.82,753,752,0
235345,388.63,753,752,0
235355,382.40,753,751,0
235365,377.35,753,753,0
235375,373.56,753,752,0
235385,371.76,753,753,0
235395,370.63,753,752,0
235405,370.96,753,753,0
235415,371.23,753,751,0
235425,372.62,753,752,0
235436,372.95,753,751,0
235446,373.90,753,753,0
235456,374.75,753,752,0
235466,376.32,753,753,0
235476,377.81,753,752,0
235486,380.35,753,753,0
235496,382.05,753,752,0
235506,382.59,753,752,0
235516,382.28,753,752,0
235526,382.20,753,753,0
235536,382.18,753,752,0
235546,383.67,753,753,0
235556,387.84,753,752,0
235566,396.55,753,753,0
235576,410.18,753,752,0
235586,426.50,753,752,0
235596,447.26,753,753,0
235607,473.41,753,753,0
235617,502.99,753,753,0
235636,533.16,693,752,0
235639,562.94,693,755,0
235649,590.47,693,753,0
235659,616.13,693,754,0
235669,636.58,693,753,0
235679,648.96,693,751,0
235689,655.10,693,752,0
235699,655.24,693,752,0
235709,650.84,693,753,0
235719,643.30,693,753,0
235729,630.18,693,751,0
235739,615.04,693,753,0
235749,598.40,693,751,0
235759,580.97,693,752,0
235769,566.49,693,753,0
235779,552.76,693,753,0
235789,538.86,693,752,0
235799,529.52,693,753,0
235809,521.56,693,753,0
235820,516.72,693,754,0
235830,513.33,693,753,0
235840,509.29,693,753,0
235850,503.59,693,751,0
235860,491.33,693,745,0
235870,475.89,693,745,0
235880,463.62,693,746,0
235890,456.75,693,746,0
235900,456.40,693,747,0
235910,461.59,693,746,0
235920,473.24,693,746,0
235930,496.06,693,746,0
235940,523.12,693,747,0
235950,547.60,693,746,0
235960,566.54,693,747,0
235970,577.73,693,746,0
235980,581.97,693,748,0
235991,578.98,693,747,0
236001,570.59,693,748,0
236011,557.00,693,747,0
236021,540.75,693,749,0
236032,522.06,693,747,0
236041,503.44,693,748,0
236051,484.84,693,747,0
236061,468.00,693,749,0
236071,452.36,693,747,0
236081,439.65,693,748,0
236091,428.48,693,747,0
236101,420.15,693,749,0
236111,413.21,693,747,0
236121,408.64,693,748,0
236131,405.41,693,748,0
236141,404.43,693,749,0
236151,404.13,693,747,0
236161,405.72,693,748,0
236171,407.56,693,747,0
236181,409.92,693,747,0
236191,411.74,693,746,0
236201,412.42,693,747,0
236211,412.98,693,745,0
236221,413.80,693,747,0
236231,418.10,693,752,0
236241,431.02,693,754,0
236251,446.91,693,753,0
236261,462.75,693,754,0
236271,477.61,693,753,0
236281,490.54,693,754,0
236291,502.29,693,753,0
236301,511.81,693,755,0
236311,515.16,693,753,0
236321,520.21,693,755,0
236332,531.21,693,753,0
236342,550.09,693,754,0
236352,574.75,693,751,0
236362,603.19,693,751,0
236372,628.94,693,747,0
236382,654.07,693,751,0
236392,676.33,693,752,0
236411,694.19,775,751,0
236414,707.12,775,754,0
236423,716.26,775,754,0
236433,722.86,775,754,0
236443,730.23,775,755,0
236453,733.42,775,754,0
236463,732.31,775,755,0
236473,725.87,775,753,0
236483,714.68,775,753,0
236493,698.15,775,752,0
236503,677.32,775,753,0
236513,651.81,775,751,0
236523,625.12,775,752,0
236533,597.57,775,751,0
236544,571.90,775,751,0
236553,548.40,775,751,0
236563,529.21,775,752,0
236573,513.16,775,751,0
236583,501.67,775,752,0
236593,493.45,775,751,0
236603,489.50,775,752,0
236613,487.77,775,751,0
236623,488.31,775,752,0
236633,489.16,775,751,0
236643,491.00,775,752,0
236653,491.94,775,751,0
236663,492.64,775,752,0
236673,491.29,775,752,0
236683,489.19,775,753,0
236693,484.93,775,751,0
236703,479.85,775,752,0
236713,472.87,775,752,0
236723,465.54,775,753,0
236733,456.85,775,752,0
236743,448.24,775,753,0
236753,438.78,775,752,0
236763,429.97,775,753,0
236773,420.68,775,752,0
236783,412.42,775,753,0
236793,404.28,775,752,0
236803,397.60,775,753,0
236813,391.42,775,752,0
236823,386.88,775,753,0
236833,382.89,775,752,0
236844,380.56,775,753,0
236854,378.64,775,752,0
236864,377.93,775,753,0
236874,377.31,775,753,0
236884,377.56,775,753,0
236894,377.52,775,752,0
236904,377.96,775,753,0
236914,377.89,775,753,0
236924,378.05,775,753,0
236934,377.56,775,752,0
236944,377.31,775,754,0
236954,376.96,775,753,0
236964,377.61,775,753,0
236974,379.23,775,752,0
236984,383.75,775,753,0
236994,391.79,775,753,0
237004,405.57,775,753,0
237015,425.63,775,752,0
237025,452.83,775,753,0
237035,486.56,775,754,0
237045,524.84,775,754,0
237056,564.44,775,755,0
237065,603.27,775,755,0
237075,638.67,775,755,0
237094,669.07,683,753,0
237097,692.36,683,756,0
237106,707.64,683,754,0
237116,714.69,683,755,0
237126,713.76,683,754,0
237136,705.21,683,755,0
237146,689.51,683,754,0
237156,666.90,683,754,0
237166,638.64,683,754,0
237176,606.22,683,755,0
237186,572.08,683,754,0
237196,538.16,683,755,0
237206,505.63,683,754,0
237216,475.65,683,755,0
237227,448.88,683,754,0
237236,426.16,683,755,0
237246,407.17,683,754,0
237256,392.12,683,755,0
237266,380.81,683,754,0
237276,373.84,683,755,0
237286,370.25,683,754,0
237296,370.09,683,755,0
237306,372.33,683,754,0
237316,376.82,683,755,0
237326,382.62,683,754,0
237336,389.37,683,755,0
237346,395.60,683,754,0
237356,401.38,683,755,0
237366,405.85,683,755,0
237376,408.98,683,755,0
237386,410.06,683,754,0
237396,409.40,683,754,0
237406,406.66,683,751,0
237416,402.52,683,751,0
237426,396.62,683,751,0
237436,389.71,683,751,0
237446,381.70,683,751,0
237456,373.34,683,751,0
237466,364.50,683,751,0
237476,355.95,683,751,0
237486,347.52,683,751,0
237496,339.95,683,751,0
237506,332.94,683,750,0
237516,327.21,683,751,0
237527,322.39,683,751,0
237537,318.89,683,751,0
237547,316.09,683,750,0
237557,314.52,683,751,0
237568,313.59,683,750,0
237577,313.84,683,751,0
237587,314.36,683,750,0
237597,315.67,683,751,0
237607,316.71,683,751,0
237617,318.21,683,751,0
237627,319.22,683,750,0
237637,320.78,683,751,0
237647,321.96,683,751,0
237657,324.16,683,751,0
237667,327.33,683,750,0
237677,333.57,683,751,0
237687,342.79,683,751,0
237697,356.52,683,751,0
237707,374.45,683,750,0
237717,397.76,683,751,0
237727,424.79,683,751,0
237737,455.11,683,751,0
237747,485.80,683,750,0
237757,515.61,683,751,0
237767,541.61,683,751,0
237777,562.51,683,751,0
237796,575.99,702,749,0
237799,581.18,702,753,0
237808,578.60,702,751,0
237818,569.20,702,751,0
237828,553.33,702,750,0
237838,533.30,702,751,0
237848,509.42,702,751,0
237858,484.14,702,751,0
237868,458.77,702,751,0
237878,433.94,702,752,0
237888,409.87,702,751,0
237898,388.27,702,751,0
237908,368.39,702,751,0
237918,351.99,702,751,0
237928,337.93,702,751,0
237938,327.54,702,751,0
237948,319.53,702,750,0
237958,315.22,702,751,0
237968,313.09,702,751,0
237978,314.14,702,751,0
237988,316.67,702,750,0
237998,321.61,702,751,0
238008,327.08,702,751,0
238018,333.83,702,751,0
238028,340.01,702,751,0
238039,346.31,702,752,0
238049,351.06,702,751,0
238059,355.20,702,752,0
238069,357.15,702,751,0
238080,358.18,702,751,0
238089,356.88,702,751,0
238099,354.77,702,752,0
238109,350.64,702,751,0
238119,346.16,702,751,0
238129,340.24,702,751,0
238139,334.56,702,752,0
238149,328.05,702,751,0
238159,322.38,702,752,0
238169,316.31,702,751,0
238179,311.63,702,752,0
238189,306.94,702,751,0
238199,303.70,702,751,0
238209,300.58,702,751,0
238219,298.99,702,752,0
238229,297.49,702,751,0
238239,297.34,702,752,0
238249,296.98,702,751,0
238259,297.80,702,752,0
238269,298.29,702,751,0
238279,299.75,702,752,0
238289,300.47,702,751,0
238299,302.04,702,752,0
238309,303.01,702,751,0
238319,304.94,702,752,0
238329,306.76,702,751,0
238339,310.30,702,752,0
238349,314.88,702,751,0
238359,322.59,702,752,0
238369,332.48,702,751,0
238380,346.35,702,752,0
238390,362.88,702,751,0
238400,383.06,702,752,0
238410,404.85,702,751,0
238420,428.13,702,752,0
238430,450.20,702,751,0
238440,470.84,702,751,0
238450,487.47,702,751,0
238470,500.15,673,749,0
238473,506.57,673,752,0
238482,508.42,673,751,0
238492,504.91,673,751,0
238502,497.48,673,752,0
238512,486.11,673,752,0
238522,472.45,673,751,0
238532,456.80,673,752,0
238542,441.00,673,752,0
238552,424.37,673,752,0
238562,408.23,673,751,0
238572,392.61,673,752,0
238582,378.41,673,752,0
238593,365.64,673,752,0
238603,354.95,673,751,0
238613,346.31,673,753,0
238623,340.00,673,752,0
238633,335.89,673,752,0
238643,334.04,673,751,0
238653,333.90,673,752,0
238663,335.47,673,752,0
238673,338.16,673,752,0
238683,341.71,673,752,0
238693,345.57,673,752,0
238703,349.34,673,752,0
238713,352.92,673,752,0
238723,356.12,673,752,0
238733,358.70,673,752,0
238743,360.37,673,752,0
238753,361.08,673,752,0
238764,360.80,673,751,0
238774,359.74,673,752,0
238784,357.72,673,752,0
238794,355.15,673,752,0
238804,351.67,673,751,0
238814,348.09,673,752,0
238824,344.12,673,752,0
238834,340.44,673,752,0
238844,336.58,673,751,0
238854,333.19,673,752,0
238864,329.92,673,752,0
238874,327.46,673,752,0
238884,325.09,673,751,0
238894,323.52,673,752,0
238904,322.12,673,752,0
238914,321.57,673,753,0
238924,321.10,673,752,0
238935,321.28,673,754,0
238945,321.41,673,751,0
238955,322.19,673,753,0
238965,322.69,673,752,0
238976,323.77,673,753,0
238985,324.57,673,753,0
238995,325.98,673,754,0
239005,327.06,673,753,0
239015,329.18,673,754,0
239025,331.61,673,753,0
239035,336.02,673,753,0
239045,341.67,673,752,0
239055,350.17,673,754,0
239065,360.70,673,753,0
239075,374.51,673,753,0
239085,390.25,673,752,0
239095,408.65,673,753,0
239105,427.65,673,753,0
239115,447.22,673,754,0
239134,464.94,665,752,0
239137,480.73,665,755,0
239147,492.98,665,753,0
239156,501.69,665,755,0
239166,505.47,665,750,0
239176,505.45,665,750,0
239186,500.90,665,750,0
239196,493.90,665,750,0
239206,483.95,665,749,0
239216,472.69,665,750,0
239226,459.84,665,750,0
239236,447.29,665,751,0
239246,434.35,665,750,0
239256,422.67,665,750,0
239266,411.07,665,750,0
239276,401.28,665,751,0
239286,392.02,665,750,0
239296,384.90,665,750,0
239306,378.59,665,750,0
239316,374.51,665,751,0
239326,371.40,665,750,0
239336,370.47,665,750,0
239346,370.33,665,750,0
239356,372.03,665,751,0
239366,373.99,665,750,0
239376,377.21,665,750,0
239386,380.06,665,750,0
239396,383.47,665,751,0
239406,385.82,665,750,0
239416,388.18,665,750,0
239426,389.16,665,750,0
239436,390.05,665,751,0
239447,389.48,665,750,0
239457,388.74,665,750,0
239467,386.67,665,750,0
239477,384.71,665,751,0
239488,381.50,665,750,0
239497,378.78,665,750,0
239507,375.20,665,750,0
239517,372.23,665,751,0
239527,368.60,665,750,0
239537,365.68,665,750,0
239547,362.30,665,750,0
239557,359.94,665,751,0
239567,357.04,665,750,0
239577,355.02,665,750,0
239587,352.61,665,750,0
239597,351.31,665,751,0
239607,349.81,665,750,0
239617,349.39,665,750,0
239627,348.67,665,750,0
239637,348.99,665,751,0
239647,348.82,665,750,0
239657,349.52,665,750,0
239667,349.45,665,749,0
239677,350.08,665,751,0
239687,350.14,665,750,0
239697,351.04,665,750,0
239707,351.63,665,750,0
239717,353.67,665,751,0
239727,356.17,665,750,0
239737,360.92,665,750,0
239747,367.07,665,750,0
239757,376.35,665,751,0
239767,387.69,665,750,0
239777,402.70,665,750,0
239788,419.93,665,750,0
239798,440.09,665,751,0
239808,460.98,665,750,0
239827,482.76,693,748,0
239831,503.10,693,751,0
239839,522.66,693,751,0
239849,538.62,693,750,0
239859,551.12,693,751,0
239869,558.58,693,750,0
239879,562.31,693,751,0
239889,561.19,693,750,0
239899,556.67,693,750,0
239909,548.11,693,750,0
239919,537.71,693,751,0
239929,525.32,693,750,0
239939,512.71,693,750,0
239949,499.64,693,750,0
239959,487.66,693,751,0
239969,476.11,693,750,0
239979,466.05,693,751,0
239989,456.73,693,750,0
240000,449.23,693,750,0
240009,442.99,693,750,0
240019,438.71,693,750,0
240029,435.62,693,750,0
240039,434.49,693,750,0
240049,434.35,693,750,0
240059,435.96,693,751,0
240069,438.07,693,750,0
240079,441.18,693,751,0
240089,444.04,693,750,0
240099,447.37,693,751,0
240109,450.04,693,750,0
240119,452.56,693,750,0
240129,453.68,693,750,0
240139,454.55,693,751,0
240149,454.04,693,750,0
240159,452.96,693,750,0
240169,450.35,693,750,0
240179,447.25,693,751,0
240189,442.97,693,750,0
240199,438.57,693,750,0
240209,433.34,693,750,0
240219,428.22,693,751,0
240229,422.80,693,750,0
240239,417.80,693,750,0
240249,412.76,693,750,0
240259,408.68,693,751,0
240269,404.79,693,749,0
240279,401.77,693,751,0
240289,398.92,693,750,0
240300,397.02,693,751,0
240310,395.51,693,750,0
240320,394.63,693,750,0
240330,393.88,693,750,0
240340,393.58,693,750,0
240350,393.32,693,750,0
240360,393.56,693,750,0
240370,393.78,693,750,0
240380,394.40,693,750,0
240390,395.70,693,750,0
240400,398.06,693,750,0
240410,402.07,693,750,0
240420,408.39,693,750,0
240430,417.57,693,750,0
240440,430.73,693,750,0
240450,448.04,693,750,0
240460,469.71,693,750,0
240471,495.13,693,750,0
240481,523.33,693,750,0
240491,552.98,693,751,0
240501,582.04,693,750,0
240521,608.47,693,748,0
240524,630.53,693,750,0
240533,648.16,693,751,0
240543,659.47,693,750,0
240553,664.81,693,750,0
240563,663.84,693,750,0
240573,657.93,693,750,0
240583,647.37,693,750,0
240593,633.93,693,750,0
240603,616.81,693,750,0
240613,598.48,693,750,0
240623,578.75,693,750,0
240633,559.45,693,750,0
240643,540.50,693,750,0
240653,523.64,693,750,0
240663,508.10,693,750,0
240673,495.43,693,750,0
240684,484.89,693,750,0
240694,477.85,693,751,0
240704,472.97,693,750,0
240714,471.26,693,750,0
240724,471.31,693,750,0
240734,474.09,693,750,0
240744,477.66,693,750,0
240754,482.74,693,750,0
240764,487.31,693,749,0
240774,492.49,693,750,0
240784,496.29,693,750,0
240794,499.46,693,750,0
240804,500.31,693,750,0
240814,500.17,693,750,0
240824,497.63,693,750,0
240834,494.10,693,750,0
240844,488.37,693,749,0
240855,482.09,693,751,0
240865,474.18,693,749,0
240875,466.37,693,750,0
240885,457.60,693,749,0
240896,449.71,693,750,0
240905,441.48,693,749,0
240915,434.39,693,750,0
240925,427.25,693,750,0
240935,421.60,693,750,0
240945,416.23,693,750,0
240955,412.35,693,750,0
240965,408.60,693,750,0
240975,406.41,693,751,0
240985,404.27,693,750,0
240995,403.46,693,751,0
241005,402.42,693,749,0
241015,402.51,693,751,0
241025,402.36,693,750,0
241035,403.58,693,751,0
241045,405.29,693,749,0
241055,409.57,693,750,0
241065,416.00,693,750,0
241075,427.19,693,751,0
241085,442.86,693,749,0
241095,465.36,693,751,0
241105,493.28,693,750,0
241115,526.67,693,751,0
241125,562.17,693,750,0
241135,598.20,693,751,0
241145,631.96,693,750,0
241155,662.27,693,751,0
241165,686.96,693,749,0
241175,706.04,693,751,0
241195,719.40,674,749,0
241198,728.28,674,752,0
241207,732.70,674,750,0
241217,732.62,674,751,0
241227,727.12,674,750,0
241238,716.45,674,750,0
241247,700.07,674,749,0
241257,678.62,674,750,0
241267,652.42,674,750,0
241277,623.67,674,750,0
241287,593.51,674,749,0
241297,564.77,674,751,0
241307,537.84,674,750,0
241317,514.49,674,750,0
241327,494.54,674,749,0
241337,479.38,674,750,0
241347,468.21,674,750,0
241357,461.67,674,750,0
241367,458.26,674,749,0
241377,458.57,674,750,0
241387,461.22,674,750,0
241397,466.34,674,750,0
241408,472.28,674,749,0
241417,479.06,674,750,0
241427,484.87,674,750,0
241437,490.05,674,750,0
241447,492.86,674,749,0
241457,494.15,674,750,0
241467,492.77,674,750,0
241477,489.54,674,750,0
241487,483.89,674,749,0
241497,477.24,674,751,0
241507,468.90,674,750,0
241517,460.18,674,750,0
241527,450.40,674,749,0
241537,440.85,674,750,0
241547,431.17,674,750,0
241557,422.20,674,750,0
241567,413.31,674,750,0
241577,405.63,674,750,0
241587,398.54,674,750,0
241597,393.02,674,750,0
241607,388.30,674,750,0
241617,385.04,674,750,0
241627,382.46,674,750,0
241637,381.12,674,750,0
241647,380.10,674,750,0
241657,380.07,674,750,0
241667,380.13,674,750,0
241677,381.04,674,750,0
241687,381.97,674,750,0
241697,383.82,674,750,0
241708,386.49,674,750,0
241718,391.36,674,750,0
241728,399.22,674,750,0
241738,412.05,674,750,0
241748,430.81,674,750,0
241758,456.92,674,751,0
241768,489.99,674,750,0
241778,527.49,674,751,0
241788,566.77,674,750,0
241798,605.50,674,751,0
241808,641.09,674,750,0
241818,671.54,674,750,0
241828,695.33,674,751,0
241838,712.03,674,751,0
241857,723.72,663,749,0
241860,731.95,663,750,0
241869,737.75,663,751,0
241879,741.81,663,751,0
241889,744.65,663,750,0
241899,744.63,663,750,0
241909,740.15,663,750,0
241920,729.99,663,750,0
241929,714.05,663,750,0
241939,691.88,663,750,0
241949,663.80,663,750,0
241959,630.26,663,750,0
241969,594.18,663,750,0
241979,558.09,663,750,0
241989,524.37,663,750,0
241999,493.92,663,750,0
242009,468.40,663,750,0
242019,448.09,663,750,0
242029,433.41,663,750,0
242039,423.77,663,750,0
242049,418.95,663,750,0
242059,418.24,663,750,0
242069,420.95,663,750,0
242079,425.68,663,750,0
242089,431.82,663,750,0
242099,438.17,663,750,0
242109,443.99,663,750,0
242119,448.37,663,750,0
242129,451.09,663,750,0
242139,451.62,663,749,0
242149,450.06,663,750,0
242159,446.10,663,750,0
242169,440.20,663,750,0
242179,432.81,663,750,0
242189,424.55,663,750,0
242199,415.13,663,750,0
242209,405.45,663,751,0
242220,395.54,663,749,0
242230,386.38,663,751,0
242240,377.65,663,750,0
242250,369.87,663,751,0
242260,362.71,663,749,0
242270,357.01,663,751,0
242280,352.16,663,750,0
242290,348.82,663,751,0
242300,346.08,663,749,0
242310,344.82,663,751,0
242320,343.93,663,750,0
242330,344.29,663,751,0
242340,345.02,663,750,0
242350,346.64,663,751,0
242360,348.21,663,750,0
242370,350.54,663,751,0
242380,353.12,663,750,0
242391,358.02,663,751,0
242401,365.21,663,750,0
242411,377.15,663,751,0
242421,394.33,663,750,0
242432,419.13,663,751,0
242441,450.76,663,750,0
242451,489.11,663,751,0
242461,530.39,663,750,0
242471,572.44,663,751,0
242481,612.00,663,751,0
242491,647.53,663,751,0
242501,676.55,663,750,0
242511,699.06,663,751,0
242530,712.88,673,749,0
242533,717.63,673,752,0
242542,714.31,673,750,0
242552,703.29,673,751,0
242562,684.22,673,750,0
242572,658.05,673,751,0
242582,624.82,673,750,0
242592,587.80,673,751,0
242603,549.42,673,750,0
242612,511.49,673,751,0
242622,474.62,673,750,0
242632,441.30,673,751,0
242642,411.17,673,750,0
242652,385.92,673,751,0
242662,364.51,673,750,0
242672,348.55,673,751,0
242682,336.60,673,750,0
242692,330.12,673,751,0
242702,327.30,673,750,0
242712,329.14,673,751,0
242722,333.55,673,750,0
242732,340.93,673,751,0
242742,349.18,673,750,0
242752,358.68,673,751,0
242762,367.31,673,750,0
242772,375.74,673,751,0
242782,381.95,673,750,0
242792,386.81,673,751,0
242802,388.84,673,750,0
242812,389.27,673,751,0
242822,386.96,673,750,0
242832,383.24,673,750,0
242842,377.09,673,750,0
242852,370.29,673,751,0
242862,362.02,673,750,0
242872,353.95,673,750,0
242882,345.05,673,750,0
242892,337.02,673,751,0
242903,328.83,673,750,0
242913,322.02,673,750,0
242923,315.37,673,750,0
242933,310.29,673,751,0
242944,305.66,673,750,0
242953,302.81,673,750,0
242963,300.38,673,750,0
242973,299.62,673,751,0
242983,299.09,673,750,0
242993,299.92,673,750,0
243003,300.67,673,750,0
243013,302.53,673,751,0
243023,303.91,673,750,0
243033,305.91,673,750,0
243043,307.09,673,750,0
243053,308.74,673,751,0
243063,309.63,673,750,0
243073,311.46,673,750,0
243083,313.33,673,750,0
243093,317.48,673,751,0
243103,323.59,673,750,0
243113,334.08,673,750,0
243123,348.42,673,750,0
243133,368.61,673,751,0
243143,393.58,673,750,0
243153,423.96,673,750,0
243163,457.06,673,750,0
243173,491.97,673,751,0
243183,524.94,673,750,0
243193,554.96,673,750,0
243212,578.58,682,749,0
243215,594.48,682,752,0
243224,601.84,682,750,0
243234,600.73,682,750,0
243244,590.70,682,750,0
243254,574.33,682,751,0
243264,551.86,682,750,0
243274,526.02,682,750,0
243284,497.98,682,750,0
243294,469.10,682,751,0
243304,440.49,682,750,0
243314,414.11,682,750,0
243324,389.61,682,750,0
243334,368.60,682,751,0
243344,350.46,682,750,0
243354,336.18,682,750,0
243364,324.81,682,750,0
243374,317.37,682,751,0
243384,312.80,682,750,0
243394,311.96,682,751,0
243404,313.56,682,750,0
243415,317.85,682,750,0
243425,323.64,682,750,0
243435,330.99,682,750,0
243445,338.58,682,750,0
243456,346.38,682,750,0
243465,353.08,682,750,0
243475,358.88,682,750,0
243485,362.73,682,750,0
243495,365.04,682,750,0
243505,365.33,682,750,0
243515,364.33,682,750,0
243525,361.66,682,750,0
243535,357.82,682,750,0
243545,352.64,682,750,0
243555,347.01,682,750,0
243565,340.79,682,750,0
243575,334.55,682,750,0
243585,327.87,682,750,0
243595,321.78,682,750,0
243605,315.89,682,750,0
243615,310.78,682,751,0
243625,306.35,682,750,0
243635,302.90,682,750,0
243645,300.14,682,750,0
243655,298.47,682,751,0
243665,297.26,682,750,0
243675,297.14,682,751,0
243685,297.35,682,750,0
243695,298.06,682,750,0
243705,298.86,682,750,0
243715,300.14,682,750,0
243725,301.47,682,750,0
243735,303.17,682,750,0
243745,304.84,682,750,0
243756,307.24,682,750,0
243766,310.51,682,750,0
243776,315.46,682,750,0
243786,322.56,682,750,0
243796,332.59,682,750,0
243806,345.70,682,750,0
243816,362.12,682,750,0
243826,381.80,682,750,0
243836,404.14,682,750,0
243846,427.93,682,750,0
243856,451.57,682,750,0
243866,473.38,682,750,0
243876,492.00,682,750,0
243895,506.27,683,748,0
243898,514.24,683,750,0
243907,517.04,683,750,0
243917,514.20,683,750,0
243927,506.77,683,750,0
243937,495.22,683,750,0
243947,480.71,683,750,0
243957,463.96,683,750,0
243968,446.83,683,750,0
243977,428.58,683,750,0
243987,410.79,683,751,0
243997,393.15,683,750,0
244007,377.08,683,750,0
244017,362.53,683,750,0
244027,350.50,683,751,0
244037,340.71,683,750,0
244047,333.85,683,750,0
244057,329.40,683,750,0
244067,327.91,683,751,0
244077,328.45,683,750,0
244087,331.40,683,750,0
244097,335.57,683,750,0
244107,341.40,683,751,0
244117,347.41,683,750,0
244127,353.84,683,750,0
244137,359.59,683,750,0
244147,364.94,683,751,0
244157,368.82,683,750,0
244167,371.79,683,750,0
244177,372.84,683,750,0
244187,372.88,683,751,0
244197,371.25,683,750,0
244207,368.94,683,750,0
244217,365.23,683,750,0
244227,361.35,683,751,0
244237,356.83,683,750,0
244247,352.72,683,751,0
244257,348.22,683,750,0
244268,344.34,683,751,0
244278,340.25,683,750,0
244288,337.18,683,751,0
244298,334.00,683,750,0
244308,331.77,683,751,0
244318,329.48,683,750,0
244328,328.26,683,750,0
244338,327.03,683,750,0
244348,326.89,683,751,0
244358,326.58,683,750,0
244368,327.22,683,751,0
244378,327.45,683,750,0
244388,328.56,683,751,0
244398,329.55,683,750,0
244408,331.91,683,751,0
244418,334.81,683,750,0
244428,340.22,683,751,0
244439,347.53,683,750,0
244449,358.51,683,751,0
244459,372.33,683,750,0
244469,390.45,683,751,0
244480,411.31,683,750,0
244489,435.39,683,751,0
244499,459.92,683,750,0
244509,484.84,683,751,0
244529,507.17,633,749,0
244532,526.45,633,751,0
244541,541.06,633,750,0
244551,551.16,633,751,0
244561,555.05,633,750,0
244571,554.35,633,751,0
244581,547.95,633,749,0
244591,538.28,633,751,0
244601,525.42,633,750,0
244611,510.81,633,751,0
244621,494.28,633,750,0
244631,477.95,633,751,0
244641,461.17,633,750,0
244652,445.99,633,751,0
244662,431.55,633,750,0
244672,419.30,633,751,0
244682,408.19,633,750,0
244692,399.65,633,751,0
244702,392.73,633,750,0
244712,388.65,633,751,0
244722,386.48,633,750,0
244732,386.98,633,751,0
244742,388.83,633,750,0
244752,392.65,633,751,0
244762,397.13,633,750,0
244772,402.75,633,751,0
244782,408.01,633,749,0
244792,413.32,633,751,0
244802,417.25,633,750,0
244812,420.61,633,751,0
244823,422.18,633,750,0
244833,422.60,633,750,0
244843,421.22,633,750,0
244853,418.88,633,750,0
244864,414.93,633,750,0
244873,410.84,633,751,0
244883,405.83,633,750,0
244893,400.87,633,751,0
244903,395.68,633,750,0
244913,390.89,633,751,0
244923,386.16,633,750,0
244933,382.13,633,751,0
244943,378.11,633,750,0
244953,374.77,633,751,0
244963,371.67,633,750,0
244973,369.37,633,751,0
244983,367.42,633,750,0
244993,366.35,633,751,0
245003,365.60,633,750,0
245013,365.46,633,751,0
245023,365.45,633,750,0
245033,366.00,633,750,0
245043,366.56,633,750,0
245053,367.63,633,750,0
245063,368.86,633,750,0
245073,371.13,633,751,0
245083,374.43,633,750,0
245093,380.05,633,751,0
245103,388.48,633,750,0
245113,401.32,633,751,0
245123,418.75,633,751,0
245133,441.75,633,751,0
245143,469.60,633,750,0
245153,502.12,633,751,0
245164,537.48,633,751,0
245174,573.98,633,751,0
245193,608.87,665,749,0
245196,640.24,665,751,0
245206,667.30,665,751,0
245215,688.34,665,751,0
245225,702.25,665,751,0
245235,708.65,665,751,0
245245,708.07,665,751,0
245255,701.28,665,751,0
245265,689.54,665,751,0
245275,672.40,665,750,0
245285,651.93,665,751,0
245295,629.28,665,751,0
245305,605.96,665,751,0
245315,582.40,665,750,0
245325,559.91,665,751,0
245335,538.98,665,751,0
245345,520.73,665,751,0
245355,504.91,665,750,0
245365,492.21,665,751,0
245376,482.16,665,750,0
245385,475.47,665,751,0
245395,471.51,665,750,0
245405,470.46,665,751,0
245415,471.09,665,750,0
245425,473.59,665,750,0
245435,476.93,665,750,0
245445,481.24,665,751,0
245455,485.37,665,750,0
245465,489.07,665,751,0
245475,491.28,665,750,0
245485,492.39,665,751,0
245495,491.68,665,750,0
245505,489.33,665,750,0
245515,485.12,665,750,0
245525,479.85,665,751,0
245535,473.08,665,750,0
245545,465.69,665,751,0
245555,457.25,665,750,0
245565,448.73,665,751,0
245575,439.90,665,750,0
245585,431.44,665,751,0
245595,422.87,665,750,0
245605,415.24,665,751,0
245615,408.09,665,750,0
245625,402.28,665,751,0
245635,397.18,665,750,0
245645,393.40,665,751,0
245655,390.36,665,750,0
245665,388.67,665,751,0
245676,387.53,665,750,0
245686,387.45,665,751,0
245696,387.49,665,750,0
245706,388.29,665,751,0
245716,388.93,665,750,0
245726,390.11,665,751,0
245736,390.85,665,750,0
245746,392.22,665,751,0
245756,393.78,665,750,0
245766,397.19,665,751,0
245776,402.49,665,750,0
245786,412.12,665,751,0
245796,426.39,665,750,0
245806,447.32,665,751,0
245816,474.52,665,751,0
245826,508.14,665,751,0
245836,544.87,665,750,0
245847,582.79,665,751,0
245857,619.03,665,751,0
245867,651.93,665,751,0
245877,679.51,665,750,0
245897,701.00,703,749,0
245900,716.00,703,751,0
245909,726.59,703,751,0
245919,734.00,703,750,0
245929,739.23,703,751,0
245939,741.00,703,751,0
245949,738.90,703,751,0
245959,731.34,703,750,0
245969,718.60,703,751,0
245979,699.90,703,750,0
245989,676.06,703,751,0
245999,646.64,703,750,0
246009,614.95,703,751,0
246019,582.05,703,750,0
246029,551.26,703,751,0
246039,522.81,703,750,0
246049,498.87,703,751,0
246060,479.07,703,751,0
246070,464.95,703,751,0
246080,455.11,703,750,0
246090,450.32,703,751,0
246100,448.89,703,750,0
246110,451.28,703,751,0
246120,455.40,703,750,0
246130,461.41,703,751,0
246140,467.37,703,750,0
246150,473.56,703,751,0
246160,478.02,703,750,0
246170,481.19,703,751,0
246180,481.47,703,750,0
246190,480.22,703,751,0
246200,476.17,703,750,0
246210,470.54,703,751,0
246220,462.58,703,750,0
246231,453.84,703,751,0
246241,443.77,703,750,0
246251,433.85,703,751,0
246261,423.40,703,751,0
246272,413.64,703,751,0
246281,404.10,703,750,0
246291,395.93,703,751,0
246301,388.54,703,751,0
246311,382.63,703,751,0
246321,377.60,703,751,0
246331,374.03,703,751,0
246341,371.32,703,751,0
246351,369.94,703,751,0
246361,369.02,703,751,0
246371,369.05,703,751,0
246381,369.25,703,751,0
246391,370.16,703,751,0
246401,370.80,703,750,0
246411,372.06,703,751,0
246421,373.54,703,751,0
246431,376.29,703,751,0
246441,380.75,703,751,0
246451,388.50,703,751,0
246461,400.26,703,750,0
246471,418.35,703,751,0
246481,442.81,703,751,0
246491,474.15,703,751,0
246501,510.75,703,751,0
246511,549.87,703,751,0
246521,588.99,703,751,0
246531,626.02,703,751,0
246541,658.46,703,751,0
246551,685.11,703,751,0
246561,704.40,703,751,0
246581,715.60,685,749,0
246584,717.77,685,752,0
246593,712.53,685,751,0
246603,699.86,685,751,0
246614,679.76,685,750,0
246623,652.83,685,751,0
246633,620.39,685,751,0
246643,584.58,685,751,0
246653,548.45,685,750,0
246663,512.74,685,751,0
246673,478.92,685,751,0
246683,448.56,685,751,0
246693,421.99,685,751,0
246703,399.88,685,751,0
246713,382.17,685,751,0
246723,369.48,685,751,0
246733,361.19,685,750,0
246743,357.45,685,751,0
246753,357.53,685,751,0
246763,361.14,685,751,0
246773,367.01,685,750,0
246784,374.98,685,751,0
246793,383.77,685,751,0
246803,392.75,685,751,0
246813,400.71,685,750,0
246823,407.27,685,751,0
246833,411.65,685,751,0
246843,414.07,685,751,0
246853,413.70,685,750,0
246863,411.05,685,751,0
246873,406.15,685,751,0
246883,399.59,685,751,0
246893,391.36,685,750,0
246903,382.46,685,751,0
246913,372.90,685,751,0
246923,363.67,685,751,0
246933,354.43,685,750,0
246943,345.77,685,751,0
246953,337.61,685,750,0
246963,330.74,685,751,0
246973,324.69,685,750,0
246983,320.07,685,751,0
246993,316.32,685,751,0
247003,314.08,685,751,0
247013,312.81,685,750,0
247023,313.00,685,751,0
247033,313.68,685,750,0
247043,315.19,685,751,0
247053,316.76,685,750,0
247063,318.85,685,751,0
247073,320.69,685,750,0
247084,323.01,685,751,0
247094,325.24,685,750,0
247104,328.90,685,751,0
247114,333.98,685,750,0
247124,342.39,685,751,0
247134,353.93,685,750,0
247144,370.41,685,751,0
247154,391.59,685,750,0
247164,418.32,685,751,0
247174,448.48,685,751,0
247184,481.47,685,751,0
247194,514.16,685,750,0
247204,545.44,685,751,0
247214,572.09,685,750,0
247224,592.76,685,751,0
247243,605.14,662,749,0
247246,608.95,662,754,0
247255,604.77,662,750,0
247265,593.69,662,751,0
247275,575.91,662,750,0
247285,553.91,662,751,0
247296,528.27,662,750,0
247305,501.62,662,751,0
247315,474.82,662,751,0
247325,448.73,662,751,0
247335,423.44,662,750,0
247345,400.89,662,751,0
247355,380.35,662,750,0
247365,363.49,662,751,0
247375,349.03,662,750,0
247385,338.48,662,751,0
247395,330.45,662,750,0
247405,326.33,662,751,0
247415,324.43,662,750,0
247425,325.67,662,750,0
247435,328.47,662,750,0
247445,333.56,662,751,0
247455,339.05,662,750,0
247465,345.63,662,750,0
247475,351.44,662,750,0
247485,357.35,662,751,0
247495,361.62,662,750,0
247505,365.12,662,751,0
247515,366.50,662,750,0
247525,366.99,662,751,0
247535,365.37,662,750,0
247545,362.94,662,751,0
247555,358.72,662,750,0
247565,354.22,662,751,0
247575,348.28,662,750,0
247585,342.54,662,751,0
247596,335.91,662,750,0
247606,330.15,662,751,0
247616,324.06,662,750,0
247626,319.20,662,751,0
247636,314.34,662,750,0
247646,310.89,662,751,0
247656,307.46,662,750,0
247666,305.52,662,751,0
247676,303.52,662,750,0
247686,303.02,662,751,0
247696,302.41,662,750,0
247706,302.89,662,750,0
247716,303.09,662,750,0
247726,304.44,662,751,0
247736,305.25,662,750,0
247746,306.85,662,750,0
247756,307.66,662,750,0
247767,309.14,662,751,0
247777,310.04,662,750,0
247787,312.00,662,751,0
247797,313.93,662,750,0
247808,317.76,662,751,0
247817,322.76,662,750,0
247827,331.02,662,750,0
247837,341.77,662,750,0
247847,356.54,662,751,0
247857,373.61,662,750,0
247867,394.12,662,751,0
247877,416.03,662,750,0
247887,439.38,662,751,0
247897,461.21,662,750,0
247907,481.33,662,751,0
247926,497.30,683,749,0
247929,509.00,683,752,0
247938,515.68,683,750,0
247948,517.71,683,751,0
247958,514.07,683,750,0
247968,506.55,683,751,0
247979,494.77,683,750,0
247988,480.82,683,751,0
247998,465.11,683,750,0
248008,448.27,683,751,0
248018,430.62,683,750,0
248028,413.89,683,751,0
248038,397.55,683,750,0
248048,382.99,683,751,0
248058,369.62,683,750,0
248068,358.85,683,751,0
248078,349.64,683,750,0
248088,342.97,683,751,0
248098,337.92,683,750,0
248108,335.55,683,751,0
248118,334.70,683,750,0
248128,335.77,683,751,0
248138,337.47,683,750,0
248148,340.50,683,751,0
248158,343.91,683,750,0
248168,347.92,683,751,0
248178,351.16,683,750,0
248188,354.20,683,751,0
248198,356.15,683,750,0
248208,357.74,683,751,0
248218,357.86,683,750,0
248228,357.04,683,751,0
248238,354.76,683,750,0
248248,352.09,683,751,0
248258,348.50,683,750,0
248268,345.10,683,751,0
248279,341.12,683,750,0
248289,337.49,683,751,0
248299,333.78,683,750,0
248309,330.72,683,751,0
248320,327.80,683,750,0
248329,325.59,683,751,0
248339,323.36,683,751,0
248349,321.71,683,751,0
248359,320.25,683,750,0
248369,319.36,683,751,0
248379,318.74,683,750,0
248389,318.65,683,751,0
248399,318.80,683,750,0
248409,319.50,683,751,0
248419,320.12,683,751,0
248429,321.07,683,751,0
248439,321.95,683,750,0
248449,323.08,683,751,0
248459,324.00,683,751,0
248469,324.94,683,751,0
248479,325.69,683,750,0
248489,326.94,683,751,0
248499,328.54,683,750,0
248509,331.21,683,751,0
248519,335.13,683,750,0
248529,341.05,683,751,0
248539,349.05,683,750,0
248549,359.66,683,751,0
248559,372.71,683,750,0
248569,388.09,683,751,0
248579,404.82,683,750,0
248589,422.45,683,751,0
248608,439.58,682,748,0
248611,455.10,682,751,0
248620,468.91,682,751,0
248630,479.48,682,751,0
248640,486.24,682,750,0
248650,489.08,682,750,0
248660,488.11,682,751,0
248670,483.96,682,750,0
248680,477.38,682,750,0
248690,467.88,682,750,0
248700,457.11,682,751,0
248710,445.64,682,750,0
248720,434.17,682,750,0
248730,422.68,682,750,0
248740,411.80,682,751,0
248750,401.75,682,751,0
248760,392.91,682,750,0
248770,385.18,682,750,0
248780,379.21,682,751,0
248791,374.52,682,751,0
248801,371.49,682,751,0
248811,369.63,682,750,0
248821,369.44,682,751,0
248832,370.25,682,750,0
248841,372.36,682,751,0
248851,374.74,682,750,0
248861,377.90,682,751,0
248871,380.98,682,750,0
248881,384.24,682,751,0
248891,386.65,682,750,0
248901,388.73,682,751,0
248911,389.54,682,750,0
248921,389.72,682,751,0
248931,388.60,682,750,0
248941,387.14,682,751,0
248951,384.65,682,750,0
248961,382.06,682,751,0
248971,378.83,682,750,0
248981,375.92,682,751,0
248991,372.56,682,750,0
249001,369.73,682,751,0
249011,366.56,682,750,0
249021,364.03,682,751,0
249031,361.32,682,750,0
249041,359.25,682,751,0
249051,357.04,682,750,0
249061,355.61,682,751,0
249071,354.14,682,750,0
249081,353.50,682,751,0
249091,352.88,682,750,0
249101,353.00,682,751,0
249111,352.87,682,750,0
249121,353.34,682,751,0
249132,353.54,682,750,0
249142,354.32,682,751,0
249152,354.74,682,750,0
249162,355.93,682,751,0
249172,357.15,682,750,0
249182,359.89,682,751,0
249192,363.52,682,750,0
249202,369.67,682,751,0
249212,377.61,682,750,0
249222,388.83,682,751,0
249232,402.25,682,750,0
249242,418.98,682,751,0
249252,437.15,682,750,0
249262,457.12,682,751,0
249272,476.59,682,750,0
249291,495.57,683,749,0
249294,511.68,683,750,0
249303,526.13,683,751,0
249313,535.95,683,750,0
249323,542.18,683,751,0
249333,543.50,683,749,0
249344,541.59,683,751,0
249353,535.89,683,750,0
249363,528.42,683,751,0
249373,517.45,683,749,0
249383,506.22,683,751,0
249393,493.98,683,750,0
249403,482.54,683,751,0
249413,470.77,683,749,0
249423,460.34,683,751,0
249433,450.21,683,750,0
249443,442.09,683,751,0
249453,434.48,683,750,0
249463,428.93,683,751,0
249473,424.32,683,750,0
249483,422.17,683,751,0
249493,421.05,683,750,0
249503,422.15,683,751,0
249513,423.82,683,750,0
249523,427.22,683,751,0
249533,430.45,683,750,0
249543,434.73,683,751,0
249553,438.15,683,750,0
249563,441.84,683,751,0
249573,443.90,683,750,0
249583,445.73,683,751,0
249593,445.68,683,750,0
249603,445.31,683,751,0
249613,443.07,683,750,0
249623,440.52,683,751,0
249633,436.21,683,750,0
249644,432.03,683,751,0
249654,426.62,683,750,0
249664,421.76,683,751,0
249674,416.18,683,750,0
249684,411.45,683,751,0
249694,406.43,683,750,0
249704,402.79,683,751,0
249714,399.08,683,750,0
249724,396.74,683,751,0
249734,394.42,683,750,0
249744,393.48,683,751,0
249754,392.48,683,750,0
249764,392.63,683,751,0
249774,392.40,683,750,0
249784,393.10,683,751,0
249794,393.15,683,750,0
249804,393.92,683,751,0
249815,394.03,683,750,0
249825,394.84,683,751,0
249835,395.31,683,750,0
249845,396.98,683,751,0
249856,399.13,683,750,0
249865,403.72,683,751,0
249875,410.14,683,750,0
249885,420.64,683,751,0
249895,434.55,683,750,0
249905,453.24,683,751,0
249915,475.46,683,750,0
249925,501.59,683,751,0
249935,529.44,683,750,0
249945,558.71,683,751,0
249964,586.23,673,749,0
249967,611.14,673,752,0
249976,632.06,673,750,0
249986,648.54,673,750,0
249996,658.88,673,750,0
250006,663.84,673,751,0
250016,662.60,673,750,0
250027,656.72,673,750,0
250036,646.65,673,750,0
250046,633.17,673,751,0
250056,616.70,673,750,0
250066,599.09,673,750,0
250076,580.46,673,750,0
250086,562.50,673,751,0
250096,545.12,673,750,0
250106,529.40,673,750,0
250116,514.96,673,750,0
250126,502.93,673,751,0
250136,492.71,673,750,0
250146,485.25,673,750,0
250156,479.82,673,750,0
250166,477.00,673,751,0
250176,475.80,673,750,0
250186,476.59,673,750,0
250196,478.30,673,750,0
250206,481.25,673,751,0
250216,484.09,673,750,0
250226,486.89,673,750,0
250236,488.77,673,750,0
250246,490.08,673,751,0
250256,489.93,673,750,0
250266,488.83,673,750,0
250276,486.06,673,750,0
250286,482.61,673,751,0
250296,477.93,673,750,0
250306,472.68,673,750,0
250316,466.47,673,750,0
250327,460.16,673,751,0
250337,453.43,673,750,0
250347,447.04,673,750,0
250357,440.51,673,750,0
250368,434.45,673,750,0
250377,428.66,673,750,0
250387,423.57,673,750,0
250397,419.07,673,751,0
250407,415.19,673,751,0
250417,411.79,673,751,0
250427,408.98,673,750,0
250437,406.89,673,751,0
250447,405.38,673,751,0
250457,404.37,673,751,0
250467,403.74,673,751,0
250477,403.48,673,750,0
250487,403.55,673,751,0
250497,403.68,673,750,0
250507,403.82,673,750,0
250517,403.87,673,751,0
250527,403.91,673,751,0
250537,403.85,673,751,0
250547,404.15,673,751,0
250557,404.97,673,750,0
250567,407.25,673,751,0
250577,411.76,673,751,0
250587,419.50,673,751,0
250597,431.48,673,750,0
250607,448.69,673,751,0
250617,471.46,673,751,0
250627,499.52,673,751,0
250637,531.72,673,751,0
250647,566.22,673,751,0
250657,600.74,673,751,0
250677,633.22,713,749,0
250680,661.74,713,751,0
250689,684.96,713,751,0
250699,701.86,713,751,0
250710,711.03,713,751,0
250719,713.33,713,751,0
250729,708.95,713,750,0
250739,698.85,713,751,0
250749,683.38,713,750,0
250759,663.72,713,751,0
250769,640.79,713,750,0
250779,616.94,713,751,0
250789,592.23,713,750,0
250799,568.63,713,750,0
250809,546.03,713,750,0
250819,526.09,713,751,0
250829,508.28,713,751,0
250839,493.45,713,750,0
250849,481.10,713,750,0
250859,472.07,713,751,0
250869,465.32,713,750,0
250880,461.88,713,750,0
250889,460.20,713,750,0
250899,460.96,713,751,0
250909,462.77,713,750,0
250919,466.01,713,750,0
250929,469.26,713,750,0
250939,472.91,713,751,0
250949,475.34,713,750,0
250959,477.21,713,750,0
250969,477.40,713,750,0
250979,476.64,713,751,0
250989,473.92,713,750,0
250999,470.30,713,750,0
251009,465.20,713,750,0
251019,459.61,713,751,0
251029,452.83,713,750,0
251039,445.81,713,750,0
251049,437.98,713,750,0
251059,430.61,713,751,0
251069,422.93,713,750,0
251079,415.97,713,750,0
251089,408.99,713,750,0
251099,403.21,713,751,0
251109,397.75,713,750,0
251119,393.66,713,751,0
251129,389.91,713,750,0
251139,387.41,713,751,0
251149,385.27,713,750,0
251159,384.38,713,751,0
251169,383.58,713,750,0
251180,383.79,713,751,0
251190,383.77,713,750,0
251200,384.52,713,751,0
251210,384.84,713,750,0
251220,385.57,713,751,0
251230,385.70,713,750,0
251240,386.05,713,751,0
251250,385.52,713,750,0
251260,385.66,713,751,0
251270,385.42,713,750,0
251280,386.49,713,751,0
251290,388.19,713,750,0
251300,392.72,713,751,0
251310,399.83,713,750,0
251320,412.05,713,751,0
251330,428.84,713,750,0
251340,451.73,713,751,0
251351,478.90,713,750,0
251361,510.56,713,751,0
251371,543.52,713,750,0
251381,577.05,713,751,0
251401,607.21,723,750,0
251404,632.47,723,752,0
251413,650.76,723,750,0
251423,662.10,723,751,0
251433,664.77,723,750,0
251443,660.38,723,751,0
251453,648.44,723,750,0
251463,631.16,723,751,0
251473,609.30,723,750,0
251483,584.87,723,751,0
251493,558.29,723,750,0
251503,532.11,723,751,0
251513,506.15,723,751,0
251523,482.44,723,751,0
251533,460.63,723,750,0
251543,442.18,723,751,0
251553,425.88,723,750,0
251564,413.06,723,751,0
251574,402.67,723,750,0
251584,395.66,723,751,0
251594,391.00,723,750,0
251604,389.50,723,751,0
251614,389.91,723,750,0
251624,392.85,723,751,0
251634,396.75,723,751,0
251644,401.97,723,751,0
251654,406.86,723,750,0
251664,411.79,723,751,0
251674,415.54,723,750,0
251684,418.38,723,751,0
251694,419.21,723,750,0
251704,418.72,723,751,0
251714,416.19,723,751,0
251724,412.62,723,751,0
251735,407.46,723,750,0
251745,401.41,723,751,0
251755,394.39,723,751,0
251765,387.07,723,751,0
251776,379.38,723,750,0
251785,372.15,723,751,0
251795,365.16,723,750,0
251805,358.90,723,751,0
251815,353.36,723,750,0
251825,348.84,723,751,0
251835,345.11,723,751,0
251845,342.38,723,751,0
251855,340.34,723,750,0
251865,339.25,723,751,0
251875,338.66,723,750,0
251885,338.76,723,751,0
251895,338.96,723,750,0
251905,339.70,723,751,0
251915,340.61,723,751,0
251925,341.67,723,751,0
251935,342.54,723,750,0
251945,343.62,723,750,0
251955,344.98,723,751,0
251965,347.51,723,751,0
251975,351.52,723,750,0
251985,357.96,723,750,0
251995,367.40,723,750,0
252005,380.87,723,751,0
252015,398.65,723,750,0
252025,420.70,723,751,0
252035,445.99,723,751,0
252045,473.72,723,751,0
252055,501.88,723,750,0
252065,528.96,723,751,0
252076,552.63,723,751,0
252095,571.25,695,749,0
252098,583.22,695,751,0
252107,588.98,695,750,0
252118,587.92,695,751,0
252127,580.53,695,750,0
252137,567.64,695,750,0
252147,550.52,695,750,0
252157,530.78,695,751,0
252167,509.72,695,751,0
252177,487.73,695,750,0
252187,465.53,695,750,0
252197,444.62,695,751,0
252207,425.15,695,750,0
252217,407.96,695,751,0
252227,392.67,695,750,0
252237,380.17,695,751,0
252247,370.01,695,750,0
252257,363.02,695,751,0
252267,358.38,695,750,0
252277,356.73,695,751,0
252288,356.98,695,750,0
252297,359.56,695,750,0
252307,363.20,695,750,0
252317,368.24,695,751,0
252327,373.36,695,750,0
252337,378.65,695,751,0
252347,383.04,695,750,0
252357,386.93,695,751,0
252367,389.26,695,750,0
252377,390.64,695,751,0
252387,390.19,695,750,0
252397,388.93,695,751,0
252407,386.08,695,750,0
252417,382.54,695,751,0
252427,377.84,695,750,0
252437,373.00,695,751,0
252447,367.47,695,750,0
252457,362.23,695,751,0
252467,356.63,695,750,0
252477,351.77,695,751,0
252487,346.87,695,750,0
252497,342.88,695,751,0
252507,339.06,695,750,0
252517,336.13,695,751,0
252527,333.39,695,750,0
252537,331.73,695,751,0
252547,330.40,695,750,0
252557,330.06,695,751,0
252567,329.70,695,750,0
252577,330.31,695,751,0
252588,330.94,695,750,0
252598,332.37,695,751,0
252608,333.33,695,750,0
252618,334.86,695,751,0
252628,335.89,695,750,0
252638,337.59,695,751,0
252648,338.44,695,750,0
252658,339.64,695,751,0
252668,340.18,695,750,0
252678,341.58,695,751,0
252688,342.86,695,750,0
252698,345.90,695,751,0
252708,350.18,695,750,0
252718,357.71,695,751,0
252728,368.04,695,750,0
252738,382.77,695,751,0
252748,401.01,695,750,0
252759,423.64,695,751,0
252769,448.43,695,750,0
252779,475.22,695,751,0
252798,501.29,703,749,0
252802,525.85,703,751,0
252811,547.24,703,751,0
252821,564.52,703,751,0
252831,575.42,703,750,0
252841,580.78,703,751,0
252851,579.60,703,750,0
252861,573.68,703,751,0
252871,562.93,703,750,0
252881,548.51,703,751,0
252891,531.26,703,750,0
252901,513.52,703,751,0
252911,495.07,703,750,0
252921,477.73,703,751,0
252931,460.84,703,750,0
252941,446.19,703,751,0
252951,432.72,703,750,0
252961,421.49,703,751,0
252972,411.48,703,750,0
252982,404.05,703,751,0
252992,398.21,703,750,0
253002,395.15,703,751,0
253012,393.39,703,751,0
253022,393.96,703,751,0
253032,395.43,703,750,0
253042,398.56,703,751,0
253052,401.95,703,751,0
253062,406.08,703,751,0
253072,409.44,703,750,0
253082,412.69,703,751,0
253092,414.71,703,751,0
253102,416.17,703,751,0
253112,415.91,703,750,0
253122,414.82,703,751,0
253132,412.13,703,751,0
253143,408.79,703,751,0
253153,404.14,703,750,0
253163,399.13,703,751,0
253173,393.30,703,751,0
253184,387.68,703,751,0
253193,381.82,703,750,0
253203,376.52,703,751,0
253213,371.39,703,751,0
253223,367.03,703,751,0
253233,362.91,703,750,0
253243,359.72,703,751,0
253253,357.10,703,750,0
253263,355.27,703,751,0
253273,353.82,703,750,0
253283,353.06,703,751,0
253293,352.70,703,751,0
253303,353.00,703,751,0
253313,353.43,703,750,0
253323,354.29,703,751,0
253333,355.14,703,751,0
253343,356.17,703,751,0
253353,357.11,703,750,0
253363,358.19,703,751,0
253373,358.95,703,750,0
253383,359.82,703,751,0
253393,360.47,703,750,0
253403,361.53,703,751,0
253413,363.00,703,751,0
253423,365.70,703,751,0
253433,370.08,703,750,0
253443,377.42,703,751,0
253453,387.97,703,750,0
253463,402.85,703,751,0
253473,422.27,703,751,0
253484,446.31,703,751,0
253494,473.91,703,751,0
253504,503.63,703,751,0
253523,533.70,725,749,0
253527,561.95,725,751,0
253535,587.63,725,751,0
253545,608.53,725,751,0
253555,623.50,725,751,0
253565,631.66,725,750,0
253575,633.65,725,751,0
253585,629.60,725,750,0
253595,621.10,725,751,0
253605,607.40,725,750,0
253615,590.65,725,751,0
253625,571.64,725,750,0
253635,552.04,725,751,0
253645,532.18,725,750,0
253655,513.44,725,751,0
253665,495.91,725,751,0
253675,480.68,725,751,0
253685,467.06,725,750,0
253696,455.94,725,751,0
253705,446.92,725,751,0
253715,440.47,725,751,0
253725,435.83,725,750,0
253735,433.57,725,751,0
253745,432.75,725,750,0
253755,433.94,725,751,0
253765,435.97,725,750,0
253775,439.28,725,751,0
253785,442.54,725,750,0
253795,446.15,725,751,0
253805,448.72,725,750,0
253815,450.86,725,751,0
253825,451.80,725,750,0
253835,451.99,725,751,0
253845,450.45,725,750,0
253855,448.00,725,751,0
253865,443.89,725,750,0
253875,439.21,725,751,0
253885,433.27,725,750,0
253895,427.02,725,751,0
253905,420.03,725,750,0
253915,413.29,725,751,0
253925,406.43,725,750,0
253935,400.43,725,751,0
253945,394.56,725,750,0
253955,389.76,725,751,0
253965,385.21,725,750,0
253975,381.80,725,751,0
253985,378.77,725,750,0
253996,376.87,725,751,0
254006,375.20,725,750,0
254016,374.75,725,751,0
254026,374.40,725,750,0
254036,375.09,725,751,0
254046,375.62,725,750,0
254056,376.81,725,751,0
254066,377.55,725,750,0
254076,378.76,725,751,0
254086,379.26,725,750,0
254096,380.17,725,751,0
