Time,PPG,IBI,GSR,GSR_Event
1463553,368.48,894,752,0
1463563,366.45,894,753,0
1463573,363.62,894,754,0
1463583,359.96,894,753,0
1463593,357.27,894,754,0
1463603,354.83,894,754,0
1463613,353.81,894,754,0
1463623,360.47,894,753,0
1463633,370.91,894,754,0
1463643,381.65,894,754,0
1463653,392.13,894,754,0
1463663,400.15,894,753,0
1463673,406.27,894,754,0
1463683,409.36,894,754,0
1463693,410.54,894,754,0
1463703,409.39,894,753,0
1463713,408.29,894,754,0
1463724,408.20,894,753,0
1463734,413.33,894,754,0
1463744,424.97,894,753,0
1463754,447.01,894,754,0
1463764,477.73,894,753,0
1463774,514.97,894,755,0
1463784,555.44,894,754,0
1463803,597.05,833,754,0
1463806,635.91,833,757,0
1463815,669.83,833,757,0
1463825,695.26,833,756,0
1463835,713.18,833,756,0
1463845,725.81,833,756,0
1463855,734.78,833,757,0
1463865,741.15,833,756,0
1463875,745.60,833,756,0
1463885,748.72,833,756,0
1463895,750.91,833,757,0
1463905,750.38,833,756,0
1463915,743.79,833,756,0
1463925,727.78,833,756,0
1463936,701.75,833,756,0
1463945,665.44,833,756,0
1463955,620.09,833,756,0
1463965,566.24,833,756,0
1463975,508.35,833,757,0
1463985,451.16,833,756,0
1463995,401.01,833,756,0
1464005,360.08,833,756,0
1464015,331.17,833,756,0
1464025,313.80,833,756,0
1464035,309.28,833,756,0
1464045,315.28,833,756,0
1464055,331.44,833,756,0
1464065,354.06,833,756,0
1464075,381.90,833,756,0
1464085,411.07,833,756,0
1464095,440.19,833,756,0
1464105,465.64,833,756,0
1464115,486.75,833,756,0
1464125,500.84,833,755,0
1464135,508.51,833,756,0
1464145,508.32,833,756,0
1464155,501.96,833,756,0
1464165,489.12,833,756,0
1464175,472.07,833,756,0
1464185,450.88,833,756,0
1464195,428.46,833,756,0
1464205,404.75,833,756,0
1464215,381.94,833,757,0
1464225,359.76,833,756,0
1464236,340.33,833,756,0
1464246,323.30,833,756,0
1464256,310.14,833,756,0
1464266,299.77,833,756,0
1464276,293.37,833,756,0
1464286,289.91,833,756,0
1464296,290.11,833,756,0
1464306,292.48,833,756,0
1464316,297.43,833,756,0
1464326,303.65,833,756,0
1464336,311.64,833,756,0
1464346,319.93,833,756,0
1464356,328.95,833,756,0
1464366,337.41,833,756,0
1464376,346.54,833,757,0
1464386,354.48,833,756,0
1464396,362.05,833,756,0
1464407,368.25,833,756,0
1464417,374.09,833,756,0
1464427,378.69,833,756,0
1464437,382.73,833,756,0
1464448,384.99,833,756,0
1464457,387.05,833,756,0
1464467,387.98,833,756,0
1464477,388.37,833,756,0
1464487,387.66,833,756,0
1464497,386.35,833,756,0
1464507,383.97,833,756,0
1464517,380.89,833,756,0
1464527,376.94,833,756,0
1464537,373.02,833,756,0
1464547,369.45,833,756,0
1464557,367.99,833,756,0
1464567,370.48,833,756,0
1464577,379.85,833,756,0
1464587,398.97,833,756,0
1464597,429.75,833,756,0
1464607,468.48,833,756,0
1464617,512.48,833,756,0
1464627,558.58,833,756,0
1464637,603.83,833,756,0
1464647,644.85,833,756,0
1464667,678.20,863,755,0
1464670,701.54,863,757,0
1464679,717.88,863,756,0
1464689,729.31,863,756,0
1464699,737.32,863,756,0
1464709,742.92,863,756,0
1464719,746.85,863,756,0
1464729,749.59,863,756,0
1464739,751.51,863,756,0
1464749,752.86,863,756,0
1464759,750.72,863,756,0
1464769,741.76,863,756,0
1464779,723.49,863,756,0
1464790,695.48,863,756,0
1464799,657.97,863,756,0
1464809,611.99,863,756,0
1464819,558.68,863,756,0
1464829,503.23,863,757,0
1464839,450.75,863,756,0
1464849,405.82,863,756,0
1464859,370.61,863,756,0
1464869,346.60,863,756,0
1464879,333.69,863,756,0
1464889,331.68,863,756,0
1464899,338.63,863,756,0
1464909,353.10,863,756,0
1464919,372.53,863,756,0
1464929,394.48,863,756,0
1464939,416.28,863,756,0
1464949,436.25,863,756,0
1464960,452.16,863,755,0
1464969,463.30,863,755,0
1464979,468.57,863,756,0
1464989,468.10,863,756,0
1464999,461.90,863,756,0
1465009,451.08,863,756,0
1465019,435.97,863,756,0
1465029,418.02,863,756,0
1465039,397.83,863,756,0
1465049,376.92,863,756,0
1465059,356.16,863,756,0
1465069,337.08,863,756,0
1465079,319.83,863,756,0
1465089,305.57,863,756,0
1465099,294.47,863,756,0
1465109,287.21,863,757,0
1465119,283.12,863,756,0
1465129,282.27,863,756,0
1465139,283.82,863,756,0
1465149,287.99,863,756,0
1465159,293.78,863,756,0
1465169,301.26,863,756,0
1465179,309.32,863,756,0
1465189,318.05,863,756,0
1465199,326.57,863,756,0
1465209,335.05,863,756,0
1465219,342.71,863,756,0
1465229,349.87,863,756,0
1465239,355.78,863,756,0
1465249,360.99,863,756,0
1465260,365.02,863,755,0
1465270,368.49,863,756,0
1465280,370.74,863,756,0
1465290,372.40,863,756,0
1465300,372.88,863,756,0
1465310,372.87,863,756,0
1465320,371.58,863,756,0
1465330,369.82,863,756,0
1465340,366.70,863,755,0
1465350,363.28,863,756,0
1465360,358.70,863,756,0
1465370,354.16,863,756,0
1465380,348.97,863,756,0
1465390,345.03,863,757,0
1465400,342.71,863,756,0
1465410,345.07,863,756,0
1465420,353.45,863,756,0
1465431,371.70,863,757,0
1465441,401.06,863,756,0
1465451,440.30,863,757,0
1465461,485.42,863,756,0
1465472,533.81,863,757,0
1465481,581.70,863,756,0
1465500,626.27,834,755,0
1465503,663.56,834,756,0
1465512,691.25,834,757,0
1465522,710.63,834,756,0
1465532,724.20,834,757,0
1465542,733.70,834,755,0
1465552,740.35,834,757,0
1465562,745.00,834,756,0
1465572,745.43,834,757,0
1465582,737.63,834,755,0
1465592,720.30,834,756,0
1465602,692.39,834,756,0
1465612,654.69,834,757,0
1465622,607.04,834,755,0
1465632,551.27,834,757,0
1465643,490.93,834,756,0
1465652,432.84,834,757,0
1465662,379.62,834,755,0
1465672,335.12,834,757,0
1465682,299.90,834,756,0
1465692,276.36,834,757,0
1465702,263.39,834,755,0
1465712,261.99,834,756,0
1465722,269.75,834,756,0
1465732,286.37,834,757,0
1465742,308.50,834,755,0
1465752,335.09,834,756,0
1465762,362.58,834,756,0
1465772,390.09,834,756,0
1465782,414.11,834,755,0
1465792,434.22,834,756,0
1465802,448.08,834,755,0
1465812,456.41,834,757,0
1465822,457.88,834,755,0
1465832,454.01,834,757,0
1465842,444.02,834,756,0
1465852,430.39,834,756,0
1465862,413.04,834,755,0
1465872,394.43,834,757,0
1465882,374.29,834,756,0
1465892,354.83,834,757,0
1465902,335.85,834,755,0
1465912,319.48,834,757,0
1465922,304.98,834,756,0
1465932,293.97,834,757,0
1465943,285.41,834,756,0
1465953,280.66,834,756,0
1465963,278.40,834,756,0
1465973,279.44,834,756,0
1465984,282.26,834,756,0
1465993,287.63,834,756,0
1466003,293.74,834,756,0
1466013,301.45,834,756,0
1466023,309.03,834,756,0
1466033,317.33,834,756,0
1466043,324.86,834,756,0
1466053,332.45,834,756,0
1466063,338.83,834,756,0
1466073,345.18,834,756,0
1466083,350.01,834,756,0
1466093,354.38,834,756,0
1466103,357.22,834,755,0
1466113,359.90,834,756,0
1466123,361.26,834,756,0
1466133,362.42,834,756,0
1466143,362.55,834,756,0
1466153,362.56,834,756,0
1466163,361.53,834,756,0
1466173,360.52,834,756,0
1466183,358.30,834,756,0
1466193,356.16,834,756,0
1466203,352.98,834,756,0
1466213,349.64,834,756,0
1466223,345.59,834,756,0
1466233,342.24,834,756,0
1466243,339.17,834,756,0
1466253,338.82,834,756,0
1466263,342.00,834,756,0
1466273,352.16,834,756,0
1466284,370.84,834,756,0
1466294,401.23,834,756,0
1466304,440.59,834,756,0
1466314,486.18,834,756,0
1466324,534.30,834,756,0
1466343,582.25,843,754,0
1466346,626.28,843,757,0
1466355,663.65,843,756,0
1466365,691.27,843,756,0
1466375,710.65,843,756,0
1466385,724.21,843,756,0
1466395,733.70,843,756,0
1466405,740.35,843,756,0
1466415,744.10,843,757,0
1466425,740.99,843,756,0
1466435,728.95,843,756,0
1466445,706.46,843,756,0
1466455,674.10,843,756,0
1466465,631.81,843,756,0
1466475,580.87,843,756,0
1466485,523.14,843,756,0
1466496,464.81,843,756,0
1466505,409.84,843,756,0
1466515,362.19,843,756,0
1466525,323.04,843,756,0
1466535,294.45,843,756,0
1466545,276.35,843,756,0
1466555,269.26,843,756,0
1466565,272.27,843,756,0
1466575,284.49,843,756,0
1466585,303.46,843,756,0
1466595,327.53,843,755,0
1466605,354.12,843,756,0
1466615,381.60,843,756,0
1466625,407.60,843,756,0
1466635,430.74,843,756,0
1466645,448.94,843,756,0
1466655,461.90,843,756,0
1466665,468.83,843,756,0
1466675,470.21,843,756,0
1466685,465.86,843,756,0
1466695,456.73,843,756,0
1466705,443.23,843,756,0
1466715,427.26,843,756,0
1466725,409.44,843,756,0
1466735,391.05,843,756,0
1466745,372.65,843,756,0
1466755,355.40,843,756,0
1466765,339.72,843,756,0
1466775,326.56,843,756,0
1466785,315.81,843,756,0
1466796,308.07,843,756,0
1466806,303.25,843,756,0
1466816,301.29,843,756,0
1466826,301.93,843,756,0
1466836,304.82,843,756,0
1466846,309.42,843,756,0
1466856,315.38,843,756,0
1466866,322.12,843,756,0
1466876,329.20,843,756,0
1466886,336.51,843,756,0
1466896,343.69,843,756,0
1466906,350.64,843,756,0
1466916,356.96,843,756,0
1466926,362.63,843,756,0
1466936,367.46,843,756,0
1466946,371.60,843,756,0
1466956,374.64,843,756,0
1466967,376.80,843,756,0
1466977,377.89,843,756,0
1466987,378.22,843,756,0
1466997,377.43,843,756,0
1467008,376.06,843,756,0
1467017,373.81,843,756,0
1467027,371.34,843,756,0
1467037,368.02,843,756,0
1467047,364.46,843,756,0
1467057,360.29,843,756,0
1467067,356.22,843,756,0
1467077,351.70,843,756,0
1467087,347.67,843,756,0
1467097,344.17,843,756,0
1467107,343.13,843,756,0
1467117,345.88,843,756,0
1467127,355.13,843,756,0
1467137,372.36,843,756,0
1467147,400.33,843,756,0
1467157,437.94,843,756,0
1467167,482.06,843,756,0
1467177,529.18,843,756,0
1467187,576.36,843,756,0
1467206,620.14,863,755,0
1467209,658.11,863,758,0
1467218,687.31,863,756,0
1467228,707.79,863,757,0
1467238,722.08,863,756,0
1467248,732.13,863,756,0
1467258,739.12,863,756,0
1467268,744.05,863,757,0
1467278,742.79,863,756,0
1467288,733.17,863,756,0
1467298,713.36,863,755,0
1467308,684.07,863,756,0
1467318,644.92,863,756,0
1467328,597.07,863,756,0
1467338,541.12,863,756,0
1467348,483.87,863,757,0
1467358,429.22,863,756,0
1467368,381.63,863,756,0
1467378,341.97,863,756,0
1467388,312.92,863,757,0
1467398,294.39,863,756,0
1467408,287.33,863,756,0
1467418,290.06,863,755,0
1467428,302.43,863,756,0
1467438,321.24,863,755,0
1467448,345.64,863,756,0
1467458,372.45,863,755,0
1467468,400.56,863,756,0
1467479,426.70,863,756,0
1467489,450.11,863,756,0
1467499,467.77,863,755,0
1467509,480.23,863,756,0
1467520,485.65,863,756,0
1467529,485.32,863,756,0
1467539,478.37,863,756,0
1467549,466.77,863,757,0
1467559,450.43,863,756,0
1467569,431.96,863,756,0
1467579,411.44,863,756,0
1467589,391.25,863,757,0
1467599,370.90,863,756,0
1467609,352.63,863,756,0
1467619,336.03,863,755,0
1467629,322.82,863,756,0
1467639,312.12,863,756,0
1467649,305.31,863,756,0
1467659,301.19,863,756,0
1467669,300.79,863,757,0
1467679,302.48,863,756,0
1467689,307.22,863,756,0
1467699,313.24,863,756,0
1467709,321.18,863,756,0
1467719,329.31,863,756,0
1467729,338.43,863,756,0
1467739,346.88,863,756,0
1467749,355.53,863,756,0
1467759,362.91,863,756,0
1467769,370.14,863,756,0
1467779,375.93,863,755,0
1467789,381.52,863,756,0
1467799,385.43,863,756,0
1467809,389.08,863,756,0
1467820,391.24,863,755,0
1467830,393.22,863,756,0
1467840,393.71,863,756,0
1467850,394.06,863,756,0
1467860,392.88,863,755,0
1467870,391.72,863,757,0
1467880,389.06,863,756,0
1467890,386.34,863,756,0
1467900,382.25,863,756,0
1467910,378.36,863,757,0
1467920,373.41,863,756,0
1467930,369.00,863,756,0
1467940,364.42,863,756,0
1467950,362.11,863,756,0
1467960,362.33,863,756,0
1467970,368.40,863,756,0
1467980,381.52,863,755,0
1467991,405.15,863,756,0
1468001,438.96,863,756,0
1468011,480.12,863,757,0
1468021,524.91,863,756,0
1468032,571.05,863,757,0
1468041,614.88,863,756,0
1468060,653.74,854,754,0
1468063,684.34,854,757,0
1468072,705.79,854,756,0
1468082,720.81,854,756,0
1468092,731.37,854,756,0
1468102,738.71,854,756,0
1468112,743.86,854,756,0
1468122,743.56,854,756,0
1468132,735.59,854,756,0
1468142,717.63,854,755,0
1468152,689.67,854,756,0
1468162,651.80,854,756,0
1468172,605.31,854,756,0
1468182,550.71,854,756,0
1468192,493.67,854,756,0
1468203,438.18,854,756,0
1468212,389.14,854,756,0
1468222,348.26,854,755,0
1468232,317.84,854,756,0
1468242,298.04,854,756,0
1468252,289.84,854,756,0
1468262,292.08,854,755,0
1468272,304.48,854,756,0
1468282,324.57,854,756,0
1468292,350.97,854,756,0
1468302,380.46,854,755,0
1468312,411.44,854,756,0
1468322,440.79,854,756,0
1468332,467.34,854,756,0
1468342,488.32,854,755,0
1468352,503.31,854,756,0
1468362,510.76,854,756,0
1468372,511.35,854,756,0
1468382,504.81,854,756,0
1468392,492.91,854,756,0
1468402,475.84,854,756,0
1468412,455.79,854,756,0
1468422,433.52,854,756,0
1468432,411.34,854,756,0
1468442,389.64,854,756,0
1468452,369.86,854,756,0
1468462,352.46,854,756,0
1468472,338.39,854,756,0
1468482,327.26,854,756,0
1468492,319.90,854,756,0
1468503,315.56,854,756,0
1468513,314.75,854,756,0
1468523,316.58,854,756,0
1468533,320.82,854,756,0
1468544,326.83,854,756,0
1468553,334.68,854,756,0
1468563,343.26,854,756,0
1468573,352.53,854,756,0
1468583,361.58,854,756,0
1468593,370.49,854,756,0
1468603,378.66,854,756,0
1468613,386.18,854,756,0
1468623,392.64,854,756,0
1468633,398.27,854,756,0
1468643,402.82,854,756,0
1468653,406.56,854,756,0
1468663,409.39,854,756,0
1468673,411.59,854,756,0
1468683,412.91,854,756,0
1468693,413.58,854,756,0
1468703,413.24,854,756,0
1468713,411.96,854,756,0
1468723,409.62,854,756,0
1468733,406.39,854,756,0
1468743,402.12,854,756,0
1468753,397.28,854,756,0
1468763,392.10,854,756,0
1468773,387.70,854,756,0
1468783,385.39,854,756,0
1468793,386.99,854,756,0
1468803,394.10,854,756,0
1468813,409.76,854,756,0
1468823,435.85,854,756,0
1468833,470.78,854,756,0
1468844,511.30,854,756,0
1468854,554.50,854,756,0
1468864,597.50,854,756,0
1468874,637.72,854,756,0
1468894,671.75,833,754,0
1468897,696.98,833,758,0
1468906,714.64,833,757,0
1468916,726.97,833,756,0
1468926,735.59,833,757,0
1468936,741.63,833,756,0
1468946,745.85,833,757,0
1468956,747.65,833,756,0
1468966,743.94,833,756,0
1468976,731.88,833,756,0
1468986,710.44,833,756,0
1468996,678.89,833,755,0
1469006,638.21,833,756,0
1469016,588.95,833,756,0
1469026,534.02,833,756,0
1469036,478.13,833,756,0
1469046,426.70,833,756,0
1469057,382.52,833,756,0
1469067,349.02,833,756,0
1469077,326.34,833,755,0
1469087,316.00,833,757,0
1469097,316.51,833,756,0
1469107,327.54,833,756,0
1469117,346.32,833,755,0
1469127,371.68,833,756,0
1469137,399.68,833,756,0
1469147,429.00,833,756,0
1469157,455.70,833,755,0
1469167,478.93,833,756,0
1469177,495.97,833,755,0
1469187,506.99,833,756,0
1469197,510.21,833,755,0
1469207,507.23,833,756,0
1469217,497.31,833,755,0
1469228,482.94,833,756,0
1469238,464.06,833,755,0
1469248,443.43,833,756,0
1469258,420.97,833,756,0
1469268,399.34,833,757,0
1469278,378.02,833,755,0
1469288,359.20,833,757,0
1469298,342.21,833,756,0
1469308,328.99,833,756,0
1469318,318.41,833,755,0
1469328,311.94,833,756,0
1469338,308.10,833,756,0
1469348,307.99,833,756,0
1469358,309.96,833,755,0
1469368,314.94,833,756,0
1469378,320.92,833,755,0
1469388,329.00,833,756,0
1469399,337.19,833,755,0
1469409,346.34,833,756,0
1469419,354.90,833,756,0
1469429,363.84,833,756,0
1469440,371.52,833,755,0
1469449,379.33,833,756,0
1469459,385.49,833,755,0
1469469,391.30,833,756,0
1469479,395.41,833,755,0
1469489,399.06,833,756,0
1469499,400.97,833,756,0
1469509,402.48,833,756,0
1469519,402.42,833,755,0
1469529,402.25,833,756,0
1469539,400.76,833,756,0
1469549,399.12,833,756,0
1469559,396.08,833,755,0
1469569,392.97,833,756,0
1469579,388.78,833,756,0
1469589,384.69,833,756,0
1469599,379.55,833,755,0
1469609,374.93,833,756,0
1469619,370.24,833,756,0
1469629,367.89,833,757,0
1469639,368.27,833,755,0
1469649,374.79,833,756,0
1469659,388.48,833,756,0
1469669,413.45,833,757,0
1469679,447.94,833,756,0
1469689,489.40,833,756,0
1469699,534.15,833,756,0
1469709,579.92,833,757,0
1469719,622.85,833,756,0
1469739,660.56,845,754,0
1469742,689.11,845,757,0
1469751,709.13,845,756,0
1469761,723.11,845,756,0
1469771,732.89,845,756,0
1469782,739.74,845,756,0
1469791,744.53,845,756,0
1469801,747.84,845,756,0
1469811,750.20,845,756,0
1469821,751.86,845,756,0
1469831,749.20,845,756,0
1469841,739.03,845,756,0
1469851,719.95,845,756,0
1469861,691.42,845,756,0
1469871,654.31,845,756,0
1469881,609.09,845,756,0
1469891,557.33,845,756,0
1469901,504.26,845,756,0
1469911,455.24,845,756,0
1469921,413.25,845,756,0
1469931,380.86,845,756,0
1469941,358.45,845,756,0
1469952,346.83,845,756,0
1469961,344.82,845,756,0
1469971,351.56,845,756,0
1469981,364.64,845,756,0
1469991,382.53,845,756,0
1470001,402.56,845,756,0
1470011,422.96,845,755,0
1470021,441.32,845,756,0
1470031,456.44,845,756,0
1470041,466.85,845,756,0
1470051,472.38,845,755,0
1470061,472.35,845,756,0
1470071,467.23,845,756,0
1470081,457.22,845,756,0
1470091,443.61,845,755,0
1470101,427.06,845,756,0
1470111,409.04,845,756,0
1470121,390.34,845,756,0
1470131,372.28,845,756,0
1470141,355.31,845,756,0
1470151,340.48,845,756,0
1470161,327.90,845,756,0
1470171,318.29,845,755,0
1470181,311.43,845,756,0
1470191,307.57,845,756,0
1470201,306.29,845,756,0
1470211,307.62,845,756,0
1470221,310.90,845,756,0
1470231,316.12,845,756,0
1470241,322.51,845,756,0
1470252,329.90,845,755,0
1470262,337.64,845,756,0
1470272,345.42,845,756,0
1470282,353.01,845,756,0
1470292,360.21,845,755,0
1470302,366.70,845,756,0
1470312,372.58,845,756,0
1470322,377.68,845,756,0
1470332,381.89,845,755,0
1470342,385.39,845,756,0
1470352,388.02,845,756,0
1470362,389.98,845,756,0
1470372,391.06,845,755,0
1470382,391.51,845,756,0
1470392,391.15,845,756,0
1470402,390.37,845,756,0
1470412,388.85,845,756,0
1470423,386.96,845,756,0
1470433,384.36,845,756,0
1470443,381.55,845,756,0
1470453,377.83,845,755,0
1470464,373.94,845,756,0
1470473,369.37,845,756,0
1470483,364.93,845,756,0
1470493,360.41,845,755,0
1470503,357.33,845,756,0
1470513,356.46,845,756,0
1470523,360.74,845,756,0
1470533,371.96,845,755,0
1470543,393.70,845,756,0
1470553,426.57,845,756,0
1470563,467.37,845,757,0
1470573,512.69,845,756,0
1470583,559.93,845,756,0
1470602,605.63,864,755,0
1470605,646.76,864,757,0
1470614,679.53,864,756,0
1470624,702.47,864,756,0
1470635,718.53,864,756,0
1470644,729.77,864,757,0
1470654,737.64,864,756,0
1470664,743.15,864,756,0
1470674,747.00,864,756,0
1470684,749.70,864,757,0
1470694,748.55,864,756,0
1470704,740.84,864,756,0
1470714,723.96,864,756,0
1470724,698.09,864,756,0
1470734,662.70,864,756,0
1470744,618.95,864,756,0
1470754,567.41,864,756,0
1470764,513.11,864,756,0
1470774,460.15,864,756,0
1470784,413.52,864,756,0
1470794,374.28,864,756,0
1470804,345.31,864,756,0
1470814,326.14,864,756,0
1470824,317.74,864,756,0
1470834,318.12,864,755,0
1470844,327.17,864,756,0
1470854,342.03,864,755,0
1470864,361.91,864,756,0
1470874,383.41,864,756,0
1470884,405.74,864,756,0
1470894,425.92,864,755,0
1470904,443.39,864,756,0
1470914,455.66,864,755,0
1470924,463.30,864,756,0
1470935,464.80,864,756,0
1470945,461.26,864,756,0
1470955,451.97,864,755,0
1470965,438.99,864,756,0
1470976,422.45,864,756,0
1470985,404.83,864,756,0
1470995,385.90,864,756,0
1471005,367.93,864,757,0
1471015,350.63,864,756,0
1471025,336.04,864,756,0
1471035,323.35,864,756,0
1471045,314.28,864,757,0
1471055,307.47,864,756,0
1471065,304.24,864,756,0
1471075,303.06,864,755,0
1471085,305.10,864,756,0
1471095,308.54,864,756,0
1471105,314.42,864,756,0
1471115,320.81,864,756,0
1471125,328.67,864,756,0
1471135,336.22,864,756,0
1471145,344.51,864,756,0
1471155,351.82,864,755,0
1471165,359.29,864,756,0
1471175,365.41,864,756,0
1471185,371.29,864,756,0
1471195,375.62,864,756,0
1471205,379.63,864,756,0
1471215,381.93,864,755,0
1471225,383.96,864,756,0
1471235,384.49,864,755,0
1471245,384.94,864,756,0
1471255,384.02,864,755,0
1471265,383.03,864,756,0
1471276,380.83,864,755,0
1471286,379.00,864,756,0
1471296,376.04,864,756,0
1471306,373.37,864,756,0
1471316,369.66,864,756,0
1471326,366.42,864,757,0
1471336,362.26,864,756,0
1471346,358.46,864,756,0
1471356,353.78,864,756,0
1471366,349.82,864,756,0
1471376,345.58,864,756,0
1471386,342.88,864,756,0
1471396,341.59,864,755,0
1471406,344.63,864,756,0
1471416,353.05,864,756,0
1471426,370.87,864,756,0
1471436,399.15,864,756,0
1471447,437.42,864,756,0
1471457,481.65,864,756,0
1471467,529.33,864,756,0
1471486,576.93,884,755,0
1471490,621.78,884,757,0
1471499,659.77,884,756,0
1471509,688.60,884,756,0
1471519,708.78,884,756,0
1471529,722.90,884,756,0
1471539,732.79,884,756,0
1471549,739.67,884,756,0
1471559,744.52,884,756,0
1471569,745.52,884,756,0
1471579,739.67,884,756,0
1471589,724.72,884,756,0
1471599,699.48,884,756,0
1471609,664.19,884,756,0
1471619,619.56,884,756,0
1471629,566.94,884,756,0
1471639,509.78,884,756,0
1471649,453.28,884,756,0
1471660,401.72,884,756,0
1471670,358.56,884,756,0
1471680,325.48,884,756,0
1471690,303.39,884,756,0
1471700,292.30,884,756,0
1471710,291.78,884,756,0
1471720,300.46,884,756,0
1471730,316.65,884,756,0
1471740,338.31,884,756,0
1471750,363.12,884,756,0
1471760,388.88,884,756,0
1471770,413.30,884,756,0
1471780,434.86,884,756,0
1471790,452.04,884,756,0
1471800,463.60,884,755,0
1471810,469.08,884,756,0
1471820,468.58,884,756,0
1471831,462.32,884,756,0
1471841,451.25,884,756,0
1471851,435.92,884,756,0
1471861,417.99,884,756,0
1471872,398.66,884,756,0
1471881,379.18,884,756,0
1471891,360.18,884,756,0
1471901,342.94,884,756,0
1471911,327.66,884,756,0
1471921,315.55,884,756,0
1471931,306.25,884,756,0
1471941,300.56,884,757,0
1471951,297.61,884,756,0
1471961,297.81,884,756,0
1471971,300.18,884,756,0
1471981,305.10,884,756,0
1471991,311.28,884,756,0
1472001,319.00,884,756,0
1472011,327.06,884,756,0
1472021,335.74,884,756,0
1472031,343.92,884,756,0
1472041,352.09,884,756,0
1472051,359.17,884,756,0
1472061,365.76,884,756,0
1472071,371.02,884,756,0
1472081,375.60,884,756,0
1472091,378.93,884,756,0
1472101,381.61,884,756,0
1472111,382.93,884,756,0
1472121,383.81,884,756,0
1472131,383.56,884,755,0
1472141,383.10,884,756,0
1472151,381.61,884,756,0
1472161,379.93,884,756,0
1472172,377.25,884,756,0
1472182,374.56,884,756,0
1472192,370.66,884,756,0
1472202,366.82,884,756,0
1472212,361.86,884,756,0
1472222,357.06,884,756,0
1472232,351.56,884,756,0
1472242,347.06,884,756,0
1472252,343.40,884,756,0
1472262,343.28,884,756,0
1472272,347.48,884,756,0
1472282,359.59,884,756,0
1472292,381.02,884,756,0
1472302,414.14,884,756,0
1472312,455.28,884,756,0
1472322,501.66,884,756,0
1472332,549.63,884,756,0
1472352,596.54,866,754,0
1472355,638.68,866,756,0
1472364,673.32,866,756,0
1472374,698.12,866,756,0
1472385,715.49,866,756,0
1472395,727.64,866,756,0
1472405,736.15,866,756,0
1472415,741.89,866,756,0
1472425,741.54,866,756,0
1472435,732.42,866,756,0
1472445,713.52,866,756,0
1472455,683.92,866,756,0
1472465,644.60,866,756,0
1472475,596.08,866,756,0
1472485,540.21,866,756,0
1472495,481.95,866,756,0
1472505,426.81,866,756,0
1472515,377.28,866,756,0
1472525,337.17,866,756,0
1472535,306.69,866,756,0
1472545,287.67,866,756,0
1472556,279.20,866,756,0
1472566,282.05,866,756,0
1472576,293.78,866,756,0
1472586,313.82,866,756,0
1472596,338.94,866,756,0
1472606,368.06,866,756,0
1472616,397.53,866,755,0
1472626,426.17,866,756,0
1472636,450.89,866,756,0
1472646,471.28,866,756,0
1472656,485.34,866,756,0
1472666,493.17,866,756,0
1472676,493.89,866,756,0
1472686,488.91,866,756,0
1472696,477.96,866,755,0
1472706,462.93,866,756,0
1472716,444.01,866,756,0
1472727,423.31,866,756,0
1472737,401.49,866,756,0
1472747,380.38,866,756,0
1472757,360.38,866,756,0
1472768,343.00,866,756,0
1472777,328.30,866,755,0
1472787,317.58,866,756,0
1472797,310.51,866,756,0
1472807,307.44,866,756,0
1472817,307.52,866,755,0
1472827,310.79,866,756,0
1472837,316.43,866,756,0
1472847,324.23,866,756,0
1472857,332.99,866,755,0
1472867,342.46,866,756,0
1472877,351.97,866,756,0
1472887,361.36,866,756,0
1472897,369.95,866,755,0
1472907,377.94,866,756,0
1472917,384.69,866,756,0
1472927,390.44,866,756,0
1472937,394.93,866,756,0
1472947,398.34,866,756,0
1472957,400.38,866,756,0
1472967,401.42,866,756,0
1472977,401.17,866,755,0
1472987,400.17,866,756,0
1472997,398.15,866,756,0
1473007,395.45,866,756,0
1473017,391.97,866,755,0
1473027,388.34,866,756,0
1473037,384.46,866,756,0
1473047,380.64,866,756,0
1473057,376.59,866,755,0
1473068,372.56,866,756,0
1473078,368.49,866,756,0
1473088,364.44,866,756,0
1473098,360.50,866,756,0
1473108,356.70,866,756,0
1473118,353.54,866,756,0
1473128,351.70,866,756,0
1473138,352.78,866,756,0
1473148,358.37,866,756,0
1473158,370.52,866,756,0
1473168,391.28,866,756,0
1473178,422.57,866,756,0
1473188,461.87,866,756,0
1473198,506.14,866,756,0
1473208,552.21,866,756,0
1473227,597.19,875,754,0
1473230,638.28,875,756,0
1473239,672.52,875,756,0
1473249,697.56,875,756,0
1473259,715.10,875,756,0
1473269,727.37,875,756,0
1473280,735.96,875,757,0
1473289,741.97,875,756,0
1473299,742.75,875,756,0
1473309,735.07,875,755,0
1473319,717.60,875,756,0
1473329,689.91,875,755,0
1473339,652.56,875,756,0
1473349,605.90,875,755,0
1473359,551.58,875,756,0
1473369,494.02,875,756,0
1473379,438.77,875,756,0
1473389,388.91,875,755,0
1473399,347.20,875,756,0
1473409,314.48,875,756,0
1473419,292.35,875,756,0
1473429,280.20,875,755,0
1473439,278.47,875,756,0
1473449,285.57,875,755,0
1473459,300.79,875,756,0
1473469,321.68,875,755,0
1473479,347.06,875,756,0
1473489,374.00,875,755,0
1473499,401.26,875,756,0
1473509,425.95,875,755,0
1473519,447.27,875,756,0
1473529,463.04,875,755,0
1473539,473.23,875,756,0
1473549,476.85,875,755,0
1473559,474.84,875,756,0
1473569,466.66,875,756,0
1473580,454.16,875,756,0
1473590,437.44,875,755,0
1473600,418.88,875,756,0
1473610,398.64,875,756,0
1473620,378.61,875,756,0
1473630,358.97,875,755,0
1473640,341.75,875,756,0
1473650,326.70,875,756,0
1473660,315.52,875,756,0
1473670,307.13,875,756,0
1473680,302.85,875,756,0
1473690,301.27,875,756,0
1473700,303.37,875,756,0
1473710,307.42,875,755,0
1473720,314.02,875,756,0
1473730,321.34,875,755,0
1473740,330.28,875,756,0
1473751,339.11,875,755,0
1473761,348.94,875,756,0
1473771,357.78,875,755,0
1473781,366.76,875,756,0
1473792,374.29,875,755,0
1473801,381.66,875,756,0
1473811,387.29,875,755,0
1473821,392.43,875,756,0
1473831,395.69,875,755,0
1473841,398.57,875,757,0
1473851,399.51,875,756,0
1473861,400.00,875,757,0
1473871,398.59,875,755,0
1473881,396.78,875,757,0
1473891,393.38,875,756,0
1473901,389.92,875,757,0
1473911,385.19,875,755,0
1473921,381.10,875,756,0
1473931,376.96,875,756,0
1473941,375.43,875,757,0
1473951,376.54,875,755,0
1473961,383.75,875,757,0
1473971,397.37,875,756,0
1473981,420.96,875,757,0
1473991,454.06,875,755,0
1474001,494.03,875,757,0
1474011,537.05,875,756,0
1474021,581.09,875,757,0
1474031,622.38,875,755,0
1474041,659.16,875,757,0
1474060,688.13,833,755,0
1474063,708.40,833,758,0
1474072,722.55,833,756,0
1474082,732.46,833,757,0
1474092,737.76,833,756,0
1474102,736.46,833,757,0
1474112,725.74,833,756,0
1474122,705.07,833,756,0
1474132,673.94,833,756,0
1474142,633.71,833,756,0
1474152,584.30,833,756,0
1474162,529.31,833,757,0
1474172,472.35,833,756,0
1474182,419.14,833,757,0
1474192,371.44,833,756,0
1474202,332.65,833,757,0
1474212,302.59,833,756,0
1474222,283.55,833,757,0
1474232,274.34,833,756,0
1474242,276.04,833,756,0
1474252,286.14,833,756,0
1474263,304.79,833,756,0
1474273,328.85,833,756,0
1474283,357.61,833,756,0
1474293,387.60,833,756,0
1474304,417.68,833,756,0
1474313,444.60,833,756,0
1474323,467.78,833,756,0
1474333,484.47,833,756,0
1474343,494.79,833,756,0
1474353,497.34,833,756,0
1474363,493.68,833,756,0
1474373,483.45,833,756,0
1474383,468.66,833,756,0
1474393,449.69,833,756,0
1474403,429.12,833,756,0
1474413,407.32,833,756,0
1474423,386.48,833,756,0
1474433,366.41,833,756,0
1474443,349.23,833,756,0
1474453,334.46,833,756,0
1474463,323.44,833,757,0
1474473,315.50,833,756,0
1474483,311.62,833,756,0
1474493,310.49,833,756,0
1474503,312.83,833,756,0
1474513,317.21,833,756,0
1474523,324.05,833,756,0
1474533,331.79,833,756,0
1474543,340.85,833,756,0
1474553,349.85,833,756,0
1474563,359.63,833,756,0
1474573,368.74,833,756,0
1474583,377.56,833,757,0
1474593,384.93,833,756,0
1474604,391.68,833,756,0
1474614,396.66,833,756,0
1474624,400.58,833,756,0
1474634,402.25,833,756,0
1474644,402.56,833,756,0
1474654,400.93,833,756,0
1474664,398.38,833,756,0
1474674,394.54,833,756,0
1474684,390.39,833,756,0
1474694,386.07,833,756,0
1474704,383.22,833,756,0
1474714,382.90,833,756,0
1474724,387.39,833,755,0
1474734,398.11,833,756,0
1474744,417.71,833,756,0
1474754,447.11,833,756,0
1474764,484.23,833,756,0
1474775,525.78,833,757,0
1474785,568.96,833,756,0
1474804,610.76,744,755,0
1474807,648.72,744,756,0
1474817,679.92,744,757,0
1474827,702.70,744,756,0
1474837,718.65,744,757,0
1474847,729.81,744,755,0
1474857,736.81,744,757,0
1474867,736.91,744,756,0
1474877,728.37,744,757,0
1474887,709.31,744,755,0
1474897,680.03,744,757,0
1474907,640.51,744,756,0
1474917,591.63,744,756,0
1474927,534.91,744,755,0
1474937,475.84,744,757,0
1474947,418.11,744,756,0
1474957,366.09,744,757,0
1474967,321.15,744,755,0
1474977,285.75,744,756,0
1474988,260.41,744,756,0
1474998,246.53,744,757,0
1475008,243.11,744,755,0
1475018,250.37,744,756,0
1475028,266.20,744,756,0
1475038,289.75,744,756,0
1475048,317.90,744,755,0
1475058,349.60,744,756,0
1475068,381.43,744,756,0
1475078,412.29,744,757,0
1475088,438.99,744,755,0
1475098,461.02,744,756,0
1475108,476.23,744,756,0
1475118,485.29,744,756,0
1475128,486.87,744,755,0
1475138,482.45,744,756,0
1475148,471.65,744,756,0
1475159,456.75,744,757,0
1475169,437.80,744,756,0
1475179,417.42,744,757,0
1475189,395.61,744,756,0
1475200,374.55,744,757,0
1475209,354.16,744,755,0
1475219,336.45,744,757,0
1475229,320.97,744,756,0
1475239,309.20,744,757,0
1475249,300.14,744,756,0
1475259,295.04,744,757,0
1475269,292.46,744,756,0
1475279,293.48,744,757,0
1475289,296.38,744,756,0
1475299,301.92,744,757,0
1475309,308.54,744,756,0
1475319,317.00,744,757,0
1475329,325.57,744,755,0
1475339,335.25,744,756,0
1475349,344.39,744,756,0
1475359,353.92,744,757,0
1475369,362.17,744,756,0
1475379,370.18,744,756,0
1475389,376.42,744,756,0
1475399,382.08,744,757,0
1475409,385.66,744,756,0
1475419,388.20,744,756,0
1475429,388.49,744,756,0
1475439,387.87,744,756,0
1475449,385.21,744,756,0
1475459,382.36,744,756,0
1475469,378.61,744,755,0
1475479,376.50,744,757,0
1475489,376.35,744,756,0
1475500,381.60,744,756,0
1475510,393.25,744,756,0
1475520,414.90,744,757,0
1475530,446.35,744,756,0
1475540,485.37,744,756,0
1475550,528.20,744,756,0
1475569,572.63,765,754,0
1475572,614.95,765,756,0
1475581,653.02,765,756,0
1475591,683.49,765,756,0
1475601,705.20,765,757,0
1475611,720.40,765,756,0
1475621,731.03,765,756,0
1475631,737.67,765,756,0
1475641,737.98,765,756,0
1475651,729.33,765,756,0
1475661,710.80,765,756,0
1475671,682.06,765,756,0
1475681,643.64,765,756,0
1475691,595.62,765,756,0
1475701,540.19,765,756,0
1475712,481.51,765,756,0
1475721,424.91,765,757,0
1475731,372.95,765,756,0
1475741,328.74,765,756,0
1475751,293.42,765,756,0
1475761,269.21,765,756,0
1475771,255.99,765,756,0
1475781,254.75,765,756,0
1475791,263.95,765,756,0
1475801,283.21,765,756,0
1475811,309.68,765,756,0
1475821,342.13,765,756,0
1475831,377.49,765,756,0
1475841,413.94,765,756,0
1475851,448.20,765,756,0
1475861,478.91,765,756,0
1475871,503.54,765,756,0
1475881,521.59,765,756,0
1475891,531.57,765,756,0
1475901,533.93,765,756,0
1475911,528.51,765,756,0
1475921,516.91,765,756,0
1475931,499.62,765,756,0
1475941,478.91,765,756,0
1475951,455.45,765,756,0
1475961,431.14,765,756,0
1475971,406.63,765,756,0
1475981,383.68,765,756,0
1475991,362.39,765,756,0
1476001,343.97,765,756,0
1476012,328.43,765,756,0
1476022,316.73,765,756,0
1476032,308.54,765,756,0
1476042,304.26,765,756,0
1476052,303.24,765,756,0
1476062,305.48,765,756,0
1476072,310.14,765,756,0
1476082,316.95,765,756,0
1476092,325.24,765,756,0
1476102,334.81,765,756,0
1476112,344.85,765,756,0
1476122,355.10,765,756,0
1476132,364.97,765,756,0
1476142,374.41,765,756,0
1476152,382.68,765,756,0
1476162,389.59,765,756,0
1476172,394.73,765,756,0
1476183,398.41,765,756,0
1476193,400.64,765,756,0
1476203,402.12,765,756,0
1476213,403.80,765,756,0
1476224,407.46,765,756,0
1476233,414.78,765,756,0
1476243,428.26,765,756,0
1476253,449.82,765,756,0
1476263,480.09,765,756,0
1476273,516.24,765,756,0
1476283,555.55,765,756,0
1476293,595.50,765,757,0
1476303,633.66,765,756,0
1476322,667.24,753,754,0
1476325,693.78,753,757,0
1476334,712.40,753,757,0
1476344,725.44,753,756,0
1476354,734.56,753,756,0
1476364,738.42,753,756,0
1476374,734.65,753,756,0
1476384,721.04,753,756,0
1476395,697.03,753,756,0
1476404,662.61,753,756,0
1476414,618.45,753,757,0
1476424,564.92,753,756,0
1476434,506.10,753,756,0
1476444,446.50,753,756,0
1476454,390.81,753,757,0
1476464,341.45,753,756,0
1476474,300.90,753,756,0
1476484,270.03,753,756,0
1476494,250.65,753,757,0
1476504,242.35,753,756,0
1476514,245.38,753,756,0
1476524,257.95,753,756,0
1476534,279.31,753,756,0
1476544,306.82,753,755,0
1476554,339.19,753,756,0
1476564,373.07,753,756,0
1476574,406.69,753,756,0
1476584,437.00,753,756,0
1476594,462.84,753,756,0
1476604,482.00,753,756,0
1476614,494.26,753,756,0
1476624,498.51,753,756,0
1476634,495.96,753,756,0
1476644,486.37,753,756,0
1476654,471.60,753,756,0
1476664,452.44,753,756,0
1476674,431.13,753,756,0
1476684,408.16,753,756,0
1476695,385.57,753,757,0
1476705,363.42,753,756,0
1476715,343.75,753,756,0
1476725,326.21,753,756,0
1476736,312.22,753,756,0
1476745,300.97,753,756,0
1476755,293.65,753,756,0
1476765,289.04,753,756,0
1476775,288.00,753,757,0
1476785,288.99,753,756,0
1476795,292.68,753,756,0
1476805,297.44,753,756,0
1476815,304.04,753,756,0
1476825,310.84,753,756,0
1476835,318.69,753,756,0
1476845,326.41,753,756,0
1476855,334.90,753,756,0
1476865,342.86,753,756,0
1476875,351.17,753,756,0
1476885,358.36,753,756,0
1476895,365.58,753,757,0
1476905,371.32,753,756,0
1476915,376.37,753,756,0
1476925,379.43,753,756,0
1476935,381.57,753,756,0
1476945,381.66,753,756,0
1476955,381.20,753,756,0
1476965,379.17,753,756,0
1476975,377.45,753,756,0
1476985,376.20,753,756,0
1476995,378.07,753,756,0
1477005,384.22,753,755,0
1477015,398.30,753,757,0
1477025,421.52,753,756,0
1477036,454.84,753,757,0
1477046,494.44,753,756,0
1477065,537.81,743,754,0
1477068,581.71,743,757,0
1477078,623.71,743,756,0
1477087,660.23,743,756,0
1477097,688.92,743,757,0
1477107,709.00,743,756,0
1477117,723.06,743,757,0
1477127,732.90,743,756,0
1477137,739.83,743,757,0
1477147,742.84,743,756,0
1477157,739.29,743,757,0
1477167,726.69,743,756,0
1477177,704.32,743,756,0
1477187,671.44,743,756,0
1477197,629.27,743,757,0
1477207,578.14,743,756,0
1477217,521.66,743,757,0
1477227,464.03,743,756,0
1477237,410.41,743,756,0
1477248,363.14,743,756,0
1477257,325.47,743,757,0
1477267,297.52,743,756,0
1477277,281.08,743,757,0
1477287,275.10,743,755,0
1477297,279.82,743,757,0
1477307,293.08,743,756,0
1477317,314.05,743,757,0
1477327,339.58,743,755,0
1477337,368.42,743,756,0
1477347,397.01,743,756,0
1477357,424.39,743,756,0
1477367,447.50,743,755,0
1477377,465.99,743,756,0
1477387,477.65,743,756,0
1477397,483.37,743,756,0
1477407,481.93,743,755,0
1477417,475.01,743,756,0
1477427,462.24,743,756,0
1477437,446.05,743,756,0
1477447,426.36,743,755,0
1477457,405.73,743,756,0
1477467,384.08,743,756,0
1477477,363.70,743,757,0
1477487,344.37,743,755,0
1477497,327.81,743,756,0
1477507,313.42,743,756,0
1477517,302.67,743,757,0
1477527,294.41,743,756,0
1477537,289.74,743,757,0
1477548,287.38,743,756,0
1477558,288.16,743,756,0
1477568,290.69,743,756,0
1477578,295.58,743,756,0
1477588,301.45,743,756,0
1477598,308.99,743,756,0
1477608,316.58,743,755,0
1477618,324.85,743,756,0
1477628,332.39,743,756,0
1477638,340.07,743,756,0
1477648,346.78,743,756,0
1477658,353.06,743,756,0
1477668,357.97,743,756,0
1477678,362.39,743,756,0
1477688,365.36,743,756,0
1477698,367.65,743,756,0
1477708,368.49,743,756,0
1477719,368.43,743,756,0
1477729,366.97,743,756,0
1477739,364.71,743,756,0
1477749,361.32,743,756,0
1477760,357.67,743,756,0
1477769,353.91,743,756,0
1477779,351.92,743,756,0
1477789,352.25,743,756,0
1477799,357.44,743,756,0
1477809,369.01,743,756,0
1477819,389.66,743,756,0
1477829,420.58,743,756,0
1477839,460.05,743,756,0
1477849,504.05,743,756,0
1477868,550.23,803,755,0
1477871,595.16,803,758,0
1477880,636.43,803,756,0
1477890,670.71,803,756,0
1477900,696.26,803,756,0
1477910,714.14,803,756,0
1477920,726.65,803,756,0
1477931,732.84,803,756,0
1477940,730.96,803,756,0
1477950,719.40,803,756,0
1477960,697.30,803,756,0
1477970,665.02,803,756,0
1477980,623.19,803,756,0
1477990,572.64,803,756,0
1478000,516.99,803,756,0
1478010,460.68,803,757,0
1478020,407.63,803,756,0
1478030,360.82,803,756,0
1478040,321.79,803,756,0
1478050,291.72,803,756,0
1478060,271.23,803,756,0
1478070,260.75,803,756,0
1478080,259.50,803,756,0
1478090,266.93,803,756,0
1478100,281.65,803,755,0
1478110,302.07,803,756,0
1478120,326.14,803,756,0
1478130,352.28,803,756,0
1478140,378.21,803,756,0
1478150,402.58,803,756,0
1478160,423.32,803,756,0
1478170,439.47,803,756,0
1478180,449.87,803,755,0
1478190,454.79,803,756,0
1478200,453.78,803,756,0
1478210,447.46,803,757,0
1478220,436.10,803,756,0
1478231,420.90,803,756,0
1478241,402.88,803,756,0
1478251,383.68,803,757,0
1478261,363.59,803,755,0
1478272,344.25,803,757,0
1478281,326.22,803,756,0
1478291,310.64,803,757,0
1478301,297.33,803,755,0
1478311,287.12,803,757,0
1478321,279.50,803,756,0
1478331,275.28,803,756,0
1478341,273.31,803,755,0
1478351,274.16,803,757,0
1478361,276.68,803,756,0
1478371,281.45,803,757,0
1478381,287.10,803,755,0
1478391,293.97,803,757,0
1478401,300.75,803,756,0
1478411,307.98,803,757,0
1478421,314.50,803,756,0
1478431,321.04,803,757,0
1478441,326.51,803,756,0
1478451,331.67,803,756,0
1478461,335.76,803,756,0
1478471,339.43,803,757,0
1478481,341.91,803,756,0
1478491,344.00,803,757,0
1478501,344.73,803,756,0
1478511,345.15,803,757,0
1478521,344.33,803,756,0
1478531,343.25,803,757,0
1478541,341.20,803,756,0
1478551,339.17,803,757,0
1478561,335.99,803,756,0
1478572,332.95,803,757,0
1478582,329.15,803,756,0
1478592,326.28,803,757,0
1478602,323.97,803,756,0
1478612,324.75,803,757,0
1478622,328.77,803,756,0
1478632,339.16,803,756,0
1478642,356.77,803,756,0
1478652,384.23,803,757,0
1478662,420.63,803,756,0
1478672,464.46,803,757,0
1478682,511.29,803,756,0
1478702,558.95,833,755,0
1478705,603.88,833,756,0
1478714,643.81,833,757,0
1478724,675.97,833,756,0
1478734,699.85,833,757,0
1478744,715.41,833,756,0
1478754,722.44,833,757,0
1478764,719.40,833,756,0
1478774,706.38,833,757,0
1478785,682.82,833,756,0
1478795,649.92,833,757,0
1478805,607.86,833,756,0
1478815,559.21,833,757,0
1478825,507.12,833,756,0
1478835,456.30,833,757,0
1478845,408.55,833,756,0
1478855,367.07,833,757,0
1478865,332.08,833,756,0
1478875,305.61,833,757,0
1478885,287.17,833,756,0
1478895,277.82,833,757,0
1478905,276.33,833,756,0
1478915,283.00,833,757,0
1478925,295.69,833,756,0
1478935,314.00,833,756,0
1478945,335.34,833,756,0
1478956,358.90,833,756,0
1478966,381.90,833,756,0
1478976,403.57,833,756,0
1478986,421.61,833,756,0
1478996,435.83,833,756,0
1479006,445.01,833,756,0
1479016,449.51,833,756,0
1479026,448.71,833,756,0
1479036,443.53,833,756,0
1479046,434.11,833,756,0
1479056,421.91,833,756,0
1479066,407.11,833,756,0
1479076,390.83,833,756,0
1479086,373.57,833,756,0
1479096,356.81,833,756,0
1479106,340.80,833,756,0
1479116,326.54,833,756,0
1479127,314.08,833,756,0
1479137,304.20,833,756,0
1479147,296.81,833,756,0
1479157,292.20,833,756,0
1479168,289.87,833,757,0
1479177,290.03,833,756,0
1479187,291.87,833,756,0
1479197,295.38,833,756,0
1479207,300.19,833,756,0
1479217,306.01,833,756,0
1479227,312.26,833,756,0
1479237,318.70,833,756,0
1479247,325.05,833,756,0
1479257,331.25,833,756,0
1479267,337.00,833,757,0
1479277,342.01,833,756,0
1479287,346.30,833,756,0
1479297,349.89,833,756,0
1479307,352.67,833,756,0
1479317,354.70,833,756,0
1479327,355.99,833,756,0
1479337,356.42,833,756,0
1479347,356.12,833,756,0
1479357,355.10,833,755,0
1479367,353.44,833,756,0
1479377,351.34,833,756,0
1479387,348.84,833,756,0
1479397,345.97,833,756,0
1479407,343.02,833,756,0
1479417,339.89,833,756,0
1479427,336.92,833,756,0
1479437,334.59,833,756,0
1479447,333.81,833,756,0
1479457,335.63,833,756,0
1479468,341.82,833,756,0
1479478,353.83,833,755,0
1479488,373.81,833,756,0
1479498,402.45,833,756,0
1479508,440.12,833,757,0
1479518,483.58,833,756,0
1479528,529.69,833,757,0
1479547,575.30,846,755,0
1479550,617.94,846,758,0
1479559,654.81,846,756,0
1479569,684.48,846,757,0
1479579,705.72,846,756,0
1479589,718.36,846,757,0
1479599,721.98,846,756,0
1479609,716.42,846,756,0
1479619,700.95,846,756,0
1479629,676.28,846,756,0
1479639,642.85,846,756,0
1479649,601.71,846,757,0
1479659,555.47,846,756,0
1479669,508.01,846,757,0
1479680,461.47,846,756,0
1479689,419.33,846,757,0
1479699,382.24,846,756,0
1479709,352.04,846,757,0
1479719,328.89,846,756,0
1479729,314.18,846,757,0
1479739,306.92,846,756,0
1479749,307.80,846,756,0
1479759,315.06,846,756,0
1479769,328.59,846,756,0
1479779,346.03,846,756,0
1479789,366.80,846,756,0
1479799,388.29,846,756,0
1479809,409.80,846,756,0
1479819,429.11,846,756,0
1479829,445.70,846,757,0
1479839,457.83,846,756,0
1479849,465.77,846,756,0
1479859,468.45,846,756,0
1479869,466.99,846,757,0
1479879,460.78,846,756,0
1479889,451.33,846,756,0
1479899,438.55,846,756,0
1479909,424.32,846,757,0
1479919,408.50,846,756,0
1479929,392.83,846,756,0
1479939,377.07,846,756,0
1479949,362.99,846,757,0
1479959,350.01,846,756,0
1479969,339.51,846,756,0
1479980,330.70,846,756,0
1479990,324.83,846,757,0
1480000,320.64,846,756,0
1480010,319.16,846,757,0
1480020,319.07,846,756,0
1480030,321.19,846,757,0
1480040,324.13,846,756,0
1480050,328.64,846,756,0
1480060,333.33,846,756,0
1480070,339.15,846,757,0
1480080,344.50,846,756,0
1480090,350.48,846,756,0
1480100,355.44,846,756,0
1480110,360.62,846,757,0
1480120,364.63,846,756,0
1480130,368.60,846,756,0
1480140,371.29,846,756,0
1480151,374.08,846,757,0
1480161,375.47,846,756,0
1480171,377.00,846,756,0
1480181,377.26,846,756,0
1480192,377.65,846,756,0
1480201,376.90,846,756,0
1480211,376.24,846,756,0
1480221,374.41,846,756,0
1480231,372.62,846,756,0
1480241,369.78,846,756,0
1480251,367.27,846,756,0
1480261,364.02,846,756,0
1480271,361.44,846,756,0
1480281,358.78,846,756,0
1480291,357.99,846,756,0
1480301,359.28,846,756,0
1480311,365.28,846,757,0
1480321,376.08,846,756,0
1480331,394.74,846,756,0
1480341,421.31,846,756,0
1480351,457.17,846,757,0
1480361,498.31,846,756,0
1480380,542.19,833,754,0
1480383,585.33,833,757,0
1480392,626.03,833,757,0
1480402,661.08,833,756,0
1480412,689.26,833,756,0
1480422,708.98,833,756,0
1480432,722.79,833,756,0
1480442,732.06,833,756,0
1480452,735.99,833,756,0
1480462,732.56,833,756,0
1480472,721.29,833,756,0
1480482,701.19,833,756,0
1480492,673.11,833,756,0
1480502,637.12,833,755,0
1480512,594.74,833,756,0
1480522,548.62,833,756,0
1480532,503.26,833,756,0
1480542,460.63,833,756,0
1480552,424.01,833,756,0
1480562,393.75,833,756,0
1480572,371.75,833,756,0
1480582,357.51,833,756,0
1480592,352.00,833,756,0
1480602,353.89,833,756,0
1480612,363.05,833,756,0
1480622,377.05,833,755,0
1480632,395.55,833,756,0
1480642,416.04,833,756,0
1480652,437.76,833,756,0
1480663,458.02,833,756,0
1480673,475.97,833,756,0
1480683,489.65,833,756,0
1480693,499.10,833,756,0
1480704,502.97,833,756,0
1480713,502.08,833,756,0
1480723,496.10,833,756,0
1480733,486.25,833,756,0
1480743,472.98,833,756,0
1480753,457.81,833,756,0
1480763,441.15,833,756,0
1480773,424.44,833,756,0
1480783,407.55,833,756,0
1480793,391.87,833,756,0
1480803,377.55,833,756,0
1480813,365.51,833,756,0
1480823,355.67,833,756,0
1480833,348.79,833,756,0
1480843,344.05,833,756,0
1480853,341.89,833,756,0
1480863,341.67,833,755,0
1480873,343.57,833,756,0
1480883,346.78,833,756,0
1480893,351.39,833,756,0
1480903,356.55,833,756,0
1480913,362.51,833,756,0
1480923,368.57,833,756,0
1480933,374.74,833,756,0
1480943,380.31,833,756,0
1480953,385.53,833,756,0
1480963,389.87,833,756,0
1480973,393.77,833,756,0
1480983,396.84,833,756,0
1480993,399.46,833,756,0
1481004,401.12,833,756,0
1481014,402.20,833,756,0
1481024,402.52,833,756,0
1481034,402.37,833,756,0
1481044,401.49,833,756,0
1481054,400.18,833,756,0
1481064,398.29,833,756,0
1481074,396.06,833,756,0
1481084,393.77,833,756,0
1481094,391.22,833,756,0
1481104,388.54,833,756,0
1481114,385.64,833,756,0
1481124,382.92,833,756,0
1481134,380.76,833,756,0
1481144,380.06,833,756,0
1481154,381.84,833,756,0
1481164,387.93,833,756,0
1481175,400.08,833,756,0
1481185,420.46,833,756,0
1481195,450.02,833,756,0
1481205,486.87,833,757,0
1481216,527.97,833,756,0
1481234,570.49,854,754,0
1481237,611.70,854,757,0
1481246,649.03,854,757,0
1481256,679.88,854,756,0
1481266,702.50,854,757,0
1481276,718.29,854,756,0
1481286,729.39,854,757,0
1481296,737.16,854,756,0
1481306,742.60,854,757,0
1481316,746.36,854,756,0
1481326,748.48,854,757,0
1481336,745.51,854,756,0
1481346,736.31,854,756,0
1481356,719.16,854,756,0
1481366,694.00,854,756,0
1481376,660.87,854,756,0
1481387,621.22,854,757,0
1481396,576.24,854,756,0
1481406,531.64,854,757,0
1481416,489.75,854,756,0
1481426,454.38,854,756,0
1481436,426.75,854,756,0
1481446,408.48,854,757,0
1481456,398.70,854,756,0
1481466,397.84,854,757,0
1481476,403.81,854,755,0
1481486,416.25,854,757,0
1481496,432.46,854,756,0
1481506,451.31,854,757,0
1481516,469.90,854,755,0
1481526,487.29,854,756,0
1481536,500.92,854,756,0
1481546,510.76,854,756,0
1481556,514.81,854,756,0
1481566,513.97,854,756,0
1481576,507.64,854,756,0
1481586,497.42,854,756,0
1481596,483.06,854,755,0
1481606,466.93,854,756,0
1481616,448.99,854,756,0
1481626,431.38,854,756,0
1481636,413.78,854,756,0
1481646,397.86,854,757,0
1481656,383.25,854,756,0
1481666,371.56,854,756,0
1481676,361.70,854,755,0
1481687,354.89,854,757,0
1481697,350.13,854,756,0
1481707,348.33,854,757,0
1481717,348.15,854,755,0
1481728,350.33,854,757,0
1481737,353.45,854,756,0
1481747,358.33,854,757,0
1481757,363.20,854,755,0
1481767,369.05,854,757,0
1481777,374.35,854,756,0
1481787,380.16,854,757,0
1481797,385.08,854,755,0
1481807,390.20,854,757,0
1481817,394.21,854,756,0
1481827,398.43,854,757,0
1481837,401.39,854,755,0
1481847,404.36,854,757,0
1481857,406.09,854,756,0
1481867,407.78,854,757,0
1481877,408.19,854,755,0
1481887,408.43,854,757,0
1481897,407.36,854,756,0
1481907,406.22,854,757,0
1481917,403.84,854,755,0
1481927,401.49,854,756,0
1481937,397.96,854,756,0
1481947,394.63,854,757,0
1481957,390.37,854,755,0
1481967,387.00,854,757,0
1481977,384.04,854,756,0
1481987,384.03,854,756,0
1481997,387.15,854,755,0
1482007,396.66,854,756,0
1482017,413.35,854,756,0
1482028,440.16,854,757,0
1482038,474.95,854,756,0
1482048,515.30,854,757,0
1482058,557.64,854,756,0
1482078,599.92,843,755,0
1482081,638.73,843,756,0
1482090,672.02,843,756,0
1482100,697.13,843,756,0
1482110,714.75,843,756,0
1482120,727.04,843,756,0
1482130,735.64,843,756,0
1482140,741.66,843,756,0
1482150,743.52,843,756,0
1482160,738.91,843,756,0
1482170,726.72,843,756,0
1482180,705.59,843,756,0
1482190,676.06,843,756,0
1482200,638.50,843,756,0
1482210,594.03,843,756,0
1482220,545.72,843,756,0
1482230,498.02,843,756,0
1482241,453.61,843,756,0
1482251,416.06,843,756,0
1482261,386.34,843,756,0
1482271,365.62,843,756,0
1482281,353.95,843,756,0
1482291,351.48,843,756,0
1482301,356.82,843,756,0
1482311,369.09,843,756,0
1482321,386.21,843,756,0
1482331,406.63,843,756,0
1482341,427.96,843,756,0
1482351,448.33,843,756,0
1482361,465.97,843,756,0
1482371,479.99,843,756,0
1482381,488.95,843,756,0
1482391,492.35,843,756,0
1482401,490.15,843,756,0
1482412,482.73,843,756,0
1482422,470.81,843,756,0
1482432,455.27,843,756,0
1482442,437.27,843,756,0
1482452,418.03,843,756,0
1482462,398.82,843,756,0
1482472,380.19,843,756,0
1482482,363.29,843,756,0
1482492,348.42,843,756,0
1482502,336.38,843,756,0
1482512,326.96,843,756,0
1482522,320.59,843,756,0
1482532,316.73,843,756,0
1482542,315.52,843,756,0
1482552,316.44,843,756,0
1482562,319.48,843,756,0
1482572,323.88,843,756,0
1482583,329.57,843,756,0
1482593,335.74,843,756,0
1482603,342.59,843,756,0
1482613,349.19,843,755,0
1482624,355.82,843,756,0
1482633,361.83,843,756,0
1482643,367.67,843,756,0
1482653,372.44,843,755,0
1482663,376.89,843,756,0
1482673,380.18,843,756,0
1482683,383.26,843,756,0
1482693,385.36,843,755,0
1482703,387.18,843,756,0
1482713,387.77,843,756,0
1482723,388.01,843,756,0
1482733,386.94,843,755,0
1482743,385.54,843,756,0
1482753,382.94,843,756,0
1482763,379.83,843,756,0
1482773,375.59,843,755,0
1482783,371.39,843,756,0
1482793,366.73,843,756,0
1482803,363.08,843,756,0
1482813,360.57,843,755,0
1482823,361.60,843,757,0
1482833,366.91,843,756,0
1482843,379.02,843,756,0
1482853,398.94,843,755,0
1482863,429.05,843,757,0
1482873,467.13,843,756,0
1482883,510.25,843,757,0
1482893,554.70,843,755,0
1482912,598.29,835,754,0
1482915,637.98,835,757,0
1482924,671.67,835,757,0
1482934,696.80,835,755,0
1482944,714.43,835,757,0
1482954,726.77,835,756,0
1482964,735.45,835,757,0
1482974,737.72,835,756,0
1482984,732.27,835,756,0
1482994,717.41,835,756,0
1483004,693.24,835,756,0
1483014,659.83,835,755,0
1483024,618.35,835,756,0
1483034,568.79,835,756,0
1483044,516.74,835,756,0
1483054,465.13,835,755,0
1483064,418.42,835,756,0
1483074,377.62,835,756,0
1483084,345.42,835,757,0
1483095,321.51,835,755,0
1483105,307.94,835,757,0
1483115,303.20,835,756,0
1483125,307.90,835,756,0
1483136,319.37,835,755,0
1483145,337.52,835,756,0
1483155,358.75,835,755,0
1483165,382.52,835,756,0
1483175,405.47,835,755,0
1483185,427.23,835,756,0
1483195,444.82,835,755,0
1483205,458.24,835,756,0
1483215,465.67,835,755,0
1483225,468.43,835,756,0
1483235,465.30,835,756,0
1483245,458.09,835,757,0
1483255,446.07,835,756,0
1483265,431.56,835,756,0
1483275,414.55,835,756,0
1483285,397.20,835,757,0
1483295,378.88,835,756,0
1483305,361.82,835,756,0
1483315,345.37,835,756,0
1483325,331.63,835,757,0
1483335,319.61,835,756,0
1483345,311.03,835,756,0
1483355,304.59,835,755,0
1483365,301.59,835,756,0
1483375,300.42,835,756,0
1483385,302.23,835,756,0
1483395,305.37,835,756,0
1483405,310.83,835,757,0
1483415,316.67,835,756,0
1483425,323.88,835,756,0
1483436,330.77,835,756,0
1483446,338.26,835,756,0
1483456,344.87,835,756,0
1483466,351.46,835,756,0
1483476,356.72,835,756,0
1483486,361.78,835,756,0
1483496,365.23,835,756,0
1483506,368.42,835,756,0
1483516,370.22,835,756,0
1483526,371.87,835,756,0
1483536,372.21,835,756,0
1483546,372.53,835,756,0
1483556,371.69,835,756,0
1483566,371.09,835,757,0
1483576,369.44,835,756,0
1483586,367.76,835,756,0
1483596,365.05,835,756,0
1483607,362.38,835,756,0
1483617,358.66,835,756,0
1483627,355.08,835,756,0
1483637,350.77,835,756,0
1483648,347.11,835,756,0
1483657,344.16,835,756,0
1483667,343.77,835,756,0
1483677,346.84,835,756,0
1483687,355.63,835,756,0
1483697,370.91,835,756,0
1483707,394.98,835,756,0
1483717,427.82,835,756,0
1483727,468.37,835,756,0
1483737,512.79,835,756,0
1483756,558.19,844,754,0
1483759,601.51,844,757,0
1483768,640.74,844,756,0
1483778,673.22,844,756,0
1483788,697.92,844,756,0
1483798,714.06,844,756,0
1483808,721.41,844,756,0
1483819,719.02,844,756,0
1483828,706.97,844,755,0
1483838,684.82,844,756,0
1483848,653.20,844,756,0
1483858,612.81,844,756,0
1483868,565.90,844,756,0
1483878,515.83,844,756,0
1483888,466.25,844,756,0
1483898,419.46,844,756,0
1483908,378.01,844,756,0
1483918,342.99,844,756,0
1483928,315.57,844,756,0
1483938,295.98,844,756,0
1483948,284.67,844,756,0
1483958,281.21,844,756,0
1483968,285.18,844,756,0
1483978,295.37,844,756,0
1483988,310.77,844,756,0
1483998,329.61,844,756,0
1484008,350.56,844,756,0
1484018,371.52,844,756,0
1484028,391.29,844,756,0
1484038,408.43,844,756,0
1484048,422.23,844,756,0
1484058,431.76,844,756,0
1484068,436.68,844,756,0
1484078,436.86,844,756,0
1484088,432.87,844,756,0
1484098,425.03,844,756,0
1484108,413.83,844,756,0
1484119,400.13,844,756,0
1484129,384.74,844,756,0
1484139,368.96,844,756,0
1484149,353.16,844,756,0
1484160,338.50,844,756,0
1484169,325.45,844,756,0
1484179,314.69,844,756,0
1484189,306.12,844,756,0
1484199,300.26,844,756,0
1484209,296.62,844,756,0
1484219,295.66,844,756,0
1484229,296.41,844,756,0
1484239,298.99,844,756,0
1484249,302.72,844,756,0
1484259,307.47,844,756,0
1484269,312.56,844,756,0
1484279,318.26,844,756,0
1484289,323.63,844,756,0
1484299,329.14,844,756,0
1484309,334.03,844,756,0
1484319,338.65,844,756,0
1484329,342.52,844,756,0
1484339,345.97,844,756,0
1484349,348.29,844,756,0
1484359,350.22,844,756,0
1484369,351.14,844,756,0
1484379,351.70,844,756,0
1484389,351.44,844,756,0
1484399,351.05,844,756,0
1484409,350.01,844,756,0
1484419,348.81,844,756,0
1484429,346.98,844,756,0
1484439,345.19,844,756,0
1484449,342.73,844,756,0
1484460,340.28,844,757,0
1484470,337.11,844,756,0
1484480,334.21,844,756,0
1484490,330.97,844,756,0
1484500,328.62,844,756,0
1484510,326.89,844,756,0
1484520,327.78,844,756,0
1484530,331.79,844,756,0
1484540,341.50,844,756,0
1484550,357.08,844,756,0
1484560,380.92,844,756,0
1484570,412.58,844,756,0
1484580,452.52,844,757,0
1484599,496.89,843,755,0
1484602,542.91,843,758,0
1484611,587.17,843,756,0
1484621,627.96,843,757,0
1484631,662.60,843,756,0
1484641,689.68,843,756,0
1484651,705.46,843,756,0
1484661,710.68,843,756,0
1484672,704.99,843,755,0
1484681,689.52,843,756,0
1484691,664.12,843,755,0
1484701,630.27,843,757,0
1484711,588.62,843,756,0
1484721,543.73,843,756,0
1484731,497.31,843,756,0
1484741,453.20,843,757,0
1484751,412.09,843,756,0
1484761,376.70,843,756,0
1484771,346.75,843,756,0
1484781,324.37,843,757,0
1484791,308.53,843,756,0
1484801,300.57,843,756,0
1484811,299.16,843,756,0
1484821,304.81,843,757,0
1484831,315.54,843,756,0
1484841,331.36,843,756,0
1484851,349.55,843,756,0
1484861,369.92,843,756,0
1484871,389.87,843,756,0
1484881,408.94,843,756,0
1484891,424.90,843,755,0
1484901,437.96,843,756,0
1484911,446.37,843,756,0
1484921,451.19,843,757,0
1484931,451.09,843,755,0
1484941,447.59,843,756,0
1484951,440.04,843,756,0
1484961,430.13,843,757,0
1484972,417.23,843,755,0
1484982,403.53,843,756,0
1484992,388.46,843,756,0
1485002,374.18,843,756,0
1485012,360.03,843,755,0
1485022,348.06,843,757,0
1485032,337.46,843,756,0
1485042,329.86,843,756,0
1485052,323.99,843,755,0
1485062,320.99,843,757,0
1485072,319.37,843,756,0
1485082,320.28,843,756,0
1485092,322.21,843,755,0
1485102,326.14,843,757,0
1485112,330.38,843,756,0
1485122,336.14,843,756,0
1485132,341.84,843,755,0
1485143,348.53,843,756,0
1485153,354.54,843,756,0
1485163,360.81,843,756,0
1485173,366.14,843,756,0
1485184,371.67,843,756,0
1485193,375.88,843,756,0
1485203,379.99,843,756,0
1485213,382.73,843,755,0
1485223,385.30,843,756,0
1485233,386.58,843,756,0
1485243,387.52,843,756,0
1485253,387.19,843,755,0
1485263,386.71,843,756,0
1485273,385.08,843,756,0
1485283,383.43,843,756,0
1485293,380.90,843,755,0
1485303,378.44,843,756,0
1485313,375.27,843,756,0
1485323,372.44,843,756,0
1485333,369.05,843,755,0
1485343,366.34,843,756,0
1485353,363.92,843,756,0
1485363,363.60,843,756,0
1485373,365.65,843,755,0
1485383,372.57,843,756,0
1485393,385.04,843,756,0
1485403,405.60,843,756,0
1485413,434.26,843,755,0
1485423,471.21,843,756,0
1485433,512.63,843,756,0
1485443,556.12,843,757,0
1485462,598.30,863,754,0
1485465,637.08,863,758,0
1485474,669.84,863,756,0
1485484,695.43,863,756,0
1485494,713.34,863,756,0
1485504,725.88,863,756,0
1485514,734.62,863,756,0
1485524,738.25,863,756,0
1485534,735.22,863,756,0
1485544,724.57,863,756,0
1485554,705.28,863,756,0
1485564,677.73,863,756,0
1485574,642.37,863,756,0
1485584,600.21,863,756,0
1485594,554.38,863,756,0
1485604,508.62,863,756,0
1485614,465.45,863,756,0
1485624,428.03,863,756,0
1485634,397.38,863,756,0
1485644,374.81,863,756,0
1485655,360.42,863,756,0
1485665,354.77,863,756,0
1485675,357.02,863,756,0
1485685,366.57,863,756,0
1485696,381.70,863,756,0
1485705,401.12,863,756,0
1485715,422.55,863,756,0
1485725,444.33,863,756,0
1485735,464.46,863,756,0
1485745,481.55,863,756,0
1485755,494.33,863,756,0
1485765,501.94,863,756,0
1485775,503.89,863,756,0
1485785,500.75,863,756,0
1485795,492.81,863,756,0
1485805,480.87,863,756,0
1485815,465.95,863,756,0
1485825,449.29,863,756,0
1485835,432.02,863,756,0
1485845,415.17,863,756,0
1485855,399.31,863,756,0
1485865,385.16,863,756,0
1485875,373.32,863,756,0
1485885,363.93,863,756,0
1485895,357.13,863,756,0
1485905,352.85,863,756,0
1485915,351.10,863,756,0
1485925,351.58,863,756,0
1485935,354.15,863,756,0
1485945,358.22,863,756,0
1485955,363.60,863,756,0
1485965,369.85,863,756,0
1485975,376.75,863,756,0
1485985,383.72,863,756,0
1485996,390.58,863,756,0
1486006,396.83,863,756,0
1486016,402.75,863,756,0
1486026,407.89,863,756,0
1486036,412.38,863,756,0
1486046,415.91,863,756,0
1486056,418.85,863,756,0
1486066,420.87,863,755,0
1486076,422.58,863,756,0
1486086,423.52,863,756,0
1486096,424.22,863,756,0
1486106,424.15,863,755,0
1486116,423.89,863,756,0
1486126,422.94,863,756,0
1486136,421.89,863,756,0
1486146,419.95,863,755,0
1486156,417.82,863,756,0
1486167,414.75,863,756,0
1486177,411.52,863,756,0
1486187,407.34,863,755,0
1486197,403.25,863,757,0
1486208,398.38,863,756,0
1486217,394.19,863,757,0
1486227,390.28,863,755,0
1486237,388.78,863,756,0
1486247,390.17,863,756,0
1486257,396.98,863,756,0
1486267,410.44,863,755,0
1486277,433.62,863,757,0
1486287,465.84,863,756,0
1486297,504.46,863,756,0
1486307,545.98,863,755,0
1486326,588.20,864,754,0
1486329,628.25,864,756,0
1486338,663.53,864,757,0
1486348,691.15,864,755,0
1486358,710.52,864,757,0
1486368,724.03,864,756,0
1486379,733.54,864,757,0
1486388,740.15,864,756,0
1486398,744.77,864,757,0
1486408,747.97,864,756,0
1486418,750.25,864,757,0
1486428,748.33,864,756,0
1486438,740.43,864,756,0
1486448,724.15,864,755,0
1486458,699.50,864,756,0
1486468,666.57,864,755,0
1486478,626.67,864,756,0
1486488,580.14,864,756,0
1486498,532.44,864,757,0
1486508,486.49,864,755,0
1486518,447.00,864,756,0
1486528,415.03,864,756,0
1486538,392.52,864,757,0
1486548,378.69,864,755,0
1486558,374.54,864,756,0
1486568,377.85,864,755,0
1486578,388.65,864,756,0
1486588,403.84,864,755,0
1486598,422.70,864,756,0
1486608,441.91,864,756,0
1486618,460.84,864,756,0
1486628,476.40,864,755,0
1486638,488.75,864,756,0
1486648,495.47,864,756,0
1486658,497.34,864,756,0
1486668,493.34,864,756,0
1486679,485.18,864,756,0
1486689,472.10,864,756,0
1486699,456.60,864,756,0
1486709,438.38,864,756,0
1486720,419.88,864,756,0
1486729,401.10,864,756,0
1486739,383.93,864,757,0
1486749,367.75,864,756,0
1486759,354.67,864,756,0
1486769,343.75,864,756,0
1486779,336.33,864,757,0
1486789,331.13,864,756,0
1486799,329.33,864,756,0
1486809,329.36,864,756,0
1486819,332.38,864,756,0
1486829,336.55,864,756,0
1486839,342.82,864,756,0
1486849,349.43,864,756,0
1486859,357.49,864,757,0
1486869,365.10,864,756,0
1486879,373.30,864,756,0
1486889,380.49,864,756,0
1486899,387.80,864,757,0
1486909,393.78,864,756,0
1486919,399.76,864,756,0
1486929,404.24,864,756,0
1486939,408.59,864,757,0
1486949,411.37,864,756,0
1486959,413.87,864,756,0
1486969,414.81,864,756,0
1486979,415.55,864,757,0
1486989,414.74,864,756,0
1486999,413.75,864,756,0
1487009,411.30,864,756,0
1487020,408.98,864,757,0
1487030,405.34,864,756,0
1487040,401.81,864,756,0
1487050,397.11,864,756,0
1487060,392.71,864,756,0
1487070,387.57,864,756,0
1487080,383.28,864,756,0
1487090,379.38,864,756,0
1487100,378.37,864,757,0
1487110,380.49,864,756,0
1487120,388.87,864,756,0
1487130,404.94,864,756,0
1487140,431.70,864,756,0
1487150,466.93,864,756,0
1487160,507.88,864,756,0
1487170,551.12,864,756,0
1487180,594.62,864,756,0
1487200,634.98,874,755,0
1487203,669.53,874,756,0
1487212,695.30,874,756,0
1487222,713.38,874,756,0
1487233,726.08,874,756,0
1487243,734.97,874,756,0
1487253,741.19,874,756,0
1487263,745.55,874,756,0
1487273,748.64,874,757,0
1487283,746.91,874,755,0
1487293,738.02,874,756,0
1487303,720.40,874,756,0
1487313,693.92,874,756,0
1487323,659.02,874,756,0
1487333,616.46,874,756,0
1487343,567.25,874,756,0
1487353,516.90,874,756,0
1487363,469.40,874,756,0
1487373,428.35,874,756,0
1487383,395.50,874,756,0
1487393,372.17,874,756,0
1487404,358.23,874,756,0
1487414,353.88,874,756,0
1487424,357.60,874,756,0
1487434,368.48,874,756,0
1487444,384.06,874,755,0
1487454,402.81,874,756,0
1487464,421.94,874,756,0
1487474,440.39,874,756,0
1487484,455.70,874,755,0
1487494,467.53,874,756,0
1487504,474.10,874,755,0
1487514,476.00,874,756,0
1487524,472.31,874,755,0
1487534,464.51,874,756,0
1487544,452.44,874,756,0
1487554,437.91,874,756,0
1487564,420.88,874,755,0
1487575,403.47,874,756,0
1487585,385.59,874,756,0
1487595,369.17,874,756,0
1487605,353.77,874,755,0
1487616,341.16,874,756,0
1487625,330.78,874,756,0
1487635,323.90,874,757,0
1487645,319.48,874,756,0
1487655,318.48,874,756,0
1487665,319.53,874,756,0
1487675,323.53,874,757,0
1487685,328.69,874,756,0
1487695,335.81,874,756,0
1487705,343.24,874,756,0
1487715,351.82,874,757,0
1487725,359.93,874,756,0
1487735,368.57,874,756,0
1487745,376.07,874,756,0
1487755,383.55,874,756,0
1487765,389.51,874,756,0
1487775,395.19,874,756,0
1487785,399.16,874,756,0
1487795,402.84,874,756,0
1487805,404.90,874,756,0
1487815,406.69,874,756,0
1487825,407.00,874,756,0
1487835,407.17,874,757,0
1487845,405.79,874,756,0
1487855,404.35,874,756,0
1487865,401.46,874,756,0
1487875,398.54,874,757,0
1487885,394.35,874,755,0
1487895,390.47,874,756,0
1487905,385.53,874,756,0
1487916,381.17,874,757,0
1487926,376.02,874,756,0
1487936,371.90,874,757,0
1487946,367.99,874,756,0
1487956,366.79,874,757,0
1487966,367.93,874,756,0
1487976,374.80,874,756,0
1487986,388.23,874,756,0
1487996,411.78,874,757,0
1488006,444.72,874,756,0
1488016,484.87,874,757,0
1488026,528.37,874,756,0
1488036,573.26,874,757,0
1488055,615.87,855,755,0
1488058,653.88,855,757,0
1488067,684.00,855,757,0
1488077,705.56,855,757,0
1488087,720.65,855,756,0
1488097,731.21,855,757,0
1488107,738.56,855,756,0
1488117,743.71,855,757,0
1488128,742.90,855,756,0
1488137,734.74,855,756,0
1488147,716.90,855,756,0
1488157,689.76,855,757,0
1488167,652.93,855,756,0
1488177,608.17,855,756,0
1488187,555.62,855,756,0
1488197,501.69,855,757,0
1488207,449.15,855,756,0
1488217,402.82,855,756,0
1488227,363.36,855,756,0
1488237,333.60,855,757,0
1488247,312.76,855,756,0
1488257,302.29,855,756,0
1488267,300.66,855,756,0
1488277,308.05,855,756,0
1488287,321.88,855,756,0
1488297,341.76,855,756,0
1488307,364.33,855,756,0
1488317,388.83,855,756,0
1488327,412.11,855,756,0
1488337,433.51,855,756,0
1488347,450.28,855,756,0
1488357,462.63,855,756,0
1488367,468.74,855,756,0
1488377,469.76,855,756,0
1488387,464.69,855,756,0
1488397,455.53,855,756,0
1488407,441.87,855,756,0
1488417,425.84,855,756,0
1488428,407.59,855,756,0
1488438,389.50,855,756,0
1488448,371.52,855,756,0
1488458,355.46,855,756,0
1488468,341.05,855,756,0
1488478,329.81,855,756,0
1488488,321.12,855,756,0
1488498,315.81,855,756,0
1488508,312.78,855,756,0
1488518,312.55,855,756,0
1488528,313.97,855,756,0
1488538,317.49,855,756,0
1488548,321.85,855,756,0
1488558,327.59,855,756,0
1488568,333.37,855,756,0
1488578,339.73,855,756,0
1488588,345.60,855,756,0
1488599,351.46,855,756,0
1488609,356.29,855,756,0
1488619,360.83,855,756,0
1488629,364.14,855,756,0
1488640,367.01,855,756,0
1488649,368.89,855,756,0
1488659,370.51,855,756,0
1488669,371.52,855,756,0
1488679,372.26,855,756,0
1488689,372.44,855,756,0
1488699,372.69,855,756,0
1488709,372.74,855,756,0
1488719,372.65,855,756,0
1488729,372.11,855,756,0
1488739,371.22,855,756,0
1488749,369.83,855,756,0
1488759,367.95,855,756,0
1488769,365.26,855,756,0
1488779,362.23,855,756,0
1488789,358.95,855,756,0
1488799,356.13,855,756,0
1488809,354.72,855,756,0
1488819,356.39,855,756,0
1488829,362.79,855,756,0
1488839,376.44,855,756,0
1488849,399.11,855,756,0
1488859,432.03,855,756,0
1488869,472.35,855,756,0
1488879,516.90,855,756,0
1488899,562.66,843,755,0
1488902,606.82,843,757,0
1488911,646.30,843,756,0
1488921,678.48,843,756,0
1488931,701.70,843,757,0
1488941,717.94,843,756,0
1488951,729.32,843,756,0
1488961,737.28,843,756,0
1488971,739.77,843,756,0
1488982,733.97,843,756,0
1488991,719.15,843,756,0
1489001,694.20,843,755,0
1489011,659.90,843,756,0
1489021,616.43,843,756,0
1489031,565.39,843,756,0
1489041,510.67,843,756,0
1489051,457.54,843,757,0
1489061,408.39,843,756,0
1489071,366.57,843,756,0
1489081,332.93,843,756,0
1489091,309.29,843,757,0
1489101,295.11,843,756,0
1489111,290.87,843,756,0
1489121,295.20,843,756,0
1489131,307.82,843,756,0
1489141,326.35,843,756,0
1489152,349.64,843,756,0
1489161,374.86,843,755,0
1489171,400.83,843,756,0
1489181,424.93,843,755,0
1489191,446.25,843,756,0
1489201,462.59,843,755,0
1489211,473.77,843,756,0
1489221,478.42,843,755,0
1489231,477.57,843,756,0
1489241,470.93,843,755,0
1489251,460.11,843,756,0
1489261,445.12,843,756,0
1489271,427.98,843,756,0
1489281,409.34,843,756,0
1489291,391.20,843,757,0
1489301,373.40,843,756,0
1489311,357.51,843,756,0
1489321,343.13,843,756,0
1489331,331.86,843,757,0
1489341,322.90,843,756,0
1489351,317.27,843,756,0
1489361,313.89,843,755,0
1489371,313.67,843,757,0
1489381,315.14,843,756,0
1489391,319.17,843,756,0
1489401,324.22,843,755,0
1489411,331.01,843,756,0
1489421,338.08,843,756,0
1489431,345.98,843,756,0
1489441,353.53,843,756,0
1489452,361.51,843,756,0
1489462,368.60,843,756,0
1489472,375.75,843,756,0
1489482,381.57,843,756,0
1489492,387.06,843,757,0
1489502,391.15,843,756,0
1489512,394.58,843,756,0
1489522,396.08,843,755,0
1489532,397.17,843,757,0
1489542,396.69,843,756,0
1489552,396.10,843,756,0
1489562,393.92,843,755,0
1489572,391.72,843,757,0
1489582,388.29,843,756,0
1489592,385.12,843,756,0
1489602,380.67,843,756,0
1489612,376.48,843,756,0
1489623,371.58,843,756,0
1489633,367.55,843,757,0
1489643,363.31,843,755,0
1489653,361.29,843,757,0
1489664,361.59,843,756,0
1489673,366.98,843,756,0
1489683,378.09,843,755,0
1489693,398.12,843,757,0
1489703,427.57,843,756,0
1489713,465.67,843,757,0
1489723,508.37,843,755,0
1489733,553.30,843,757,0
1489743,597.14,843,756,0
1489762,637.64,864,754,0
1489765,671.26,864,757,0
1489774,696.56,864,757,0
1489784,714.26,864,756,0
1489794,726.70,864,757,0
1489804,735.36,864,755,0
1489814,739.37,864,756,0
1489824,735.44,864,756,0
1489835,722.54,864,756,0
1489844,699.45,864,755,0
1489854,667.04,864,756,0
1489864,625.07,864,756,0
1489874,575.12,864,756,0
1489884,519.93,864,756,0
1489894,465.52,864,756,0
1489904,414.45,864,756,0
1489914,370.52,864,756,0
1489924,334.15,864,756,0
1489934,308.00,864,756,0
1489944,291.46,864,756,0
1489954,285.58,864,756,0
1489964,288.36,864,755,0
1489974,300.17,864,756,0
1489984,318.20,864,756,0
1489994,341.93,864,756,0
1490004,367.96,864,756,0
1490014,395.49,864,756,0
1490024,421.14,864,756,0
1490034,444.41,864,756,0
1490044,462.42,864,755,0
1490054,475.49,864,756,0
1490064,481.69,864,756,0
1490074,482.08,864,756,0
1490084,475.76,864,756,0
1490094,464.90,864,756,0
1490104,449.42,864,756,0
1490114,431.63,864,756,0
1490124,411.56,864,756,0
1490135,391.63,864,756,0
1490145,371.94,864,756,0
1490155,354.43,864,756,0
1490165,338.79,864,756,0
1490176,326.42,864,756,0
1490185,316.91,864,756,0
1490195,311.24,864,756,0
1490205,308.25,864,756,0
1490215,308.48,864,756,0
1490225,310.65,864,756,0
1490235,315.08,864,756,0
1490245,320.54,864,756,0
1490255,327.24,864,756,0
1490265,333.85,864,756,0
1490275,340.88,864,756,0
1490285,347.30,864,756,0
1490295,353.64,864,756,0
1490305,358.98,864,756,0
1490315,364.04,864,756,0
1490325,367.93,864,756,0
1490335,371.38,864,756,0
1490345,373.75,864,756,0
1490355,375.80,864,756,0
1490365,376.84,864,756,0
1490375,377.70,864,756,0
1490385,377.75,864,756,0
1490395,377.78,864,756,0
1490405,377.12,864,756,0
1490415,376.31,864,755,0
1490425,374.80,864,756,0
1490435,373.41,864,756,0
1490445,371.27,864,756,0
1490455,368.92,864,756,0
1490465,365.64,864,756,0
1490476,362.11,864,756,0
1490486,358.05,864,756,0
1490496,354.05,864,756,0
1490506,350.00,864,756,0
1490516,346.79,864,756,0
1490526,345.31,864,756,0
1490536,347.70,864,755,0
1490546,355.68,864,756,0
1490556,371.42,864,756,0
1490566,396.23,864,756,0
1490576,431.22,864,756,0
1490586,473.37,864,756,0
1490596,519.42,864,756,0
1490615,566.05,853,754,0
1490618,610.26,853,757,0
1490627,649.23,853,756,0
1490637,680.83,853,756,0
1490647,703.34,853,756,0
1490657,719.05,853,755,0
1490667,730.05,853,756,0
1490677,734.92,853,756,0
1490688,731.77,853,756,0
1490697,719.24,853,755,0
1490707,696.58,853,756,0
1490717,663.71,853,756,0
1490727,621.54,853,756,0
1490737,570.85,853,756,0
1490747,515.74,853,756,0
1490757,460.10,853,756,0
1490767,407.74,853,757,0
1490777,361.15,853,756,0
1490787,322.66,853,756,0
1490797,292.85,853,756,0
1490807,272.75,853,756,0
1490817,261.98,853,756,0
1490827,260.87,853,756,0
1490837,268.11,853,756,0
1490847,282.95,853,756,0
1490857,303.19,853,756,0
1490867,327.48,853,756,0
1490877,353.52,853,756,0
1490887,380.02,853,756,0
1490897,404.49,853,755,0
1490907,425.81,853,756,0
1490917,442.20,853,756,0
1490927,453.37,853,756,0
1490937,458.57,853,755,0
1490947,458.31,853,756,0
1490957,452.48,853,756,0
1490967,442.31,853,757,0
1490977,427.94,853,756,0
1490988,411.12,853,756,0
1490998,392.05,853,756,0
1491008,372.62,853,757,0
1491018,352.76,853,756,0
1491028,334.24,853,756,0
1491038,316.94,853,756,0
1491048,302.26,853,757,0
1491058,289.75,853,756,0
1491068,280.70,853,756,0
1491078,274.02,853,756,0
1491088,270.58,853,757,0
1491098,269.08,853,756,0
1491108,270.34,853,756,0
1491118,273.20,853,756,0
1491128,278.28,853,757,0
1491138,284.11,853,756,0
1491148,291.49,853,756,0
1491159,299.02,853,756,0
1491169,307.54,853,757,0
1491179,315.56,853,756,0
1491189,323.88,853,756,0
1491200,331.12,853,756,0
1491209,338.45,853,756,0
1491219,344.45,853,756,0
1491229,350.35,853,756,0
1491239,354.66,853,756,0
1491249,358.71,853,756,0
1491259,361.15,853,756,0
1491269,363.25,853,756,0
1491279,363.73,853,756,0
1491289,363.81,853,756,0
1491299,362.20,853,756,0
1491309,360.25,853,756,0
1491319,356.75,853,756,0
1491329,353.10,853,756,0
1491339,348.22,853,756,0
1491349,343.44,853,756,0
1491359,337.57,853,756,0
1491369,332.04,853,757,0
1491379,325.98,853,756,0
1491389,321.40,853,756,0
1491399,318.03,853,755,0
1491409,318.40,853,757,0
1491419,322.57,853,756,0
1491429,333.58,853,756,0
1491439,351.84,853,755,0
1491449,379.70,853,757,0
1491459,415.62,853,756,0
1491469,459.15,853,756,0
1491479,505.86,853,756,0
1491489,553.39,853,757,0
1491509,598.14,894,755,0
1491512,638.17,894,757,0
1491521,670.91,894,756,0
1491531,695.49,894,757,0
1491542,708.67,894,756,0
1491551,711.56,894,756,0
1491561,703.29,894,755,0
1491571,684.56,894,756,0
1491581,655.55,894,756,0
1491591,617.67,894,756,0
1491601,571.83,894,756,0
1491611,522.64,894,756,0
1491621,471.83,894,756,0
1491631,423.54,894,756,0
1491641,378.63,894,756,0
1491651,339.70,894,756,0
1491661,306.71,894,756,0
1491671,281.68,894,756,0
1491681,263.99,894,756,0
1491691,255.04,894,756,0
1491701,253.65,894,756,0
1491712,260.66,894,756,0
1491721,273.96,894,756,0
1491731,293.39,894,756,0
1491741,316.37,894,756,0
1491751,342.40,894,756,0
1491761,368.81,894,755,0
1491771,395.05,894,756,0
1491781,418.57,894,756,0
1491791,439.05,894,756,0
1491801,454.55,894,755,0
1491811,465.40,894,756,0
1491821,470.34,894,756,0
1491831,470.36,894,756,0
1491841,464.81,894,755,0
1491851,455.61,894,756,0
1491861,442.53,894,756,0
1491871,427.46,894,756,0
1491881,410.39,894,756,0
1491891,393.34,894,756,0
1491901,376.01,894,756,0
1491911,359.98,894,756,0
1491921,344.73,894,756,0
1491931,331.74,894,757,0
1491941,320.42,894,756,0
1491951,311.81,894,756,0
1491961,305.01,894,756,0
1491971,301.02,894,756,0
1491981,299.00,894,756,0
1491991,299.69,894,756,0
1492001,301.92,894,755,0
1492012,306.32,894,756,0
1492022,311.84,894,756,0
1492032,318.83,894,756,0
1492042,326.21,894,756,0
1492052,334.33,894,756,0
1492062,341.99,894,756,0
1492072,349.84,894,756,0
1492082,356.78,894,756,0
1492092,363.32,894,756,0
1492102,368.75,894,756,0
1492112,373.46,894,756,0
1492122,376.79,894,755,0
1492132,379.21,894,756,0
1492142,380.18,894,756,0
1492152,380.29,894,756,0
1492162,379.39,894,755,0
1492172,378.25,894,756,0
1492183,377.19,894,756,0
1492193,377.26,894,756,0
1492203,379.67,894,756,0
1492213,385.77,894,756,0
1492224,396.85,894,756,0
1492233,413.82,894,756,0
1492243,437.19,894,756,0
1492253,466.62,894,756,0
1492263,500.98,894,756,0
1492282,538.10,773,755,0
1492285,575.05,773,758,0
1492294,609.50,773,756,0
1492304,638.79,773,757,0
1492314,660.15,773,756,0
1492324,671.76,773,756,0
1492334,672.52,773,756,0
1492344,662.51,773,756,0
1492354,643.03,773,756,0
1492364,615.16,773,756,0
1492374,580.48,773,756,0
1492384,541.51,773,756,0
1492395,500.09,773,756,0
1492404,458.79,773,756,0
1492414,419.04,773,756,0
1492424,382.73,773,756,0
1492434,350.45,773,756,0
1492444,323.92,773,756,0
1492454,303.37,773,756,0
1492464,290.10,773,756,0
1492474,283.60,773,756,0
1492484,284.36,773,756,0
1492494,291.41,773,756,0
1492504,304.53,773,756,0
1492514,321.94,773,756,0
1492524,342.79,773,756,0
1492534,365.05,773,755,0
1492544,387.92,773,756,0
1492554,409.37,773,755,0
1492564,428.59,773,756,0
1492574,444.10,773,755,0
1492584,455.64,773,756,0
1492594,462.13,773,755,0
1492604,464.37,773,756,0
1492614,461.86,773,755,0
1492624,455.68,773,756,0
1492634,445.71,773,756,0
1492644,433.32,773,756,0
1492654,418.87,773,756,0
1492664,403.87,773,756,0
1492674,388.09,773,756,0
1492684,372.98,773,757,0
1492695,358.41,773,756,0
1492705,345.82,773,756,0
1492715,334.64,773,756,0
1492725,325.88,773,756,0
1492736,318.72,773,755,0
1492745,314.04,773,756,0
1492755,311.03,773,756,0
1492765,310.42,773,756,0
1492775,310.94,773,756,0
1492785,313.27,773,757,0
1492795,316.19,773,756,0
1492805,320.68,773,756,0
1492815,325.27,773,755,0
1492825,330.72,773,756,0
1492835,335.60,773,756,0
1492845,340.95,773,756,0
1492855,345.42,773,755,0
1492865,350.14,773,756,0
1492875,353.87,773,756,0
1492885,357.64,773,756,0
1492895,360.15,773,756,0
1492905,362.63,773,756,0
1492915,363.86,773,756,0
1492925,365.14,773,756,0
1492935,365.27,773,755,0
1492945,365.92,773,756,0
1492955,366.71,773,756,0
1492965,369.89,773,756,0
1492975,375.58,773,755,0
1492985,386.55,773,756,0
1492995,403.05,773,756,0
1493005,427.72,773,757,0
1493015,459.69,773,755,0
1493025,498.01,773,757,0
1493045,539.07,763,755,0
1493048,580.75,763,757,0
1493057,619.91,763,755,0
1493067,655.08,763,757,0
1493078,683.64,763,756,0
1493087,705.09,763,757,0
1493097,720.06,763,755,0
1493107,728.14,763,756,0
1493117,727.72,763,756,0
1493127,719.27,763,756,0
1493137,701.62,763,755,0
1493147,675.46,763,756,0
1493157,640.78,763,756,0
1493167,599.19,763,757,0
1493177,553.06,763,755,0
1493187,506.97,763,756,0
1493197,461.98,763,756,0
1493207,421.74,763,757,0
1493217,386.59,763,755,0
1493227,358.73,763,756,0
1493237,337.47,763,756,0
1493248,324.68,763,756,0
1493257,319.04,763,755,0
1493267,321.34,763,756,0
1493277,329.55,763,756,0
1493287,343.91,763,756,0
1493297,361.64,763,755,0
1493307,382.49,763,756,0
1493317,403.52,763,756,0
1493327,424.66,763,756,0
1493337,443.15,763,755,0
1493347,459.00,763,756,0
1493357,470.10,763,755,0
1493367,477.27,763,756,0
1493377,479.20,763,756,0
1493387,477.43,763,756,0
1493397,470.83,763,756,0
1493407,461.24,763,756,0
1493417,448.18,763,755,0
1493427,433.81,763,756,0
1493437,417.75,763,756,0
1493447,401.80,763,756,0
1493457,385.36,763,756,0
1493467,370.55,763,756,0
1493477,356.59,763,756,0
1493487,345.22,763,756,0
1493497,335.43,763,756,0
1493507,328.66,763,756,0
1493517,323.62,763,756,0
1493527,321.37,763,756,0
1493537,320.49,763,756,0
1493548,321.97,763,756,0
1493558,324.34,763,756,0
1493568,328.35,763,756,0
1493578,332.75,763,756,0
1493588,338.22,763,756,0
1493598,343.51,763,756,0
1493608,349.32,763,756,0
1493618,354.58,763,756,0
1493628,359.93,763,756,0
1493638,364.50,763,756,0
1493648,368.85,763,756,0
1493658,372.02,763,756,0
1493668,374.76,763,756,0
1493678,376.12,763,756,0
1493688,376.94,763,756,0
1493698,376.44,763,756,0
1493708,375.58,763,756,0
1493719,373.91,763,756,0
1493729,372.99,763,756,0
1493739,373.21,763,756,0
1493749,376.57,763,756,0
1493760,383.90,763,756,0
1493769,397.30,763,756,0
1493779,417.23,763,756,0
1493789,444.80,763,756,0
1493799,479.10,763,756,0
1493818,518.29,773,754,0
1493821,559.09,773,757,0
1493830,599.00,773,756,0
1493840,635.60,773,756,0
1493850,667.26,773,756,0
1493860,691.40,773,756,0
1493870,705.68,773,755,0
1493880,709.55,773,756,0
1493890,703.77,773,756,0
1493900,688.58,773,756,0
1493910,664.32,773,755,0
1493920,631.95,773,756,0
1493931,593.18,773,756,0
1493940,551.13,773,756,0
1493950,508.10,773,755,0
1493960,465.94,773,756,0
1493970,426.66,773,756,0
1493980,391.71,773,756,0
1493990,361.79,773,755,0
1494000,337.94,773,756,0
1494010,320.30,773,756,0
1494020,309.20,773,756,0
1494030,304.55,773,756,0
1494040,306.02,773,756,0
1494050,312.82,773,756,0
1494060,323.98,773,756,0
1494070,338.30,773,755,0
1494080,354.71,773,756,0
1494090,371.90,773,756,0
1494100,388.81,773,756,0
1494110,403.91,773,756,0
1494120,416.62,773,756,0
1494130,426.17,773,756,0
1494140,432.20,773,756,0
1494150,434.41,773,756,0
1494160,432.87,773,756,0
1494170,427.55,773,756,0
1494180,419.37,773,756,0
1494190,408.68,773,756,0
1494200,396.26,773,756,0
1494210,382.47,773,756,0
1494220,368.27,773,756,0
1494231,353.92,773,755,0
1494241,340.49,773,756,0
1494251,327.87,773,756,0
1494261,316.89,773,757,0
1494272,307.24,773,755,0
1494281,299.80,773,756,0
1494291,293.90,773,756,0
1494301,290.24,773,757,0
1494311,287.77,773,756,0
1494321,287.15,773,756,0
1494331,287.28,773,756,0
1494341,288.87,773,757,0
1494351,290.75,773,756,0
1494361,293.40,773,756,0
1494371,295.93,773,756,0
1494381,298.95,773,756,0
1494391,301.45,773,756,0
1494401,304.10,773,756,0
1494411,306.00,773,756,0
1494421,307.93,773,757,0
1494431,308.94,773,756,0
1494441,309.81,773,756,0
1494451,309.74,773,756,0
1494461,309.52,773,756,0
1494471,308.29,773,756,0
1494481,307.09,773,756,0
1494491,304.88,773,756,0
1494501,302.86,773,756,0
1494511,300.46,773,756,0
1494521,299.21,773,756,0
1494531,298.84,773,756,0
1494541,301.20,773,757,0
1494551,306.03,773,756,0
1494561,315.06,773,756,0
1494572,327.86,773,756,0
1494582,345.30,773,756,0
1494592,365.95,773,756,0
1494602,390.01,773,756,0
1494622,414.91,803,755,0
1494625,439.62,803,758,0
1494634,461.98,803,755,0
1494644,480.93,803,756,0
1494654,493.89,803,756,0
1494664,501.30,803,756,0
1494674,501.51,803,756,0
1494684,495.78,803,756,0
1494694,483.81,803,755,0
1494704,467.36,803,757,0
1494714,446.68,803,756,0
1494724,424.36,803,756,0
1494734,400.08,803,756,0
1494744,376.36,803,757,0
1494754,352.94,803,756,0
1494764,332.08,803,756,0
1494774,312.82,803,756,0
1494785,297.23,803,757,0
1494795,284.47,803,756,0
1494805,275.89,803,756,0
1494815,270.18,803,756,0
1494825,268.63,803,756,0
1494835,269.72,803,756,0
1494845,274.39,803,756,0
1494855,280.62,803,756,0
1494865,288.83,803,756,0
1494875,297.33,803,756,0
1494885,306.48,803,756,0
1494895,314.48,803,756,0
1494905,321.79,803,756,0
1494915,326.96,803,756,0
1494925,330.96,803,756,0
1494935,332.55,803,756,0
1494945,332.73,803,756,0
1494956,330.67,803,756,0
1494966,327.51,803,756,0
1494976,322.64,803,756,0
1494986,317.14,803,756,0
1494996,310.45,803,756,0
1495006,303.89,803,756,0
1495016,296.94,803,756,0
1495026,290.66,803,756,0
1495036,284.59,803,756,0
1495046,279.65,803,756,0
1495056,275.30,803,756,0
1495066,272.12,803,756,0
1495076,269.43,803,756,0
1495086,267.89,803,756,0
1495096,266.72,803,756,0
1495106,266.42,803,756,0
1495116,266.34,803,756,0
1495127,266.92,803,756,0
1495137,267.72,803,756,0
1495147,268.92,803,756,0
1495157,270.18,803,756,0
1495168,271.67,803,755,0
1495177,273.14,803,756,0
1495187,274.77,803,756,0
1495197,276.34,803,756,0
1495207,277.69,803,755,0
1495217,278.90,803,756,0
1495227,280.00,803,756,0
1495237,280.99,803,756,0
1495247,281.72,803,756,0
1495257,282.02,803,756,0
1495267,282.01,803,756,0
1495277,281.92,803,756,0
1495287,281.73,803,756,0
1495297,281.43,803,756,0
1495307,281.34,803,756,0
1495317,281.62,803,756,0
1495327,282.34,803,756,0
1495337,283.78,803,756,0
1495347,285.99,803,756,0
1495357,289.38,803,756,0
1495367,294.06,803,756,0
1495377,300.22,803,756,0
1495387,307.69,803,756,0
1495406,316.57,785,754,0
1495409,326.26,785,756,0
1495418,337.19,785,756,0
1495428,347.85,785,756,0
1495438,357.88,785,756,0
1495448,366.19,785,756,0
1495458,372.69,785,756,0
1495468,376.90,785,756,0
1495478,378.81,785,756,0
1495488,377.45,785,756,0
1495498,374.06,785,756,0
1495508,368.43,785,756,0
1495518,361.57,785,756,0
1495528,353.39,785,756,0
1495538,344.83,785,756,0
1495548,335.84,785,756,0
1495558,327.49,785,756,0
1495568,319.50,785,756,0
1495578,312.83,785,756,0
1495588,306.97,785,756,0
1495598,302.65,785,756,0
1495608,299.28,785,756,0
1495618,297.74,785,756,0
1495628,297.13,785,756,0
1495639,298.25,785,757,0
1495649,300.06,785,756,0
1495659,303.26,785,756,0
1495669,306.82,785,756,0
1495680,311.38,785,757,0
1495689,315.68,785,756,0
1495699,320.40,785,756,0
1495709,324.27,785,756,0
1495719,328.09,785,756,0
1495729,330.76,785,756,0
1495739,333.19,785,756,0
1495749,334.20,785,756,0
1495759,334.91,785,756,0
1495769,334.38,785,756,0
1495779,333.67,785,756,0
1495789,331.84,785,756,0
1495799,330.17,785,757,0
1495809,327.64,785,756,0
1495819,325.64,785,756,0
1495829,323.14,785,756,0
1495839,321.30,785,756,0
1495849,319.11,785,756,0
1495859,317.79,785,756,0
1495869,316.27,785,756,0
1495879,315.72,785,757,0
1495889,314.94,785,756,0
1495899,315.09,785,756,0
1495909,314.98,785,756,0
1495919,315.80,785,756,0
1495929,316.33,785,756,0
1495939,317.56,785,756,0
1495949,318.29,785,756,0
1495959,319.58,785,756,0
1495969,320.22,785,756,0
1495980,321.39,785,756,0
1495990,321.92,785,756,0
1496000,323.01,785,756,0
1496010,323.48,785,756,0
1496020,324.62,785,756,0
1496030,325.08,785,755,0
1496040,326.21,785,756,0
1496050,326.71,785,755,0
1496060,327.99,785,756,0
1496070,328.68,785,756,0
1496080,330.02,785,756,0
1496090,330.70,785,755,0
1496100,332.08,785,756,0
1496110,332.70,785,755,0
1496120,333.94,785,756,0
1496130,334.52,785,755,0
1496140,335.95,785,756,0
1496151,337.16,785,755,0
1496161,339.60,785,756,0
1496171,342.12,785,755,0
1496190,346.16,784,754,0
1496194,350.99,784,756,0
1496203,357.55,784,756,0
1496213,363.86,784,756,0
1496223,370.63,784,756,0
1496233,376.87,784,756,0
1496243,383.21,784,756,0
1496253,388.33,784,756,0
1496263,392.30,784,756,0
1496273,394.18,784,756,0
1496283,395.24,784,756,0
1496293,394.66,784,756,0
1496303,393.09,784,756,0
1496313,390.02,784,756,0
1496323,386.54,784,756,0
1496333,382.05,784,756,0
1496343,377.45,784,756,0
1496353,372.34,784,756,0
1496364,367.83,784,756,0
1496374,363.21,784,756,0
1496384,359.29,784,756,0
1496394,355.52,784,756,0
1496404,352.75,784,756,0
1496414,350.55,784,756,0
1496424,349.57,784,756,0
1496434,349.23,784,756,0
1496444,349.97,784,756,0
1496454,351.35,784,756,0
1496464,353.56,784,756,0
1496474,356.18,784,756,0
1496484,359.21,784,756,0
1496494,362.23,784,756,0
1496504,365.38,784,756,0
1496514,368.14,784,756,0
1496524,370.54,784,756,0
1496535,372.39,784,756,0
1496545,373.65,784,756,0
1496555,374.39,784,756,0
1496565,374.45,784,756,0
1496576,373.97,784,756,0
1496585,373.12,784,756,0
1496595,371.97,784,756,0
1496605,370.52,784,756,0
1496615,368.99,784,756,0
1496625,367.24,784,756,0
1496635,365.67,784,756,0
1496645,364.01,784,756,0
1496655,362.59,784,756,0
1496665,361.30,784,756,0
1496675,360.22,784,756,0
1496685,359.26,784,756,0
1496695,358.75,784,756,0
1496705,358.48,784,756,0
1496715,358.68,784,755,0
1496725,358.91,784,756,0
1496735,359.36,784,756,0
1496745,359.85,784,756,0
1496755,360.75,784,755,0
1496765,361.56,784,756,0
1496775,362.42,784,756,0
1496785,362.94,784,756,0
1496795,363.55,784,755,0
1496805,363.99,784,756,0
1496815,364.55,784,756,0
1496825,364.73,784,756,0
1496835,364.89,784,755,0
1496845,364.80,784,756,0
1496855,364.99,784,756,0
1496865,364.82,784,756,0
1496876,364.87,784,756,0
1496886,364.53,784,756,0
1496896,364.45,784,756,0
1496906,364.06,784,755,0
1496916,364.09,784,756,0
1496926,363.80,784,756,0
1496936,364.16,784,756,0
1496946,364.41,784,756,0
1496956,365.75,784,756,0
1496966,367.37,784,755,0
1496976,370.30,784,756,0
1496986,373.77,784,755,0
1496996,378.64,784,756,0
1497015,384.02,825,755,0
1497018,391.25,825,759,0
1497027,399.19,825,755,0
1497037,408.05,825,756,0
1497047,416.26,825,755,0
1497057,424.41,825,756,0
1497067,431.02,825,755,0
1497077,436.84,825,756,0
1497088,440.10,825,755,0
1497097,441.70,825,756,0
1497107,440.93,825,755,0
1497117,439.28,825,756,0
1497127,435.68,825,755,0
1497137,431.71,825,756,0
1497147,426.44,825,755,0
1497157,421.38,825,756,0
1497167,415.65,825,755,0
1497177,410.78,825,756,0
1497187,405.71,825,756,0
1497197,401.81,825,756,0
1497207,398.14,825,755,0
1497217,395.95,825,756,0
1497227,394.25,825,756,0
1497237,394.13,825,756,0
1497247,394.35,825,755,0
1497257,396.13,825,756,0
1497267,398.28,825,756,0
1497277,401.84,825,756,0
1497287,405.49,825,755,0
1497297,409.97,825,756,0
1497307,413.92,825,755,0
1497317,418.32,825,756,0
1497327,421.82,825,755,0
1497337,425.47,825,756,0
1497347,427.86,825,755,0
1497357,430.22,825,756,0
1497367,431.14,825,755,0
1497377,431.78,825,756,0
1497388,430.95,825,755,0
1497398,429.98,825,756,0
1497408,427.67,825,755,0
1497418,425.58,825,756,0
1497428,422.41,825,755,0
1497438,419.80,825,756,0
1497448,416.60,825,755,0
1497458,414.24,825,757,0
1497468,411.55,825,755,0
1497478,409.89,825,756,0
1497488,407.86,825,755,0
1497498,406.88,825,757,0
1497508,405.63,825,755,0
1497518,405.48,825,756,0
1497528,405.12,825,755,0
1497538,405.73,825,756,0
1497548,406.02,825,755,0
1497559,407.26,825,756,0
1497569,408.04,825,755,0
1497579,409.57,825,756,0
1497589,410.51,825,756,0
1497600,412.12,825,756,0
1497609,413.07,825,755,0
1497619,414.59,825,756,0
1497629,415.36,825,756,0
1497639,416.58,825,756,0
1497649,417.00,825,755,0
1497659,417.86,825,756,0
1497669,418.03,825,756,0
1497679,418.62,825,756,0
1497689,418.48,825,755,0
1497699,418.72,825,756,0
1497709,418.29,825,756,0
1497719,418.33,825,756,0
1497729,417.76,825,755,0
1497739,417.79,825,756,0
1497749,417.38,825,756,0
1497759,417.91,825,756,0
1497769,418.67,825,755,0
1497779,420.99,825,756,0
1497789,424.25,825,756,0
1497799,430.22,825,756,0
1497809,438.04,825,755,0
1497828,449.21,813,754,0
1497831,463.12,813,757,0
1497840,480.74,813,756,0
1497850,499.72,813,755,0
1497860,520.07,813,756,0
1497870,539.38,813,756,0
1497880,557.48,813,756,0
1497890,572.38,813,755,0
1497900,583.79,813,756,0
1497910,590.07,813,756,0
1497920,592.79,813,756,0
1497930,591.44,813,755,0
1497940,587.37,813,756,0
1497950,580.57,813,756,0
1497960,572.38,813,756,0
1497970,562.54,813,756,0
1497980,552.48,813,756,0
1497990,542.01,813,756,0
1498000,532.40,813,756,0
1498010,523.28,813,755,0
1498020,515.70,813,756,0
1498030,509.19,813,756,0
1498040,504.80,813,756,0
1498050,502.03,813,756,0
1498060,501.60,813,756,0
1498071,502.75,813,756,0
1498081,506.12,813,756,0
1498091,510.71,813,756,0
1498101,516.89,813,756,0
1498112,523.69,813,756,0
1498121,531.16,813,756,0
1498131,538.09,813,756,0
1498141,544.45,813,756,0
1498151,549.46,813,756,0
1498161,553.18,813,756,0
1498171,554.97,813,756,0
1498181,555.02,813,756,0
1498191,553.17,813,756,0
1498201,550.08,813,756,0
1498211,545.51,813,756,0
1498221,540.00,813,756,0
1498231,533.70,813,756,0
1498241,527.36,813,756,0
1498251,520.87,813,756,0
1498261,514.61,813,756,0
1498271,508.60,813,756,0
1498281,503.53,813,756,0
1498291,499.13,813,756,0
1498301,495.66,813,756,0
1498311,492.85,813,756,0
1498321,490.97,813,756,0
1498331,489.78,813,756,0
1498341,489.24,813,755,0
1498351,488.96,813,756,0
1498361,489.10,813,756,0
1498371,489.50,813,756,0
1498381,490.21,813,755,0
1498391,490.96,813,756,0
1498401,491.78,813,756,0
1498412,492.54,813,756,0
1498422,493.27,813,755,0
1498432,493.92,813,756,0
1498442,494.24,813,756,0
1498452,494.34,813,756,0
1498462,494.37,813,755,0
1498472,494.17,813,756,0
1498482,493.73,813,756,0
1498492,493.21,813,756,0
1498502,492.51,813,755,0
1498512,491.80,813,756,0
1498522,490.62,813,756,0
1498532,489.10,813,756,0
1498542,487.23,813,755,0
1498552,485.40,813,756,0
1498562,483.35,813,756,0
1498572,481.53,813,756,0
1498583,479.79,813,755,0
1498593,479.21,813,756,0
1498603,479.96,813,756,0
1498613,483.40,813,756,0
1498624,489.67,813,755,0
1498633,500.18,813,757,0
1498643,515.04,813,756,0
1498662,535.47,834,754,0
1498665,560.87,834,756,0
1498674,589.33,834,757,0
1498684,618.33,834,756,0
1498694,646.69,834,757,0
1498704,672.45,834,755,0
1498714,694.82,834,757,0
1498724,712.40,834,756,0
1498734,724.79,834,757,0
1498744,733.43,834,756,0
1498754,739.51,834,757,0
1498764,743.73,834,756,0
1498774,746.73,834,757,0
1498784,748.78,834,756,0
1498795,749.40,834,756,0
1498804,747.10,834,756,0
1498814,741.58,834,757,0
1498824,731.72,834,755,0
1498834,718.35,834,756,0
1498844,701.19,834,756,0
1498854,681.24,834,756,0
1498864,659.44,834,755,0
1498874,638.82,834,756,0
1498884,620.15,834,756,0
1498894,605.83,834,756,0
1498904,595.34,834,756,0
1498914,589.84,834,756,0
1498924,588.13,834,756,0
1498934,590.70,834,756,0
1498944,595.64,834,756,0
1498954,603.03,834,756,0
1498964,610.78,834,756,0
1498974,618.82,834,756,0
1498984,625.21,834,756,0
1498994,630.38,834,756,0
1499004,632.62,834,756,0
1499014,632.82,834,757,0
1499024,629.66,834,756,0
1499034,624.28,834,756,0
1499044,615.84,834,756,0
1499054,605.94,834,756,0
1499064,593.83,834,756,0
1499074,581.24,834,756,0
1499084,567.54,834,756,0
1499095,554.48,834,756,0
1499105,541.39,834,755,0
1499115,529.79,834,756,0
1499125,518.71,834,755,0
1499136,509.67,834,756,0
1499145,501.71,834,756,0
1499155,495.93,834,756,0
1499165,490.98,834,755,0
1499175,487.94,834,756,0
1499185,485.47,834,756,0
1499195,484.69,834,756,0
1499205,484.01,834,755,0
1499215,484.52,834,757,0
1499225,484.75,834,755,0
1499235,485.90,834,756,0
1499245,486.53,834,755,0
1499255,487.78,834,757,0
1499265,488.23,834,756,0
1499275,489.19,834,756,0
1499285,489.09,834,755,0
1499295,489.32,834,757,0
1499305,488.50,834,755,0
1499315,488.00,834,756,0
1499325,486.55,834,755,0
1499335,485.35,834,756,0
1499345,482.98,834,755,0
1499355,480.97,834,756,0
1499365,477.98,834,755,0
1499375,475.50,834,757,0
1499385,472.05,834,755,0
1499395,469.08,834,756,0
1499405,465.24,834,755,0
1499415,462.13,834,756,0
1499425,458.40,834,755,0
1499436,455.92,834,756,0
1499446,453.93,834,755,0
1499456,455.20,834,756,0
1499466,459.81,834,755,0
1499476,470.75,834,756,0
1499486,487.58,834,756,0
1499496,512.48,834,757,0
1499515,542.64,853,755,0
1499518,576.35,853,756,0
1499527,610.44,853,756,0
1499537,643.27,853,756,0
1499547,672.07,853,756,0
1499557,696.14,853,756,0
1499567,713.54,853,756,0
1499577,725.76,853,756,0
1499587,734.28,853,756,0
1499597,740.24,853,756,0
1499607,744.41,853,756,0
1499617,747.33,853,756,0
1499627,749.03,853,756,0
1499637,747.74,853,756,0
1499648,741.43,853,756,0
1499657,730.07,853,756,0
1499667,712.61,853,756,0
1499677,689.54,853,756,0
1499687,660.92,853,755,0
1499697,628.50,853,756,0
1499707,594.92,853,756,0
1499717,563.83,853,756,0
1499727,536.20,853,756,0
1499737,514.58,853,756,0
1499747,498.76,853,756,0
1499757,490.09,853,756,0
1499767,487.24,853,755,0
1499777,490.38,853,756,0
1499787,497.64,853,756,0
1499797,508.46,853,756,0
1499807,520.54,853,756,0
1499817,533.36,853,756,0
1499827,544.57,853,756,0
1499837,553.87,853,756,0
1499847,559.52,853,756,0
1499857,561.89,853,756,0
1499867,560.77,853,756,0
1499877,555.95,853,756,0
1499887,547.14,853,756,0
1499897,535.74,853,756,0
1499907,522.02,853,756,0
1499917,507.57,853,756,0
1499927,492.23,853,756,0
1499937,476.47,853,756,0
1499948,461.42,853,756,0
1499958,448.13,853,756,0
1499968,436.35,853,756,0
1499978,426.47,853,756,0
1499988,418.06,853,756,0
1499998,411.61,853,756,0
1500008,406.67,853,756,0
1500018,403.51,853,756,0
1500028,401.73,853,756,0
1500038,401.43,853,756,0
1500048,402.03,853,755,0
1500058,403.56,853,756,0
1500068,405.62,853,756,0
1500078,408.35,853,756,0
1500088,411.03,853,755,0
1500098,413.76,853,756,0
1500108,416.19,853,756,0
1500119,418.28,853,756,0
1500129,419.82,853,756,0
1500139,420.86,853,756,0
1500149,421.25,853,756,0
1500160,421.26,853,756,0
1500169,420.84,853,755,0
1500179,419.99,853,756,0
1500189,418.88,853,756,0
1500199,417.24,853,756,0
1500209,415.33,853,756,0
1500219,412.96,853,756,0
1500229,410.36,853,756,0
1500239,407.21,853,756,0
1500249,403.93,853,756,0
1500259,400.39,853,756,0
1500269,397.19,853,756,0
1500279,394.52,853,756,0
1500289,393.42,853,755,0
1500299,394.92,853,756,0
1500309,400.43,853,756,0
1500319,410.89,853,756,0
1500329,427.94,853,756,0
1500339,451.74,853,756,0
1500358,482.16,843,754,0
1500361,517.77,843,757,0
1500370,555.94,843,756,0
1500380,594.06,843,756,0
1500390,629.91,843,757,0
1500400,661.31,843,756,0
1500410,686.97,843,756,0
1500420,704.51,843,756,0
1500430,713.10,843,757,0
1500440,712.43,843,756,0
1500450,703.34,843,756,0
1500460,686.05,843,755,0
1500470,661.35,843,756,0
1500480,629.92,843,756,0
1500490,594.76,843,756,0
1500500,557.33,843,756,0
1500510,520.67,843,756,0
1500520,485.71,843,756,0
1500530,454.51,843,756,0
1500540,427.40,843,755,0
1500550,405.85,843,756,0
1500560,389.44,843,756,0
1500570,379.37,843,756,0
1500580,374.67,843,755,0
1500590,375.80,843,756,0
1500600,381.39,843,755,0
1500610,391.60,843,756,0
1500620,404.53,843,755,0
1500631,420.10,843,756,0
1500641,436.10,843,755,0
1500651,452.31,843,756,0
1500661,466.58,843,755,0
1500672,478.87,843,756,0
1500681,487.44,843,756,0
1500691,492.79,843,756,0
1500701,493.50,843,755,0
1500711,490.99,843,756,0
1500721,484.48,843,756,0
1500731,475.72,843,756,0
1500741,464.15,843,755,0
1500751,451.63,843,757,0
1500761,437.77,843,756,0
1500771,424.47,843,756,0
1500781,410.87,843,755,0
1500791,398.78,843,756,0
1500801,387.36,843,756,0
1500811,378.17,843,757,0
1500821,370.10,843,755,0
1500831,364.46,843,756,0
1500841,360.03,843,756,0
1500851,358.01,843,756,0
1500861,356.85,843,755,0
1500871,357.75,843,756,0
1500881,359.11,843,756,0
1500891,361.99,843,756,0
1500901,364.87,843,755,0
1500911,368.81,843,756,0
1500921,372.29,843,756,0
1500931,376.49,843,756,0
1500941,379.90,843,755,0
1500951,383.79,843,756,0
1500961,386.64,843,756,0
1500972,389.70,843,756,0
1500982,391.64,843,755,0
1500992,393.67,843,757,0
1501002,394.46,843,756,0
1501012,395.22,843,757,0
1501022,394.73,843,755,0
1501032,394.46,843,756,0
1501042,393.04,843,755,0
1501052,391.74,843,756,0
1501062,389.42,843,755,0
1501072,387.45,843,757,0
1501082,384.57,843,756,0
1501092,382.26,843,757,0
1501102,379.39,843,755,0
1501112,377.78,843,756,0
1501122,376.86,843,756,0
1501132,378.87,843,757,0
1501143,383.50,843,755,0
1501153,393.46,843,756,0
1501163,408.67,843,756,0
1501173,431.05,843,756,0
1501184,459.32,843,755,0
1501193,493.81,843,756,0
1501212,531.54,854,755,0
1501215,570.76,854,758,0
1501224,608.33,854,755,0
1501234,642.69,854,756,0
1501244,670.17,854,756,0
1501254,689.70,854,756,0
1501264,698.96,854,756,0
1501274,698.85,854,756,0
1501284,689.25,854,756,0
1501294,671.35,854,756,0
1501304,645.31,854,755,0
1501314,614.41,854,756,0
1501324,579.83,854,756,0
1501334,544.44,854,756,0
1501344,508.82,854,756,0
1501355,475.66,854,756,0
1501364,445.29,854,756,0
1501374,419.83,854,756,0
1501384,398.58,854,756,0
1501394,383.02,854,756,0
1501404,372.56,854,756,0
1501414,368.15,854,756,0
1501424,368.70,854,756,0
1501434,374.58,854,756,0
1501444,384.00,854,756,0
1501454,397.03,854,756,0
1501464,411.72,854,756,0
1501474,427.71,854,756,0
1501484,442.97,854,756,0
1501494,457.20,854,756,0
1501504,468.54,854,755,0
1501514,477.17,854,756,0
1501524,481.70,854,755,0
1501534,483.08,854,756,0
1501544,480.44,854,756,0
1501554,475.08,854,756,0
1501564,466.44,854,756,0
1501574,456.24,854,756,0
1501584,444.25,854,756,0
1501594,432.00,854,756,0
1501604,419.06,854,756,0
1501614,406.87,854,756,0
1501624,395.00,854,756,0
1501634,384.84,854,756,0
1501644,375.89,854,756,0
1501655,369.06,854,756,0
1501665,363.82,854,756,0
1501675,360.53,854,756,0
1501685,358.61,854,756,0
1501696,358.39,854,756,0
1501705,359.17,854,756,0
1501715,361.18,854,755,0
1501725,363.65,854,756,0
1501735,366.80,854,756,0
1501745,370.16,854,756,0
1501755,373.93,854,756,0
1501765,377.55,854,756,0
1501775,381.28,854,756,0
1501785,384.46,854,756,0
1501795,387.40,854,756,0
1501805,389.77,854,756,0
1501815,391.68,854,756,0
1501825,392.89,854,756,0
1501835,393.82,854,756,0
1501845,394.05,854,756,0
1501855,393.95,854,756,0
1501865,393.41,854,756,0
1501875,392.51,854,756,0
1501885,391.16,854,756,0
1501895,389.61,854,756,0
1501905,387.63,854,756,0
1501915,385.51,854,756,0
1501925,383.17,854,756,0
1501935,380.72,854,756,0
1501945,378.45,854,756,0
1501955,377.11,854,756,0
1501965,376.95,854,756,0
1501975,379.24,854,756,0
1501985,384.99,854,756,0
1501996,395.75,854,755,0
1502006,412.84,854,756,0
1502016,436.80,854,756,0
1502026,467.68,854,756,0
1502046,504.59,833,754,0
1502049,544.35,833,757,0
1502058,584.36,833,756,0
1502068,622.23,833,757,0
1502078,655.76,833,755,0
1502088,683.69,833,757,0
1502098,703.97,833,756,0
1502108,715.59,833,756,0
1502118,718.29,833,755,0
1502128,713.06,833,756,0
1502138,699.71,833,756,0
1502148,679.10,833,756,0
1502158,651.04,833,755,0
1502168,618.24,833,756,0
1502178,582.04,833,756,0
1502188,545.81,833,756,0
1502198,510.30,833,755,0
1502209,478.15,833,756,0
1502219,449.61,833,756,0
1502229,426.97,833,756,0
1502239,409.32,833,755,0
1502249,398.34,833,756,0
1502259,392.88,833,756,0
1502269,393.73,833,756,0
1502279,399.13,833,755,0
1502289,409.54,833,756,0
1502299,422.67,833,756,0
1502309,438.37,833,756,0
1502319,453.90,833,755,0
1502329,469.40,833,756,0
1502339,482.61,833,756,0
1502349,493.74,833,756,0
1502359,500.68,833,755,0
1502369,504.24,833,756,0
1502380,503.14,833,755,0
1502390,499.07,833,756,0
1502400,491.16,833,755,0
1502410,481.39,833,756,0
1502420,469.18,833,756,0
1502430,456.53,833,757,0
1502440,442.70,833,755,0
1502450,429.55,833,756,0
1502460,416.31,833,756,0
1502470,404.73,833,757,0
1502480,393.63,833,756,0
1502490,384.48,833,756,0
1502500,376.32,833,756,0
1502510,370.61,833,757,0
1502520,366.23,833,756,0
1502530,364.23,833,756,0
1502540,363.26,833,756,0
1502551,364.47,833,757,0
1502561,366.47,833,756,0
1502571,370.19,833,756,0
1502581,374.16,833,756,0
1502592,379.21,833,756,0
1502601,383.99,833,756,0
1502611,389.27,833,756,0
1502621,393.60,833,756,0
1502631,398.09,833,756,0
1502641,401.36,833,756,0
1502651,404.60,833,756,0
1502661,406.52,833,756,0
1502671,408.16,833,756,0
1502681,408.50,833,756,0
1502691,408.78,833,756,0
1502701,407.86,833,756,0
1502711,407.00,833,756,0
1502721,404.94,833,756,0
1502731,403.03,833,756,0
1502741,400.15,833,756,0
1502751,397.45,833,756,0
1502761,394.06,833,756,0
1502771,391.04,833,756,0
1502781,387.34,833,756,0
1502791,384.41,833,756,0
1502801,381.54,833,756,0
1502811,380.48,833,756,0
1502821,381.11,833,756,0
1502831,385.75,833,756,0
1502841,395.08,833,756,0
1502851,411.51,833,756,0
1502861,435.19,833,756,0
1502871,467.83,833,756,0
1502881,505.94,833,756,0
1502901,547.23,856,754,0
1502904,588.35,856,757,0
1502913,627.20,856,756,0
1502923,661.25,856,756,0
1502934,689.12,856,755,0
1502943,708.88,856,756,0
1502953,722.72,856,756,0
1502963,732.40,856,756,0
1502973,739.18,856,755,0
1502983,741.78,856,756,0
1502993,738.68,856,756,0
1503003,728.62,856,756,0
1503013,710.99,856,755,0
1503023,685.88,856,755,0
1503033,653.99,856,756,0
1503043,615.80,856,756,0
1503053,574.46,856,755,0
1503063,533.05,856,756,0
1503073,494.64,856,756,0
1503083,461.23,856,756,0
1503093,434.29,856,756,0
1503104,414.36,856,756,0
1503113,402.12,856,756,0
1503123,397.12,856,756,0
1503133,399.05,856,755,0
1503143,406.71,856,756,0
1503153,419.14,856,756,0
1503163,434.65,856,756,0
1503173,451.77,856,755,0
1503183,468.68,856,756,0
1503193,484.29,856,756,0
1503203,497.10,856,756,0
1503213,506.16,856,756,0
1503223,510.57,856,756,0
1503233,510.44,856,756,0
1503243,505.94,856,756,0
1503253,497.64,856,756,0
1503263,486.05,856,756,0
1503273,472.06,856,756,0
1503283,456.62,856,756,0
1503293,440.75,856,756,0
1503303,424.96,856,756,0
1503313,409.85,856,756,0
1503323,395.88,856,756,0
1503333,383.57,856,756,0
1503343,373.33,856,756,0
1503353,365.26,856,756,0
1503363,359.44,856,756,0
1503373,355.92,856,756,0
1503383,354.53,856,756,0
1503393,355.06,856,756,0
1503404,357.27,856,756,0
1503414,360.49,856,756,0
1503424,364.84,856,756,0
1503434,369.77,856,756,0
1503444,375.24,856,756,0
1503454,380.70,856,756,0
1503464,386.06,856,756,0
1503474,390.93,856,756,0
1503484,395.66,856,756,0
1503494,399.71,856,756,0
1503504,403.18,856,756,0
1503514,405.48,856,756,0
1503524,407.05,856,756,0
1503534,407.68,856,756,0
1503544,407.82,856,756,0
1503554,407.06,856,756,0
1503564,405.84,856,756,0
1503575,403.83,856,756,0
1503585,401.74,856,756,0
1503595,399.03,856,756,0
1503605,396.32,856,756,0
1503616,392.88,856,756,0
1503625,389.58,856,756,0
1503635,385.72,856,756,0
1503645,382.24,856,756,0
1503655,378.44,856,756,0
1503665,375.78,856,756,0
1503675,374.18,856,756,0
1503685,375.75,856,756,0
1503695,381.05,856,756,0
1503705,392.52,856,756,0
1503715,411.31,856,756,0
1503725,439.59,856,757,0
1503735,475.58,856,756,0
1503745,516.51,856,756,0
1503764,559.08,863,755,0
1503767,601.06,863,758,0
1503776,639.57,863,756,0
1503787,672.36,863,756,0
1503796,697.19,863,756,0
1503806,714.62,863,757,0
1503816,726.82,863,756,0
1503826,735.36,863,756,0
1503836,741.29,863,756,0
1503846,743.95,863,757,0
1503856,740.41,863,756,0
1503866,729.79,863,756,0
1503876,710.78,863,756,0
1503886,683.76,863,756,0
1503896,648.86,863,756,0
1503906,607.42,863,756,0
1503916,561.48,863,756,0
1503926,516.12,863,757,0
1503936,473.36,863,756,0
1503946,436.78,863,756,0
1503956,407.14,863,756,0
1503966,386.10,863,757,0
1503976,373.00,863,756,0
1503986,368.80,863,756,0
1503996,371.82,863,756,0
1504006,381.99,863,757,0
1504016,396.56,863,756,0
1504026,414.95,863,756,0
1504036,434.42,863,756,0
1504046,454.10,863,756,0
1504056,471.00,863,756,0
1504066,484.88,863,756,0
1504076,493.66,863,755,0
1504087,497.96,863,757,0
1504097,496.39,863,756,0
1504107,490.44,863,757,0
1504117,479.60,863,755,0
1504128,466.00,863,757,0
1504137,449.50,863,756,0
1504147,432.34,863,757,0
1504157,414.24,863,756,0
1504167,397.32,863,757,0
1504177,380.98,863,756,0
1504187,367.06,863,757,0
1504197,354.66,863,755,0
1504207,345.16,863,757,0
1504217,337.48,863,756,0
1504227,333.05,863,757,0
1504237,330.29,863,755,0
1504247,330.29,863,756,0
1504257,331.40,863,756,0
1504267,334.84,863,757,0
1504277,339.05,863,755,0
1504287,344.99,863,757,0
1504297,350.73,863,756,0
1504307,357.50,863,757,0
1504317,363.56,863,755,0
1504327,370.04,863,756,0
1504337,375.30,863,756,0
1504347,380.48,863,757,0
1504357,384.11,863,755,0
1504367,387.46,863,756,0
1504377,389.29,863,756,0
1504387,390.96,863,757,0
1504397,391.23,863,755,0
1504407,391.33,863,756,0
1504417,390.03,863,756,0
1504428,388.69,863,756,0
1504438,386.09,863,755,0
1504448,383.45,863,756,0
1504458,379.67,863,756,0
1504468,376.00,863,756,0
1504478,371.37,863,755,0
1504488,367.14,863,756,0
1504498,362.17,863,756,0
1504508,358.05,863,756,0
1504518,353.83,863,755,0
1504528,351.27,863,756,0
1504538,350.20,863,756,0
1504548,353.10,863,756,0
1504558,360.23,863,755,0
1504568,374.64,863,756,0
1504578,396.74,863,756,0
1504588,428.49,863,757,0
1504599,467.64,863,756,0
1504609,511.46,863,756,0
1504628,556.28,864,755,0
1504631,600.00,864,758,0
1504641,639.30,864,756,0
1504651,672.42,864,756,0
1504661,697.32,864,756,0
1504671,714.76,864,756,0
1504681,726.31,864,756,0
1504691,730.93,864,756,0
1504701,727.31,864,756,0
1504711,714.53,864,756,0
1504721,692.34,864,755,0
1504731,661.34,864,756,0
1504741,622.15,864,756,0
1504751,576.08,864,756,0
1504761,526.85,864,756,0
1504771,478.13,864,756,0
1504781,432.75,864,756,0
1504791,392.88,864,756,0
1504801,359.66,864,756,0
1504812,334.05,864,756,0
1504822,316.80,864,756,0
1504832,307.82,864,756,0
1504842,306.97,864,756,0
1504852,313.32,864,756,0
1504862,325.83,864,756,0
1504872,342.81,864,756,0
1504882,362.84,864,756,0
1504892,383.84,864,756,0
1504902,404.55,864,756,0
1504912,422.85,864,756,0
1504922,437.86,864,756,0
1504932,448.18,864,755,0
1504942,454.04,864,756,0
1504952,454.72,864,756,0
1504962,450.77,864,756,0
1504972,442.10,864,755,0
1504983,430.15,864,757,0
1504993,415.28,864,756,0
1505003,399.12,864,756,0
1505013,381.56,864,756,0
1505024,364.46,864,757,0
1505033,348.00,864,756,0
1505043,333.43,864,756,0
1505053,320.40,864,755,0
1505063,310.29,864,756,0
1505073,302.40,864,756,0
1505083,297.74,864,756,0
1505093,295.08,864,756,0
1505103,295.22,864,756,0
1505113,297.13,864,756,0
1505123,301.20,864,757,0
1505133,305.90,864,756,0
1505143,311.93,864,757,0
1505153,317.82,864,756,0
1505163,324.35,864,757,0
1505173,330.20,864,756,0
1505183,336.27,864,756,0
1505193,341.37,864,756,0
1505203,346.53,864,756,0
1505213,350.53,864,756,0
1505223,354.40,864,756,0
1505233,356.89,864,756,0
1505243,358.98,864,756,0
1505253,359.76,864,756,0
1505263,360.39,864,756,0
1505273,359.80,864,756,0
1505283,359.13,864,756,0
1505293,357.46,864,756,0
1505303,356.12,864,757,0
1505313,353.90,864,756,0
1505324,351.87,864,757,0
1505334,348.95,864,756,0
1505344,346.44,864,757,0
1505354,343.14,864,756,0
1505364,340.40,864,757,0
1505374,337.06,864,756,0
1505384,334.69,864,757,0
1505394,332.21,864,756,0
1505404,331.76,864,757,0
1505414,332.86,864,755,0
1505424,338.26,864,756,0
1505434,348.17,864,756,0
1505444,365.47,864,757,0
1505454,390.02,864,755,0
1505464,423.66,864,757,0
1505474,464.30,864,756,0
1505494,509.30,865,754,0
1505497,554.85,865,757,0
1505506,598.82,865,757,0
1505516,637.96,865,756,0
1505526,671.10,865,757,0
1505537,696.31,865,755,0
1505547,712.12,865,756,0
1505557,717.87,865,756,0
1505567,713.71,865,756,0
1505577,699.01,865,755,0
1505587,674.84,865,756,0
1505597,641.41,865,756,0
1505607,599.98,865,756,0
1505617,552.84,865,755,0
1505627,504.50,865,756,0
1505637,456.95,865,756,0
1505647,413.55,865,756,0
1505657,375.16,865,756,0
1505667,343.61,865,756,0
1505677,318.78,865,756,0
1505687,302.22,865,756,0
1505697,293.15,865,755,0
1505708,292.29,865,756,0
1505718,298.25,865,756,0
1505728,310.56,865,756,0
1505738,327.41,865,755,0
1505748,348.03,865,756,0
1505758,369.83,865,756,0
1505768,391.87,865,756,0
1505778,411.92,865,755,0
1505788,429.17,865,756,0
1505798,442.06,865,756,0
1505808,450.62,865,756,0
1505818,454.12,865,755,0
1505828,452.93,865,756,0
1505838,447.03,865,756,0
1505848,437.55,865,756,0
1505858,424.91,865,756,0
1505868,410.28,865,756,0
1505879,394.08,865,756,0
1505889,377.26,865,756,0
1505899,360.72,865,756,0
1505909,345.29,865,756,0
1505920,331.53,865,756,0
1505929,319.93,865,756,0
1505939,310.61,865,756,0
1505949,303.74,865,756,0
1505959,299.40,865,756,0
1505969,297.48,865,756,0
1505979,297.77,865,756,0
1505989,299.77,865,756,0
1505999,303.31,865,756,0
1506009,308.19,865,756,0
1506019,313.96,865,756,0
1506029,320.19,865,756,0
1506039,326.60,865,756,0
1506049,332.72,865,756,0
1506059,338.50,865,756,0
1506069,343.67,865,756,0
1506079,348.10,865,756,0
1506089,351.54,865,756,0
1506099,354.29,865,756,0
1506109,356.26,865,756,0
1506119,357.73,865,756,0
1506129,358.41,865,756,0
1506139,358.63,865,756,0
1506149,358.23,865,756,0
1506159,357.73,865,756,0
1506169,356.70,865,756,0
1506179,355.24,865,756,0
1506189,353.46,865,756,0
1506199,351.65,865,756,0
1506209,349.40,865,756,0
1506220,347.18,865,756,0
1506230,344.38,865,756,0
1506240,341.74,865,756,0
1506250,338.86,865,756,0
1506260,336.33,865,756,0
1506270,333.79,865,756,0
1506280,332.27,865,757,0
1506290,331.67,865,756,0
1506300,334.08,865,756,0
1506310,339.97,865,756,0
1506320,351.68,865,756,0
1506330,369.91,865,756,0
1506340,396.63,865,756,0
1506350,431.33,865,756,0
1506360,473.06,865,757,0
1506379,517.91,886,755,0
1506382,563.41,886,758,0
1506391,606.40,886,756,0
1506401,644.68,886,757,0
1506411,675.98,886,756,0
1506421,699.68,886,757,0
1506432,715.89,886,756,0
1506441,724.71,886,757,0
1506451,725.01,886,756,0
1506461,716.61,886,756,0
1506471,698.77,886,755,0
1506481,672.52,886,756,0
1506491,637.95,886,756,0
1506501,596.74,886,757,0
1506511,551.09,886,755,0
1506521,505.38,886,756,0
1506531,461.42,886,756,0
1506541,422.51,886,757,0
1506551,388.67,886,755,0
1506561,361.98,886,757,0
1506571,342.02,886,756,0
1506581,330.35,886,757,0
1506591,325.62,886,755,0
1506601,328.56,886,756,0
1506611,337.18,886,756,0
1506621,351.48,886,757,0
1506631,369.12,886,755,0
1506641,389.74,886,756,0
1506651,410.61,886,756,0
1506661,431.21,886,756,0
1506671,448.89,886,755,0
1506681,463.62,886,756,0
1506691,473.64,886,756,0
1506701,479.36,886,756,0
1506711,479.55,886,755,0
1506721,475.66,886,756,0
1506732,466.97,886,756,0
1506742,455.33,886,757,0
1506752,440.53,886,755,0
1506762,424.60,886,757,0
1506772,407.28,886,756,0
1506782,390.69,886,757,0
1506792,374.24,886,756,0
1506802,359.94,886,757,0
1506812,347.23,886,756,0
1506822,337.60,886,757,0
1506832,330.01,886,755,0
1506842,325.81,886,757,0
1506852,323.46,886,756,0
1506862,323.97,886,757,0
1506872,325.73,886,755,0
1506882,329.71,886,756,0
1506892,334.21,886,756,0
1506903,340.28,886,757,0
1506913,346.15,886,755,0
1506923,352.79,886,756,0
1506933,358.73,886,756,0
1506944,365.07,886,756,0
1506953,370.32,886,755,0
1506963,375.79,886,757,0
1506973,379.84,886,756,0
1506983,383.75,886,756,0
1506993,386.09,886,756,0
1507003,388.29,886,756,0
1507013,389.19,886,756,0
1507023,389.95,886,756,0
1507033,389.32,886,756,0
1507043,388.75,886,756,0
1507053,387.07,886,756,0
1507063,385.76,886,756,0
1507073,383.61,886,756,0
1507083,381.80,886,756,0
1507093,379.16,886,756,0
1507103,376.88,886,756,0
1507113,373.79,886,756,0
1507123,371.28,886,756,0
1507133,368.07,886,756,0
1507143,365.43,886,756,0
1507153,362.26,886,756,0
1507163,360.13,886,756,0
1507173,358.07,886,756,0
1507183,358.14,886,756,0
1507193,360.11,886,756,0
1507203,366.63,886,756,0
1507213,378.36,886,756,0
1507223,398.44,886,756,0
1507233,426.93,886,756,0
1507244,464.07,886,756,0
1507254,505.88,886,756,0
1507273,550.06,894,754,0
1507276,593.37,894,757,0
1507286,633.63,894,756,0
1507295,667.55,894,756,0
1507305,693.79,894,756,0
1507315,712.15,894,756,0
1507325,725.01,894,756,0
1507335,734.00,894,756,0
1507345,740.30,894,757,0
1507355,744.71,894,756,0
1507365,744.33,894,756,0
1507375,737.20,894,756,0
1507385,722.27,894,756,0
1507395,698.57,894,756,0
1507405,666.99,894,756,0
1507415,628.03,894,756,0
1507425,582.94,894,756,0
1507435,536.03,894,756,0
1507445,491.28,894,756,0
1507456,451.29,894,756,0
1507465,418.93,894,756,0
1507475,394.61,894,756,0
1507485,379.30,894,756,0
1507495,372.57,894,756,0
1507505,374.28,894,756,0
1507515,383.07,894,756,0
1507525,397.88,894,756,0
1507535,416.51,894,756,0
1507545,437.49,894,756,0
1507555,458.21,894,756,0
1507565,477.39,894,756,0
1507575,493.05,894,756,0
1507585,504.52,894,756,0
1507595,510.49,894,756,0
1507605,511.20,894,756,0
1507615,506.47,894,756,0
1507625,497.29,894,756,0
1507635,484.09,894,756,0
1507645,468.33,894,756,0
1507655,450.49,894,756,0
1507665,432.00,894,756,0
1507675,413.53,894,756,0
1507685,396.10,894,756,0
1507695,380.21,894,756,0
1507705,366.56,894,756,0
1507715,355.29,894,756,0
1507725,346.93,894,756,0
1507735,341.25,894,756,0
1507745,338.35,894,756,0
1507756,337.82,894,756,0
1507766,339.54,894,756,0
1507776,343.02,894,756,0
1507786,347.99,894,756,0
1507796,353.91,894,756,0
1507806,360.62,894,756,0
1507816,367.42,894,756,0
1507826,374.11,894,756,0
1507836,380.42,894,756,0
1507846,386.29,894,756,0
1507856,391.52,894,756,0
1507866,395.82,894,756,0
1507876,399.26,894,756,0
1507886,401.88,894,756,0
1507896,403.67,894,756,0
1507906,404.54,894,756,0
1507916,404.68,894,756,0
1507927,403.96,894,756,0
1507937,402.82,894,756,0
1507947,400.90,894,756,0
1507957,398.74,894,757,0
1507968,395.95,894,756,0
1507977,393.18,894,756,0
1507987,389.91,894,756,0
1507997,386.77,894,756,0
1508007,383.24,894,756,0
1508017,379.99,894,756,0
1508027,376.40,894,756,0
1508037,373.32,894,757,0
1508047,370.01,894,756,0
1508057,367.44,894,756,0
1508067,365.59,894,756,0
1508077,366.14,894,757,0
1508087,369.87,894,756,0
1508097,378.91,894,756,0
1508107,394.97,894,756,0
1508117,420.60,894,757,0
1508127,455.35,894,756,0
1508137,496.13,894,757,0
1508156,539.68,883,755,0
1508159,583.57,883,757,0
1508168,624.97,883,756,0
1508178,661.15,883,757,0
1508188,689.35,883,756,0
1508198,709.13,883,757,0
1508208,722.98,883,756,0
1508218,732.67,883,756,0
1508228,739.41,883,756,0
1508238,744.17,883,757,0
1508248,747.51,883,756,0
1508258,747.83,883,756,0
1508268,742.31,883,756,0
1508278,729.40,883,757,0
1508288,707.55,883,755,0
1508298,677.34,883,756,0
1508308,638.88,883,756,0
1508318,593.88,883,757,0
1508328,545.01,883,756,0
1508338,497.44,883,756,0
1508348,454.06,883,756,0
1508358,418.77,883,757,0
1508368,392.14,883,756,0
1508378,375.86,883,756,0
1508388,368.70,883,756,0
1508398,371.02,883,757,0
1508408,380.48,883,756,0
1508418,396.50,883,756,0
1508428,416.10,883,756,0
1508439,437.97,883,757,0
1508449,458.90,883,756,0
1508459,478.04,883,756,0
1508469,492.77,883,756,0
1508480,503.04,883,757,0
1508489,507.10,883,756,0
1508499,505.83,883,756,0
1508509,498.59,883,756,0
1508519,487.10,883,757,0
1508529,471.34,883,756,0
1508539,453.63,883,756,0
1508549,433.89,883,756,0
1508559,414.43,883,757,0
1508569,394.93,883,756,0
1508579,377.33,883,756,0
1508589,361.29,883,756,0
1508599,348.48,883,757,0
1508609,337.92,883,756,0
1508619,331.13,883,756,0
1508629,326.80,883,756,0
1508639,325.96,883,757,0
1508649,327.13,883,756,0
1508659,331.08,883,757,0
1508669,336.11,883,756,0
1508679,343.11,883,757,0
1508689,350.19,883,756,0
1508699,358.19,883,756,0
1508709,365.55,883,756,0
1508719,373.27,883,757,0
1508729,379.79,883,756,0
1508739,386.15,883,756,0
1508749,390.91,883,756,0
1508759,395.39,883,757,0
1508769,398.19,883,756,0
1508780,400.57,883,757,0
1508790,401.26,883,756,0
1508800,401.78,883,757,0
1508810,400.82,883,756,0
1508820,399.93,883,757,0
1508830,397.77,883,756,0
1508840,395.82,883,757,0
1508850,392.96,883,756,0
1508860,390.49,883,757,0
1508870,387.17,883,756,0
1508880,384.29,883,757,0
1508890,380.60,883,756,0
1508900,377.38,883,756,0
1508910,373.49,883,756,0
1508920,370.17,883,757,0
1508930,366.31,883,756,0
1508940,363.43,883,757,0
1508951,360.90,883,756,0
1508961,360.93,883,756,0
1508971,364.08,883,756,0
1508981,373.23,883,756,0
1508992,389.62,883,756,0
1509001,416.00,883,757,0
1509011,451.40,883,756,0
1509021,493.20,883,757,0
1509031,537.75,883,756,0
1509050,582.70,894,754,0
1509053,624.66,894,757,0
1509062,661.15,894,757,0
1509072,689.43,894,756,0
1509082,709.27,894,757,0
1509092,723.16,894,756,0
1509102,732.93,894,756,0
1509112,739.72,894,756,0
1509122,744.52,894,756,0
1509132,747.83,894,756,0
1509142,747.11,894,756,0
1509152,739.28,894,756,0
1509163,722.91,894,756,0
1509172,697.35,894,756,0
1509182,663.13,894,756,0
1509192,620.45,894,756,0
1509202,570.73,894,756,0
1509212,518.05,894,756,0
1509222,467.64,894,756,0
1509232,422.53,894,755,0
1509242,385.69,894,756,0
1509252,357.88,894,756,0
1509262,340.73,894,756,0
1509272,333.57,894,756,0
1509282,336.36,894,756,0
1509292,347.01,894,756,0
1509302,364.36,894,756,0
1509312,385.68,894,756,0
1509322,409.48,894,756,0
1509332,432.78,894,756,0
1509342,454.14,894,756,0
1509352,471.07,894,756,0
1509362,483.09,894,756,0
1509372,488.89,894,756,0
1509382,489.05,894,756,0
1509392,483.08,894,756,0
1509402,472.17,894,756,0
1509412,456.78,894,756,0
1509422,438.89,894,756,0
1509432,418.91,894,756,0
1509442,398.62,894,756,0
1509452,378.38,894,756,0
1509463,359.75,894,756,0
1509473,342.98,894,756,0
1509483,329.14,894,756,0
1509493,318.17,894,756,0
1509504,310.79,894,756,0
1509513,306.57,894,756,0
1509523,305.58,894,756,0
1509533,307.29,894,756,0
1509543,311.53,894,756,0
1509553,317.63,894,756,0
1509563,325.24,894,756,0
1509573,333.96,894,756,0
1509583,343.27,894,756,0
1509593,352.62,894,756,0
1509603,361.43,894,756,0
1509613,369.44,894,756,0
1509623,376.47,894,756,0
1509633,382.37,894,756,0
1509643,387.15,894,756,0
1509653,390.62,894,756,0
1509663,392.83,894,756,0
1509673,394.21,894,756,0
1509683,394.70,894,756,0
1509693,394.32,894,756,0
1509703,393.15,894,756,0
1509713,391.26,894,756,0
1509723,389.00,894,756,0
1509733,386.43,894,756,0
1509743,383.26,894,756,0
1509753,379.88,894,756,0
1509763,376.23,894,756,0
1509773,372.52,894,756,0
1509783,368.46,894,756,0
1509793,364.17,894,756,0
1509804,359.62,894,756,0
1509814,355.49,894,757,0
1509824,351.83,894,756,0
1509834,349.91,894,756,0
1509844,350.49,894,756,0
1509854,355.70,894,756,0
1509864,367.45,894,756,0
1509874,388.44,894,756,0
1509884,419.98,894,755,0
1509894,459.80,894,757,0
1509904,504.35,894,756,0
1509914,550.91,894,757,0
1509934,596.33,883,754,0
1509937,637.80,883,758,0
1509946,672.10,883,756,0
1509956,697.14,883,757,0
1509966,714.63,883,755,0
1509976,726.87,883,757,0
1509986,735.39,883,756,0
1509996,741.40,883,757,0
1510006,745.61,883,755,0
1510017,744.87,883,756,0
1510027,736.00,883,756,0
1510037,717.95,883,756,0
1510047,689.60,883,755,0
1510057,651.96,883,757,0
1510067,605.43,883,756,0
1510077,551.73,883,757,0
1510087,495.28,883,755,0
1510097,442.18,883,757,0
1510107,394.86,883,756,0
1510117,357.14,883,757,0
1510127,329.16,883,755,0
1510137,312.74,883,757,0
1510147,306.60,883,756,0
1510157,311.48,883,757,0
1510167,324.49,883,755,0
1510177,345.09,883,757,0
1510188,369.66,883,756,0
1510198,397.11,883,756,0
1510208,423.52,883,755,0
1510218,448.09,883,756,0
1510228,467.52,883,756,0
1510238,481.72,883,756,0
1510248,488.62,883,755,0
1510258,489.46,883,756,0
1510268,483.28,883,756,0
1510278,472.22,883,757,0
1510288,456.04,883,756,0
1510298,437.34,883,756,0
1510308,416.16,883,756,0
1510318,395.11,883,757,0
1510328,373.78,883,756,0
1510338,354.56,883,757,0
1510348,336.95,883,756,0
1510359,322.86,883,757,0
1510369,311.33,883,756,0
1510379,303.86,883,756,0
1510389,299.19,883,756,0
1510400,298.32,883,756,0
1510409,299.64,883,756,0
1510419,304.12,883,756,0
1510429,310.12,883,756,0
1510439,318.32,883,756,0
1510449,327.09,883,756,0
1510459,336.96,883,756,0
1510469,346.62,883,756,0
1510479,356.59,883,756,0
1510489,365.37,883,756,0
1510499,373.70,883,756,0
1510509,380.35,883,756,0
1510519,386.16,883,756,0
1510529,390.10,883,756,0
1510539,393.20,883,756,0
1510549,394.59,883,756,0
1510559,395.27,883,756,0
1510569,394.46,883,756,0
1510579,393.42,883,756,0
1510589,391.20,883,756,0
1510599,389.04,883,756,0
1510609,385.98,883,756,0
1510619,383.12,883,756,0
1510629,379.48,883,756,0
1510639,375.95,883,756,0
1510649,371.72,883,756,0
1510659,367.82,883,756,0
1510669,363.29,883,756,0
1510679,359.09,883,756,0
1510689,354.48,883,756,0
1510700,350.73,883,756,0
1510710,347.86,883,756,0
1510720,347.73,883,756,0
1510730,351.41,883,756,0
1510740,361.79,883,756,0
1510750,380.24,883,756,0
1510760,409.69,883,756,0
1510770,448.06,883,756,0
1510780,492.27,883,756,0
1510790,538.95,883,756,0
1510809,585.33,876,755,0
1510812,628.00,876,757,0
1510821,664.47,876,756,0
1510831,691.72,876,756,0
1510841,710.79,876,756,0
1510851,724.14,876,756,0
1510861,733.48,876,756,0
1510871,739.98,876,756,0
1510881,744.57,876,756,0
1510891,745.60,876,756,0
1510901,739.72,876,756,0
1510912,724.89,876,756,0
1510921,700.45,876,756,0
1510931,666.46,876,756,0
1510941,623.38,876,756,0
1510951,572.26,876,756,0
1510961,516.81,876,756,0
1510971,462.31,876,756,0
1510981,413.02,876,756,0
1510991,371.61,876,756,0
1511001,339.97,876,756,0
1511011,318.98,876,756,0
1511021,309.04,876,755,0
1511031,309.72,876,756,0
1511041,319.74,876,756,0
1511051,337.31,876,756,0
1511061,360.40,876,755,0
1511071,386.72,876,756,0
1511081,413.93,876,756,0
1511091,439.67,876,756,0
1511101,461.71,876,755,0
1511111,478.68,876,756,0
1511121,489.45,876,756,0
1511131,493.64,876,756,0
1511141,491.18,876,756,0
1511151,482.73,876,756,0
1511161,468.96,876,756,0
1511171,451.32,876,756,0
1511181,431.04,876,756,0
1511191,409.47,876,756,0
1511201,387.56,876,756,0
1511212,366.52,876,757,0
1511222,347.21,876,756,0
1511232,330.69,876,756,0
1511242,317.15,876,756,0
1511252,307.16,876,757,0
1511262,300.64,876,756,0
1511272,297.84,876,756,0
1511282,298.23,876,756,0
1511292,301.93,876,757,0
1511302,307.82,876,756,0
1511312,315.85,876,756,0
1511322,324.81,876,756,0
1511332,334.89,876,757,0
1511342,344.87,876,756,0
1511352,354.72,876,756,0
1511362,363.46,876,756,0
1511372,371.51,876,757,0
1511383,378.04,876,756,0
1511393,383.82,876,756,0
1511403,387.81,876,756,0
1511413,391.00,876,757,0
1511424,392.58,876,756,0
1511433,393.65,876,756,0
1511443,393.50,876,756,0
1511453,393.05,876,757,0
1511463,391.49,876,756,0
1511473,389.89,876,756,0
1511483,387.48,876,756,0
1511493,385.36,876,757,0
1511503,382.34,876,756,0
1511513,379.54,876,756,0
1511523,375.91,876,756,0
1511533,372.51,876,757,0
1511543,368.37,876,756,0
1511553,364.53,876,756,0
1511563,360.17,876,756,0
1511573,356.39,876,756,0
1511583,352.50,876,756,0
1511593,350.47,876,756,0
1511603,350.28,876,756,0
1511613,354.74,876,756,0
1511623,364.89,876,756,0
1511633,384.38,876,756,0
1511643,414.05,876,756,0
1511653,452.78,876,757,0
1511663,496.60,876,756,0
1511673,543.22,876,756,0
1511692,589.10,883,755,0
1511695,631.67,883,758,0
1511704,667.08,883,756,0
1511714,693.59,883,756,0
1511724,712.10,883,756,0
1511734,725.10,883,757,0
1511744,734.15,883,756,0
