Time,PPG,IBI,GSR,GSR_Event
1423228,339.00,844,775,0
1423238,334.67,844,776,0
1423248,330.83,844,774,0
1423258,328.22,844,776,0
1423268,326.78,844,775,0
1423278,326.63,844,776,0
1423288,327.22,844,774,0
1423298,332.94,844,776,0
1423308,341.06,844,774,0
1423319,349.95,844,776,0
1423329,358.32,844,775,0
1423339,365.34,844,776,0
1423349,370.47,844,775,0
1423360,373.50,844,776,0
1423369,374.38,844,775,0
1423379,373.11,844,776,0
1423389,369.99,844,775,0
1423399,365.36,844,776,0
1423409,359.60,844,775,0
1423419,353.12,844,776,0
1423429,346.31,844,775,0
1423439,339.45,844,776,0
1423449,332.80,844,775,0
1423459,326.56,844,776,0
1423469,320.91,844,775,0
1423479,315.79,844,776,0
1423489,311.44,844,775,0
1423499,307.88,844,776,0
1423509,305.17,844,775,0
1423519,303.11,844,776,0
1423529,301.87,844,775,0
1423539,301.40,844,776,0
1423549,301.84,844,775,0
1423559,302.91,844,776,0
1423569,304.53,844,776,0
1423579,306.42,844,776,0
1423589,308.83,844,775,0
1423599,311.32,844,776,0
1423609,313.84,844,775,0
1423619,316.33,844,776,0
1423629,318.76,844,775,0
1423639,320.93,844,776,0
1423649,322.88,844,776,0
1423660,324.37,844,776,0
1423670,325.76,844,776,0
1423680,326.73,844,775,0
1423690,327.41,844,776,0
1423700,327.46,844,775,0
1423710,327.41,844,776,0
1423720,327.03,844,775,0
1423730,326.63,844,776,0
1423740,326.23,844,775,0
1423750,326.72,844,776,0
1423760,328.22,844,775,0
1423770,331.97,844,776,0
1423780,338.58,844,775,0
1423790,349.50,844,776,0
1423800,365.47,844,775,0
1423819,387.53,873,775,0
1423822,417.41,873,775,0
1423831,454.45,873,777,0
1423841,496.40,873,776,0
1423851,540.29,873,777,0
1423861,583.45,873,776,0
1423872,623.98,873,777,0
1423881,659.95,873,776,0
1423891,687.31,873,777,0
1423901,704.66,873,776,0
1423911,712.30,873,777,0
1423921,711.18,873,776,0
1423931,702.17,873,777,0
1423941,685.62,873,776,0
1423951,662.29,873,777,0
1423961,633.96,873,776,0
1423971,602.94,873,777,0
1423981,570.48,873,775,0
1423991,538.32,873,777,0
1424001,507.32,873,776,0
1424011,478.77,873,777,0
1424021,452.91,873,775,0
1424031,430.22,873,778,0
1424041,410.44,873,775,0
1424051,394.11,873,777,0
1424061,380.62,873,775,0
1424071,370.53,873,778,0
1424081,363.30,873,775,0
1424091,359.18,873,777,0
1424101,357.46,873,775,0
1424111,358.43,873,777,0
1424121,361.18,873,775,0
1424131,365.88,873,777,0
1424141,371.44,873,775,0
1424151,377.95,873,777,0
1424161,384.22,873,775,0
1424172,390.37,873,777,0
1424182,395.15,873,774,0
1424192,398.87,873,777,0
1424202,400.71,873,775,0
1424212,401.10,873,777,0
1424222,399.48,873,775,0
1424232,396.60,873,777,0
1424242,392.05,873,775,0
1424252,386.93,873,777,0
1424262,380.70,873,774,0
1424272,374.36,873,777,0
1424282,367.56,873,775,0
1424292,361.14,873,777,0
1424302,354.75,873,775,0
1424312,349.21,873,777,0
1424322,343.75,873,774,0
1424332,339.28,873,777,0
1424343,335.04,873,774,0
1424353,331.69,873,778,0
1424363,328.39,873,774,0
1424373,325.96,873,777,0
1424384,323.57,873,774,0
1424393,322.12,873,778,0
1424403,320.84,873,774,0
1424413,320.33,873,777,0
1424423,319.84,873,774,0
1424433,320.15,873,777,0
1424443,320.28,873,774,0
1424453,321.05,873,777,0
1424463,321.63,873,774,0
1424473,322.52,873,778,0
1424483,323.13,873,774,0
1424493,324.08,873,777,0
1424503,324.74,873,774,0
1424513,325.89,873,777,0
1424523,326.69,873,774,0
1424533,327.86,873,777,0
1424543,328.76,873,774,0
1424553,330.12,873,778,0
1424563,331.07,873,774,0
1424573,332.25,873,777,0
1424583,332.77,873,774,0
1424593,333.48,873,778,0
1424603,333.51,873,774,0
1424613,333.57,873,778,0
1424623,333.14,873,774,0
1424633,333.27,873,777,0
1424643,333.75,873,774,0
1424653,336.09,873,777,0
1424663,340.39,873,774,0
1424673,348.50,873,778,0
1424684,360.82,873,774,0
1424703,378.88,884,773,0
1424706,403.43,884,776,0
1424715,435.10,884,778,0
1424726,472.06,884,776,0
1424735,513.35,884,777,0
1424745,555.68,884,775,0
1424755,596.96,884,777,0
1424765,634.81,884,776,0
1424775,667.31,884,778,0
1424785,692.80,884,776,0
1424795,710.61,884,777,0
1424805,719.47,884,776,0
1424815,720.53,884,777,0
1424825,713.94,884,775,0
1424835,700.33,884,777,0
1424845,679.83,884,776,0
1424855,653.74,884,777,0
1424865,623.35,884,775,0
1424875,590.93,884,777,0
1424885,557.65,884,776,0
1424896,525.40,884,777,0
1424905,494.98,884,775,0
1424915,467.38,884,777,0
1424925,442.58,884,776,0
1424935,421.49,884,777,0
1424945,403.86,884,775,0
1424955,389.97,884,777,0
1424965,379.35,884,776,0
1424975,372.22,884,777,0
1424985,368.38,884,775,0
1424995,367.62,884,777,0
1425005,369.11,884,776,0
1425015,372.89,884,777,0
1425025,378.15,884,775,0
1425035,384.83,884,777,0
1425045,391.91,884,776,0
1425055,399.14,884,777,0
1425065,405.78,884,776,0
1425075,411.93,884,777,0
1425085,416.58,884,776,0
1425095,419.84,884,777,0
1425105,421.30,884,776,0
1425115,421.17,884,777,0
1425125,419.15,884,776,0
1425135,415.76,884,777,0
1425145,410.86,884,776,0
1425155,405.24,884,777,0
1425165,398.79,884,776,0
1425175,391.95,884,777,0
1425185,384.89,884,776,0
1425196,377.90,884,777,0
1425206,371.11,884,777,0
1425216,364.82,884,777,0
1425226,359.00,884,777,0
1425236,353.90,884,777,0
1425246,349.47,884,777,0
1425256,345.78,884,777,0
1425266,342.80,884,777,0
1425276,340.59,884,777,0
1425286,339.00,884,777,0
1425296,337.84,884,777,0
1425306,337.20,884,777,0
1425316,336.84,884,777,0
1425326,336.80,884,777,0
1425336,337.16,884,777,0
1425346,337.76,884,777,0
1425356,338.69,884,777,0
1425367,340.07,884,777,0
1425377,341.68,884,777,0
1425387,343.74,884,777,0
1425397,345.92,884,776,0
1425408,348.39,884,778,0
1425417,351.10,884,777,0
1425427,354.07,884,777,0
1425437,356.96,884,776,0
1425447,359.93,884,777,0
1425457,362.65,884,777,0
1425467,365.33,884,777,0
1425477,367.46,884,776,0
1425487,369.16,884,778,0
1425497,370.27,884,777,0
1425507,371.43,884,777,0
1425517,372.67,884,776,0
1425527,375.04,884,777,0
1425537,379.10,884,777,0
1425547,386.36,884,777,0
1425557,397.95,884,776,0
1425576,415.66,873,775,0
1425580,440.58,873,775,0
1425588,473.75,873,777,0
1425598,511.97,873,776,0
1425608,552.78,873,778,0
1425618,593.56,873,775,0
1425628,632.13,873,777,0
1425638,666.16,873,776,0
1425648,693.72,873,777,0
1425658,713.30,873,775,0
1425668,727.01,873,777,0
1425678,736.61,873,776,0
1425688,743.33,873,777,0
1425698,748.03,873,775,0
1425708,751.32,873,778,0
1425718,753.62,873,776,0
1425728,755.24,873,777,0
1425738,756.37,873,775,0
1425748,757.16,873,777,0
1425758,757.02,873,776,0
1425768,753.76,873,777,0
1425778,745.05,873,775,0
1425788,730.12,873,777,0
1425798,708.31,873,775,0
1425808,679.89,873,777,0
1425818,644.99,873,775,0
1425828,605.18,873,777,0
1425838,563.30,873,775,0
1425848,522.71,873,777,0
1425858,484.91,873,775,0
1425868,451.98,873,777,0
1425879,424.34,873,775,0
1425889,402.94,873,777,0
1425899,387.32,873,774,0
1425909,377.66,873,777,0
1425920,373.05,873,774,0
1425929,373.08,873,777,0
1425939,376.18,873,774,0
1425949,381.79,873,777,0
1425959,388.28,873,774,0
1425969,395.18,873,777,0
1425979,401.00,873,774,0
1425989,405.76,873,777,0
1425999,408.53,873,774,0
1426009,409.61,873,777,0
1426019,408.19,873,774,0
1426029,405.00,873,777,0
1426039,399.77,873,774,0
1426049,393.58,873,777,0
1426059,386.25,873,775,0
1426069,378.59,873,777,0
1426079,370.14,873,774,0
1426089,362.00,873,777,0
1426099,353.77,873,774,0
1426109,346.38,873,777,0
1426119,339.32,873,774,0
1426129,333.10,873,777,0
1426139,327.28,873,775,0
1426149,322.57,873,777,0
1426159,318.37,873,774,0
1426169,315.34,873,777,0
1426179,312.63,873,774,0
1426189,310.77,873,777,0
1426199,309.12,873,774,0
1426209,308.36,873,777,0
1426220,307.78,873,774,0
1426230,307.93,873,777,0
1426240,308.25,873,774,0
1426250,309.29,873,777,0
1426260,310.49,873,774,0
1426270,312.53,873,777,0
1426280,314.60,873,774,0
1426290,317.42,873,777,0
1426300,320.46,873,774,0
1426310,324.14,873,778,0
1426320,327.87,873,774,0
1426330,331.98,873,777,0
1426340,335.84,873,774,0
1426350,340.00,873,777,0
1426360,343.82,873,774,0
1426370,347.82,873,777,0
1426380,351.34,873,774,0
1426391,355.27,873,777,0
1426401,359.34,873,774,0
1426411,364.68,873,777,0
1426421,372.06,873,774,0
1426432,383.49,873,777,0
1426441,399.93,873,774,0
1426460,424.12,884,773,0
1426463,457.21,884,777,0
1426472,496.36,884,777,0
1426482,538.60,884,775,0
1426492,581.53,884,777,0
1426502,622.43,884,775,0
1426512,659.33,884,777,0
1426522,689.32,884,775,0
1426532,710.31,884,777,0
1426542,725.00,884,775,0
1426552,735.33,884,777,0
1426562,742.60,884,775,0
1426572,747.74,884,777,0
1426582,751.29,884,775,0
1426592,753.73,884,777,0
1426603,755.48,884,776,0
1426612,756.75,884,777,0
1426622,757.60,884,775,0
1426632,758.19,884,778,0
1426642,758.60,884,776,0
1426652,758.94,884,777,0
1426662,759.17,884,775,0
1426672,757.28,884,777,0
1426682,749.74,884,776,0
1426692,734.99,884,777,0
1426702,711.51,884,775,0
1426712,679.34,884,777,0
1426722,638.91,884,776,0
1426732,591.54,884,777,0
1426742,540.16,884,775,0
1426752,489.84,884,777,0
1426762,443.65,884,776,0
1426772,404.62,884,777,0
1426782,373.75,884,775,0
1426792,351.71,884,777,0
1426802,337.91,884,776,0
1426812,332.20,884,777,0
1426822,333.08,884,775,0
1426832,339.23,884,777,0
1426842,348.89,884,776,0
1426852,360.88,884,777,0
1426862,373.34,884,775,0
1426872,385.45,884,778,0
1426882,395.65,884,776,0
1426892,403.55,884,777,0
1426903,408.66,884,776,0
1426913,410.78,884,777,0
1426923,409.69,884,777,0
1426933,405.79,884,777,0
1426944,399.21,884,777,0
1426953,391.01,884,777,0
1426963,381.28,884,777,0
1426973,370.56,884,777,0
1426983,359.42,884,777,0
1426993,348.54,884,777,0
1427003,338.39,884,777,0
1427013,329.19,884,777,0
1427023,320.82,884,777,0
1427033,313.67,884,777,0
1427043,307.64,884,777,0
1427053,302.78,884,777,0
1427063,298.90,884,777,0
1427073,296.19,884,777,0
1427083,294.59,884,776,0
1427093,294.20,884,777,0
1427103,294.87,884,777,0
1427113,296.49,884,777,0
1427123,298.87,884,777,0
1427133,301.91,884,777,0
1427143,305.41,884,777,0
1427153,309.02,884,777,0
1427163,312.44,884,777,0
1427173,315.61,884,777,0
1427183,318.55,884,777,0
1427193,321.13,884,777,0
1427203,323.15,884,776,0
1427213,324.43,884,777,0
1427223,325.25,884,777,0
1427233,325.64,884,776,0
1427244,325.62,884,777,0
1427254,325.05,884,776,0
1427264,324.09,884,777,0
1427274,322.82,884,776,0
1427284,321.59,884,777,0
1427294,320.26,884,777,0
1427304,319.15,884,777,0
1427314,318.68,884,776,0
1427324,320.19,884,777,0
1427334,324.63,884,776,0
1427344,333.96,884,777,0
1427354,349.87,884,776,0
1427364,374.94,884,777,0
1427383,410.23,923,776,0
1427386,453.36,923,778,0
1427395,500.65,923,775,0
1427405,549.36,923,777,0
1427415,596.39,923,776,0
1427425,638.92,923,777,0
1427435,673.87,923,775,0
1427445,699.41,923,777,0
1427456,717.29,923,775,0
1427465,729.84,923,777,0
1427475,738.63,923,776,0
1427485,744.79,923,778,0
1427495,749.09,923,775,0
1427505,752.11,923,777,0
1427515,754.22,923,776,0
1427525,755.70,923,777,0
1427535,752.96,923,775,0
1427545,744.14,923,777,0
1427555,727.26,923,776,0
1427565,701.51,923,777,0
1427575,666.73,923,775,0
1427585,623.95,923,777,0
1427595,573.69,923,775,0
1427605,520.94,923,777,0
1427615,468.63,923,775,0
1427625,420.44,923,777,0
1427635,378.14,923,775,0
1427645,343.64,923,778,0
1427655,316.79,923,775,0
1427665,298.42,923,777,0
1427675,287.71,923,776,0
1427685,284.58,923,777,0
1427695,287.67,923,775,0
1427705,296.51,923,777,0
1427715,309.21,923,776,0
1427725,325.01,923,777,0
1427735,341.89,923,775,0
1427745,359.24,923,777,0
1427756,375.45,923,775,0
1427766,389.97,923,777,0
1427776,401.51,923,775,0
1427786,409.97,923,777,0
1427796,414.52,923,774,0
1427806,415.61,923,777,0
1427816,412.77,923,774,0
1427826,407.05,923,777,0
1427836,398.55,923,774,0
1427846,388.49,923,777,0
1427856,376.94,923,775,0
1427866,365.09,923,777,0
1427876,352.89,923,774,0
1427886,341.69,923,777,0
1427896,330.90,923,775,0
1427906,321.33,923,777,0
1427916,312.45,923,774,0
1427927,304.98,923,777,0
1427937,298.26,923,775,0
1427947,293.12,923,777,0
1427957,288.54,923,774,0
1427968,285.38,923,777,0
1427977,282.87,923,774,0
1427987,281.66,923,777,0
1427997,280.95,923,774,0
1428007,281.39,923,777,0
1428017,282.22,923,775,0
1428027,283.87,923,777,0
1428037,285.45,923,774,0
1428047,287.67,923,777,0
1428057,289.66,923,774,0
1428067,291.99,923,777,0
1428077,293.96,923,774,0
1428087,296.16,923,777,0
1428097,298.08,923,774,0
1428107,300.59,923,777,0
1428117,302.85,923,774,0
1428127,305.47,923,777,0
1428137,307.69,923,775,0
1428147,310.05,923,777,0
1428157,311.88,923,774,0
1428167,313.80,923,777,0
1428177,315.10,923,774,0
1428187,316.10,923,777,0
1428197,316.37,923,774,0
1428207,317.16,923,777,0
1428217,318.40,923,774,0
1428227,321.45,923,777,0
1428237,326.93,923,774,0
1428247,336.94,923,777,0
1428257,352.90,923,774,0
1428277,377.27,894,773,0
1428280,411.13,894,776,0
1428289,452.92,894,777,0
1428299,498.97,894,776,0
1428310,546.64,894,777,0
1428319,592.78,894,775,0
1428329,635.06,894,777,0
1428339,670.61,894,776,0
1428349,697.17,894,778,0
1428359,715.76,894,775,0
1428369,728.78,894,777,0
1428379,737.89,894,776,0
1428389,744.31,894,777,0
1428399,748.80,894,775,0
1428409,751.99,894,777,0
1428419,754.18,894,776,0
1428429,755.71,894,777,0
1428439,753.91,894,775,0
1428449,745.88,894,777,0
1428459,729.46,894,776,0
1428469,703.91,894,777,0
1428480,668.92,894,776,0
1428489,625.49,894,777,0
1428499,574.04,894,776,0
1428509,518.74,894,777,0
1428519,463.79,894,776,0
1428529,413.11,894,777,0
1428539,368.76,894,776,0
1428549,332.58,894,777,0
1428559,304.72,894,776,0
1428569,285.95,894,777,0
1428579,275.80,894,776,0
1428589,273.98,894,777,0
1428599,279.00,894,776,0
1428609,289.88,894,777,0
1428619,305.01,894,775,0
1428629,323.18,894,777,0
1428639,342.71,894,776,0
1428649,362.30,894,777,0
1428659,380.42,894,775,0
1428669,396.37,894,777,0
1428679,409.20,894,776,0
1428689,418.61,894,777,0
1428699,424.04,894,775,0
1428709,425.83,894,777,0
1428719,424.04,894,776,0
1428729,419.23,894,777,0
1428739,411.70,894,776,0
1428749,402.23,894,777,0
1428759,391.15,894,776,0
1428769,379.28,894,777,0
1428780,366.89,894,776,0
1428790,354.67,894,777,0
1428800,342.94,894,777,0
1428810,332.11,894,777,0
1428820,322.48,894,777,0
1428830,314.28,894,777,0
1428840,307.55,894,777,0
1428850,302.24,894,777,0
1428860,298.27,894,777,0
1428870,295.53,894,777,0
1428880,293.87,894,777,0
1428890,293.10,894,777,0
1428900,292.98,894,777,0
1428910,293.42,894,777,0
1428920,294.41,894,777,0
1428930,295.87,894,777,0
1428940,297.58,894,777,0
1428951,299.55,894,777,0
1428961,301.36,894,777,0
1428971,303.22,894,777,0
1428981,305.30,894,777,0
1428992,307.48,894,776,0
1429001,309.74,894,777,0
1429011,311.96,894,777,0
1429021,314.11,894,777,0
1429031,316.44,894,776,0
1429041,318.92,894,777,0
1429051,321.13,894,776,0
1429061,323.32,894,777,0
1429071,325.32,894,776,0
1429081,327.67,894,777,0
1429091,330.94,894,777,0
1429101,336.23,894,777,0
1429111,344.90,894,776,0
1429121,358.65,894,777,0
1429131,379.37,894,777,0
1429141,409.26,894,777,0
1429160,447.92,883,776,0
1429164,491.92,883,778,0
1429172,538.23,883,776,0
1429182,583.97,883,777,0
1429192,626.71,883,776,0
1429202,663.65,883,777,0
1429212,692.26,883,776,0
1429222,712.28,883,777,0
1429232,726.30,883,776,0
1429242,736.11,883,777,0
1429252,742.98,883,776,0
1429262,747.78,883,777,0
1429272,751.15,883,776,0
1429282,753.55,883,778,0
1429292,755.23,883,776,0
1429302,756.40,883,777,0
1429312,757.22,883,776,0
1429322,757.84,883,778,0
1429332,755.58,883,775,0
1429342,747.73,883,777,0
1429352,731.70,883,776,0
1429362,706.46,883,777,0
1429372,671.65,883,775,0
1429382,628.30,883,777,0
1429392,577.12,883,776,0
1429402,522.27,883,777,0
1429412,467.72,883,775,0
1429422,417.83,883,777,0
1429432,374.94,883,775,0
1429442,341.10,883,777,0
1429452,316.21,883,775,0
1429463,300.89,883,777,0
1429473,294.15,883,775,0
1429483,295.61,883,777,0
1429493,303.27,883,775,0
1429504,316.26,883,777,0
1429513,332.38,883,775,0
1429523,350.61,883,777,0
1429533,368.68,883,775,0
1429543,385.96,883,777,0
1429553,400.68,883,774,0
1429563,412.64,883,777,0
1429573,420.64,883,775,0
1429583,424.99,883,777,0
1429593,425.21,883,774,0
1429603,422.23,883,777,0
1429613,415.73,883,775,0
1429623,406.86,883,777,0
1429633,395.80,883,774,0
1429643,383.94,883,777,0
1429653,371.19,883,775,0
1429663,358.70,883,777,0
1429673,346.24,883,774,0
1429683,334.98,883,778,0
1429693,324.61,883,774,0
1429703,315.90,883,777,0
1429713,308.26,883,774,0
1429723,302.70,883,778,0
1429733,298.29,883,774,0
1429743,295.67,883,777,0
1429753,293.93,883,775,0
1429763,293.69,883,777,0
1429773,294.13,883,775,0
1429783,295.55,883,777,0
1429793,296.97,883,774,0
1429804,299.16,883,777,0
1429814,301.26,883,774,0
1429824,304.05,883,778,0
1429834,306.56,883,774,0
1429844,309.48,883,778,0
1429854,312.17,883,775,0
1429864,315.12,883,777,0
1429874,317.48,883,774,0
1429884,320.04,883,777,0
1429894,321.83,883,774,0
1429904,323.64,883,777,0
1429914,324.64,883,774,0
1429924,325.65,883,778,0
1429934,326.06,883,774,0
1429944,327.24,883,777,0
1429954,329.35,883,774,0
1429964,334.26,883,778,0
1429975,342.88,883,774,0
1429985,357.70,883,777,0
1429995,380.42,883,774,0
1430005,413.77,883,778,0
1430025,454.85,864,776,0
1430028,500.67,864,777,0
1430037,547.95,864,775,0
1430047,594.21,864,778,0
1430057,636.53,864,776,0
1430067,672.20,864,777,0
1430077,698.37,864,775,0
1430087,716.73,864,778,0
1430097,729.58,864,776,0
1430107,738.62,864,777,0
1430117,744.95,864,775,0
1430127,749.34,864,778,0
1430137,752.41,864,776,0
1430147,754.60,864,777,0
1430157,756.09,864,775,0
1430167,757.09,864,778,0
1430177,757.75,864,776,0
1430188,758.21,864,777,0
1430198,758.53,864,776,0
1430208,754.99,864,777,0
1430218,744.66,864,777,0
1430228,725.65,864,777,0
1430238,697.73,864,776,0
1430248,660.74,864,777,0
1430258,615.56,864,776,0
1430268,563.23,864,777,0
1430278,509.08,864,776,0
1430288,457.45,864,777,0
1430298,412.15,864,777,0
1430308,374.82,864,777,0
1430318,347.01,864,776,0
1430328,328.88,864,777,0
1430338,320.35,864,777,0
1430348,320.28,864,777,0
1430359,327.66,864,777,0
1430369,340.36,864,776,0
1430379,356.92,864,777,0
1430389,375.07,864,776,0
1430400,393.44,864,777,0
1430409,410.28,864,776,0
1430419,424.68,864,777,0
1430429,435.49,864,776,0
1430439,442.67,864,777,0
1430449,445.64,864,776,0
1430459,445.11,864,777,0
1430469,440.96,864,776,0
1430479,433.94,864,777,0
1430489,424.36,864,776,0
1430499,413.02,864,777,0
1430509,400.25,864,776,0
1430519,387.06,864,777,0
1430529,373.75,864,776,0
1430539,361.19,864,777,0
1430549,349.26,864,776,0
1430559,338.68,864,777,0
1430569,329.26,864,776,0
1430579,321.55,864,777,0
1430589,315.09,864,776,0
1430599,310.13,864,777,0
1430609,306.19,864,776,0
1430619,303.82,864,777,0
1430629,302.37,864,776,0
1430639,302.35,864,777,0
1430649,302.93,864,775,0
1430659,304.49,864,777,0
1430669,306.53,864,776,0
1430679,309.33,864,777,0
1430689,312.23,864,776,0
1430700,315.55,864,777,0
1430710,318.60,864,775,0
1430720,321.89,864,777,0
1430730,324.67,864,775,0
1430740,327.38,864,777,0
1430750,329.54,864,776,0
1430760,331.65,864,777,0
1430770,333.04,864,775,0
1430780,334.44,864,778,0
1430790,335.38,864,776,0
1430800,336.98,864,777,0
1430810,339.34,864,775,0
1430820,344.51,864,778,0
1430830,353.19,864,776,0
1430840,368.26,864,778,0
1430850,391.50,864,775,0
1430860,425.72,864,778,0
1430871,467.03,864,775,0
1430890,512.71,866,774,0
1430893,559.34,866,774,0
1430902,604.84,866,778,0
1430913,645.94,866,774,0
1430923,679.95,866,778,0
1430933,703.83,866,774,0
1430943,720.60,866,778,0
1430953,732.33,866,774,0
1430963,740.59,866,778,0
1430973,746.33,866,774,0
1430983,750.34,866,778,0
1430993,753.15,866,774,0
1431003,755.17,866,778,0
1431013,756.53,866,774,0
1431023,757.49,866,778,0
1431033,758.11,866,774,0
1431043,758.59,866,778,0
1431053,758.89,866,774,0
1431063,756.13,866,778,0
1431073,746.71,866,774,0
1431084,728.80,866,777,0
1431094,701.34,866,774,0
1431104,664.81,866,777,0
1431114,619.70,866,775,0
1431124,567.37,866,777,0
1431134,511.98,866,775,0
1431144,459.01,866,778,0
1431154,411.74,866,775,0
1431164,372.94,866,777,0
1431174,343.18,866,775,0
1431184,323.19,866,778,0
1431194,312.46,866,775,0
1431204,310.44,866,777,0
1431214,315.28,866,775,0
1431224,325.82,866,778,0
1431234,339.81,866,775,0
1431244,356.15,866,777,0
1431255,372.82,866,775,0
1431265,388.60,866,777,0
1431275,402.18,866,776,0
1431285,412.84,866,777,0
1431296,419.87,866,776,0
1431305,423.55,866,777,0
1431315,423.60,866,776,0
1431325,420.59,866,777,0
1431335,414.72,866,776,0
1431345,406.61,866,777,0
1431355,396.79,866,776,0
1431365,385.84,866,777,0
1431375,374.14,866,776,0
1431385,362.23,866,777,0
1431395,350.33,866,776,0
1431405,339.09,866,777,0
1431415,328.65,866,776,0
1431425,319.63,866,777,0
1431435,311.85,866,776,0
1431445,305.42,866,777,0
1431455,300.41,866,776,0
1431465,296.99,866,777,0
1431475,294.81,866,776,0
1431485,293.84,866,777,0
1431495,293.76,866,776,0
1431505,294.64,866,777,0
1431515,296.25,866,776,0
1431525,298.58,866,777,0
1431535,301.19,866,776,0
1431545,304.05,866,777,0
1431555,307.03,866,776,0
1431565,310.19,866,777,0
1431575,313.31,866,776,0
1431585,316.47,866,777,0
1431596,319.33,866,777,0
1431606,322.15,866,777,0
1431616,324.80,866,777,0
1431626,327.13,866,777,0
1431636,328.94,866,777,0
1431646,330.67,866,777,0
1431656,332.61,866,777,0
1431666,335.69,866,777,0
1431676,340.97,866,777,0
1431686,349.76,866,777,0
1431696,364.10,866,777,0
1431706,386.14,866,777,0
1431716,417.73,866,777,0
1431726,457.41,866,777,0
1431745,501.82,855,776,0
1431748,547.90,855,776,0
1431757,593.23,855,778,0
1431767,635.03,855,777,0
1431777,670.59,855,777,0
1431787,697.33,855,777,0
1431797,716.05,855,778,0
1431808,729.15,855,776,0
1431817,738.36,855,777,0
1431827,744.77,855,777,0
1431837,749.25,855,778,0
1431847,752.39,855,776,0
1431857,754.63,855,778,0
1431867,756.16,855,777,0
1431877,757.22,855,778,0
1431887,757.97,855,776,0
1431897,758.54,855,778,0
1431907,758.89,855,777,0
1431917,757.77,855,778,0
1431927,751.24,855,776,0
1431937,737.58,855,777,0
1431947,714.95,855,776,0
1431957,683.16,855,777,0
1431967,642.36,855,776,0
1431977,593.91,855,777,0
1431987,540.41,855,776,0
1431997,487.40,855,777,0
1432007,438.12,855,776,0
1432017,396.04,855,777,0
1432027,362.64,855,776,0
1432037,339.22,855,778,0
1432047,325.23,855,776,0
1432057,320.32,855,777,0
1432067,322.79,855,776,0
1432077,331.55,855,777,0
1432087,344.72,855,776,0
1432097,360.74,855,777,0
1432108,377.41,855,775,0
1432118,393.57,855,777,0
1432128,407.41,855,775,0
1432138,418.78,855,777,0
1432148,426.34,855,775,0
1432158,430.35,855,777,0
1432168,430.16,855,775,0
1432178,426.69,855,777,0
1432188,419.79,855,775,0
1432198,410.68,855,777,0
1432208,399.38,855,775,0
1432218,387.22,855,777,0
1432228,374.13,855,775,0
1432238,361.70,855,777,0
1432248,349.71,855,775,0
1432258,339.12,855,777,0
1432268,329.44,855,775,0
1432279,321.55,855,777,0
1432289,314.92,855,775,0
1432299,310.01,855,778,0
1432309,305.89,855,774,0
1432320,303.14,855,777,0
1432329,300.96,855,775,0
1432339,299.98,855,778,0
1432349,299.17,855,774,0
1432359,299.08,855,777,0
1432369,299.01,855,775,0
1432379,299.65,855,778,0
1432389,300.18,855,774,0
1432399,301.37,855,777,0
1432409,302.50,855,775,0
1432419,304.37,855,777,0
1432429,306.23,855,774,0
1432439,308.73,855,777,0
1432449,311.08,855,775,0
1432459,314.02,855,777,0
1432469,316.75,855,774,0
1432479,319.74,855,777,0
1432489,322.35,855,774,0
1432499,325.20,855,778,0
1432509,327.75,855,774,0
1432519,331.17,855,777,0
1432529,335.53,855,774,0
1432539,342.66,855,778,0
1432549,353.39,855,774,0
1432559,370.46,855,777,0
1432569,395.26,855,774,0
1432579,429.73,855,778,0
1432598,470.95,853,776,0
1432601,516.14,853,777,0
1432610,562.13,853,774,0
1432620,606.74,853,778,0
1432630,646.72,853,774,0
1432640,679.80,853,777,0
1432650,703.86,853,774,0
1432660,720.70,853,777,0
1432670,732.49,853,774,0
1432680,740.75,853,778,0
1432690,746.52,853,774,0
1432700,750.57,853,777,0
1432710,753.40,853,774,0
1432720,755.38,853,778,0
1432730,756.76,853,774,0
1432740,757.73,853,778,0
1432750,758.41,853,774,0
1432760,758.89,853,778,0
1432770,755.07,853,774,0
1432780,744.63,853,778,0
1432791,725.71,853,774,0
1432801,697.73,853,777,0
1432811,660.65,853,775,0
1432821,615.41,853,777,0
1432832,562.83,853,775,0
1432841,508.93,853,777,0
1432851,457.01,853,775,0
1432861,410.72,853,778,0
1432871,371.93,853,775,0
1432881,342.08,853,777,0
1432891,321.14,853,774,0
1432901,309.36,853,777,0
1432911,305.22,853,775,0
1432921,308.20,853,777,0
1432931,316.45,853,774,0
1432941,328.92,853,777,0
1432951,343.47,853,775,0
1432961,359.10,853,777,0
1432971,373.90,853,774,0
1432981,387.22,853,778,0
1432991,397.82,853,775,0
1433001,405.46,853,777,0
1433011,409.27,853,774,0
1433021,409.96,853,777,0
1433031,407.10,853,775,0
1433041,401.71,853,777,0
1433051,393.74,853,775,0
1433061,384.26,853,777,0
1433071,373.60,853,775,0
1433081,362.70,853,777,0
1433091,351.61,853,774,0
1433101,341.31,853,777,0
1433111,331.66,853,775,0
1433121,323.58,853,777,0
1433132,316.72,853,775,0
1433142,311.57,853,777,0
1433152,307.97,853,776,0
1433162,306.10,853,777,0
1433172,305.47,853,776,0
1433182,306.27,853,777,0
1433192,307.77,853,776,0
1433202,310.37,853,777,0
1433212,313.30,853,776,0
1433222,316.81,853,777,0
1433232,320.34,853,776,0
1433242,324.18,853,777,0
1433252,327.68,853,776,0
1433262,331.42,853,777,0
1433272,334.81,853,776,0
1433282,338.30,853,777,0
1433292,341.29,853,776,0
1433303,344.25,853,777,0
1433313,346.62,853,777,0
1433323,348.96,853,777,0
1433333,350.69,853,777,0
1433344,351.98,853,777,0
1433353,352.71,853,777,0
1433363,353.23,853,777,0
1433373,353.72,853,777,0
1433383,355.13,853,777,0
1433393,358.39,853,777,0
1433403,365.17,853,777,0
1433413,377.08,853,777,0
1433423,396.26,853,777,0
1433433,423.86,853,777,0
1433452,460.29,854,776,0
1433455,502.12,854,778,0
1433464,546.40,854,777,0
1433474,590.29,854,778,0
1433484,631.35,854,777,0
1433494,666.73,854,778,0
1433504,694.71,854,777,0
1433515,714.30,854,778,0
1433524,728.01,854,777,0
1433534,737.61,854,778,0
1433544,744.32,854,777,0
1433554,749.03,854,778,0
1433564,752.32,854,777,0
1433574,754.62,854,778,0
1433584,756.24,854,777,0
1433594,757.37,854,778,0
1433604,755.80,854,777,0
1433614,748.87,854,778,0
1433624,734.81,854,776,0
1433634,712.75,854,777,0
1433644,682.53,854,777,0
1433654,644.53,854,777,0
1433664,599.11,854,776,0
1433674,549.79,854,777,0
1433684,500.14,854,776,0
1433694,453.34,854,777,0
1433704,411.62,854,776,0
1433714,376.51,854,777,0
1433724,348.50,854,776,0
1433734,328.51,854,777,0
1433744,316.01,854,776,0
1433754,311.12,854,778,0
1433764,312.80,854,776,0
1433774,320.10,854,777,0
1433784,331.43,854,776,0
1433794,345.87,854,778,0
1433804,361.55,854,776,0
1433815,377.63,854,778,0
1433825,392.44,854,775,0
1433835,405.47,854,777,0
1433845,415.44,854,775,0
1433856,422.51,854,778,0
1433865,426.04,854,775,0
1433875,426.67,854,777,0
1433885,424.03,854,775,0
1433895,418.83,854,778,0
1433905,411.17,854,775,0
1433915,402.16,854,778,0
1433925,391.87,854,775,0
1433935,381.41,854,777,0
1433945,370.66,854,776,0
1433955,360.65,854,777,0
1433965,351.15,854,776,0
1433975,342.84,854,777,0
1433985,335.51,854,776,0
1433995,329.70,854,777,0
1434005,324.69,854,775,0
1434015,321.01,854,777,0
1434025,318.09,854,775,0
1434035,316.87,854,778,0
1434045,316.56,854,775,0
1434055,317.42,854,777,0
1434065,318.75,854,775,0
1434075,321.27,854,778,0
1434085,324.19,854,775,0
1434095,327.90,854,777,0
1434105,331.40,854,775,0
1434115,335.14,854,778,0
1434125,338.53,854,775,0
1434135,342.10,854,778,0
1434145,344.98,854,775,0
1434156,347.94,854,778,0
1434166,350.19,854,775,0
1434176,352.28,854,778,0
1434186,353.69,854,775,0
1434196,355.16,854,778,0
1434206,356.18,854,775,0
1434216,357.76,854,777,0
1434226,359.97,854,775,0
1434236,364.91,854,778,0
1434246,373.21,854,775,0
1434256,387.12,854,778,0
1434266,407.61,854,775,0
1434276,436.78,854,778,0
1434295,473.75,843,776,0
1434298,515.48,843,778,0
1434307,558.67,843,775,0
1434317,601.19,843,778,0
1434327,640.26,843,775,0
1434337,673.87,843,778,0
1434347,699.71,843,775,0
1434357,717.80,843,778,0
1434368,730.46,843,775,0
1434377,739.32,843,778,0
1434387,745.52,843,775,0
1434397,749.87,843,778,0
1434407,752.91,843,775,0
1434417,755.03,843,778,0
1434427,756.52,843,775,0
1434437,755.42,843,778,0
1434447,749.25,843,775,0
1434457,737.22,843,777,0
1434467,717.95,843,775,0
1434477,691.35,843,778,0
1434487,657.30,843,775,0
1434497,616.67,843,778,0
1434507,571.94,843,775,0
1434517,526.87,843,777,0
1434527,482.94,843,775,0
1434537,443.10,843,778,0
1434547,408.18,843,775,0
1434557,379.67,843,777,0
1434567,357.36,843,775,0
1434577,341.95,843,777,0
1434587,332.54,843,775,0
1434597,329.16,843,777,0
1434607,330.27,843,775,0
1434617,335.80,843,778,0
1434627,343.88,843,775,0
1434637,354.07,843,777,0
1434647,364.55,843,775,0
1434657,375.10,843,777,0
1434668,384.37,843,775,0
1434678,392.19,843,777,0
1434688,397.27,843,775,0
1434698,400.11,843,778,0
1434708,399.90,843,775,0
1434718,397.66,843,777,0
1434728,392.83,843,775,0
1434738,386.41,843,777,0
1434748,378.40,843,775,0
1434758,369.92,843,777,0
1434768,360.86,843,775,0
1434778,352.16,843,777,0
1434788,343.54,843,776,0
1434798,335.92,843,777,0
1434808,328.92,843,775,0
1434818,323.20,843,777,0
1434828,318.00,843,775,0
1434839,313.97,843,777,0
1434849,310.59,843,776,0
1434859,308.36,843,777,0
1434869,306.71,843,776,0
1434880,305.98,843,777,0
1434889,305.52,843,776,0
1434899,305.87,843,777,0
1434909,306.51,843,776,0
1434919,307.73,843,777,0
1434929,308.75,843,776,0
1434939,309.98,843,777,0
1434949,311.06,843,776,0
1434959,312.37,843,777,0
1434969,313.50,843,776,0
1434979,314.55,843,777,0
1434989,315.24,843,776,0
1434999,316.03,843,777,0
1435009,316.45,843,776,0
1435019,316.91,843,777,0
1435029,316.85,843,776,0
1435039,316.64,843,777,0
1435049,316.06,843,777,0
1435059,315.40,843,777,0
1435069,314.34,843,776,0
1435079,313.47,843,777,0
1435089,312.81,843,777,0
1435099,313.47,843,777,0
1435109,315.90,843,776,0
1435119,321.59,843,777,0
1435129,331.35,843,777,0
1435139,346.63,843,777,0
1435149,368.13,843,776,0
1435168,396.68,873,775,0
1435171,432.04,873,778,0
1435180,473.35,873,777,0
1435190,517.60,873,777,0
1435200,562.03,873,777,0
1435210,604.19,873,777,0
1435220,642.15,873,777,0
1435230,673.86,873,777,0
1435240,697.09,873,777,0
1435250,710.35,873,777,0
1435260,714.19,873,777,0
1435270,709.72,873,777,0
1435280,697.46,873,777,0
1435290,677.95,873,777,0
1435300,652.16,873,777,0
1435310,622.24,873,777,0
1435320,590.58,873,777,0
1435330,558.61,873,777,0
1435340,527.66,873,777,0
1435351,498.70,873,777,0
1435361,472.43,873,777,0
1435371,449.12,873,777,0
1435381,428.77,873,777,0
1435392,411.22,873,777,0
1435401,396.54,873,777,0
1435411,384.47,873,777,0
1435421,375.07,873,777,0
1435431,368.58,873,777,0
1435441,364.89,873,777,0
1435451,363.81,873,777,0
1435461,364.81,873,777,0
1435471,367.82,873,778,0
1435481,372.29,873,777,0
1435491,377.77,873,777,0
1435501,383.54,873,777,0
1435511,389.12,873,778,0
1435521,394.10,873,777,0
1435531,398.18,873,777,0
1435541,400.79,873,777,0
1435551,401.88,873,778,0
1435561,401.19,873,776,0
1435571,398.86,873,777,0
1435581,394.96,873,776,0
1435591,389.66,873,777,0
1435601,383.16,873,776,0
1435611,376.00,873,777,0
1435621,368.33,873,777,0
1435631,360.73,873,778,0
1435641,353.10,873,776,0
1435651,345.95,873,777,0
1435661,339.32,873,777,0
1435671,333.57,873,778,0
1435681,328.30,873,776,0
1435692,323.92,873,777,0
1435702,320.17,873,776,0
1435712,317.38,873,778,0
1435722,315.17,873,776,0
1435732,313.79,873,777,0
1435742,312.78,873,776,0
1435752,312.46,873,777,0
1435762,312.19,873,776,0
1435772,312.48,873,778,0
1435782,312.85,873,776,0
1435792,313.41,873,778,0
1435802,313.59,873,776,0
1435812,313.88,873,778,0
1435822,313.96,873,776,0
1435832,314.23,873,778,0
1435842,313.99,873,776,0
1435852,313.78,873,778,0
1435863,313.12,873,776,0
1435873,312.74,873,778,0
1435883,311.92,873,775,0
1435893,311.17,873,777,0
1435904,310.00,873,775,0
1435913,309.06,873,778,0
1435923,307.71,873,775,0
1435933,306.73,873,777,0
1435943,305.27,873,775,0
1435953,304.03,873,777,0
1435963,302.56,873,775,0
1435973,301.97,873,777,0
1435983,301.93,873,775,0
1435993,303.62,873,777,0
1436003,307.21,873,775,0
1436013,314.39,873,777,0
1436023,325.59,873,775,0
1436033,342.00,873,778,0
1436052,363.30,884,776,0
1436055,390.55,884,778,0
1436064,422.66,884,775,0
1436075,458.59,884,778,0
1436084,495.78,884,775,0
1436094,532.75,884,778,0
1436104,566.85,884,775,0
1436114,596.73,884,778,0
1436124,619.69,884,775,0
1436134,635.26,884,778,0
1436144,642.55,884,775,0
1436154,642.56,884,778,0
1436164,635.45,884,775,0
1436174,622.93,884,777,0
1436184,605.63,884,774,0
1436194,585.56,884,778,0
1436204,563.53,884,775,0
1436214,541.56,884,777,0
1436224,519.88,884,774,0
1436234,499.64,884,778,0
1436244,480.59,884,775,0
1436254,463.61,884,778,0
1436264,447.96,884,775,0
1436274,434.26,884,777,0
1436284,421.49,884,775,0
1436294,410.55,884,777,0
1436304,400.78,884,775,0
1436314,393.05,884,777,0
1436324,386.60,884,775,0
1436334,382.35,884,777,0
1436344,379.46,884,775,0
1436354,378.98,884,778,0
1436364,379.84,884,775,0
1436375,382.46,884,777,0
1436385,385.75,884,775,0
1436395,390.03,884,778,0
1436405,394.22,884,775,0
1436416,398.57,884,777,0
1436425,401.83,884,775,0
1436435,404.36,884,778,0
1436445,405.28,884,775,0
1436455,405.11,884,777,0
1436465,403.28,884,775,0
1436475,400.41,884,777,0
1436485,395.83,884,775,0
1436495,390.48,884,777,0
1436505,384.12,884,775,0
1436515,377.61,884,778,0
1436525,370.53,884,775,0
1436535,363.69,884,777,0
1436545,356.62,884,775,0
1436555,350.44,884,778,0
1436565,344.43,884,776,0
1436575,339.25,884,777,0
1436585,334.33,884,776,0
1436595,330.29,884,778,0
1436605,326.52,884,775,0
1436615,323.70,884,778,0
1436625,321.05,884,776,0
1436635,319.28,884,778,0
1436645,317.52,884,775,0
1436655,316.55,884,777,0
1436665,315.61,884,776,0
1436675,315.30,884,777,0
1436685,314.95,884,775,0
1436695,315.27,884,777,0
1436705,315.57,884,775,0
1436716,316.52,884,778,0
1436726,317.13,884,776,0
1436736,318.16,884,777,0
1436746,319.01,884,776,0
1436756,320.34,884,778,0
1436766,321.39,884,776,0
1436776,322.60,884,777,0
1436786,323.49,884,776,0
1436796,324.63,884,778,0
1436806,325.60,884,776,0
1436816,326.71,884,777,0
1436826,327.39,884,776,0
1436836,328.00,884,777,0
1436846,328.13,884,776,0
1436856,328.22,884,777,0
1436866,327.94,884,776,0
1436876,327.57,884,777,0
1436887,326.97,884,777,0
1436897,326.59,884,777,0
1436907,326.76,884,777,0
1436917,328.25,884,777,0
1436928,331.34,884,777,0
1436937,337.03,884,777,0
1436947,345.68,884,777,0
1436966,358.16,914,776,0
1436969,374.95,914,778,0
1436978,396.05,914,777,0
1436988,420.68,914,777,0
1436998,447.90,914,777,0
1437008,476.22,914,777,0
1437018,504.18,914,777,0
1437028,530.01,914,777,0
1437038,551.99,914,776,0
1437048,568.80,914,777,0
1437058,580.21,914,777,0
1437068,585.89,914,777,0
1437078,586.05,914,776,0
1437088,581.54,914,778,0
1437099,572.89,914,776,0
1437108,561.27,914,777,0
1437118,547.64,914,776,0
1437128,532.71,914,777,0
1437138,517.37,914,777,0
1437148,502.39,914,777,0
1437158,487.78,914,776,0
1437168,474.13,914,777,0
1437178,461.19,914,776,0
1437188,449.31,914,777,0
1437198,438.46,914,777,0
1437208,428.72,914,777,0
1437218,419.80,914,777,0
1437228,411.93,914,777,0
1437238,405.10,914,777,0
1437248,399.67,914,778,0
1437258,395.31,914,776,0
1437268,392.26,914,777,0
1437278,390.17,914,777,0
1437288,389.26,914,778,0
1437298,389.23,914,777,0
1437308,390.06,914,777,0
1437318,391.33,914,777,0
1437328,392.99,914,778,0
1437338,394.40,914,777,0
1437348,395.65,914,777,0
1437358,396.36,914,777,0
1437368,396.55,914,778,0
1437378,395.91,914,776,0
1437388,394.61,914,777,0
1437399,392.41,914,776,0
1437409,389.55,914,777,0
1437419,385.91,914,776,0
1437429,381.82,914,777,0
1437440,377.21,914,775,0
1437449,372.43,914,778,0
1437459,367.11,914,776,0
1437469,361.98,914,778,0
1437479,356.80,914,776,0
1437489,352.15,914,778,0
1437499,347.65,914,776,0
1437509,343.68,914,778,0
1437519,339.83,914,776,0
1437529,336.84,914,778,0
1437539,334.06,914,776,0
1437549,331.98,914,777,0
1437559,329.85,914,775,0
1437569,328.31,914,777,0
1437579,326.89,914,776,0
1437589,326.11,914,777,0
1437599,325.30,914,775,0
1437609,324.87,914,777,0
1437619,324.39,914,776,0
1437629,324.40,914,777,0
1437639,324.24,914,775,0
1437649,324.51,914,778,0
1437659,324.53,914,776,0
1437669,324.84,914,777,0
1437679,324.89,914,775,0
1437689,325.14,914,777,0
1437699,325.10,914,776,0
1437709,325.32,914,777,0
1437719,325.14,914,775,0
1437729,325.14,914,778,0
1437740,324.71,914,775,0
1437750,324.59,914,778,0
1437760,323.94,914,775,0
1437770,323.49,914,778,0
1437780,322.53,914,775,0
1437790,321.85,914,777,0
1437800,320.91,914,775,0
1437810,320.30,914,777,0
1437820,319.48,914,775,0
1437830,319.16,914,777,0
1437840,318.86,914,775,0
1437850,319.46,914,777,0
1437860,320.35,914,775,0
1437870,322.56,914,778,0
1437880,325.91,914,775,0
1437890,331.63,914,777,0
1437900,339.84,914,775,0
1437920,351.55,954,773,0
1437923,366.77,954,775,0
1437932,386.34,954,777,0
1437942,409.21,954,775,0
1437953,435.29,954,777,0
1437963,462.67,954,775,0
1437973,490.50,954,777,0
1437983,516.75,954,775,0
1437993,540.10,954,777,0
1438003,558.88,954,775,0
1438013,572.80,954,777,0
1438023,581.00,954,775,0
1438033,584.05,954,777,0
1438043,582.02,954,775,0
1438053,576.10,954,777,0
1438063,566.68,954,775,0
1438073,555.16,954,777,0
1438083,541.83,954,775,0
1438093,527.87,954,777,0
1438103,513.72,954,775,0
1438113,500.05,954,777,0
1438124,486.83,954,776,0
1438134,474.58,954,777,0
1438144,462.79,954,776,0
1438154,452.10,954,777,0
1438164,442.21,954,776,0
1438174,433.28,954,777,0
1438184,425.18,954,776,0
1438194,418.01,954,777,0
1438204,412.01,954,776,0
1438214,407.38,954,777,0
1438224,403.79,954,776,0
1438234,401.63,954,777,0
1438244,400.58,954,776,0
1438254,400.62,954,777,0
1438264,401.38,954,776,0
1438274,402.64,954,777,0
1438284,404.12,954,777,0
1438295,405.88,954,777,0
1438305,407.33,954,777,0
1438315,408.30,954,777,0
1438325,408.51,954,777,0
1438336,408.06,954,777,0
1438345,406.67,954,777,0
1438355,404.50,954,777,0
1438365,401.52,954,777,0
1438375,397.72,954,777,0
1438385,393.43,954,777,0
1438395,388.80,954,777,0
1438405,384.02,954,777,0
1438415,379.17,954,777,0
1438425,374.36,954,777,0
1438435,369.75,954,777,0
1438445,365.71,954,777,0
1438455,362.11,954,777,0
1438465,359.04,954,777,0
1438475,356.50,954,777,0
1438485,354.68,954,777,0
1438495,353.32,954,777,0
1438505,352.45,954,778,0
1438515,351.89,954,777,0
1438525,351.62,954,777,0
1438535,351.65,954,777,0
1438545,351.88,954,777,0
1438555,352.17,954,777,0
1438565,352.59,954,777,0
1438575,352.97,954,777,0
1438585,353.50,954,777,0
1438595,353.99,954,777,0
1438605,354.55,954,777,0
1438615,355.03,954,777,0
1438625,355.58,954,777,0
1438636,356.05,954,777,0
1438646,356.50,954,777,0
1438656,356.65,954,776,0
1438666,356.76,954,778,0
1438676,356.40,954,776,0
1438686,356.20,954,777,0
1438696,355.49,954,776,0
1438706,354.75,954,777,0
1438716,353.88,954,776,0
1438726,353.19,954,777,0
1438736,352.40,954,776,0
1438746,351.85,954,777,0
1438756,351.00,954,776,0
1438766,350.53,954,777,0
1438776,349.98,954,776,0
1438786,349.77,954,777,0
1438796,349.58,954,776,0
1438807,349.97,954,777,0
1438817,351.09,954,776,0
1438827,353.85,954,777,0
1438837,358.48,954,775,0
1438848,366.22,954,777,0
1438866,377.13,946,776,0
1438869,392.86,946,778,0
1438878,413.56,946,775,0
1438888,439.83,946,778,0
1438898,470.27,946,775,0
1438908,504.56,946,777,0
1438918,540.78,946,775,0
1438928,577.87,946,778,0
1438938,613.05,946,775,0
1438948,644.92,946,777,0
1438958,671.22,946,775,0
1438968,691.81,946,778,0
1438978,705.28,946,775,0
1438988,712.23,946,777,0
1438998,712.16,946,775,0
1439008,706.24,946,777,0
1439019,694.72,946,775,0
1439028,679.38,946,777,0
1439038,660.75,946,775,0
1439048,640.47,946,777,0
1439058,618.68,946,775,0
1439068,597.09,946,777,0
1439078,575.59,946,775,0
1439088,555.44,946,778,0
1439098,536.15,946,775,0
1439108,518.71,946,777,0
1439118,502.77,946,775,0
1439128,489.04,946,777,0
1439138,477.03,946,774,0
1439148,467.50,946,777,0
1439158,459.85,946,775,0
1439168,454.93,946,777,0
1439178,451.73,946,774,0
1439188,450.91,946,777,0
1439198,451.67,946,775,0
1439208,454.12,946,777,0
1439218,457.39,946,775,0
1439228,461.43,946,777,0
1439238,465.07,946,774,0
1439248,468.69,946,777,0
1439258,471.06,946,775,0
1439268,472.45,946,777,0
1439278,472.02,946,775,0
1439288,470.43,946,777,0
1439298,467.08,946,775,0
1439308,462.56,946,777,0
1439319,456.26,946,775,0
1439329,449.03,946,777,0
1439339,440.58,946,774,0
1439349,431.96,946,777,0
1439360,422.54,946,775,0
1439369,413.47,946,778,0
1439379,404.37,946,774,0
1439389,396.03,946,777,0
1439399,388.14,946,774,0
1439409,381.28,946,777,0
1439419,374.98,946,774,0
1439429,370.02,946,778,0
1439439,365.51,946,774,0
1439449,362.19,946,778,0
1439459,359.17,946,774,0
1439469,357.19,946,777,0
1439479,355.59,946,774,0
1439489,354.94,946,778,0
1439499,354.32,946,774,0
1439509,354.35,946,777,0
1439519,354.29,946,774,0
1439529,354.97,946,778,0
1439539,355.41,946,774,0
1439549,356.19,946,777,0
1439559,356.43,946,774,0
1439569,356.99,946,777,0
1439579,357.16,946,774,0
1439589,357.59,946,777,0
1439599,357.58,946,774,0
1439609,357.79,946,777,0
1439619,357.68,946,774,0
1439629,357.82,946,777,0
1439639,357.45,946,774,0
1439649,357.36,946,778,0
1439660,356.82,946,775,0
1439670,356.53,946,777,0
1439680,355.90,946,775,0
1439690,355.46,946,777,0
1439700,354.81,946,776,0
1439710,354.52,946,777,0
1439720,353.94,946,775,0
1439730,353.74,946,777,0
1439740,353.30,946,776,0
1439750,353.47,946,777,0
1439760,353.93,946,775,0
1439770,355.79,946,777,0
1439780,359.46,946,775,0
1439790,366.30,946,777,0
1439809,377.18,943,776,0
1439812,394.57,943,778,0
1439821,419.21,943,776,0
1439831,451.76,943,777,0
1439841,490.45,943,776,0
1439851,532.49,943,777,0
1439861,575.15,943,776,0
1439872,616.25,943,777,0
1439881,652.78,943,776,0
1439891,682.93,943,777,0
1439901,705.71,943,776,0
1439911,721.70,943,777,0
1439921,732.89,943,776,0
1439931,740.72,943,778,0
1439941,746.20,943,776,0
1439951,750.04,943,777,0
1439961,752.69,943,776,0
1439971,752.22,943,778,0
1439981,747.14,943,776,0
1439991,736.51,943,777,0
1440001,720.03,943,776,0
1440011,697.52,943,777,0
1440021,669.04,943,776,0
1440031,635.21,943,777,0
1440041,598.72,943,776,0
1440051,562.12,943,777,0
1440061,527.03,943,776,0
1440071,494.79,943,777,0
1440081,466.31,943,776,0
1440091,442.43,943,777,0
1440101,423.14,943,776,0
1440111,408.83,943,777,0
1440121,399.15,943,776,0
1440131,394.09,943,777,0
1440141,392.82,943,776,0
1440151,395.02,943,777,0
1440161,399.73,943,776,0
1440172,406.37,943,777,0
1440182,413.93,943,777,0
1440192,421.45,943,777,0
1440202,428.21,943,777,0
1440212,433.72,943,777,0
1440222,437.49,943,777,0
1440232,439.32,943,777,0
1440242,439.01,943,777,0
1440252,436.65,943,777,0
1440262,432.81,943,777,0
1440272,427.60,943,777,0
1440282,421.42,943,777,0
1440292,414.22,943,777,0
1440302,406.65,943,777,0
1440312,398.87,943,777,0
1440322,391.11,943,777,0
1440332,383.62,943,777,0
1440343,376.71,943,777,0
1440353,370.41,943,777,0
1440363,365.10,943,777,0
1440373,360.36,943,776,0
1440384,356.56,943,777,0
1440393,353.48,943,777,0
1440403,351.11,943,777,0
1440413,349.15,943,776,0
1440423,347.73,943,777,0
1440433,346.61,943,776,0
1440443,346.00,943,777,0
1440453,345.44,943,776,0
1440463,345.35,943,777,0
1440473,345.20,943,777,0
1440483,345.23,943,777,0
1440493,345.03,943,776,0
1440503,345.11,943,777,0
1440513,345.25,943,777,0
1440523,345.64,943,777,0
1440533,345.84,943,776,0
1440543,346.27,943,777,0
1440553,346.70,943,776,0
1440563,347.44,943,777,0
1440573,347.91,943,776,0
1440583,348.32,943,777,0
1440593,348.31,943,776,0
1440603,348.39,943,777,0
1440613,348.06,943,776,0
1440623,347.61,943,777,0
1440633,346.79,943,776,0
1440643,345.99,943,777,0
1440653,345.01,943,776,0
1440663,344.36,943,778,0
1440673,343.40,943,776,0
1440684,342.68,943,777,0
1440694,341.83,943,775,0
1440704,341.58,943,777,0
1440714,341.45,943,775,0
1440724,342.26,943,777,0
1440734,343.90,943,775,0
1440744,348.00,943,777,0
1440754,355.16,943,775,0
1440774,367.32,964,774,0
1440777,386.00,964,775,0
1440786,413.08,964,778,0
1440796,448.12,964,775,0
1440806,489.35,964,777,0
1440816,533.35,964,775,0
1440826,577.77,964,778,0
1440836,619.84,964,775,0
1440846,656.79,964,777,0
1440856,686.38,964,775,0
1440866,708.08,964,778,0
1440876,723.27,964,774,0
1440886,733.95,964,778,0
1440897,741.42,964,774,0
1440907,746.65,964,778,0
1440917,750.31,964,775,0
1440927,750.90,964,777,0
1440937,746.43,964,775,0
1440947,736.27,964,777,0
1440957,719.48,964,775,0
1440967,696.19,964,777,0
1440977,666.09,964,775,0
1440987,630.32,964,777,0
1440997,590.92,964,775,0
1441007,551.09,964,777,0
1441017,512.19,964,775,0
1441027,476.56,964,777,0
1441037,444.55,964,775,0
1441047,417.56,964,777,0
1441057,394.85,964,775,0
1441068,377.41,964,777,0
1441078,364.56,964,775,0
1441088,356.72,964,777,0
1441098,352.77,964,775,0
1441108,352.97,964,777,0
1441118,356.19,964,775,0
1441128,362.26,964,777,0
1441138,369.94,964,775,0
1441148,379.05,964,777,0
1441158,388.20,964,775,0
1441168,397.27,964,777,0
1441178,405.03,964,775,0
1441188,411.37,964,777,0
1441198,415.63,964,775,0
1441208,417.92,964,777,0
1441218,417.82,964,775,0
1441228,415.90,964,777,0
1441239,411.73,964,776,0
1441249,406.07,964,777,0
1441259,398.93,964,776,0
1441269,391.11,964,777,0
1441280,382.55,964,776,0
1441289,374.03,964,777,0
1441299,365.62,964,776,0
1441309,358.02,964,777,0
1441319,351.03,964,776,0
1441329,345.19,964,777,0
1441339,340.20,964,776,0
1441349,336.50,964,777,0
1441359,333.69,964,777,0
1441369,331.73,964,777,0
1441379,330.31,964,776,0
1441389,329.57,964,777,0
1441399,329.23,964,776,0
1441409,329.38,964,777,0
1441419,329.73,964,776,0
1441429,330.33,964,777,0
1441439,330.96,964,776,0
1441449,331.83,964,777,0
1441459,332.69,964,776,0
1441469,333.81,964,777,0
1441479,334.73,964,776,0
1441489,335.71,964,777,0
1441499,336.65,964,776,0
1441509,337.57,964,777,0
1441519,338.34,964,777,0
1441529,339.10,964,777,0
1441539,339.50,964,776,0
1441549,340.03,964,777,0
1441559,340.37,964,777,0
1441569,340.68,964,777,0
1441580,341.04,964,777,0
1441590,341.28,964,777,0
1441600,341.67,964,777,0
1441610,342.03,964,777,0
1441620,342.36,964,777,0
1441630,342.72,964,777,0
1441640,343.02,964,777,0
1441650,343.14,964,777,0
1441660,343.27,964,777,0
1441670,343.23,964,777,0
1441680,343.33,964,777,0
1441690,343.62,964,777,0
1441700,344.68,964,777,0
1441710,347.09,964,777,0
1441720,351.95,964,777,0
1441730,360.41,964,777,0
1441750,373.96,976,776,0
1441753,394.54,976,775,0
1441762,423.44,976,778,0
1441772,460.46,976,775,0
1441782,502.49,976,778,0
1441793,546.57,976,775,0
1441803,590.25,976,778,0
1441813,631.01,976,775,0
1441823,666.20,976,777,0
1441833,693.82,976,775,0
1441843,713.29,976,778,0
1441853,726.92,976,775,0
1441863,736.50,976,778,0
1441873,743.16,976,775,0
1441883,747.83,976,778,0
1441893,751.05,976,775,0
1441903,751.76,976,777,0
1441913,747.51,976,775,0
1441923,737.63,976,777,0
1441933,720.90,976,775,0
1441943,697.36,976,777,0
1441953,666.61,976,775,0
1441964,629.40,976,778,0
1441974,587.62,976,774,0
1441984,545.26,976,777,0
1441994,503.57,976,774,0
1442004,465.26,976,778,0
1442014,430.98,976,775,0
1442024,402.31,976,777,0
1442034,379.25,976,774,0
1442044,362.55,976,777,0
1442054,351.24,976,775,0
1442064,345.81,976,777,0
1442074,344.97,976,774,0
1442084,348.75,976,777,0
1442094,355.64,976,775,0
1442104,365.30,976,777,0
1442114,376.14,976,774,0
1442124,387.93,976,777,0
1442135,399.18,976,774,0
1442145,409.71,976,777,0
1442155,418.24,976,774,0
1442165,425.11,976,777,0
1442176,429.11,976,775,0
1442185,430.96,976,777,0
1442195,429.99,976,774,0
1442205,427.12,976,777,0
1442215,422.07,976,775,0
1442225,415.79,976,777,0
1442235,407.97,976,774,0
1442245,399.83,976,777,0
1442255,390.93,976,775,0
1442265,382.33,976,777,0
1442275,373.53,976,774,0
1442285,365.36,976,777,0
1442295,357.49,976,775,0
1442305,350.75,976,777,0
1442315,344.61,976,775,0
1442325,339.80,976,777,0
1442335,335.62,976,775,0
1442345,332.73,976,777,0
1442355,330.50,976,774,0
1442365,329.45,976,777,0
1442375,328.71,976,775,0
1442385,328.97,976,777,0
1442395,329.37,976,775,0
1442405,330.46,976,777,0
1442415,331.60,976,775,0
1442425,333.22,976,777,0
1442435,334.66,976,774,0
1442445,336.60,976,777,0
1442455,338.18,976,775,0
1442465,340.05,976,777,0
1442476,341.58,976,775,0
1442486,343.12,976,777,0
1442496,344.37,976,776,0
1442506,345.67,976,777,0
1442516,346.59,976,776,0
1442526,347.52,976,777,0
1442536,348.01,976,776,0
1442546,348.56,976,777,0
1442556,348.74,976,776,0
1442566,348.99,976,777,0
1442576,348.86,976,776,0
1442586,348.86,976,777,0
1442596,348.69,976,776,0
1442606,348.82,976,777,0
1442616,348.83,976,776,0
1442626,349.44,976,777,0
1442636,350.51,976,776,0
1442647,353.14,976,777,0
1442657,357.69,976,776,0
1442667,365.88,976,777,0
1442686,378.69,937,776,0
1442690,398.45,937,776,0
1442699,426.47,937,778,0
1442709,462.89,937,776,0
1442719,504.24,937,777,0
1442729,547.88,937,776,0
1442739,591.07,937,777,0
1442749,631.64,937,776,0
1442759,666.80,937,777,0
1442769,694.38,937,776,0
1442779,713.72,937,778,0
1442789,727.26,937,776,0
1442799,736.78,937,777,0
1442809,743.41,937,776,0
1442819,748.04,937,778,0
1442829,751.29,937,777,0
1442839,753.56,937,777,0
1442849,755.15,937,776,0
1442860,755.66,937,778,0
1442870,752.16,937,776,0
1442880,743.07,937,777,0
1442890,726.85,937,775,0
1442900,703.19,937,777,0
1442910,672.19,937,776,0
1442920,634.59,937,777,0
1442930,591.51,937,775,0
1442940,547.00,937,778,0
1442950,503.63,937,776,0
1442960,464.23,937,777,0
1442970,430.04,937,775,0
1442980,402.39,937,777,0
1442990,381.14,937,776,0
1443000,366.91,937,777,0
1443010,358.88,937,775,0
1443020,357.12,937,777,0
1443031,360.38,937,775,0
1443041,368.24,937,777,0
1443051,378.97,937,775,0
1443061,391.88,937,777,0
1443072,404.94,937,774,0
1443081,418.16,937,777,0
1443091,429.81,937,775,0
1443101,439.81,937,777,0
1443111,446.77,937,774,0
1443121,451.17,937,777,0
1443131,452.36,937,775,0
1443141,451.22,937,777,0
1443151,447.21,937,775,0
1443161,441.36,937,777,0
1443171,433.37,937,775,0
1443181,424.47,937,777,0
1443191,414.26,937,775,0
1443201,403.98,937,777,0
1443211,393.49,937,775,0
1443221,383.70,937,777,0
1443231,374.23,937,775,0
1443241,365.93,937,777,0
1443251,358.28,937,775,0
1443261,352.07,937,777,0
1443271,346.61,937,775,0
1443281,342.82,937,777,0
1443291,339.83,937,775,0
1443301,338.21,937,777,0
1443311,337.16,937,775,0
1443321,337.16,937,777,0
1443331,337.50,937,775,0
1443341,338.76,937,777,0
1443351,339.95,937,775,0
1443361,341.63,937,777,0
1443372,343.12,937,774,0
1443382,345.10,937,777,0
1443392,346.87,937,775,0
1443402,348.92,937,777,0
1443412,350.53,937,774,0
1443422,352.30,937,777,0
1443432,353.62,937,775,0
1443442,355.15,937,777,0
1443452,356.05,937,774,0
1443462,357.19,937,777,0
1443472,357.91,937,775,0
1443482,359.01,937,777,0
1443492,359.60,937,774,0
1443502,360.54,937,777,0
1443512,360.93,937,775,0
1443522,361.55,937,777,0
1443532,361.60,937,774,0
1443543,361.68,937,777,0
1443553,361.22,937,774,0
1443563,361.58,937,777,0
1443573,362.86,937,774,0
1443584,366.93,937,777,0
1443593,374.28,937,775,0
1443612,387.35,926,773,0
1443615,408.68,926,776,0
1443624,440.15,926,777,0
1443634,478.63,926,775,0
1443644,521.30,926,777,0
1443654,565.18,926,776,0
1443664,608.33,926,777,0
1443674,647.87,926,775,0
1443684,680.52,926,777,0
1443694,704.07,926,775,0
1443704,720.55,926,777,0
1443714,732.08,926,775,0
1443724,740.16,926,777,0
1443734,745.81,926,775,0
1443744,749.77,926,777,0
1443755,752.54,926,776,0
1443764,754.48,926,777,0
1443774,755.83,926,775,0
1443784,756.78,926,777,0
1443794,757.45,926,776,0
1443804,757.91,926,777,0
1443814,758.24,926,775,0
1443824,758.47,926,777,0
1443834,754.81,926,776,0
1443844,745.61,926,777,0
1443854,729.14,926,775,0
1443864,705.01,926,777,0
1443874,673.30,926,776,0
1443884,635.06,926,777,0
1443894,590.90,926,775,0
1443904,546.15,926,777,0
1443914,503.46,926,775,0
1443924,466.12,926,777,0
1443934,435.44,926,775,0
1443944,412.64,926,777,0
1443954,397.23,926,775,0
1443964,389.41,926,777,0
1443974,387.61,926,775,0
1443984,391.11,926,777,0
1443994,398.02,926,775,0
1444004,407.19,926,777,0
1444014,416.95,926,775,0
1444024,426.43,926,777,0
1444034,434.23,926,775,0
1444044,440.08,926,777,0
1444055,443.23,926,776,0
1444065,443.80,926,777,0
1444075,441.67,926,776,0
1444085,437.14,926,777,0
1444096,430.41,926,777,0
1444105,422.23,926,777,0
1444115,412.82,926,776,0
1444125,402.80,926,777,0
1444135,392.36,926,777,0
1444145,382.10,926,777,0
1444155,372.21,926,776,0
1444165,363.10,926,777,0
1444175,354.76,926,777,0
1444185,347.63,926,777,0
1444195,341.57,926,776,0
1444205,336.73,926,777,0
1444215,333.08,926,777,0
1444225,330.57,926,777,0
1444235,329.07,926,776,0
1444245,328.54,926,777,0
1444255,328.63,926,777,0
1444265,329.39,926,777,0
1444275,330.68,926,776,0
1444285,332.41,926,777,0
1444295,334.51,926,777,0
1444305,336.55,926,777,0
1444315,338.57,926,776,0
1444325,340.50,926,777,0
1444335,342.49,926,777,0
1444345,344.44,926,777,0
1444355,346.20,926,776,0
1444365,347.72,926,777,0
1444375,349.09,926,777,0
1444385,350.22,926,777,0
1444396,351.23,926,777,0
1444406,351.76,926,777,0
1444416,352.00,926,777,0
1444426,351.87,926,776,0
1444436,351.57,926,777,0
1444446,351.14,926,777,0
1444456,350.58,926,777,0
1444466,349.77,926,776,0
1444476,349.19,926,777,0
1444486,348.96,926,777,0
1444496,350.13,926,777,0
1444506,353.31,926,776,0
1444516,360.20,926,777,0
1444526,372.10,926,777,0
1444545,391.27,933,776,0
1444548,419.99,933,775,0
1444557,457.41,933,777,0
1444567,499.93,933,776,0
1444577,544.86,933,777,0
1444587,589.30,933,776,0
1444597,631.04,933,777,0
1444608,667.20,933,775,0
1444617,694.74,933,777,0
1444627,714.02,933,776,0
1444637,727.51,933,777,0
1444647,736.96,933,775,0
1444657,743.57,933,777,0
1444667,748.20,933,776,0
1444677,751.44,933,777,0
1444687,753.71,933,775,0
1444697,755.30,933,777,0
1444707,756.41,933,776,0
1444717,757.18,933,777,0
1444727,757.73,933,775,0
1444737,758.11,933,777,0
1444747,755.42,933,776,0
1444757,747.15,933,777,0
1444767,731.33,933,775,0
1444777,707.49,933,777,0
1444787,675.63,933,776,0
1444797,636.44,933,777,0
1444807,590.54,933,775,0
1444817,542.29,933,777,0
1444827,495.27,933,776,0
1444837,452.98,933,777,0
1444847,416.94,933,775,0
1444857,388.59,933,777,0
1444867,368.01,933,776,0
1444877,355.62,933,777,0
1444887,350.29,933,775,0
1444897,351.62,933,777,0
1444908,357.73,933,775,0
1444918,367.97,933,777,0
1444928,380.15,933,774,0
1444938,393.48,933,777,0
1444948,406.11,933,774,0
1444958,417.43,933,777,0
1444968,426.09,933,774,0
1444978,432.28,933,777,0
1444988,434.89,933,774,0
1444998,434.71,933,777,0
1445008,431.15,933,775,0
1445018,425.24,933,777,0
1445028,416.98,933,774,0
1445038,407.51,933,777,0
1445048,396.77,933,774,0
1445058,385.91,933,777,0
1445068,374.80,933,774,0
1445079,364.57,933,777,0
1445089,354.93,933,774,0
1445099,346.68,933,777,0
1445109,339.10,933,774,0
1445120,332.99,933,777,0
1445129,327.89,933,774,0
1445139,324.41,933,777,0
1445149,321.76,933,774,0
1445159,320.50,933,777,0
1445169,319.79,933,774,0
1445179,320.41,933,777,0
1445189,321.49,933,774,0
1445199,323.49,933,777,0
1445209,325.44,933,774,0
1445219,327.88,933,777,0
1445229,330.23,933,774,0
1445239,333.29,933,777,0
1445249,336.20,933,774,0
1445259,339.48,933,777,0
1445269,342.21,933,774,0
1445279,345.15,933,777,0
1445289,347.59,933,774,0
1445299,349.98,933,778,0
1445309,351.40,933,774,0
1445319,352.65,933,777,0
1445329,352.93,933,774,0
1445339,353.08,933,777,0
1445349,352.63,933,774,0
1445359,352.31,933,777,0
1445369,351.40,933,774,0
1445379,350.81,933,777,0
1445389,350.05,933,774,0
1445399,350.85,933,777,0
1445409,353.38,933,774,0
1445420,359.44,933,777,0
1445430,370.15,933,774,0
1445440,388.28,933,777,0
1445459,415.11,914,776,0
1445463,451.42,914,777,0
1445471,493.25,914,775,0
1445481,538.05,914,777,0
1445491,582.82,914,775,0
1445501,625.13,914,777,0
1445511,661.95,914,775,0
1445521,691.06,914,777,0
1445531,711.44,914,775,0
1445541,725.71,914,777,0
1445551,735.70,914,775,0
1445561,742.69,914,777,0
1445571,747.58,914,775,0
1445581,751.05,914,777,0
1445591,753.48,914,775,0
1445601,755.18,914,777,0
1445611,756.37,914,775,0
1445621,753.81,914,777,0
1445632,745.00,914,776,0
1445641,728.88,914,777,0
1445651,704.36,914,775,0
1445661,671.72,914,777,0
1445671,631.26,914,776,0
1445681,583.96,914,777,0
1445691,533.91,914,775,0
1445701,485.08,914,777,0
1445711,439.63,914,776,0
1445721,400.14,914,777,0
1445731,367.40,914,775,0
1445741,342.46,914,777,0
1445751,325.27,914,776,0
1445761,316.02,914,777,0
1445771,313.78,914,775,0
1445781,318.13,914,777,0
1445791,327.52,914,776,0
1445801,341.17,914,777,0
1445811,357.06,914,775,0
1445821,374.18,914,777,0
1445831,390.89,914,775,0
1445841,406.31,914,777,0
1445851,419.20,914,775,0
1445861,429.21,914,777,0
1445871,435.41,914,776,0
1445881,438.07,914,777,0
1445891,437.02,914,775,0
1445901,433.03,914,777,0
1445911,426.25,914,776,0
1445921,417.60,914,777,0
1445932,407.48,914,776,0
1445942,396.88,914,777,0
1445952,386.41,914,777,0
1445962,376.60,914,777,0
1445972,367.64,914,776,0
1445982,360.25,914,777,0
1445992,354.09,914,776,0
1446002,349.39,914,777,0
1446012,346.10,914,777,0
1446022,344.10,914,777,0
1446032,343.17,914,776,0
1446042,342.99,914,777,0
1446052,343.16,914,777,0
1446062,343.76,914,777,0
1446072,344.52,914,776,0
1446082,345.18,914,777,0
1446092,345.64,914,777,0
1446103,345.87,914,777,0
1446113,346.08,914,777,0
1446123,346.10,914,777,0
1446133,346.07,914,777,0
1446144,345.84,914,776,0
1446153,345.67,914,777,0
1446163,345.38,914,776,0
1446173,345.23,914,777,0
1446183,344.94,914,776,0
1446193,344.83,914,777,0
1446203,344.63,914,777,0
1446213,344.61,914,777,0
1446223,344.34,914,776,0
1446233,344.20,914,777,0
1446243,343.92,914,777,0
1446253,343.65,914,777,0
1446263,343.07,914,776,0
1446273,342.40,914,777,0
1446283,341.77,914,777,0
1446293,341.54,914,777,0
1446303,341.55,914,776,0
1446313,342.58,914,777,0
1446323,345.19,914,777,0
1446333,351.09,914,777,0
1446343,361.78,914,776,0
1446363,379.42,903,775,0
1446366,406.46,903,776,0
1446375,443.05,903,777,0
1446385,485.51,903,775,0
1446395,531.26,903,777,0
1446405,577.29,903,775,0
1446415,621.01,903,777,0
1446425,659.36,903,775,0
1446435,689.25,903,777,0
1446445,710.18,903,776,0
1446455,724.82,903,777,0
1446465,735.08,903,775,0
1446475,742.25,903,777,0
1446486,747.28,903,775,0
1446495,750.79,903,777,0
1446505,753.26,903,775,0
1446515,754.98,903,777,0
1446525,756.19,903,775,0
1446535,757.03,903,777,0
1446545,756.12,903,775,0
1446555,750.86,903,777,0
1446565,739.03,903,775,0
1446575,720.12,903,777,0
1446585,693.34,903,775,0
1446595,659.30,903,777,0
1446605,618.15,903,775,0
1446615,572.76,903,777,0
1446625,526.33,903,775,0
1446635,482.69,903,777,0
1446645,443.14,903,775,0
1446656,409.93,903,777,0
1446665,383.25,903,775,0
1446675,364.15,903,777,0
1446685,351.72,903,775,0
1446695,346.32,903,777,0
1446705,346.39,903,775,0
1446715,351.63,903,777,0
1446725,360.19,903,775,0
1446735,371.32,903,777,0
1446745,383.18,903,775,0
1446755,395.12,903,777,0
1446765,405.42,903,775,0
1446775,413.99,903,777,0
1446785,419.57,903,775,0
1446795,422.48,903,777,0
1446805,422.08,903,775,0
1446815,419.14,903,777,0
1446825,413.48,903,774,0
1446835,406.35,903,777,0
1446845,397.59,903,774,0
1446855,388.33,903,777,0
1446865,378.50,903,774,0
1446875,369.14,903,777,0
1446885,360.05,903,774,0
1446895,352.15,903,777,0
1446905,344.82,903,774,0
1446915,338.87,903,777,0
1446925,333.81,903,774,0
1446935,330.31,903,777,0
1446945,327.65,903,774,0
1446956,326.25,903,777,0
1446966,325.41,903,774,0
1446976,325.71,903,777,0
1446986,326.23,903,774,0
1446996,327.62,903,777,0
1447006,328.89,903,774,0
1447016,330.81,903,777,0
1447026,332.67,903,774,0
1447036,335.04,903,777,0
1447046,337.04,903,774,0
1447056,339.34,903,777,0
1447066,341.13,903,774,0
1447076,343.10,903,777,0
1447086,344.49,903,774,0
1447096,345.93,903,777,0
1447106,346.59,903,774,0
1447116,347.36,903,777,0
1447127,347.59,903,774,0
1447137,348.06,903,777,0
1447147,348.17,903,774,0
1447157,348.46,903,777,0
1447168,348.28,903,774,0
1447177,348.37,903,777,0
1447187,347.96,903,774,0
1447197,347.67,903,777,0
1447207,346.74,903,774,0
1447217,346.09,903,777,0
1447227,345.85,903,774,0
1447237,347.52,903,777,0
1447247,352.08,903,774,0
1447257,361.91,903,777,0
1447276,378.82,914,776,0
1447279,406.48,914,777,0
1447288,443.49,914,775,0
1447298,486.67,914,777,0
1447308,532.84,914,775,0
1447318,579.35,914,777,0
1447328,623.21,914,775,0
1447339,661.64,914,777,0
1447348,690.84,914,775,0
1447358,711.33,914,777,0
1447368,725.68,914,775,0
1447378,735.76,914,777,0
1447388,742.82,914,775,0
1447398,747.80,914,777,0
1447408,751.29,914,775,0
1447418,753.73,914,777,0
1447428,755.40,914,775,0
1447438,754.08,914,777,0
1447448,746.51,914,775,0
1447458,731.10,914,777,0
1447468,707.07,914,775,0
1447478,674.74,914,777,0
1447488,634.27,914,775,0
1447498,586.49,914,777,0
1447508,534.57,914,776,0
1447518,483.27,914,777,0
1447528,435.23,914,775,0
1447538,392.82,914,777,0
1447548,356.83,914,775,0
1447558,328.34,914,777,0
1447568,307.54,914,775,0
1447578,294.86,914,777,0
1447588,289.29,914,775,0
1447598,290.62,914,777,0
1447608,297.37,914,775,0
1447618,309.00,914,777,0
1447628,323.87,914,775,0
1447639,340.88,914,777,0
1447649,358.49,914,776,0
1447659,376.00,914,777,0
1447669,391.94,914,776,0
1447680,405.63,914,777,0
1447689,415.98,914,776,0
1447699,422.98,914,777,0
1447709,426.15,914,776,0
1447719,425.59,914,777,0
1447729,421.43,914,776,0
1447739,414.32,914,777,0
1447749,404.92,914,776,0
1447759,394.02,914,777,0
1447769,382.18,914,776,0
1447779,370.13,914,777,0
1447789,358.30,914,776,0
1447799,347.37,914,777,0
1447809,337.70,914,776,0
1447819,329.65,914,777,0
1447829,323.28,914,776,0
1447839,318.65,914,777,0
1447849,315.80,914,777,0
1447859,314.70,914,777,0
1447869,314.88,914,776,0
1447879,316.33,914,777,0
1447889,318.46,914,777,0
1447899,321.11,914,777,0
1447909,324.03,914,776,0
1447919,327.15,914,777,0
1447929,330.41,914,776,0
1447939,333.97,914,777,0
1447949,337.58,914,776,0
1447959,341.35,914,777,0
1447969,345.23,914,776,0
1447980,349.32,914,777,0
1447990,353.81,914,777,0
1448000,358.62,914,777,0
1448010,363.75,914,777,0
1448020,369.05,914,776,0
1448030,374.87,914,777,0
1448040,380.95,914,776,0
1448050,387.26,914,777,0
1448060,393.31,914,776,0
1448070,399.05,914,777,0
1448080,404.13,914,776,0
1448090,408.47,914,777,0
1448100,411.41,914,776,0
1448110,413.17,914,777,0
1448120,413.46,914,777,0
1448130,412.85,914,777,0
1448140,411.87,914,776,0
1448160,411.91,884,775,0
1448163,414.76,884,775,0
1448172,423.02,884,777,0
1448182,438.44,884,774,0
1448193,463.38,884,777,0
1448203,496.14,884,775,0
1448213,534.03,884,777,0
1448223,574.26,884,774,0
1448233,614.21,884,777,0
1448243,650.88,884,775,0
1448253,681.98,884,777,0
1448263,705.09,884,774,0
1448273,721.26,884,777,0
1448283,732.58,884,774,0
1448293,740.51,884,777,0
1448303,746.06,884,774,0
1448313,749.38,884,777,0
1448323,747.51,884,775,0
1448333,738.57,884,777,0
1448343,720.96,884,775,0
1448353,694.61,884,777,0
1448364,659.41,884,775,0
1448374,616.22,884,777,0
1448384,566.05,884,774,0
1448394,513.71,884,777,0
1448404,462.32,884,775,0
1448414,415.30,884,777,0
1448424,373.51,884,774,0
1448434,338.77,884,777,0
1448444,311.24,884,774,0
1448454,291.80,884,777,0
1448464,279.81,884,774,0
1448474,275.63,884,777,0
1448484,277.97,884,774,0
1448494,286.93,884,777,0
1448504,300.67,884,774,0
1448514,318.55,884,777,0
1448524,338.62,884,774,0
1448535,360.16,884,777,0
1448545,381.07,884,774,0
1448555,400.85,884,777,0
1448565,417.74,884,775,0
1448576,431.62,884,777,0
1448585,441.29,884,774,0
1448595,447.20,884,777,0
1448605,448.64,884,775,0
1448615,446.39,884,777,0
1448625,440.23,884,774,0
1448635,431.42,884,777,0
1448645,419.94,884,775,0
1448655,407.06,884,777,0
1448665,392.90,884,774,0
1448675,378.70,884,777,0
1448685,364.56,884,775,0
1448695,351.54,884,777,0
1448705,339.33,884,775,0
1448715,329.16,884,777,0
1448725,320.50,884,775,0
1448735,314.13,884,777,0
1448745,309.51,884,775,0
1448755,307.17,884,777,0
1448765,306.30,884,775,0
1448775,307.41,884,777,0
1448785,309.39,884,775,0
1448795,312.87,884,777,0
1448805,316.94,884,775,0
1448815,321.97,884,777,0
1448825,327.08,884,775,0
1448835,332.80,884,777,0
1448845,338.35,884,775,0
1448855,344.24,884,777,0
1448865,349.65,884,775,0
1448876,354.99,884,777,0
1448886,359.66,884,775,0
1448896,364.09,884,777,0
1448906,367.66,884,776,0
1448916,370.89,884,776,0
1448926,373.41,884,776,0
1448936,375.69,884,777,0
1448946,377.24,884,776,0
1448956,378.45,884,777,0
1448966,379.09,884,775,0
1448976,379.70,884,777,0
1448986,379.79,884,776,0
1448996,379.86,884,777,0
1449006,380.03,884,776,0
1449016,381.65,884,777,0
1449026,385.44,884,776,0
1449036,393.36,884,777,0
1449047,406.84,884,776,0
1449057,428.19,884,777,0
1449076,458.47,916,776,0
1449079,495.58,916,776,0
1449089,536.33,916,777,0
1449099,578.40,916,776,0
1449109,618.95,916,777,0
1449119,655.57,916,776,0
1449129,685.74,916,777,0
1449139,707.72,916,776,0
1449149,723.15,916,777,0
1449159,733.94,916,776,0
1449169,741.50,916,777,0
1449179,746.80,916,777,0
1449189,750.50,916,777,0
1449199,753.09,916,776,0
1449209,752.94,916,777,0
1449219,747.60,916,776,0
1449229,735.68,916,777,0
1449239,716.06,916,776,0
1449249,688.70,916,777,0
1449260,653.82,916,776,0
1449270,612.30,916,777,0
1449280,566.65,916,775,0
1449290,520.56,916,777,0
1449300,476.29,916,775,0
1449310,436.30,916,777,0
1449320,401.50,916,775,0
1449330,372.81,916,777,0
1449340,349.94,916,775,0
1449350,333.50,916,777,0
1449360,322.81,916,775,0
1449370,318.15,916,777,0
1449380,318.49,916,775,0
1449390,323.61,916,777,0
1449400,332.26,916,775,0
1449410,344.18,916,777,0
1449420,357.76,916,775,0
1449431,372.66,916,777,0
1449441,387.16,916,775,0
1449451,401.08,916,777,0
1449461,412.97,916,775,0
1449472,422.92,916,777,0
1449481,429.89,916,775,0
1449491,434.51,916,777,0
1449501,436.16,916,775,0
1449511,435.64,916,777,0
1449521,432.53,916,775,0
1449531,428.22,916,778,0
1449541,422.32,916,775,0
1449551,415.93,916,777,0
1449561,408.49,916,775,0
1449571,400.84,916,777,0
1449581,392.79,916,774,0
1449591,385.10,916,777,0
1449601,377.10,916,775,0
1449611,369.65,916,777,0
1449621,362.13,916,775,0
1449631,355.40,916,777,0
1449641,348.94,916,775,0
1449651,343.47,916,777,0
1449661,338.40,916,775,0
1449671,334.38,916,777,0
1449681,330.75,916,774,0
1449691,328.26,916,777,0
1449701,326.16,916,775,0
1449711,325.22,916,777,0
1449721,324.64,916,774,0
1449731,325.17,916,777,0
1449741,326.06,916,775,0
1449751,327.89,916,777,0
1449761,329.94,916,774,0
1449772,332.83,916,777,0
1449782,335.96,916,775,0
1449792,339.79,916,777,0
1449802,343.45,916,774,0
1449812,347.56,916,777,0
1449822,351.21,916,775,0
1449832,355.04,916,777,0
1449842,358.20,916,774,0
1449852,361.01,916,777,0
1449862,362.81,916,774,0
1449872,364.45,916,777,0
1449882,365.26,916,774,0
1449892,366.34,916,777,0
1449902,367.61,916,775,0
1449912,370.90,916,777,0
1449922,377.10,916,774,0
1449932,388.68,916,777,0
1449943,406.78,916,775,0
1449953,433.89,916,777,0
1449972,469.28,896,776,0
1449975,510.04,896,777,0
1449985,553.01,896,776,0
1449995,595.91,896,777,0
1450005,635.75,896,776,0
1450015,670.28,896,777,0
1450025,696.94,896,777,0
1450035,715.64,896,777,0
1450045,728.74,896,776,0
1450055,737.90,896,777,0
1450065,744.32,896,777,0
1450075,748.85,896,777,0
1450085,752.02,896,776,0
1450095,754.25,896,777,0
1450105,753.87,896,777,0
1450115,749.07,896,777,0
1450125,738.03,896,776,0
1450135,720.11,896,777,0
1450145,694.83,896,777,0
1450156,662.70,896,777,0
1450166,624.00,896,777,0
1450176,581.27,896,777,0
1450186,537.35,896,777,0
1450196,494.94,896,777,0
1450206,455.70,896,777,0
1450216,421.12,896,777,0
1450226,391.81,896,777,0
1450236,368.47,896,777,0
1450246,351.23,896,777,0
1450256,340.06,896,777,0
1450266,334.90,896,777,0
1450276,335.23,896,777,0
1450286,340.26,896,777,0
1450296,349.05,896,777,0
1450306,360.48,896,777,0
1450316,373.41,896,777,0
1450327,386.79,896,777,0
1450337,399.15,896,776,0
1450347,409.60,896,777,0
1450357,417.14,896,776,0
1450368,421.47,896,777,0
1450377,422.53,896,776,0
1450387,420.53,896,777,0
1450397,415.35,896,776,0
1450407,407.83,896,777,0
1450417,398.41,896,776,0
1450427,388.09,896,777,0
1450437,377.13,896,776,0
1450447,366.16,896,777,0
1450457,355.49,896,776,0
1450467,345.96,896,777,0
1450477,337.57,896,776,0
1450487,330.76,896,777,0
1450497,325.47,896,776,0
1450507,322.03,896,777,0
1450517,320.01,896,776,0
1450527,319.58,896,777,0
1450537,320.13,896,775,0
1450547,321.94,896,777,0
1450557,324.48,896,776,0
1450567,327.90,896,777,0
1450577,331.57,896,775,0
1450587,335.77,896,777,0
1450597,339.87,896,776,0
1450607,344.15,896,777,0
1450617,348.05,896,775,0
1450627,351.68,896,777,0
1450637,354.64,896,776,0
1450647,357.41,896,777,0
1450657,359.47,896,775,0
1450668,361.34,896,777,0
1450678,362.61,896,775,0
1450688,363.80,896,777,0
1450698,364.59,896,775,0
1450708,365.40,896,777,0
1450718,365.71,896,775,0
1450728,365.92,896,777,0
1450738,365.48,896,775,0
1450748,365.08,896,777,0
1450758,364.11,896,775,0
1450768,363.18,896,777,0
1450778,361.62,896,775,0
1450788,359.94,896,777,0
1450798,357.81,896,775,0
1450808,356.15,896,777,0
1450818,354.65,896,775,0
1450828,354.63,896,777,0
1450839,356.50,896,775,0
1450849,362.43,896,777,0
1450859,373.70,896,774,0
1450869,392.69,896,777,0
1450880,420.47,896,775,0
1450898,457.27,926,774,0
1450901,499.36,926,774,0
1450910,544.12,926,777,0
1450920,588.44,926,775,0
1450930,629.97,926,777,0
1450940,665.76,926,775,0
1450950,693.78,926,777,0
1450960,713.39,926,775,0
1450970,727.16,926,777,0
1450980,736.80,926,775,0
1450990,743.54,926,777,0
1451000,748.22,926,775,0
1451010,751.54,926,777,0
1451020,753.91,926,774,0
1451030,755.56,926,777,0
1451040,753.98,926,775,0
1451051,747.56,926,777,0
1451060,734.83,926,775,0
1451070,715.51,926,777,0
1451080,689.04,926,775,0
1451090,656.12,926,777,0
1451100,617.17,926,775,0
1451110,575.80,926,777,0
1451120,534.33,926,775,0
1451130,495.53,926,777,0
1451140,460.27,926,775,0
1451150,430.53,926,777,0
1451160,405.99,926,775,0
1451170,387.61,926,777,0
1451180,374.82,926,774,0
1451190,368.11,926,777,0
1451200,366.27,926,775,0
1451210,369.45,926,777,0
1451220,375.96,926,775,0
1451230,385.66,926,777,0
1451240,396.52,926,775,0
1451250,408.23,926,777,0
1451260,418.92,926,775,0
1451270,428.67,926,777,0
1451280,435.93,926,774,0
1451290,440.84,926,777,0
1451300,442.56,926,775,0
1451310,441.79,926,777,0
1451320,438.00,926,774,0
1451330,432.21,926,777,0
1451340,424.00,926,775,0
1451351,414.62,926,777,0
1451361,403.93,926,775,0
1451371,393.11,926,777,0
1451381,382.02,926,775,0
1451392,371.73,926,777,0
1451401,362.08,926,775,0
1451411,353.91,926,777,0
1451421,346.74,926,775,0
1451431,341.37,926,777,0
1451441,337.11,926,775,0
1451451,334.55,926,777,0
1451461,332.97,926,775,0
1451471,332.89,926,777,0
1451481,333.52,926,775,0
1451491,335.25,926,777,0
1451501,337.28,926,775,0
1451511,340.02,926,777,0
1451521,342.54,926,775,0
1451531,345.47,926,777,0
1451541,348.11,926,775,0
1451551,351.04,926,777,0
1451561,353.55,926,776,0
1451571,356.09,926,777,0
1451581,358.03,926,775,0
1451591,360.12,926,777,0
1451601,361.71,926,775,0
1451611,363.26,926,777,0
1451621,363.99,926,776,0
1451631,364.64,926,777,0
1451641,364.58,926,776,0
1451651,364.66,926,777,0
1451661,364.12,926,776,0
1451671,363.35,926,777,0
1451681,361.88,926,776,0
1451692,360.41,926,777,0
1451702,358.45,926,776,0
1451712,356.56,926,777,0
1451722,354.20,926,776,0
1451732,352.09,926,777,0
1451742,349.96,926,776,0
1451752,348.26,926,777,0
1451762,346.55,926,776,0
1451772,345.49,926,777,0
1451782,345.17,926,776,0
1451792,346.36,926,777,0
1451802,349.72,926,776,0
1451812,356.58,926,777,0
1451822,367.59,926,776,0
1451832,384.68,926,777,0
1451842,408.74,926,776,0
1451862,440.96,963,776,0
1451865,480.06,963,778,0
1451874,522.73,963,777,0
1451884,566.01,963,777,0
1451894,607.88,963,777,0
1451905,645.80,963,777,0
1451915,677.96,963,776,0
1451925,702.40,963,777,0
1451935,719.47,963,776,0
1451945,731.45,963,777,0
1451955,739.89,963,776,0
1451965,745.79,963,777,0
1451975,749.88,963,776,0
1451985,752.75,963,777,0
1451995,754.15,963,776,0
1452005,752.01,963,777,0
1452015,744.50,963,776,0
1452025,730.81,963,777,0
1452035,710.51,963,775,0
1452045,683.66,963,777,0
1452055,650.25,963,775,0
1452065,611.60,963,777,0
1452076,570.49,963,775,0
1452086,530.06,963,777,0
1452096,491.68,963,775,0
1452106,457.19,963,777,0
1452116,427.01,963,775,0
1452126,402.32,963,777,0
1452136,383.11,963,775,0
1452146,370.05,963,777,0
1452156,361.98,963,775,0
1452166,359.28,963,777,0
1452176,360.70,963,775,0
1452186,366.15,963,777,0
1452196,374.12,963,775,0
1452206,384.07,963,777,0
1452216,394.33,963,775,0
1452226,404.86,963,777,0
1452236,414.16,963,775,0
1452247,422.13,963,777,0
1452257,427.62,963,775,0
1452267,431.12,963,777,0
1452277,431.77,963,775,0
1452288,430.38,963,777,0
1452297,426.54,963,775,0
1452307,421.15,963,777,0
1452317,413.82,963,774,0
1452327,405.94,963,777,0
1452337,397.13,963,774,0
1452347,388.74,963,777,0
1452357,380.16,963,774,0
1452367,372.40,963,777,0
1452377,364.99,963,775,0
1452387,358.91,963,777,0
1452397,353.54,963,775,0
1452407,349.43,963,777,0
1452417,345.83,963,774,0
1452427,343.44,963,777,0
1452437,341.46,963,775,0
1452447,340.60,963,777,0
1452457,340.03,963,774,0
1452467,340.15,963,777,0
1452477,340.19,963,774,0
1452487,340.91,963,777,0
1452497,341.58,963,774,0
1452507,342.82,963,777,0
1452517,343.69,963,774,0
1452527,344.94,963,777,0
1452537,345.64,963,774,0
1452547,346.74,963,777,0
1452557,347.16,963,775,0
1452567,347.62,963,777,0
1452577,347.35,963,774,0
1452588,347.25,963,777,0
1452598,346.66,963,774,0
1452608,346.33,963,777,0
1452618,345.55,963,774,0
1452628,345.00,963,777,0
1452638,344.18,963,774,0
1452648,343.49,963,777,0
1452658,342.40,963,774,0
1452668,341.38,963,777,0
1452678,339.94,963,774,0
1452688,338.54,963,777,0
1452698,336.75,963,774,0
1452708,334.98,963,777,0
1452718,333.10,963,774,0
1452728,331.57,963,777,0
1452738,330.20,963,774,0
1452748,330.23,963,777,0
1452759,331.83,963,775,0
1452769,336.55,963,777,0
1452779,345.09,963,775,0
1452789,359.03,963,777,0
1452809,379.34,947,776,0
1452812,407.44,947,777,0
1452821,443.13,947,777,0
1452831,484.88,947,777,0
1452841,529.19,947,777,0
1452851,573.53,947,777,0
1452861,615.33,947,777,0
1452871,652.52,947,777,0
1452881,683.13,947,777,0
1452891,706.06,947,777,0
1452901,722.12,947,777,0
1452911,733.31,947,777,0
1452921,739.22,947,777,0
1452931,739.37,947,777,0
1452941,733.17,947,777,0
1452951,720.13,947,777,0
1452961,700.29,947,777,0
1452972,673.76,947,777,0
1452982,641.26,947,777,0
1452992,604.93,947,776,0
1453002,567.11,947,777,0
1453012,529.57,947,776,0
1453022,494.26,947,777,0
1453032,461.82,947,776,0
1453042,433.25,947,777,0
1453052,408.40,947,776,0
1453062,388.10,947,777,0
1453072,371.61,947,776,0
1453082,359.47,947,777,0
1453092,351.10,947,776,0
1453102,346.87,947,777,0
1453112,346.18,947,776,0
1453122,348.87,947,777,0
1453132,353.92,947,776,0
1453143,361.62,947,777,0
1453153,370.56,947,775,0
1453163,380.46,947,777,0
1453173,389.88,947,775,0
1453184,398.75,947,777,0
1453193,406.15,947,776,0
1453203,412.15,947,777,0
1453213,415.66,947,775,0
1453223,417.13,947,777,0
1453233,416.02,947,776,0
1453243,413.19,947,777,0
1453253,407.77,947,775,0
1453263,400.90,947,777,0
1453273,392.36,947,775,0
1453283,383.38,947,777,0
1453293,373.84,947,775,0
1453303,364.54,947,777,0
1453313,355.47,947,775,0
1453323,347.83,947,777,0
1453333,340.85,947,775,0
1453343,335.19,947,777,0
1453353,330.16,947,774,0
1453363,326.39,947,777,0
1453373,323.31,947,775,0
1453383,321.42,947,777,0
1453393,319.97,947,774,0
1453403,319.76,947,777,0
1453413,319.96,947,775,0
1453423,321.34,947,777,0
1453433,323.26,947,774,0
1453443,326.26,947,777,0
1453453,329.53,947,775,0
1453463,333.61,947,777,0
1453473,337.54,947,774,0
1453484,342.09,947,777,0
1453494,346.27,947,774,0
1453504,350.43,947,777,0
1453514,353.81,947,774,0
1453524,356.78,947,777,0
1453534,358.61,947,774,0
1453544,360.05,947,777,0
1453554,360.29,947,774,0
1453564,360.03,947,777,0
1453574,358.61,947,774,0
1453584,356.71,947,777,0
1453594,353.93,947,774,0
1453604,351.08,947,777,0
1453614,347.45,947,774,0
1453624,343.93,947,777,0
1453634,339.97,947,774,0
1453644,336.55,947,778,0
1453655,333.04,947,774,0
1453665,330.20,947,777,0
1453675,327.35,947,774,0
1453685,325.45,947,777,0
1453696,323.99,947,774,0
1453705,323.65,947,777,0
1453715,324.01,947,774,0
1453725,326.45,947,777,0
1453735,331.37,947,774,0
1453745,340.26,947,777,0
1453755,353.60,947,773,0
1453765,373.30,947,777,0
1453775,400.21,947,774,0
1453794,435.08,986,773,0
1453797,476.33,986,775,0
1453806,520.71,986,777,0
1453816,565.37,986,775,0
1453826,608.16,986,777,0
1453836,646.38,986,774,0
1453846,678.28,986,777,0
1453856,702.63,986,775,0
1453867,719.67,986,777,0
1453876,731.60,986,774,0
1453886,739.99,986,777,0
1453896,745.86,986,775,0
1453906,750.02,986,777,0
1453916,750.66,986,774,0
1453926,746.52,986,778,0
1453936,736.42,986,775,0
1453946,720.22,986,777,0
1453956,697.40,986,774,0
1453966,668.35,986,777,0
1453976,633.36,986,775,0
1453986,595.41,986,777,0
1453996,556.59,986,774,0
1454006,519.08,986,778,0
1454016,483.83,986,775,0
1454026,452.21,986,777,0
1454036,424.42,986,775,0
1454046,401.19,986,777,0
1454056,382.15,986,775,0
1454066,367.66,986,777,0
1454076,357.35,986,775,0
1454086,351.24,986,777,0
1454096,348.77,986,775,0
1454106,349.83,986,777,0
1454116,353.18,986,775,0
1454126,358.70,986,777,0
1454136,365.39,986,775,0
1454146,372.86,986,777,0
1454156,379.93,986,775,0
1454167,386.34,986,777,0
1454177,391.33,986,775,0
1454187,394.92,986,777,0
1454197,396.74,986,776,0
1454208,396.56,986,777,0
1454217,394.34,986,776,0
1454227,390.51,986,777,0
1454237,384.87,986,776,0
1454247,377.79,986,777,0
1454257,369.67,986,775,0
1454267,361.03,986,777,0
1454277,352.19,986,776,0
1454287,343.43,986,777,0
1454297,335.07,986,776,0
1454307,327.51,986,777,0
1454317,320.80,986,776,0
1454327,315.03,986,776,0
1454337,310.18,986,776,0
1454347,306.48,986,777,0
1454357,303.77,986,776,0
1454367,302.04,986,777,0
1454377,301.08,986,776,0
1454387,300.84,986,777,0
1454397,301.28,986,776,0
1454407,302.18,986,777,0
1454417,303.41,986,776,0
1454427,304.83,986,777,0
1454437,306.21,986,776,0
1454447,307.99,986,777,0
1454457,309.96,986,777,0
1454467,312.12,986,777,0
1454477,314.18,986,776,0
1454487,316.14,986,777,0
1454497,318.11,986,777,0
1454508,320.05,986,777,0
1454518,321.62,986,777,0
1454528,322.98,986,777,0
1454538,324.01,986,777,0
1454548,324.82,986,777,0
1454558,325.48,986,777,0
1454568,325.76,986,777,0
1454578,325.92,986,777,0
1454588,325.73,986,777,0
1454598,325.51,986,777,0
1454608,325.10,986,777,0
1454618,324.94,986,777,0
1454628,324.66,986,777,0
1454638,324.63,986,777,0
1454648,324.57,986,777,0
1454658,324.70,986,777,0
1454668,324.66,986,777,0
1454679,324.85,986,777,0
1454689,324.77,986,776,0
1454699,325.35,986,777,0
1454709,326.75,986,776,0
1454720,330.21,986,777,0
1454729,336.45,986,776,0
1454739,346.90,986,777,0
1454749,362.61,986,776,0
1454769,385.57,974,774,0
1454772,416.56,974,775,0
1454781,455.78,974,778,0
1454791,499.39,974,774,0
1454801,544.74,974,777,0
1454811,589.13,974,775,0
1454821,630.32,974,778,0
1454831,665.84,974,774,0
1454841,693.79,974,777,0
1454851,713.35,974,775,0
1454861,727.05,974,778,0
1454871,736.63,974,775,0
1454881,743.39,974,777,0
1454892,748.11,974,774,0
1454902,751.46,974,778,0
1454912,753.04,974,774,0
1454922,750.67,974,777,0
1454932,742.46,974,774,0
1454942,727.79,974,778,0
1454952,705.61,974,774,0
1454962,676.24,974,777,0
1454972,639.57,974,774,0
1454982,597.57,974,777,0
1454992,552.91,974,774,0
1455002,509.01,974,777,0
1455012,467.09,974,774,0
1455022,429.52,974,777,0
1455032,396.79,974,774,0
1455042,370.24,974,777,0
1455052,349.30,974,774,0
1455063,334.85,974,777,0
1455073,325.94,974,774,0
1455083,322.83,974,777,0
1455093,324.25,974,774,0
1455104,329.96,974,777,0
1455113,338.42,974,774,0
1455123,349.05,974,777,0
1455133,360.39,974,774,0
1455143,371.85,974,777,0
1455153,382.05,974,774,0
1455163,390.95,974,777,0
1455173,397.31,974,774,0
1455183,401.37,974,777,0
1455193,402.59,974,774,0
1455203,401.43,974,777,0
1455213,397.66,974,774,0
1455223,392.02,974,777,0
1455233,384.34,974,774,0
1455243,375.80,974,777,0
1455253,366.26,974,774,0
1455263,356.62,974,777,0
1455273,346.62,974,774,0
1455283,337.31,974,777,0
1455293,328.56,974,774,0
1455303,321.10,974,777,0
1455313,314.52,974,775,0
1455323,309.35,974,777,0
1455333,305.13,974,774,0
1455343,302.48,974,777,0
1455353,300.66,974,774,0
1455363,300.03,974,777,0
1455373,299.85,974,774,0
1455383,300.58,974,777,0
1455393,301.52,974,775,0
1455404,303.12,974,777,0
1455414,304.80,974,775,0
1455424,306.92,974,777,0
1455434,308.96,974,775,0
1455444,311.33,974,777,0
1455454,313.33,974,775,0
1455464,315.59,974,777,0
1455474,317.51,974,776,0
1455484,319.46,974,777,0
1455494,320.99,974,775,0
1455504,322.28,974,777,0
1455514,323.22,974,775,0
1455524,324.19,974,777,0
1455534,324.77,974,775,0
1455544,325.36,974,777,0
1455554,325.55,974,776,0
1455564,325.81,974,777,0
1455575,325.91,974,776,0
1455585,325.85,974,777,0
1455595,325.55,974,776,0
1455605,325.09,974,777,0
1455616,324.59,974,777,0
1455625,324.20,974,777,0
1455635,323.58,974,776,0
1455645,323.06,974,777,0
1455655,322.57,974,777,0
1455665,322.23,974,777,0
1455675,322.16,974,776,0
1455685,322.54,974,777,0
1455695,324.01,974,777,0
1455705,327.43,974,777,0
1455715,333.90,974,776,0
1455725,344.69,974,777,0
1455735,361.50,974,777,0
1455754,385.26,986,775,0
1455757,417.63,986,776,0
1455766,457.77,986,777,0
1455776,502.28,986,777,0
1455787,548.14,986,776,0
1455796,592.80,986,777,0
1455806,633.53,986,777,0
1455816,668.68,986,777,0
1455826,695.78,986,777,0
1455836,714.75,986,777,0
1455846,728.02,986,777,0
1455856,737.32,986,777,0
1455866,743.82,986,777,0
1455876,748.37,986,777,0
1455886,749.21,986,777,0
1455896,744.47,986,778,0
1455906,732.54,986,776,0
1455916,713.27,986,777,0
1455926,686.23,986,777,0
1455936,652.05,986,777,0
1455946,611.02,986,776,0
1455956,566.44,986,777,0
1455966,521.44,986,777,0
1455976,478.79,986,777,0
1455986,439.51,986,776,0
1455996,405.37,986,777,0
1456006,376.46,986,777,0
1456016,353.61,986,777,0
1456026,336.33,986,776,0
1456036,324.61,986,777,0
1456046,318.22,986,777,0
1456056,317.08,986,777,0
1456066,320.23,986,776,0
1456076,327.49,986,777,0
1456087,337.67,986,776,0
1456097,350.58,986,777,0
1456107,364.94,986,776,0
1456117,380.04,986,777,0
1456128,394.64,986,775,0
1456137,408.25,986,777,0
1456147,419.88,986,776,0
1456157,429.47,986,777,0
1456167,435.97,986,775,0
1456177,439.75,986,777,0
1456187,440.13,986,776,0
1456197,437.69,986,777,0
1456207,432.17,986,775,0
1456217,424.57,986,777,0
1456227,414.67,986,775,0
1456237,403.54,986,777,0
1456247,390.99,986,775,0
1456257,378.27,986,777,0
1456267,365.42,986,775,0
1456277,353.38,986,777,0
1456287,341.61,986,775,0
1456297,331.10,986,777,0
1456307,321.47,986,775,0
1456317,313.57,986,777,0
1456327,306.71,986,775,0
1456337,301.48,986,777,0
1456347,297.48,986,776,0
1456357,295.15,986,777,0
1456367,293.73,986,775,0
1456377,293.73,986,777,0
1456387,294.37,986,775,0
1456397,296.49,986,777,0
1456407,299.25,986,775,0
1456417,302.99,986,777,0
1456428,307.07,986,774,0
1456438,312.06,986,777,0
1456448,317.36,986,775,0
1456458,323.42,986,777,0
1456468,329.29,986,774,0
1456478,335.55,986,777,0
1456488,341.26,986,775,0
1456498,347.05,986,777,0
1456508,352.01,986,774,0
1456518,356.55,986,777,0
1456528,360.03,986,775,0
1456538,362.89,986,777,0
1456548,364.47,986,774,0
1456558,365.57,986,777,0
1456568,365.27,986,774,0
1456578,364.50,986,777,0
1456588,362.72,986,774,0
1456599,360.75,986,777,0
1456609,358.04,986,774,0
1456619,355.24,986,777,0
1456629,351.87,986,774,0
1456640,348.78,986,777,0
1456649,345.20,986,774,0
1456659,342.23,986,777,0
1456669,339.37,986,774,0
1456679,337.93,986,777,0
1456689,337.95,986,774,0
1456699,341.27,986,777,0
1456709,348.69,986,774,0
1456719,362.58,986,777,0
1456729,383.62,986,774,0
1456739,413.65,986,777,0
1456749,452.15,986,774,0
1456759,496.04,986,777,0
1456778,541.75,1024,776,0
1456781,586.91,1024,777,0
1456791,628.55,1024,775,0
1456801,664.64,1024,777,0
1456812,692.91,1024,775,0
1456822,712.69,1024,777,0
1456832,726.54,1024,776,0
1456842,736.28,1024,777,0
1456852,743.10,1024,776,0
1456862,747.87,1024,777,0
1456872,748.81,1024,776,0
1456882,744.02,1024,777,0
1456892,732.19,1024,776,0
1456902,712.93,1024,777,0
1456912,685.95,1024,775,0
1456922,651.77,1024,777,0
1456932,610.99,1024,776,0
1456942,566.94,1024,777,0
1456952,522.51,1024,776,0
1456962,480.40,1024,777,0
1456972,441.97,1024,776,0
1456983,408.59,1024,777,0
1456993,380.73,1024,777,0
1457003,358.48,1024,777,0
1457013,341.84,1024,777,0
1457024,330.79,1024,777,0
1457033,324.89,1024,776,0
1457043,323.90,1024,777,0
1457053,327.23,1024,776,0
1457063,334.10,1024,777,0
1457073,343.80,1024,776,0
1457083,355.39,1024,777,0
1457093,368.30,1024,777,0
1457103,381.41,1024,777,0
1457113,394.06,1024,777,0
1457123,405.14,1024,777,0
1457133,414.23,1024,777,0
1457143,420.80,1024,777,0
1457153,424.59,1024,776,0
1457163,425.23,1024,777,0
1457173,423.10,1024,777,0
1457183,418.19,1024,777,0
1457193,411.27,1024,777,0
1457203,402.62,1024,777,0
1457213,392.92,1024,777,0
1457223,382.49,1024,777,0
1457233,372.01,1024,777,0
1457243,361.77,1024,777,0
1457253,352.02,1024,777,0
1457263,342.89,1024,777,0
1457273,334.78,1024,777,0
1457283,327.64,1024,777,0
1457293,321.79,1024,777,0
1457303,316.84,1024,777,0
1457313,313.25,1024,777,0
1457324,310.90,1024,777,0
1457334,310.03,1024,777,0
1457344,309.98,1024,776,0
1457354,311.01,1024,777,0
1457364,312.72,1024,776,0
1457374,315.55,1024,777,0
1457384,318.68,1024,776,0
1457394,322.29,1024,777,0
1457404,325.63,1024,776,0
1457414,329.39,1024,777,0
1457424,332.91,1024,776,0
1457434,336.50,1024,777,0
1457444,339.52,1024,776,0
1457454,342.28,1024,777,0
1457464,344.47,1024,776,0
1457474,346.64,1024,777,0
1457484,348.12,1024,776,0
1457495,349.50,1024,777,0
1457505,350.25,1024,776,0
1457515,350.99,1024,777,0
1457525,351.21,1024,775,0
1457536,351.36,1024,777,0
1457545,350.95,1024,775,0
1457555,350.71,1024,777,0
1457565,350.07,1024,775,0
1457575,349.75,1024,777,0
1457585,349.01,1024,775,0
1457595,348.66,1024,777,0
1457605,347.95,1024,775,0
1457615,347.62,1024,777,0
1457625,346.96,1024,775,0
1457635,346.50,1024,777,0
1457645,345.88,1024,775,0
1457655,345.53,1024,777,0
1457665,344.69,1024,775,0
1457675,344.27,1024,777,0
1457685,343.93,1024,775,0
1457695,345.19,1024,777,0
1457705,348.35,1024,775,0
1457715,355.02,1024,777,0
1457725,366.33,1024,775,0
1457735,384.91,1024,777,0
1457755,411.64,976,777,0
1457758,448.00,976,778,0
1457767,489.87,976,774,0
1457777,534.66,976,778,0
1457787,579.33,976,774,0
1457797,621.70,976,777,0
1457807,658.82,976,774,0
1457817,688.87,976,777,0
1457827,709.91,976,774,0
1457837,724.64,976,777,0
1457847,734.95,976,774,0
1457857,742.16,976,778,0
1457867,747.21,976,773,0
1457878,750.75,976,777,0
1457887,753.22,976,774,0
1457897,752.39,976,777,0
1457907,745.71,976,774,0
1457917,732.26,976,777,0
1457927,711.39,976,774,0
1457937,683.20,976,777,0
1457947,647.70,976,773,0
1457957,605.96,976,777,0
1457967,561.14,976,774,0
1457977,517.09,976,777,0
1457987,475.49,976,774,0
1457997,438.49,976,777,0
1458007,406.63,976,774,0
1458017,381.32,976,777,0
1458027,362.07,976,774,0
1458037,349.28,976,778,0
1458048,342.34,976,774,0
1458057,341.38,976,777,0
1458067,344.95,976,774,0
1458077,352.98,976,778,0
1458087,363.79,976,774,0
1458097,376.92,976,777,0
1458107,390.79,976,774,0
1458117,404.74,976,777,0
1458127,417.29,976,774,0
1458137,428.30,976,777,0
1458147,436.40,976,774,0
1458157,441.85,976,777,0
1458167,443.87,976,774,0
1458177,443.13,976,777,0
1458187,439.19,976,774,0
1458197,433.05,976,777,0
1458207,424.55,976,774,0
1458217,414.91,976,777,0
1458227,403.97,976,774,0
1458237,392.79,976,778,0
1458247,381.37,976,774,0
1458257,370.72,976,777,0
1458267,360.60,976,774,0
1458277,351.93,976,778,0
1458287,344.28,976,774,0
1458297,338.37,976,777,0
1458307,333.63,976,774,0
1458317,330.53,976,777,0
1458327,328.48,976,774,0
1458337,327.91,976,777,0
1458348,328.15,976,774,0
1458358,329.61,976,777,0
1458368,331.52,976,774,0
1458378,334.41,976,777,0
1458388,337.46,976,775,0
1458398,341.18,976,777,0
1458408,344.77,976,775,0
1458418,348.35,976,777,0
1458428,351.63,976,775,0
1458438,355.00,976,777,0
1458448,358.00,976,775,0
1458458,360.96,976,777,0
1458468,363.37,976,775,0
1458478,365.74,976,777,0
1458488,367.75,976,775,0
1458498,369.62,976,777,0
1458508,370.98,976,775,0
1458519,371.97,976,777,0
1458529,372.58,976,775,0
1458539,373.18,976,777,0
1458549,373.60,976,776,0
1458560,374.02,976,777,0
1458569,374.18,976,775,0
1458579,374.47,976,777,0
1458589,374.93,976,776,0
1458599,375.55,976,777,0
1458609,376.11,976,776,0
1458619,376.59,976,777,0
1458629,376.93,976,776,0
1458639,377.29,976,777,0
1458649,377.55,976,776,0
1458659,377.68,976,777,0
1458669,377.82,976,776,0
1458679,378.56,976,777,0
1458689,380.62,976,775,0
1458699,385.62,976,777,0
1458709,394.78,976,776,0
1458719,409.76,976,776,0
1458729,432.29,976,777,0
1458748,463.19,994,775,0
1458751,500.42,994,777,0
1458760,541.22,994,777,0
1458770,582.68,994,777,0
1458780,622.42,994,777,0
1458790,658.04,994,777,0
1458800,687.25,994,777,0
1458810,708.78,994,777,0
1458820,723.84,994,777,0
1458830,734.39,994,777,0
1458840,741.73,994,777,0
1458850,746.87,994,777,0
1458860,750.47,994,777,0
1458870,752.98,994,777,0
1458880,753.25,994,777,0
1458890,748.76,994,777,0
1458900,737.90,994,777,0
1458910,720.23,994,776,0
1458920,695.30,994,777,0
1458930,663.58,994,777,0
1458940,625.35,994,777,0
1458950,583.25,994,777,0
1458960,540.57,994,777,0
1458970,499.94,994,777,0
1458980,462.72,994,777,0
1458990,430.40,994,777,0
1459000,403.28,994,777,0
1459010,382.07,994,777,0
1459020,366.23,994,777,0
1459031,356.05,994,777,0
1459041,351.11,994,776,0
1459051,351.20,994,777,0
1459061,355.34,994,776,0
1459072,363.04,994,777,0
1459081,372.97,994,776,0
1459091,384.59,994,777,0
1459101,396.54,994,776,0
1459111,408.30,994,777,0
1459121,418.71,994,776,0
1459131,427.45,994,777,0
1459141,433.57,994,776,0
1459151,437.30,994,777,0
1459161,438.11,994,776,0
1459171,436.45,994,777,0
1459181,431.99,994,776,0
1459191,425.43,994,777,0
1459201,416.82,994,776,0
1459211,407.27,994,777,0
1459221,396.56,994,776,0
1459231,385.59,994,777,0
1459241,374.66,994,775,0
1459251,364.69,994,777,0
1459261,355.57,994,776,0
1459271,347.85,994,777,0
1459281,341.26,994,775,0
1459291,336.64,994,777,0
1459301,333.32,994,776,0
1459311,331.55,994,777,0
1459321,330.61,994,775,0
1459331,330.94,994,777,0
1459341,331.95,994,776,0
1459351,333.89,994,777,0
1459361,335.90,994,776,0
1459372,338.54,994,777,0
1459382,340.91,994,775,0
1459392,343.72,994,777,0
1459402,346.08,994,774,0
1459412,348.71,994,777,0
1459422,350.85,994,775,0
1459432,353.21,994,777,0
1459442,355.16,994,775,0
1459452,357.26,994,777,0
1459462,358.85,994,775,0
1459472,360.57,994,777,0
1459482,361.64,994,774,0
1459492,362.78,994,777,0
1459502,363.36,994,775,0
1459512,363.98,994,777,0
1459522,364.07,994,775,0
1459532,364.22,994,777,0
1459543,363.85,994,774,0
1459553,363.64,994,777,0
1459563,363.02,994,774,0
1459573,362.63,994,777,0
1459584,361.80,994,774,0
1459593,361.43,994,777,0
1459603,360.66,994,774,0
1459613,360.37,994,777,0
1459623,359.79,994,774,0
1459633,359.60,994,777,0
1459643,359.07,994,774,0
1459653,358.88,994,777,0
1459663,358.40,994,774,0
1459673,358.84,994,777,0
1459683,359.92,994,774,0
1459693,363.41,994,777,0
1459703,369.85,994,774,0
1459713,381.16,994,777,0
1459723,398.60,994,774,0
1459742,424.39,994,773,0
1459745,459.03,994,774,0
1459755,499.48,994,777,0
1459764,542.41,994,774,0
1459774,585.48,994,777,0
1459784,626.18,994,774,0
1459794,662.30,994,777,0
1459804,691.31,994,774,0
1459814,711.62,994,777,0
1459824,725.83,994,774,0
1459834,735.78,994,777,0
1459844,742.75,994,774,0
1459854,747.62,994,777,0
1459864,751.04,994,774,0
1459874,753.43,994,777,0
1459884,754.37,994,774,0
1459894,751.26,994,777,0
1459904,742.01,994,774,0
1459914,725.89,994,777,0
1459924,702.27,994,774,0
1459934,671.72,994,777,0
1459944,634.52,994,774,0
1459954,592.28,994,777,0
1459964,548.44,994,774,0
1459974,506.30,994,777,0
1459984,467.21,994,773,0
1459994,433.25,994,777,0
1460004,404.46,994,774,0
1460014,381.74,994,777,0
1460024,364.72,994,773,0
1460034,353.83,994,777,0
1460044,348.52,994,774,0
1460055,348.88,994,777,0
1460065,353.59,994,774,0
1460075,362.37,994,777,0
1460085,373.66,994,775,0
1460096,387.00,994,777,0
1460105,400.76,994,774,0
1460115,414.20,994,777,0
1460125,426.10,994,775,0
1460135,435.93,994,777,0
1460145,443.06,994,773,0
1460155,447.33,994,777,0
1460165,448.30,994,774,0
1460175,446.54,994,777,0
1460185,441.96,994,774,0
1460195,435.25,994,777,0
1460205,426.52,994,774,0
1460215,416.42,994,777,0
1460225,405.45,994,774,0
1460235,394.43,994,777,0
1460245,383.59,994,775,0
1460255,373.51,994,777,0
1460265,364.27,994,775,0
1460275,356.60,994,777,0
1460285,350.12,994,775,0
1460295,345.29,994,777,0
1460305,341.77,994,775,0
1460315,339.70,994,777,0
1460325,338.59,994,775,0
1460335,338.63,994,777,0
1460345,339.51,994,775,0
1460355,341.37,994,777,0
1460365,343.70,994,775,0
1460375,346.62,994,777,0
1460385,349.43,994,775,0
1460396,352.56,994,777,0
1460406,355.52,994,776,0
1460416,358.41,994,777,0
1460426,361.07,994,776,0
1460436,363.66,994,777,0
1460446,365.91,994,776,0
1460456,368.29,994,777,0
1460466,370.35,994,776,0
1460476,372.26,994,777,0
1460486,373.64,994,776,0
1460496,374.56,994,777,0
1460506,375.04,994,776,0
1460516,375.24,994,777,0
1460526,375.08,994,776,0
1460536,374.76,994,777,0
1460546,374.27,994,776,0
1460556,373.72,994,777,0
1460567,373.16,994,776,0
1460577,372.51,994,777,0
1460587,371.76,994,777,0
1460597,370.80,994,777,0
1460608,369.79,994,777,0
1460617,368.65,994,777,0
1460627,367.77,994,777,0
1460637,366.81,994,777,0
1460647,366.18,994,777,0
1460657,365.74,994,777,0
1460667,366.03,994,777,0
1460677,367.61,994,777,0
1460687,371.88,994,777,0
1460697,379.68,994,777,0
1460707,393.06,994,777,0
1460717,413.36,994,777,0
1460737,442.35,994,776,0
1460740,478.97,994,775,0
1460749,520.12,994,777,0
1460759,562.77,994,776,0
1460769,604.63,994,777,0
1460780,643.05,994,775,0
1460790,675.82,994,777,0
1460800,700.78,994,774,0
1460810,718.24,994,777,0
1460820,730.47,994,774,0
1460830,739.03,994,777,0
1460840,745.02,994,774,0
1460850,749.21,994,777,0
1460860,752.15,994,774,0
1460870,753.65,994,777,0
1460880,750.75,994,774,0
1460890,741.96,994,777,0
1460900,725.85,994,774,0
1460910,702.76,994,777,0
1460920,672.19,994,774,0
1460930,635.14,994,777,0
1460940,592.54,994,774,0
1460951,548.75,994,777,0
1460961,505.97,994,774,0
1460971,467.06,994,777,0
1460981,432.37,994,774,0
1460992,403.72,994,777,0
1461001,380.57,994,774,0
1461011,363.82,994,777,0
1461021,352.69,994,774,0
1461031,347.64,994,777,0
1461041,347.36,994,774,0
1461051,351.92,994,777,0
1461061,359.79,994,774,0
1461071,370.82,994,777,0
1461081,383.35,994,773,0
1461091,397.00,994,777,0
1461101,409.94,994,773,0
1461111,422.17,994,777,0
1461121,432.19,994,774,0
1461131,440.41,994,777,0
1461141,445.56,994,774,0
1461151,448.05,994,777,0
1461161,447.09,994,773,0
1461171,443.98,994,777,0
1461181,438.16,994,774,0
1461191,430.74,994,777,0
1461201,421.26,994,773,0
1461211,411.28,994,777,0
1461221,400.61,994,774,0
1461231,390.53,994,777,0
1461241,380.38,994,773,0
1461251,371.27,994,777,0
1461261,363.00,994,774,0
1461271,356.49,994,777,0
1461281,351.03,994,773,0
1461292,347.38,994,777,0
1461302,344.82,994,774,0
1461312,344.10,994,777,0
1461322,344.37,994,774,0
1461332,345.93,994,777,0
1461342,347.75,994,774,0
1461352,350.27,994,777,0
1461362,352.80,994,774,0
1461372,355.95,994,777,0
1461382,358.92,994,774,0
1461392,362.29,994,777,0
1461402,365.33,994,774,0
1461412,368.66,994,777,0
1461422,371.55,994,774,0
1461432,374.43,994,777,0
1461442,376.57,994,774,0
1461452,378.41,994,777,0
1461463,379.49,994,774,0
1461473,380.24,994,777,0
1461483,380.30,994,775,0
1461493,380.21,994,777,0
1461504,379.46,994,775,0
1461513,378.64,994,777,0
1461523,377.46,994,775,0
1461533,376.21,994,777,0
1461543,374.86,994,775,0
1461553,373.62,994,777,0
1461563,372.23,994,775,0
1461573,371.13,994,777,0
1461583,369.89,994,775,0
1461593,369.03,994,777,0
1461603,368.16,994,775,0
1461613,367.51,994,777,0
1461623,366.84,994,775,0
1461633,366.38,994,777,0
1461643,365.79,994,775,0
1461653,365.38,994,778,0
1461663,364.88,994,775,0
1461673,365.05,994,777,0
1461683,366.10,994,775,0
1461693,369.50,994,777,0
1461703,376.47,994,775,0
1461713,389.05,994,777,0
1461723,408.37,994,775,0
1461742,436.16,1006,774,0
1461745,472.07,1006,779,0
1461755,513.02,1006,777,0
1461765,556.00,1006,777,0
1461775,598.38,1006,777,0
1461785,637.40,1006,777,0
1461795,671.22,1006,777,0
1461805,697.55,1006,777,0
1461815,715.99,1006,777,0
1461825,728.89,1006,777,0
1461835,737.92,1006,777,0
1461846,744.25,1006,777,0
1461855,748.67,1006,777,0
1461865,751.77,1006,777,0
1461875,753.94,1006,777,0
1461885,755.46,1006,777,0
1461895,754.55,1006,777,0
1461905,748.90,1006,777,0
1461915,736.93,1006,777,0
1461925,717.96,1006,777,0
1461935,691.92,1006,776,0
1461945,659.29,1006,777,0
1461955,620.29,1006,777,0
1461965,577.81,1006,777,0
1461975,535.06,1006,777,0
1461985,494.45,1006,777,0
1461995,457.72,1006,777,0
1462005,426.04,1006,777,0
1462016,399.89,1006,776,0
1462025,380.12,1006,777,0
1462035,366.33,1006,777,0
1462045,358.77,1006,777,0
1462055,356.91,1006,776,0
1462065,360.32,1006,777,0
1462075,368.03,1006,777,0
1462085,379.03,1006,777,0
1462095,391.92,1006,776,0
1462105,406.00,1006,777,0
1462115,419.72,1006,777,0
1462125,432.49,1006,777,0
1462135,442.97,1006,776,0
1462145,450.91,1006,777,0
1462155,455.78,1006,777,0
1462165,457.60,1006,777,0
1462175,456.18,1006,776,0
1462185,452.01,1006,777,0
1462195,445.32,1006,777,0
1462205,436.95,1006,777,0
1462215,427.02,1006,776,0
1462225,416.43,1006,777,0
1462235,405.59,1006,777,0
1462245,395.21,1006,777,0
1462255,385.33,1006,776,0
1462265,376.36,1006,777,0
1462275,368.41,1006,777,0
1462285,362.03,1006,777,0
1462295,356.96,1006,776,0
1462305,353.55,1006,777,0
1462316,351.24,1006,776,0
1462326,350.52,1006,777,0
1462336,350.80,1006,775,0
1462346,352.36,1006,777,0
1462356,354.39,1006,775,0
1462366,357.19,1006,777,0
1462376,359.88,1006,775,0
1462386,363.00,1006,778,0
1462396,365.83,1006,775,0
1462406,369.01,1006,777,0
1462416,371.71,1006,775,0
1462426,374.49,1006,778,0
1462436,376.70,1006,775,0
1462446,379.06,1006,777,0
1462456,380.80,1006,775,0
1462466,382.40,1006,777,0
1462476,383.27,1006,775,0
1462487,383.92,1006,777,0
1462497,383.77,1006,774,0
1462507,383.54,1006,777,0
1462517,382.48,1006,774,0
1462528,381.48,1006,777,0
1462537,380.01,1006,774,0
1462547,378.76,1006,777,0
1462557,377.29,1006,774,0
1462567,376.35,1006,777,0
1462577,375.26,1006,775,0
1462587,374.71,1006,777,0
1462597,373.90,1006,774,0
1462607,373.41,1006,777,0
1462617,372.43,1006,774,0
1462627,371.57,1006,777,0
1462637,370.07,1006,774,0
1462647,368.68,1006,777,0
1462657,366.89,1006,774,0
1462667,365.51,1006,777,0
1462677,364.03,1006,774,0
1462687,363.33,1006,777,0
1462697,363.15,1006,774,0
1462707,364.82,1006,777,0
1462717,368.52,1006,774,0
1462727,376.46,1006,777,0
1462737,389.74,1006,774,0
1462747,410.43,1006,777,0
1462766,439.36,1024,776,0
1462769,476.19,1024,777,0
1462779,517.45,1024,774,0
1462789,560.77,1024,777,0
1462799,603.01,1024,774,0
1462809,641.79,1024,777,0
1462819,674.68,1024,774,0
1462829,699.98,1024,777,0
1462839,717.69,1024,774,0
1462849,730.08,1024,777,0
1462859,738.76,1024,774,0
1462870,744.83,1024,777,0
1462879,749.08,1024,774,0
1462889,752.06,1024,777,0
1462899,754.14,1024,774,0
1462909,755.60,1024,777,0
1462919,755.93,1024,774,0
1462929,752.65,1024,777,0
1462939,743.54,1024,774,0
1462949,727.65,1024,777,0
1462959,704.40,1024,774,0
1462969,674.06,1024,777,0
1462979,636.85,1024,774,0
1462989,594.46,1024,777,0
1462999,550.14,1024,774,0
1463009,507.45,1024,777,0
1463019,468.06,1024,774,0
1463029,434.06,1024,777,0
1463040,406.01,1024,774,0
1463049,384.92,1024,777,0
1463059,370.42,1024,774,0
1463069,362.75,1024,777,0
1463079,361.02,1024,774,0
1463089,365.05,1024,777,0
1463099,373.17,1024,774,0
1463109,384.87,1024,777,0
1463119,398.41,1024,774,0
1463129,413.03,1024,777,0
1463139,427.08,1024,774,0
1463149,439.87,1024,777,0
1463159,450.15,1024,774,0
1463169,457.61,1024,777,0
1463179,461.41,1024,773,0
1463189,462.10,1024,777,0
1463199,459.20,1024,774,0
1463209,453.65,1024,777,0
1463219,445.36,1024,774,0
1463229,435.52,1024,777,0
1463239,424.35,1024,774,0
1463249,412.72,1024,777,0
1463259,400.76,1024,774,0
1463269,389.43,1024,777,0
1463279,378.67,1024,774,0
1463289,369.17,1024,777,0
1463299,360.59,1024,774,0
1463309,353.94,1024,777,0
1463319,348.90,1024,774,0
1463329,345.72,1024,777,0
1463340,343.92,1024,774,0
1463350,343.56,1024,777,0
1463360,344.46,1024,775,0
1463370,346.81,1024,777,0
1463380,349.99,1024,775,0
1463390,353.94,1024,777,0
1463400,357.94,1024,775,0
1463410,362.33,1024,777,0
1463420,366.86,1024,775,0
1463430,371.40,1024,777,0
1463440,375.40,1024,775,0
1463450,378.88,1024,777,0
1463460,381.74,1024,775,0
1463470,384.35,1024,777,0
1463480,386.26,1024,774,0
1463490,387.68,1024,777,0
1463500,388.42,1024,775,0
1463511,388.85,1024,777,0
1463521,388.81,1024,776,0
1463531,388.52,1024,777,0
1463541,387.90,1024,776,0
1463552,386.98,1024,777,0
1463561,385.66,1024,776,0
1463571,384.13,1024,777,0
1463581,382.29,1024,776,0
1463591,380.19,1024,777,0
1463601,377.91,1024,776,0
1463611,375.62,1024,777,0
1463621,373.46,1024,777,0
1463631,371.44,1024,777,0
1463641,369.63,1024,776,0
1463651,368.16,1024,777,0
1463661,367.13,1024,776,0
1463671,366.27,1024,777,0
1463681,365.51,1024,776,0
1463691,364.97,1024,777,0
1463701,364.68,1024,776,0
1463711,364.95,1024,777,0
1463721,366.38,1024,777,0
1463731,369.65,1024,777,0
1463741,376.35,1024,776,0
1463751,388.21,1024,777,0
1463761,407.09,1024,776,0
1463780,434.36,1014,775,0
1463783,470.00,1014,777,0
1463793,510.67,1014,776,0
1463803,553.71,1014,777,0
1463813,596.40,1014,776,0
1463823,636.09,1014,777,0
1463833,670.18,1014,776,0
1463843,696.87,1014,777,0
1463853,715.51,1014,776,0
1463863,728.60,1014,777,0
1463873,737.76,1014,776,0
1463883,744.18,1014,777,0
1463894,748.67,1014,775,0
1463903,751.81,1014,777,0
1463913,754.01,1014,776,0
1463923,755.55,1014,777,0
1463933,756.58,1014,775,0
1463943,756.02,1014,777,0
1463953,750.96,1014,776,0
1463963,739.91,1014,777,0
1463973,721.64,1014,775,0
1463983,696.12,1014,777,0
1463993,663.51,1014,776,0
1464003,624.57,1014,777,0
1464013,580.82,1014,775,0
1464023,536.64,1014,777,0
1464033,494.45,1014,776,0
1464043,456.90,1014,777,0
1464053,424.57,1014,775,0
1464064,398.73,1014,777,0
1464073,379.23,1014,776,0
1464083,366.86,1014,777,0
1464093,360.64,1014,775,0
1464103,360.41,1014,777,0
1464113,364.74,1014,775,0
1464123,373.35,1014,777,0
1464133,384.34,1014,775,0
1464143,397.27,1014,777,0
1464153,410.39,1014,776,0
1464163,423.09,1014,777,0
1464173,433.73,1014,775,0
1464183,442.30,1014,777,0
1464193,447.95,1014,776,0
1464203,450.92,1014,777,0
1464213,450.26,1014,775,0
1464223,446.84,1014,777,0
1464233,440.42,1014,775,0
1464243,432.36,1014,777,0
1464253,422.35,1014,775,0
1464263,411.45,1014,777,0
1464273,399.74,1014,775,0
1464283,388.59,1014,777,0
1464293,377.74,1014,775,0
1464303,368.01,1014,777,0
1464313,358.96,1014,775,0
1464323,351.60,1014,777,0
1464333,345.38,1014,775,0
1464343,340.98,1014,777,0
1464353,337.60,1014,775,0
1464364,335.79,1014,777,0
1464374,334.91,1014,774,0
1464384,335.41,1014,777,0
1464394,336.40,1014,774,0
1464404,338.42,1014,777,0
1464414,340.48,1014,774,0
1464424,343.25,1014,777,0
1464434,345.92,1014,774,0
1464444,349.16,1014,777,0
1464454,352.02,1014,774,0
1464464,355.23,1014,777,0
1464474,357.95,1014,774,0
1464484,360.96,1014,777,0
1464494,363.50,1014,774,0
1464504,366.09,1014,777,0
1464514,368.00,1014,774,0
1464524,370.14,1014,777,0
1464535,371.64,1014,774,0
1464545,373.16,1014,777,0
1464555,373.89,1014,774,0
1464565,374.39,1014,777,0
1464576,374.15,1014,773,0
1464585,373.67,1014,777,0
1464595,372.23,1014,774,0
1464605,370.75,1014,777,0
1464615,368.55,1014,774,0
1464625,366.63,1014,777,0
1464635,364.25,1014,774,0
1464645,362.21,1014,777,0
1464655,360.00,1014,774,0
1464665,358.33,1014,777,0
1464675,356.30,1014,774,0
1464685,354.67,1014,777,0
1464695,352.63,1014,774,0
1464705,351.15,1014,778,0
1464715,349.61,1014,774,0
1464725,349.00,1014,777,0
1464735,349.25,1014,773,0
1464745,352.31,1014,777,0
1464755,358.77,1014,774,0
1464765,371.10,1014,777,0
1464775,390.61,1014,774,0
1464785,419.66,1014,778,0
1464804,457.17,1024,776,0
1464807,500.15,1024,778,0
1464817,545.19,1024,775,0
1464827,590.01,1024,777,0
1464837,631.53,1024,775,0
1464847,667.37,1024,777,0
1464857,694.95,1024,775,0
1464867,714.25,1024,777,0
1464877,727.76,1024,774,0
1464887,737.22,1024,777,0
1464897,743.84,1024,775,0
1464907,748.52,1024,777,0
1464918,751.79,1024,775,0
1464927,754.08,1024,777,0
1464937,755.69,1024,775,0
1464947,756.81,1024,777,0
1464957,754.59,1024,775,0
1464967,747.43,1024,777,0
1464977,733.59,1024,775,0
1464987,712.45,1024,777,0
1464997,683.86,1024,775,0
1465007,648.55,1024,777,0
1465017,606.94,1024,775,0
1465027,562.90,1024,777,0
1465037,518.83,1024,775,0
1465047,477.70,1024,777,0
1465057,440.97,1024,775,0
1465067,410.12,1024,777,0
1465077,385.23,1024,775,0
1465088,366.99,1024,777,0
1465097,355.08,1024,775,0
1465107,349.70,1024,777,0
1465117,349.79,1024,775,0
1465127,354.95,1024,777,0
1465137,363.71,1024,775,0
1465147,375.41,1024,777,0
1465157,388.36,1024,775,0
1465167,401.75,1024,777,0
1465177,414.25,1024,775,0
1465187,425.41,1024,777,0
1465197,434.28,1024,775,0
1465207,440.71,1024,777,0
1465217,444.10,1024,775,0
1465227,444.84,1024,777,0
1465237,442.70,1024,776,0
1465247,438.16,1024,777,0
1465257,431.34,1024,776,0
1465267,422.93,1024,777,0
1465277,413.18,1024,776,0
1465287,402.92,1024,777,0
1465297,392.40,1024,776,0
1465307,382.60,1024,777,0
1465317,373.46,1024,776,0
1465327,365.52,1024,777,0
1465337,358.81,1024,776,0
1465347,354.07,1024,777,0
1465357,351.22,1024,776,0
1465367,350.64,1024,777,0
1465377,351.95,1024,776,0
1465388,355.31,1024,777,0
1465398,360.27,1024,776,0
1465408,366.66,1024,777,0
1465418,373.83,1024,777,0
1465428,381.43,1024,777,0
1465438,388.80,1024,776,0
1465448,395.63,1024,777,0
1465458,401.66,1024,776,0
1465468,406.60,1024,777,0
1465478,410.28,1024,777,0
1465488,412.55,1024,777,0
1465498,413.12,1024,777,0
1465508,412.05,1024,777,0
1465518,409.51,1024,776,0
1465528,405.54,1024,777,0
1465538,400.58,1024,777,0
1465548,394.71,1024,777,0
1465559,388.24,1024,777,0
1465569,381.65,1024,777,0
1465579,375.37,1024,777,0
1465589,369.39,1024,776,0
1465600,364.00,1024,777,0
1465609,359.41,1024,777,0
1465619,355.99,1024,777,0
1465629,353.55,1024,776,0
1465639,352.19,1024,777,0
1465649,351.40,1024,777,0
1465659,351.54,1024,777,0
1465669,352.11,1024,776,0
1465679,353.10,1024,777,0
1465689,354.14,1024,777,0
1465699,355.30,1024,777,0
1465709,356.24,1024,776,0
1465719,357.20,1024,777,0
1465729,357.74,1024,777,0
1465739,358.33,1024,777,0
1465749,358.79,1024,776,0
1465759,360.09,1024,777,0
1465769,363.19,1024,776,0
1465779,369.86,1024,777,0
1465789,381.73,1024,776,0
1465799,401.31,1024,777,0
1465809,430.06,1024,776,0
1465819,467.24,1024,777,0
1465829,509.38,1024,776,0
1465848,553.71,1044,774,0
1465851,597.38,1044,775,0
1465861,637.90,1044,777,0
1465871,672.26,1044,775,0
1465881,698.37,1044,777,0
1465891,716.60,1044,775,0
1465901,729.40,1044,777,0
1465911,738.37,1044,775,0
1465921,744.64,1044,777,0
1465931,748.99,1044,775,0
1465942,752.08,1044,777,0
1465951,754.29,1044,774,0
1465961,755.83,1044,777,0
1465971,756.27,1044,774,0
1465981,753.06,1044,777,0
1465991,744.43,1044,774,0
1466001,729.38,1044,777,0
1466011,706.98,1044,774,0
1466021,677.55,1044,777,0
1466031,641.47,1044,774,0
1466041,600.14,1044,777,0
1466051,556.56,1044,774,0
1466061,513.96,1044,777,0
1466071,473.94,1044,774,0
1466081,438.82,1044,777,0
1466091,408.87,1044,774,0
1466101,385.21,1044,777,0
1466112,367.45,1044,774,0
1466121,356.38,1044,777,0
1466131,350.87,1044,774,0
1466141,351.17,1044,777,0
1466151,355.74,1044,774,0
1466161,364.31,1044,777,0
1466171,375.06,1044,774,0
1466181,387.60,1044,777,0
1466191,400.23,1044,774,0
1466201,412.51,1044,777,0
1466211,422.68,1044,774,0
1466221,430.79,1044,777,0
1466231,435.70,1044,774,0
1466241,437.76,1044,777,0
1466251,436.33,1044,774,0
1466261,432.25,1044,777,0
1466271,425.19,1044,774,0
1466281,416.43,1044,777,0
1466291,405.84,1044,774,0
1466301,394.71,1044,777,0
1466311,382.88,1044,774,0
1466321,371.56,1044,777,0
1466331,360.51,1044,774,0
1466341,350.88,1044,777,0
1466351,342.09,1044,774,0
1466361,335.03,1044,777,0
1466371,329.24,1044,774,0
1466381,325.48,1044,777,0
1466391,322.98,1044,774,0
1466401,322.13,1044,777,0
1466412,322.22,1044,774,0
1466422,323.91,1044,777,0
1466432,326.34,1044,774,0
1466442,329.79,1044,777,0
1466452,333.28,1044,774,0
1466462,337.31,1044,777,0
1466472,341.12,1044,774,0
1466482,345.07,1044,777,0
1466492,348.43,1044,773,0
1466502,351.78,1044,777,0
1466512,354.46,1044,774,0
1466522,357.19,1044,777,0
1466532,359.23,1044,773,0
1466542,361.44,1044,777,0
1466552,362.89,1044,774,0
1466562,364.12,1044,777,0
1466572,364.47,1044,773,0
1466583,364.72,1044,777,0
1466593,364.20,1044,774,0
1466603,363.58,1044,777,0
1466613,362.17,1044,774,0
1466624,360.87,1044,777,0
1466633,359.28,1044,774,0
1466643,358.00,1044,777,0
1466653,356.50,1044,774,0
1466663,355.23,1044,777,0
1466673,353.92,1044,774,0
1466683,352.92,1044,777,0
1466693,351.61,1044,774,0
1466703,350.74,1044,777,0
1466713,349.71,1044,774,0
1466723,348.98,1044,777,0
1466733,348.09,1044,774,0
1466743,347.50,1044,777,0
1466753,346.79,1044,774,0
1466763,346.77,1044,777,0
1466773,347.14,1044,774,0
1466783,349.11,1044,777,0
1466793,353.41,1044,775,0
1466803,361.81,1044,777,0
1466813,375.50,1044,774,0
1466823,396.95,1044,777,0
1466843,427.05,994,776,0
1466846,465.31,994,778,0
1466855,508.20,994,776,0
1466865,552.93,994,777,0
1466875,596.75,994,776,0
1466885,637.24,994,777,0
1466895,671.58,994,776,0
1466905,698.02,994,777,0
1466915,716.53,994,777,0
1466925,729.53,994,777,0
1466935,738.63,994,776,0
1466945,745.00,994,777,0
1466955,749.45,994,777,0
1466966,752.62,994,777,0
1466975,754.79,994,776,0
1466985,756.27,994,777,0
1466995,753.87,994,777,0
1467005,745.64,994,777,0
1467015,730.70,994,776,0
1467025,708.59,994,777,0
1467035,679.27,994,776,0
1467045,643.19,994,777,0
1467055,601.13,994,776,0
1467065,557.08,994,777,0
1467075,514.03,994,776,0
1467085,473.78,994,777,0
1467095,437.84,994,776,0
1467105,407.20,994,777,0
1467115,382.41,994,777,0
1467125,363.48,994,777,0
1467136,350.56,994,777,0
1467145,343.32,994,777,0
1467155,341.64,994,777,0
1467165,344.83,994,777,0
1467175,352.13,994,777,0
1467185,362.50,994,777,0
1467195,375.08,994,777,0
1467205,388.73,994,777,0
1467215,402.52,994,777,0
1467225,415.18,994,777,0
1467235,426.01,994,777,0
1467245,434.32,994,777,0
1467255,439.88,994,777,0
1467265,442.36,994,777,0
1467275,441.87,994,776,0
1467285,438.56,994,777,0
1467295,432.99,994,777,0
1467305,425.45,994,777,0
1467315,416.75,994,777,0
1467325,407.27,994,777,0
1467335,397.76,994,777,0
1467345,388.66,994,776,0
1467355,380.49,994,777,0
1467365,373.53,994,777,0
1467375,368.06,994,777,0
1467385,363.97,994,777,0
1467395,361.53,994,777,0
1467405,360.43,994,777,0
1467415,360.52,994,777,0
1467425,361.35,994,776,0
1467436,362.83,994,777,0
1467446,364.55,994,776,0
1467456,366.57,994,777,0
1467466,368.20,994,776,0
1467476,369.64,994,777,0
1467486,370.65,994,776,0
1467496,371.53,994,777,0
1467506,371.88,994,776,0
1467516,372.09,994,777,0
1467526,371.85,994,777,0
1467536,371.64,994,777,0
1467546,371.10,994,776,0
1467556,370.60,994,777,0
1467566,369.82,994,776,0
1467576,369.23,994,777,0
1467586,368.43,994,776,0
1467596,367.75,994,777,0
1467607,366.79,994,776,0
1467617,365.91,994,777,0
1467627,364.78,994,775,0
1467637,363.78,994,777,0
1467648,362.34,994,775,0
1467657,361.17,994,777,0
1467667,359.49,994,775,0
1467677,358.06,994,777,0
1467687,356.50,994,775,0
1467697,355.32,994,777,0
1467707,353.94,994,775,0
1467717,353.06,994,777,0
1467727,351.88,994,775,0
1467737,351.45,994,777,0
1467747,350.80,994,775,0
1467757,350.43,994,777,0
1467767,349.83,994,775,0
1467777,350.10,994,777,0
1467787,351.40,994,775,0
1467797,355.69,994,777,0
1467807,363.76,994,775,0
1467817,378.06,994,777,0
1467836,399.51,994,776,0
1467839,430.34,994,778,0
1467848,468.94,994,774,0
1467858,512.29,994,777,0
1467868,556.99,994,774,0
1467878,600.58,994,778,0
1467888,640.17,994,774,0
1467898,674.02,994,777,0
1467908,699.60,994,774,0
1467918,717.51,994,777,0
1467928,730.00,994,774,0
1467938,738.78,994,777,0
1467948,744.93,994,774,0
1467958,749.24,994,777,0
1467968,752.21,994,774,0
1467978,752.88,994,777,0
1467988,748.41,994,774,0
1467998,737.83,994,777,0
1468008,719.84,994,774,0
1468018,694.56,994,777,0
1468028,662.08,994,774,0
1468038,623.35,994,777,0
1468048,579.96,994,774,0
1468058,536.13,994,777,0
1468068,493.32,994,774,0
1468078,454.22,994,777,0
1468088,419.44,994,774,0
1468098,390.21,994,777,0
1468108,366.02,994,774,0
1468119,347.84,994,777,0
1468129,334.99,994,774,0
1468139,328.18,994,777,0
1468149,326.20,994,774,0
1468160,329.09,994,776,0
1468169,335.37,994,774,0
1468179,345.24,994,777,0
1468189,357.13,994,773,0
1468199,370.63,994,776,0
1468209,384.07,994,774,0
1468219,397.25,994,777,0
1468229,408.92,994,774,0
1468239,419.01,994,777,0
1468249,426.21,994,774,0
1468259,430.95,994,777,0
1468269,432.42,994,774,0
1468279,431.35,994,777,0
1468289,427.35,994,774,0
1468299,421.20,994,777,0
1468309,412.91,994,774,0
1468319,403.51,994,777,0
1468329,392.90,994,774,0
1468339,382.47,994,777,0
1468349,372.00,994,774,0
1468359,362.57,994,777,0
1468369,354.00,994,774,0
1468379,347.06,994,777,0
1468389,341.30,994,774,0
1468399,337.57,994,777,0
1468409,335.08,994,774,0
1468419,334.41,994,777,0
1468429,334.93,994,774,0
1468439,337.01,994,777,0
1468449,339.88,994,774,0
1468460,343.99,994,777,0
1468470,348.32,994,774,0
1468480,353.24,994,777,0
1468490,358.22,994,775,0
1468500,363.21,994,777,0
1468510,367.61,994,774,0
1468520,371.88,994,777,0
1468530,375.43,994,775,0
1468540,378.73,994,777,0
1468550,381.13,994,774,0
1468560,383.06,994,777,0
1468570,384.24,994,775,0
1468580,385.15,994,777,0
1468590,385.28,994,774,0
1468600,385.07,994,777,0
1468610,384.15,994,775,0
1468620,383.16,994,777,0
1468631,381.65,994,775,0
1468641,380.13,994,777,0
1468651,378.21,994,776,0
1468661,376.39,994,777,0
1468672,374.51,994,776,0
1468681,372.86,994,777,0
1468691,371.27,994,776,0
1468701,369.86,994,777,0
1468711,368.36,994,776,0
1468721,367.05,994,777,0
1468731,365.75,994,775,0
1468741,364.63,994,777,0
1468751,363.58,994,776,0
1468761,362.72,994,777,0
1468771,361.90,994,775,0
1468781,361.55,994,777,0
1468791,361.68,994,776,0
1468801,362.94,994,777,0
1468811,366.13,994,775,0
1468821,372.69,994,777,0
1468831,383.80,994,776,0
1468841,401.43,994,777,0
1468860,426.24,1024,776,0
1468863,459.60,1024,777,0
1468873,499.02,1024,777,0
1468883,541.40,1024,776,0
1468893,583.88,1024,777,0
1468903,624.12,1024,777,0
1468913,659.61,1024,777,0
1468923,688.96,1024,776,0
1468933,710.27,1024,776,0
1468943,725.19,1024,777,0
1468953,735.63,1024,777,0
1468963,742.94,1024,776,0
1468973,748.02,1024,777,0
1468983,750.71,1024,777,0
1468993,748.70,1024,777,0
1469003,739.92,1024,776,0
1469014,723.57,1024,776,0
1469023,699.01,1024,776,0
1469033,666.57,1024,777,0
1469043,626.67,1024,776,0
1469053,580.74,1024,777,0
1469063,532.30,1024,776,0
1469073,484.98,1024,777,0
1469083,440.67,1024,776,0
1469093,401.43,1024,777,0
1469103,368.00,1024,776,0
1469113,341.26,1024,777,0
1469123,321.38,1024,776,0
1469133,308.84,1024,777,0
1469143,302.93,1024,777,0
1469153,303.51,1024,777,0
1469163,309.53,1024,776,0
1469173,320.34,1024,777,0
1469184,334.51,1024,776,0
1469193,351.33,1024,777,0
1469203,369.02,1024,776,0
1469213,386.71,1024,777,0
1469223,402.87,1024,776,0
1469233,417.05,1024,777,0
1469243,428.09,1024,776,0
1469253,435.91,1024,777,0
1469263,439.75,1024,776,0
1469273,440.04,1024,777,0
1469283,436.64,1024,776,0
1469293,430.36,1024,777,0
1469303,421.00,1024,776,0
1469313,409.81,1024,777,0
1469323,397.18,1024,776,0
1469333,384.14,1024,777,0
1469343,370.86,1024,776,0
1469353,358.30,1024,777,0
1469363,346.60,1024,776,0
1469373,336.69,1024,777,0
1469383,328.21,1024,776,0
1469393,321.55,1024,777,0
1469403,316.45,1024,776,0
1469413,313.19,1024,777,0
1469423,311.25,1024,776,0
1469433,311.09,1024,777,0
1469443,312.09,1024,776,0
1469453,314.51,1024,777,0
1469463,317.70,1024,775,0
1469473,321.82,1024,777,0
1469484,326.37,1024,775,0
1469494,331.57,1024,777,0
1469504,336.50,1024,775,0
1469514,341.62,1024,777,0
1469524,346.24,1024,774,0
1469534,350.84,1024,777,0
1469544,354.74,1024,775,0
1469554,358.33,1024,777,0
1469564,361.02,1024,774,0
1469574,363.50,1024,777,0
1469584,365.02,1024,774,0
1469594,366.26,1024,777,0
1469604,366.57,1024,774,0
1469614,366.74,1024,777,0
1469624,366.26,1024,774,0
1469634,365.88,1024,777,0
1469644,365.02,1024,775,0
1469655,364.20,1024,777,0
1469665,362.94,1024,774,0
1469675,361.84,1024,777,0
1469685,360.22,1024,774,0
1469696,358.95,1024,777,0
1469705,357.30,1024,774,0
1469715,355.92,1024,777,0
1469725,354.32,1024,774,0
1469735,353.06,1024,777,0
1469745,351.54,1024,774,0
1469755,350.57,1024,777,0
1469765,349.37,1024,774,0
1469775,349.04,1024,777,0
1469785,349.37,1024,774,0
1469795,352.13,1024,777,0
1469805,357.79,1024,774,0
1469815,368.87,1024,777,0
1469825,385.84,1024,774,0
1469835,411.09,1024,777,0
1469854,444.87,994,776,0
1469857,485.37,994,777,0
1469867,528.97,994,774,0
1469876,573.34,994,777,0
1469886,615.19,994,774,0
1469896,652.85,994,777,0
1469906,683.67,994,773,0
1469916,706.35,994,777,0
1469926,722.23,994,774,0
1469936,733.35,994,777,0
1469946,741.09,994,774,0
1469956,746.50,994,777,0
1469966,750.30,994,774,0
1469976,752.95,994,777,0
1469986,752.75,994,774,0
1469996,748.28,994,777,0
1470006,737.53,994,774,0
1470016,719.97,994,777,0
1470026,694.99,994,774,0
1470036,663.32,994,777,0
1470046,625.21,994,774,0
1470056,583.58,994,777,0
1470066,540.50,994,774,0
1470076,499.12,994,777,0
1470086,460.52,994,774,0
1470096,426.59,994,777,0
1470106,397.06,994,774,0
1470116,372.82,994,777,0
1470126,353.55,994,774,0
1470136,339.97,994,777,0
1470146,331.45,994,774,0
1470156,328.44,994,777,0
1470167,329.60,994,774,0
1470177,335.16,994,777,0
1470187,343.81,994,774,0
1470197,355.35,994,777,0
1470208,368.06,994,775,0
1470217,381.42,994,777,0
1470227,394.02,994,774,0
1470237,405.71,994,777,0
1470247,415.06,994,775,0
1470257,422.11,994,777,0
1470267,425.81,994,774,0
1470277,426.68,994,777,0
1470287,424.38,994,775,0
1470297,419.59,994,777,0
1470307,412.30,994,774,0
1470317,403.51,994,777,0
1470327,393.29,994,775,0
1470337,382.83,994,777,0
1470347,372.21,994,774,0
1470357,362.50,994,777,0
1470367,353.48,994,775,0
1470377,345.88,994,777,0
1470387,339.44,994,774,0
1470397,334.77,994,777,0
1470407,331.19,994,775,0
1470417,329.08,994,777,0
1470427,327.68,994,774,0
1470437,327.31,994,776,0
1470447,327.56,994,775,0
1470457,328.89,994,777,0
1470467,330.64,994,774,0
1470477,333.19,994,777,0
1470487,336.00,994,775,0
1470497,339.47,994,777,0
1470508,343.10,994,775,0
1470518,346.89,994,776,0
1470528,350.31,994,776,0
1470538,353.47,994,777,0
1470548,356.12,994,776,0
1470558,358.35,994,776,0
1470568,359.96,994,776,0
1470578,361.30,994,777,0
1470588,362.28,994,776,0
1470598,363.05,994,776,0
1470608,363.55,994,776,0
1470618,363.90,994,777,0
1470628,364.15,994,776,0
1470638,364.40,994,777,0
1470648,364.41,994,776,0
1470658,364.29,994,777,0
1470668,364.03,994,776,0
1470679,363.72,994,777,0
1470689,363.38,994,777,0
1470699,363.05,994,777,0
1470709,362.69,994,777,0
1470720,362.31,994,776,0
1470729,362.05,994,776,0
1470739,361.69,994,777,0
1470749,361.40,994,777,0
1470759,360.81,994,776,0
1470769,360.09,994,776,0
1470779,359.38,994,777,0
1470789,359.31,994,777,0
1470799,360.24,994,776,0
1470809,363.26,994,776,0
1470819,369.57,994,777,0
1470829,381.10,994,777,0
1470839,399.41,994,777,0
1470858,425.60,1004,776,0
1470861,460.48,1004,775,0
1470871,500.92,1004,777,0
1470881,544.06,1004,775,0
1470892,587.16,1004,777,0
1470902,627.61,1004,775,0
1470912,663.00,1004,777,0
1470922,691.63,1004,774,0
1470932,711.88,1004,777,0
1470942,726.06,1004,775,0
1470952,735.98,1004,777,0
1470962,742.93,1004,775,0
1470972,747.80,1004,777,0
1470982,751.20,1004,775,0
1470992,751.57,1004,777,0
1471002,746.55,1004,775,0
1471012,735.25,1004,777,0
1471022,716.96,1004,775,0
1471032,691.90,1004,777,0
1471042,660.13,1004,775,0
1471052,622.59,1004,777,0
1471063,581.70,1004,775,0
1471073,541.16,1004,777,0
1471083,502.46,1004,774,0
1471093,467.60,1004,777,0
1471104,436.74,1004,774,0
1471113,410.97,1004,777,0
1471123,389.64,1004,774,0
1471133,373.29,1004,777,0
