Time,PPG,IBI,GSR,GSR_Event
7051,575.21,744,760,0
7061,505.59,744,758,0
7071,432.30,744,760,0
7081,361.28,744,758,0
7091,297.55,744,761,0
7101,243.90,744,758,0
7111,202.62,744,760,0
7121,175.60,744,759,0
7131,165.87,744,761,0
7141,170.45,744,758,0
7151,186.81,744,760,0
7161,211.94,744,758,0
7171,243.12,744,761,0
7181,277.07,744,759,0
7191,311.42,744,760,0
7201,343.61,744,759,0
7212,372.10,744,761,0
7222,395.47,744,759,0
7232,413.37,744,760,0
7242,425.30,744,759,0
7252,431.38,744,760,0
7262,432.08,744,759,0
7272,428.07,744,760,0
7282,420.16,744,759,0
7292,409.32,744,760,0
7302,396.36,744,759,0
7312,382.37,744,760,0
7322,367.99,744,759,0
7332,353.72,744,760,0
7342,340.30,744,759,0
7352,328.21,744,760,0
7362,317.82,744,759,0
7372,309.26,744,760,0
7383,302.58,744,759,0
7393,297.95,744,760,0
7403,295.31,744,759,0
7413,294.53,744,760,0
7424,295.53,744,759,0
7433,298.07,744,760,0
7443,301.91,744,759,0
7453,306.52,744,760,0
7463,311.81,744,760,0
7473,317.26,744,760,0
7483,322.80,744,759,0
7493,327.79,744,760,0
7503,332.18,744,759,0
7513,335.85,744,760,0
7523,339.37,744,759,0
7533,343.24,744,760,0
7543,349.77,744,759,0
7553,360.81,744,760,0
7563,380.07,744,759,0
7573,410.56,744,760,0
7583,449.65,744,760,0
7593,494.28,744,760,0
7603,542.03,744,759,0
7613,589.59,744,760,0
7623,634.16,744,760,0
7643,671.65,752,759,0
7645,698.71,752,762,0
7655,717.70,752,761,0
7665,731.08,752,761,0
7675,740.48,752,760,0
7685,747.11,752,761,0
7695,751.79,752,761,0
7705,755.15,752,761,0
7715,757.51,752,760,0
7725,759.16,752,761,0
7735,760.27,752,761,0
7745,761.04,752,761,0
7755,757.26,752,760,0
7766,745.74,752,761,0
7775,724.47,752,760,0
7785,692.83,752,761,0
7795,650.37,752,760,0
7805,598.40,752,761,0
7815,538.15,752,761,0
7825,475.92,752,761,0
7835,416.42,752,760,0
7845,364.09,752,761,0
7855,320.91,752,760,0
7865,289.48,752,761,0
7875,269.58,752,760,0
7885,261.26,752,761,0
7895,262.73,752,761,0
7905,273.05,752,761,0
7915,289.45,752,760,0
7925,310.70,752,761,0
7936,333.38,752,760,0
7945,356.28,752,761,0
7955,376.77,752,761,0
7965,394.32,752,761,0
7975,407.13,752,760,0
7985,415.36,752,761,0
7995,418.04,752,761,0
8005,416.35,752,761,0
8015,409.95,752,760,0
8025,400.75,752,761,0
8035,388.70,752,761,0
8045,375.50,752,761,0
8055,361.25,752,760,0
8065,347.63,752,761,0
8075,334.63,752,761,0
8085,323.47,752,761,0
8095,313.43,752,760,0
8105,305.71,752,761,0
8115,299.71,752,761,0
8125,296.24,752,761,0
8135,294.20,752,760,0
8145,294.44,752,762,0
8155,295.81,752,761,0
8165,298.78,752,761,0
8175,302.27,752,760,0
8185,306.82,752,762,0
8195,311.42,752,761,0
8205,316.69,752,761,0
8215,321.54,752,760,0
8225,326.69,752,762,0
8236,331.33,752,760,0
8246,335.94,752,761,0
8256,339.69,752,760,0
8266,343.13,752,761,0
8276,345.53,752,760,0
8286,347.69,752,761,0
8296,349.58,752,760,0
8306,353.39,752,762,0
8316,360.65,752,760,0
8326,374.72,752,761,0
8336,398.08,752,760,0
8346,432.25,752,762,0
8356,473.62,752,760,0
8366,519.68,752,761,0
8385,567.13,743,760,0
8387,613.21,743,762,0
8397,654.20,743,760,0
8407,686.88,743,762,0
8417,709.76,743,760,0
8427,725.78,743,762,0
8437,736.99,743,760,0
8448,744.83,743,762,0
8457,750.28,743,760,0
8467,754.10,743,762,0
8477,756.77,743,760,0
8487,758.64,743,762,0
8497,759.95,743,760,0
8507,759.66,743,762,0
8517,753.08,743,760,0
8527,737.84,743,762,0
8537,712.43,743,760,0
8547,676.77,743,762,0
8557,630.73,743,760,0
8567,575.57,743,762,0
8577,513.60,743,760,0
8587,451.92,743,762,0
8597,394.34,743,760,0
8607,344.74,743,762,0
8617,304.53,743,760,0
8627,275.92,743,762,0
8637,258.54,743,760,0
8647,252.68,743,762,0
8657,256.29,743,760,0
8667,268.42,743,762,0
8677,286.38,743,760,0
8687,308.81,743,762,0
8697,332.78,743,760,0
8707,356.89,743,762,0
8717,378.52,743,760,0
8727,397.18,743,762,0
8737,411.23,743,760,0
8748,420.84,743,762,0
8758,425.18,743,760,0
8768,424.95,743,762,0
8778,420.25,743,760,0
8788,412.42,743,762,0
8798,401.49,743,760,0
8808,388.92,743,762,0
8818,374.93,743,759,0
8828,361.23,743,762,0
8838,348.01,743,760,0
8848,336.13,743,762,0
8858,325.72,743,759,0
8868,317.41,743,762,0
8878,311.11,743,760,0
8888,307.14,743,762,0
8898,304.65,743,759,0
8908,304.03,743,762,0
8919,304.71,743,760,0
8929,306.72,743,762,0
8939,309.59,743,759,0
8949,313.10,743,762,0
8960,316.97,743,760,0
8969,321.14,743,762,0
8979,325.08,743,759,0
8989,329.00,743,762,0
8999,332.43,743,760,0
9009,335.56,743,762,0
9019,338.13,743,759,0
9029,340.15,743,762,0
9039,341.52,743,760,0
9049,342.65,743,762,0
9059,343.78,743,759,0
9069,346.51,743,762,0
9079,352.74,743,760,0
9089,365.12,743,762,0
9099,386.60,743,760,0
9109,419.72,743,762,0
9119,460.77,743,760,0
9129,507.00,743,762,0
9139,555.34,743,760,0
9158,602.60,773,759,0
9160,645.66,773,761,0
9170,680.91,773,761,0
9180,705.58,773,760,0
9190,722.85,773,762,0
9200,734.94,773,761,0
9210,743.40,773,762,0
9220,749.32,773,760,0
9230,753.42,773,762,0
9240,756.30,773,761,0
9250,758.31,773,761,0
9260,759.72,773,760,0
9270,758.86,773,761,0
9280,751.91,773,761,0
9290,736.08,773,761,0
9300,710.00,773,760,0
9310,673.53,773,761,0
9320,626.87,773,760,0
9330,571.07,773,761,0
9340,509.68,773,760,0
9350,448.32,773,761,0
9360,391.86,773,761,0
9370,343.39,773,761,0
9380,305.22,773,760,0
9390,278.32,773,761,0
9400,263.05,773,760,0
9410,258.58,773,761,0
9420,263.85,773,761,0
9431,276.97,773,761,0
9441,296.09,773,761,0
9451,318.39,773,761,0
9461,342.40,773,761,0
9472,365.64,773,761,0
9481,386.70,773,760,0
9491,403.98,773,761,0
9501,416.76,773,761,0
9511,424.37,773,761,0
9521,427.26,773,760,0
9531,425.04,773,761,0
9541,418.98,773,761,0
9551,409.22,773,761,0
9561,397.41,773,760,0
9571,384.00,773,761,0
9581,370.37,773,760,0
9591,356.76,773,760,0
9601,344.45,773,761,0
9611,333.47,773,761,0
9621,324.59,773,761,0
9631,317.12,773,760,0
9641,311.90,773,761,0
9651,308.29,773,761,0
9661,306.79,773,761,0
9671,306.59,773,760,0
9681,307.74,773,761,0
9691,309.79,773,761,0
9701,312.94,773,761,0
9711,316.26,773,761,0
9721,320.17,773,761,0
9731,323.67,773,761,0
9741,327.54,773,761,0
9751,331.02,773,761,0
9761,334.57,773,761,0
9772,337.53,773,761,0
9782,340.46,773,761,0
9792,342.63,773,760,0
9802,344.89,773,761,0
9812,346.29,773,760,0
9822,348.13,773,761,0
9832,350.66,773,760,0
9842,356.85,773,761,0
9852,368.55,773,760,0
9862,389.13,773,761,0
9872,420.63,773,760,0
9882,460.52,773,761,0
9892,505.53,773,760,0
9902,553.33,773,761,0
9921,600.16,763,760,0
9923,643.10,763,763,0
9933,678.60,763,760,0
9943,703.87,763,761,0
9953,721.53,763,760,0
9963,733.88,763,761,0
9973,742.53,763,760,0
9984,748.63,763,762,0
9993,752.86,763,760,0
10003,755.81,763,761,0
10013,757.88,763,760,0
10023,759.38,763,762,0
10033,760.38,763,760,0
10043,757.65,763,761,0
10053,747.30,763,760,0
10063,727.79,763,762,0
10073,698.03,763,760,0
10083,658.33,763,761,0
10093,608.86,763,760,0
10103,551.26,763,761,0
10113,490.20,763,760,0
10123,432.02,763,761,0
10133,379.77,763,760,0
10143,336.86,763,761,0
10153,304.20,763,760,0
10163,283.48,763,761,0
10173,273.74,763,760,0
10183,274.80,763,761,0
10193,284.20,763,760,0
10203,300.81,763,761,0
10213,321.70,763,760,0
10223,345.45,763,762,0
10233,369.01,763,760,0
10243,391.47,763,761,0
10253,410.18,763,760,0
10263,424.96,763,761,0
10273,434.53,763,760,0
10284,439.38,763,761,0
10294,438.97,763,760,0
10304,434.56,763,762,0
10314,426.04,763,760,0
10324,415.40,763,761,0
10334,402.76,763,760,0
10344,389.76,763,762,0
10354,376.38,763,760,0
10364,363.88,763,761,0
10374,352.30,763,760,0
10384,342.70,763,762,0
10394,334.47,763,760,0
10404,328.46,763,761,0
10414,323.78,763,760,0
10424,321.27,763,762,0
10434,320.08,763,760,0
10444,320.78,763,761,0
10455,322.35,763,760,0
10465,325.16,763,762,0
10475,328.37,763,760,0
10485,332.41,763,761,0
10496,336.32,763,759,0
10505,340.77,763,762,0
10515,344.56,763,760,0
10525,348.47,763,761,0
10535,351.80,763,759,0
10545,354.94,763,761,0
10555,357.36,763,760,0
10565,359.40,763,761,0
10575,360.78,763,759,0
10585,362.64,763,761,0
10595,365.66,763,760,0
10605,372.45,763,761,0
10615,385.09,763,759,0
10625,406.70,763,762,0
10635,438.98,763,760,0
10645,478.63,763,762,0
10655,522.80,763,760,0
10665,568.93,763,762,0
10684,613.69,763,761,0
10686,654.11,763,762,0
10696,686.82,763,760,0
10706,709.72,763,762,0
10716,725.75,763,760,0
10726,736.96,763,762,0
10736,744.82,763,760,0
10746,750.32,763,762,0
10756,754.12,763,760,0
10766,756.78,763,762,0
10776,758.65,763,760,0
10786,759.95,763,762,0
10796,760.87,763,760,0
10806,758.04,763,762,0
10816,748.00,763,759,0
10826,729.05,763,762,0
10836,700.11,763,760,0
10846,661.76,763,762,0
10856,614.35,763,759,0
10866,559.09,763,762,0
10876,500.82,763,760,0
10886,444.99,763,761,0
10896,395.10,763,759,0
10906,354.10,763,761,0
10916,322.91,763,760,0
10926,302.54,763,762,0
10936,292.48,763,759,0
10946,292.25,763,761,0
10956,300.15,763,759,0
10967,314.37,763,761,0
10977,332.95,763,759,0
10987,353.75,763,761,0
10997,374.70,763,760,0
11008,394.12,763,761,0
11017,410.50,763,759,0
11027,422.95,763,761,0
11037,431.11,763,760,0
11047,434.46,763,761,0
11057,433.34,763,759,0
11067,428.31,763,761,0
11077,420.29,763,760,0
11087,409.87,763,761,0
11097,397.87,763,759,0
11107,384.92,763,761,0
11117,372.05,763,760,0
11127,359.65,763,761,0
11137,348.31,763,759,0
11147,338.40,763,761,0
11157,330.27,763,760,0
11167,323.80,763,761,0
11177,319.10,763,760,0
11187,315.94,763,761,0
11197,314.38,763,760,0
11207,314.01,763,761,0
11217,314.82,763,760,0
11227,316.42,763,761,0
11237,318.69,763,760,0
11247,321.31,763,761,0
11257,324.52,763,760,0
11267,328.13,763,761,0
11277,332.25,763,760,0
11287,336.38,763,761,0
11297,340.42,763,760,0
11308,344.19,763,761,0
11318,347.56,763,760,0
11328,350.10,763,761,0
11338,352.12,763,760,0
11348,353.67,763,761,0
11358,356.00,763,760,0
11368,360.80,763,761,0
11378,370.89,763,760,0
11388,388.79,763,761,0
11398,416.76,763,760,0
11408,453.69,763,761,0
11418,496.72,763,760,0
11428,542.88,763,761,0
11447,589.29,763,760,0
11449,632.49,763,761,0
11459,669.41,763,760,0
11469,697.49,763,760,0
11479,717.14,763,760,0
11489,730.90,763,761,0
11499,740.53,763,761,0
11509,747.27,763,760,0
11520,751.99,763,761,0
11529,755.29,763,761,0
11539,757.60,763,761,0
11549,756.74,763,760,0
11559,749.83,763,761,0
11569,734.71,763,761,0
11579,710.33,763,760,0
11589,675.99,763,760,0
11599,632.19,763,761,0
11609,579.46,763,761,0
11619,521.55,763,760,0
11629,462.50,763,760,0
11639,406.68,763,761,0
11649,356.42,763,761,0
11659,314.59,763,760,0
11669,282.01,763,760,0
11679,259.98,763,761,0
11689,248.07,763,760,0
11699,246.34,763,761,0
11709,253.09,763,760,0
11719,267.72,763,761,0
11729,287.56,763,760,0
11739,311.31,763,760,0
11749,336.20,763,760,0
11759,361.17,763,761,0
11769,383.75,763,760,0
11779,403.24,763,760,0
11789,417.87,763,760,0
11799,427.85,763,761,0
11809,432.18,763,760,0
11820,431.78,763,761,0
11830,426.15,763,759,0
11840,417.23,763,761,0
11850,404.86,763,760,0
11860,390.89,763,761,0
11870,375.54,763,759,0
11880,360.42,763,761,0
11890,345.51,763,760,0
11900,332.46,763,761,0
11910,320.66,763,759,0
11920,311.42,763,761,0
11930,303.97,763,760,0
11940,299.22,763,761,0
11950,296.41,763,760,0
11960,296.33,763,761,0
11970,297.77,763,760,0
11980,301.53,763,761,0
11991,306.47,763,759,0
12001,313.19,763,761,0
12011,320.54,763,760,0
12021,329.00,763,761,0
12032,337.27,763,759,0
12041,345.93,763,761,0
12051,353.54,763,759,0
12061,360.53,763,761,0
12071,365.77,763,759,0
12081,369.78,763,761,0
12091,371.61,763,760,0
12101,372.11,763,761,0
12111,370.75,763,759,0
12121,369.45,763,761,0
12131,368.97,763,759,0
12141,372.62,763,761,0
12151,382.34,763,759,0
12161,401.52,763,761,0
12171,431.75,763,760,0
12181,470.65,763,762,0
12191,514.69,763,760,0
12211,561.32,763,758,0
12213,606.83,763,760,0
12223,648.19,763,762,0
12233,682.16,763,759,0
12243,706.46,763,762,0
12253,723.46,763,760,0
12263,735.37,763,762,0
12273,743.70,763,759,0
12283,749.49,763,762,0
12293,753.54,763,760,0
12303,755.05,763,762,0
12313,750.36,763,759,0
12323,737.40,763,761,0
12333,714.91,763,759,0
12343,682.79,763,761,0
12353,640.77,763,759,0
12363,589.62,763,761,0
12374,531.58,763,759,0
12383,472.13,763,761,0
12393,414.67,763,759,0
12403,362.35,763,761,0
12413,316.77,763,759,0
12423,279.99,763,762,0
12433,252.39,763,759,0
12443,234.57,763,761,0
12453,225.83,763,759,0
12463,226.05,763,761,0
12473,233.71,763,759,0
12483,247.90,763,761,0
12493,266.83,763,759,0
12503,289.12,763,761,0
12513,312.61,763,759,0
12523,336.04,763,761,0
12533,357.50,763,759,0
12544,376.34,763,761,0
12553,391.19,763,759,0
12563,401.46,763,761,0
12573,406.77,763,759,0
12583,407.57,763,761,0
12593,403.92,763,759,0
12603,396.83,763,761,0
12613,386.55,763,759,0
12623,374.47,763,761,0
12633,361.35,763,759,0
12643,348.21,763,761,0
12653,335.42,763,759,0
12663,323.81,763,761,0
12673,313.54,763,759,0
12683,305.10,763,761,0
12693,298.13,763,759,0
12703,292.99,763,761,0
12713,289.22,763,759,0
12723,287.10,763,761,0
12733,286.04,763,759,0
12743,286.33,763,761,0
12753,287.43,763,759,0
12763,289.57,763,761,0
12773,292.19,763,759,0
12783,295.39,763,761,0
12793,298.74,763,759,0
12803,302.63,763,761,0
12813,306.39,763,759,0
12823,310.30,763,761,0
12833,313.90,763,759,0
12844,317.31,763,761,0
12854,320.48,763,759,0
12864,323.33,763,761,0
12874,325.72,763,760,0
12884,327.65,763,761,0
12894,329.08,763,759,0
12904,330.17,763,761,0
12914,331.19,763,759,0
12924,333.28,763,761,0
12934,337.95,763,759,0
12944,347.48,763,761,0
12954,364.91,763,760,0
12964,392.84,763,761,0
12974,430.86,763,759,0
12993,475.68,783,758,0
12996,524.12,783,760,0
13005,573.24,783,761,0
13015,619.71,783,760,0
13025,660.00,783,761,0
13035,690.94,783,760,0
13045,712.60,783,761,0
13056,727.76,783,760,0
13065,738.34,783,761,0
13075,745.73,783,760,0
13085,750.91,783,761,0
13095,754.54,783,760,0
13105,757.08,783,761,0
13115,757.05,783,760,0
13125,751.04,783,761,0
13135,736.80,783,760,0
13145,713.37,783,761,0
13155,680.43,783,760,0
13165,637.92,783,761,0
13175,586.47,783,760,0
13185,528.90,783,761,0
13195,470.09,783,760,0
13205,413.62,783,761,0
13215,362.18,783,759,0
13225,317.68,783,761,0
13235,281.90,783,760,0
13245,255.40,783,761,0
13255,238.70,783,760,0
13265,231.20,783,761,0
13275,232.68,783,760,0
13285,241.69,783,761,0
13295,256.91,783,759,0
13305,276.44,783,761,0
13315,298.68,783,760,0
13325,321.53,783,761,0
13335,343.79,783,760,0
13345,363.52,783,761,0
13356,380.12,783,760,0
13366,392.34,783,761,0
13376,400.08,783,760,0
13386,403.06,783,760,0
13396,401.75,783,760,0
13406,396.47,783,761,0
13416,388.32,783,760,0
13426,377.34,783,760,0
13436,365.11,783,760,0
13446,351.87,783,760,0
13456,338.88,783,760,0
13466,326.19,783,760,0
13476,314.73,783,760,0
13486,304.31,783,761,0
13496,295.95,783,760,0
13506,289.11,783,761,0
13516,284.53,783,760,0
13527,281.50,783,760,0
13537,280.66,783,760,0
13547,281.07,783,760,0
13557,283.19,783,761,0
13568,285.96,783,760,0
13577,289.83,783,761,0
13587,293.78,783,760,0
13597,298.26,783,761,0
13607,302.25,783,760,0
13617,306.38,783,761,0
13627,309.86,783,760,0
13637,313.59,783,761,0
13647,316.67,783,760,0
13657,319.90,783,760,0
13667,322.50,783,760,0
13677,325.26,783,761,0
13687,327.41,783,760,0
13697,329.65,783,760,0
13707,331.17,783,760,0
13717,332.66,783,761,0
13727,333.19,783,760,0
13737,334.12,783,761,0
13747,335.07,783,760,0
13757,338.26,783,761,0
13767,345.04,783,760,0
13777,358.87,783,761,0
13787,381.50,783,760,0
13797,416.02,783,761,0
13816,458.14,823,760,0
13819,505.50,823,762,0
13828,554.59,823,760,0
13838,602.54,823,761,0
13848,645.45,823,760,0
13858,680.76,823,761,0
13868,705.47,823,760,0
13878,722.77,823,761,0
13888,734.84,823,760,0
13898,743.29,823,761,0
13908,749.20,823,759,0
13918,753.34,823,761,0
13928,756.24,823,760,0
13938,757.37,823,761,0
13948,752.41,823,759,0
13958,739.65,823,761,0
13968,716.95,823,760,0
13978,684.27,823,761,0
13988,641.46,823,759,0
13998,589.76,823,761,0
14008,530.65,823,760,0
14018,470.24,823,761,0
14028,411.50,823,759,0
14039,358.63,823,761,0
14049,312.97,823,759,0
14059,276.77,823,761,0
14069,249.79,823,759,0
14080,233.10,823,761,0
14089,225.74,823,760,0
14099,227.70,823,761,0
14109,237.14,823,759,0
14119,253.38,823,761,0
14129,273.71,823,759,0
14139,297.33,823,761,0
14149,321.61,823,759,0
14159,345.73,823,761,0
14169,367.45,823,759,0
14179,386.30,823,761,0
14189,400.66,823,759,0
14199,410.83,823,761,0
14209,415.98,823,759,0
14219,416.93,823,761,0
14229,413.22,823,759,0
14239,406.34,823,762,0
14249,396.30,823,759,0
14259,384.76,823,762,0
14269,371.76,823,759,0
14279,358.59,823,762,0
14289,345.47,823,760,0
14299,333.76,823,761,0
14309,322.95,823,759,0
14319,314.18,823,761,0
14329,306.62,823,759,0
14339,301.38,823,762,0
14349,297.45,823,759,0
14359,295.39,823,761,0
14369,294.41,823,759,0
14380,295.15,823,761,0
14390,296.56,823,760,0
14400,299.31,823,762,0
14410,302.34,823,759,0
14420,306.31,823,761,0
14430,310.25,823,759,0
14440,314.54,823,761,0
14450,318.45,823,759,0
14460,322.35,823,761,0
14470,325.71,823,759,0
14480,328.97,823,762,0
14490,331.64,823,759,0
14500,334.19,823,762,0
14510,335.97,823,759,0
14520,337.70,823,762,0
14530,338.77,823,759,0
14540,339.61,823,762,0
14551,339.94,823,759,0
14561,340.60,823,761,0
14571,342.39,823,759,0
14581,347.42,823,761,0
14592,357.62,823,759,0
14601,375.99,823,761,0
14611,404.41,823,759,0
14621,442.51,823,761,0
14641,486.80,824,760,0
14644,534.43,824,761,0
14653,582.22,824,760,0
14663,626.90,824,761,0
14673,665.24,824,760,0
14683,694.61,824,761,0
14693,715.17,824,760,0
14703,729.56,824,761,0
14713,739.59,824,760,0
14723,746.62,824,761,0
14733,751.53,824,760,0
14743,754.97,824,761,0
14753,757.21,824,760,0
14764,753.63,824,761,0
14774,741.70,824,760,0
14784,719.38,824,761,0
14794,686.43,824,760,0
14804,642.72,824,760,0
14814,589.49,824,760,0
14824,527.58,824,761,0
14834,463.81,824,760,0
14844,402.24,824,760,0
14854,347.22,824,760,0
14864,300.44,824,761,0
14874,263.97,824,760,0
14884,237.88,824,760,0
14894,222.87,824,760,0
14904,217.94,824,761,0
14914,222.67,824,760,0
14924,235.07,824,760,0
14935,254.16,824,760,0
14945,277.47,824,760,0
14955,303.73,824,761,0
14965,330.68,824,760,0
14976,357.01,824,761,0
14985,380.75,824,760,0
14995,401.27,824,761,0
15005,417.04,824,760,0
15015,428.52,824,761,0
15025,434.66,824,760,0
15035,436.39,824,761,0
15045,433.32,824,760,0
15055,426.71,824,761,0
15065,416.64,824,760,0
15075,404.66,824,761,0
15085,390.71,824,760,0
15095,376.35,824,761,0
15105,361.59,824,761,0
15115,347.87,824,761,0
15125,334.84,824,760,0
15135,323.61,824,761,0
15145,313.66,824,760,0
15155,305.96,824,761,0
15165,299.67,824,760,0
15175,295.49,824,761,0
15185,292.55,824,760,0
15195,291.57,824,761,0
15205,291.40,824,760,0
15215,292.78,824,761,0
15225,294.65,824,760,0
15235,297.88,824,760,0
15245,301.30,824,760,0
15255,305.63,824,761,0
15265,309.94,824,760,0
15276,315.10,824,761,0
15286,319.91,824,760,0
15296,325.17,824,761,0
15306,329.45,824,760,0
15316,333.73,824,761,0
15326,337.07,824,760,0
15336,340.43,824,761,0
15346,343.43,824,760,0
15356,348.23,824,761,0
15366,355.49,824,760,0
15376,368.76,824,761,0
15386,389.83,824,760,0
15396,421.77,824,761,0
15406,461.48,824,760,0
15416,506.42,824,761,0
15426,553.27,824,760,0
15446,599.69,805,759,0
15448,642.08,805,760,0
15458,677.58,805,761,0
15468,703.21,805,759,0
15478,721.15,805,761,0
15489,733.70,805,759,0
15499,742.49,805,762,0
15509,748.64,805,759,0
15519,752.95,805,762,0
15529,755.92,805,759,0
15539,758.00,805,761,0
15549,756.59,805,759,0
15559,748.48,805,761,0
15569,730.98,805,759,0
15579,703.47,805,761,0
15589,665.19,805,759,0
15599,616.53,805,761,0
15609,558.13,805,759,0
15619,494.79,805,761,0
15629,431.17,805,759,0
15639,372.02,805,761,0
15649,319.64,805,759,0
15660,276.72,805,761,0
15670,244.45,805,759,0
15680,223.70,805,761,0
15690,213.50,805,759,0
15700,213.35,805,761,0
15710,221.60,805,759,0
15720,237.11,805,761,0
15730,258.12,805,759,0
15740,283.03,805,761,0
15750,309.63,805,759,0
15760,336.66,805,761,0
15770,362.47,805,759,0
15780,386.12,805,761,0
15790,406.18,805,759,0
15800,421.98,805,761,0
15810,432.79,805,759,0
15820,438.81,805,761,0
15831,439.77,805,759,0
15841,436.24,805,761,0
15851,428.88,805,759,0
15861,418.54,805,760,0
15872,405.91,805,759,0
15881,392.05,805,761,0
15891,377.55,805,759,0
15901,363.20,805,760,0
15911,349.73,805,760,0
15921,337.29,805,761,0
15931,326.41,805,759,0
15941,317.11,805,760,0
15951,309.66,805,760,0
15961,304.02,805,761,0
15971,300.29,805,759,0
15981,298.06,805,760,0
15991,297.44,805,759,0
16001,298.25,805,761,0
16011,300.36,805,759,0
16021,303.25,805,761,0
16031,306.95,805,760,0
16041,310.99,805,761,0
16051,315.45,805,759,0
16061,319.86,805,760,0
16071,324.19,805,759,0
16081,328.16,805,761,0
16091,331.80,805,759,0
16101,334.90,805,761,0
16111,338.06,805,759,0
16121,341.60,805,761,0
16131,346.99,805,759,0
16141,355.69,805,761,0
16151,370.44,805,760,0
16161,393.75,805,761,0
16172,427.90,805,760,0
16182,469.16,805,761,0
16192,514.84,805,760,0
16202,562.07,805,761,0
16212,608.08,805,760,0
16231,649.54,786,759,0
16233,683.45,786,761,0
16243,707.23,786,760,0
16253,723.92,786,760,0
16263,735.56,786,761,0
16273,743.70,786,760,0
16283,749.41,786,760,0
16293,753.44,786,760,0
16303,756.27,786,760,0
16313,758.24,786,760,0
16323,758.08,786,760,0
16333,752.19,786,760,0
16343,737.82,786,760,0
16353,713.49,786,760,0
16363,678.20,786,760,0
16373,632.54,786,760,0
16384,576.83,786,760,0
16393,514.57,786,760,0
16403,450.71,786,760,0
16413,390.20,786,760,0
16423,335.93,786,760,0
16433,291.16,786,760,0
16443,256.53,786,760,0
16453,233.66,786,760,0
16463,221.67,786,760,0
16473,220.57,786,759,0
16483,228.67,786,760,0
16493,245.27,786,760,0
16503,267.90,786,760,0
16513,295.40,786,760,0
16523,325.07,786,760,0
16533,355.69,786,760,0
16543,384.97,786,760,0
16553,412.02,786,760,0
16563,434.99,786,760,0
16573,453.68,786,760,0
16583,466.84,786,760,0
16593,475.12,786,760,0
16603,477.87,786,760,0
16613,476.15,786,760,0
16623,469.76,786,760,0
16633,460.28,786,760,0
16643,447.94,786,760,0
16653,434.37,786,760,0
16663,419.43,786,760,0
16673,404.34,786,760,0
16684,389.20,786,760,0
16694,375.25,786,761,0
16704,362.19,786,760,0
16714,350.86,786,760,0
16724,340.66,786,759,0
16734,332.58,786,761,0
16744,325.93,786,759,0
16754,321.45,786,760,0
16764,318.15,786,759,0
16774,316.69,786,761,0
16784,316.05,786,760,0
16794,316.94,786,761,0
16804,318.20,786,759,0
16814,320.67,786,761,0
16824,323.12,786,759,0
16834,326.30,786,760,0
16844,329.47,786,759,0
16855,334.34,786,761,0
16865,341.48,786,759,0
16875,353.81,786,761,0
16885,373.11,786,759,0
16896,403.03,786,761,0
16905,441.81,786,759,0
16915,486.70,786,761,0
16925,534.36,786,759,0
16935,582.38,786,761,0
16945,627.31,786,759,0
16955,666.09,786,761,0
16965,695.12,786,759,0
16975,715.48,786,761,0
16994,729.78,763,760,0
16996,739.79,763,762,0
17006,746.80,763,759,0
17016,751.70,763,761,0
17026,755.13,763,759,0
17036,757.54,763,762,0
17046,759.22,763,759,0
17056,760.35,763,761,0
17067,756.82,763,759,0
17076,746.03,763,761,0
17086,725.41,763,759,0
17096,694.30,763,761,0
17106,652.21,763,759,0
17116,600.50,763,761,0
17126,539.71,763,759,0
17136,476.07,763,761,0
17146,413.69,763,759,0
17156,357.34,763,761,0
17166,309.37,763,759,0
17176,272.36,763,761,0
17186,246.19,763,759,0
17196,231.82,763,761,0
17206,227.93,763,758,0
17216,234.21,763,761,0
17226,248.42,763,759,0
17236,269.29,763,761,0
17246,293.89,763,758,0
17256,320.84,763,761,0
17266,347.54,763,759,0
17276,372.97,763,761,0
17286,394.70,763,758,0
17296,412.58,763,761,0
17306,425.05,763,759,0
17316,432.71,763,761,0
17326,435.02,763,759,0
17336,433.17,763,761,0
17346,426.99,763,759,0
17356,417.87,763,761,0
17367,405.91,763,758,0
17377,392.56,763,761,0
17387,378.17,763,759,0
17397,363.84,763,761,0
17408,349.66,763,758,0
17417,336.82,763,761,0
17427,325.30,763,759,0
17437,315.83,763,761,0
17447,308.16,763,758,0
17457,302.76,763,761,0
17467,299.06,763,759,0
17477,297.46,763,761,0
17487,297.23,763,758,0
17497,298.66,763,761,0
17507,300.82,763,758,0
17517,303.92,763,761,0
17527,307.33,763,758,0
17537,311.39,763,761,0
17547,315.34,763,759,0
17557,319.53,763,761,0
17567,324.00,763,758,0
17577,330.47,763,761,0
17587,340.27,763,759,0
17597,356.56,763,761,0
17607,382.02,763,759,0
17617,418.19,763,761,0
17627,461.50,763,759,0
17637,509.22,763,761,0
17647,558.40,763,759,0
17657,606.28,763,761,0
17667,649.05,763,759,0
17677,683.24,763,762,0
17696,707.17,702,760,0
17698,723.96,702,761,0
17708,735.71,702,759,0
17718,743.94,702,761,0
17728,749.70,702,759,0
17738,753.73,702,761,0
17748,756.56,702,759,0
17758,758.53,702,761,0
17768,759.87,702,759,0
17778,760.81,702,761,0
17788,761.47,702,759,0
17798,761.93,702,761,0
17808,762.21,702,759,0
17818,757.64,702,761,0
17828,745.02,702,759,0
17838,722.94,702,761,0
17848,690.52,702,759,0
17858,647.89,702,761,0
17868,595.90,702,759,0
17879,536.01,702,761,0
17889,474.51,702,759,0
17899,416.54,702,760,0
17909,365.38,702,759,0
17920,323.65,702,760,0
17929,292.68,702,759,0
17939,272.98,702,760,0
17949,264.16,702,759,0
17959,264.97,702,760,0
17969,273.81,702,759,0
17979,288.52,702,760,0
17989,307.18,702,759,0
17999,327.65,702,760,0
18009,348.07,702,759,0
18019,366.44,702,760,0
18029,381.91,702,759,0
18039,393.38,702,761,0
18049,400.89,702,759,0
18059,404.14,702,760,0
18069,403.67,702,759,0
18079,399.61,702,761,0
18089,392.78,702,759,0
18099,383.72,702,760,0
18109,373.48,702,759,0
18119,362.28,702,760,0
18129,351.01,702,760,0
18139,339.86,702,760,0
18149,329.66,702,759,0
18159,320.51,702,760,0
18169,312.94,702,759,0
18179,306.70,702,760,0
18189,302.12,702,759,0
18199,298.91,702,761,0
18209,297.31,702,760,0
18220,296.75,702,760,0
18230,297.59,702,759,0
18240,299.00,702,760,0
18250,301.36,702,760,0
18260,303.99,702,760,0
18270,307.12,702,759,0
18280,310.09,702,760,0
18290,313.23,702,760,0
18300,316.16,702,760,0
18310,319.89,702,760,0
18320,324.98,702,760,0
18330,334.11,702,760,0
18340,349.42,702,760,0
18350,374.28,702,759,0
18360,410.28,702,761,0
18370,454.00,702,760,0
18380,502.30,702,760,0
18391,552.52,702,760,0
18401,601.18,702,760,0
18420,645.01,724,759,0
18423,680.45,724,760,0
18433,705.30,724,761,0
18443,722.70,724,760,0
18453,734.92,724,761,0
18463,743.47,724,759,0
18473,749.50,724,761,0
18483,753.72,724,760,0
18493,756.68,724,761,0
18503,758.70,724,759,0
18513,760.16,724,761,0
18523,761.14,724,760,0
18533,761.87,724,761,0
18543,762.34,724,760,0
18553,762.67,724,761,0
18563,762.85,724,760,0
18573,763.02,724,761,0
18583,758.22,724,760,0
18593,745.64,724,761,0
18604,723.03,724,759,0
18614,690.49,724,761,0
18624,648.05,724,759,0
18634,597.29,724,761,0
18644,539.47,724,759,0
18654,481.65,724,761,0
18664,428.18,724,759,0
18674,383.38,724,761,0
18684,348.47,724,759,0
18694,324.97,724,761,0
18704,311.78,724,759,0
18714,308.50,724,761,0
18724,312.89,724,759,0
18734,323.68,724,761,0
18744,338.01,724,759,0
18754,354.55,724,761,0
18764,370.71,724,759,0
18775,385.76,724,761,0
18785,397.74,724,759,0
18795,406.61,724,761,0
18805,411.22,724,759,0
18816,412.36,724,761,0
18825,409.42,724,759,0
18835,403.77,724,761,0
18845,395.09,724,759,0
18855,384.65,724,761,0
18865,372.67,724,759,0
18875,360.47,724,761,0
18885,347.94,724,759,0
18895,336.30,724,761,0
18905,325.20,724,759,0
18915,315.75,724,761,0
18925,307.68,724,759,0
18935,301.48,724,761,0
18945,296.54,724,759,0
18955,293.50,724,761,0
18965,291.55,724,759,0
18975,291.13,724,761,0
18985,291.39,724,759,0
18995,292.69,724,761,0
19005,294.15,724,759,0
19015,296.38,724,761,0
19025,298.41,724,759,0
19035,300.69,724,760,0
19045,302.54,724,759,0
19055,304.52,724,761,0
19065,306.12,724,759,0
19075,307.84,724,761,0
19085,309.05,724,759,0
19095,310.28,724,761,0
19105,311.01,724,759,0
19116,311.95,724,761,0
19126,313.08,724,758,0
19136,315.80,724,761,0
19146,321.69,724,759,0
19156,333.35,724,761,0
19166,352.88,724,758,0
19176,383.73,724,761,0
19186,424.39,724,759,0
19196,471.59,724,761,0
19206,522.03,724,759,0
19225,572.55,805,758,0
19227,619.70,805,760,0
19237,660.50,805,761,0
19247,691.38,805,759,0
19257,713.04,805,761,0
19267,728.24,805,759,0
19277,738.88,805,761,0
19287,746.33,805,759,0
19297,751.50,805,761,0
19307,755.17,805,759,0
19317,757.69,805,761,0
19328,759.45,805,759,0
19337,760.65,805,761,0
19347,761.52,805,759,0
19357,762.10,805,761,0
19367,762.54,805,759,0
19377,760.58,805,761,0
19387,752.00,805,759,0
19397,734.05,805,761,0
19407,705.49,805,759,0
19417,666.69,805,761,0
19427,618.18,805,759,0
19437,561.04,805,761,0
19447,499.14,805,759,0
19457,438.54,805,761,0
19467,383.87,805,759,0
19477,338.05,805,761,0
19487,302.33,805,759,0
19497,277.46,805,761,0
19507,263.22,805,759,0
19517,258.66,805,761,0
19527,262.45,805,759,0
19537,272.60,805,761,0
19547,287.33,805,759,0
19557,304.55,805,761,0
19567,322.60,805,759,0
19577,339.82,805,761,0
19587,354.96,805,759,0
19597,367.01,805,761,0
19607,375.54,805,759,0
19617,380.26,805,761,0
19628,381.34,805,759,0
19638,378.84,805,760,0
19648,373.49,805,759,0
19658,365.63,805,760,0
19668,356.10,805,759,0
19678,345.40,805,760,0
19688,334.13,805,759,0
19698,322.65,805,760,0
19708,311.70,805,759,0
19718,301.29,805,760,0
19728,292.12,805,759,0
19738,283.77,805,761,0
19748,276.85,805,759,0
19758,270.98,805,761,0
19768,266.44,805,759,0
19778,262.84,805,760,0
19788,260.49,805,760,0
19799,258.80,805,760,0
19809,258.30,805,759,0
19819,258.08,805,760,0
19829,258.70,805,760,0
19840,259.43,805,760,0
19849,260.76,805,759,0
19859,262.03,805,760,0
19869,263.69,805,760,0
19879,265.07,805,760,0
19889,266.76,805,759,0
19899,268.16,805,760,0
19909,269.91,805,760,0
19919,271.14,805,760,0
19929,272.51,805,759,0
19939,273.39,805,760,0
19949,274.56,805,760,0
19959,275.50,805,760,0
19969,277.15,805,759,0
19979,279.68,805,760,0
19989,284.87,805,760,0
19999,293.48,805,760,0
20009,307.91,805,760,0
20019,328.59,805,760,0
20029,357.94,805,760,0
20039,396.28,805,760,0
20059,442.44,833,759,0
20062,492.36,833,759,0
20071,543.08,833,761,0
20081,591.19,833,759,0
20091,634.80,833,761,0
20101,671.16,833,759,0
20111,698.84,833,761,0
20121,718.22,833,759,0
20131,731.74,833,761,0
20141,741.16,833,759,0
20151,747.75,833,761,0
20161,750.79,833,759,0
20171,748.19,833,761,0
20182,737.51,833,759,0
20191,718.37,833,761,0
20201,689.80,833,759,0
20211,652.49,833,761,0
20221,606.31,833,759,0
20231,554.53,833,761,0
20241,500.12,833,759,0
20251,447.54,833,761,0
20261,398.22,833,759,0
20271,355.04,833,761,0
20281,318.17,833,759,0
20291,289.41,833,761,0
20301,267.68,833,759,0
20311,253.98,833,761,0
20321,246.96,833,759,0
20331,246.88,833,761,0
20341,251.89,833,759,0
20352,261.74,833,761,0
20361,274.37,833,759,0
20371,289.56,833,761,0
20381,305.29,833,759,0
20391,321.36,833,761,0
20401,336.00,833,760,0
20411,349.28,833,761,0
20421,359.74,833,759,0
20431,368.18,833,761,0
20441,373.14,833,759,0
20451,375.62,833,761,0
20461,374.79,833,759,0
20471,371.81,833,761,0
20481,366.26,833,760,0
20491,359.58,833,761,0
20501,351.00,833,759,0
20511,342.22,833,761,0
20521,332.60,833,759,0
20531,323.55,833,761,0
20541,314.47,833,759,0
20551,306.48,833,761,0
20561,298.88,833,759,0
20571,292.75,833,761,0
20581,287.16,833,759,0
20591,283.22,833,761,0
20601,279.85,833,759,0
20611,277.97,833,761,0
20621,276.56,833,759,0
20631,276.44,833,761,0
20641,276.56,833,759,0
20652,277.81,833,761,0
20662,279.02,833,759,0
20672,281.07,833,761,0
20682,282.89,833,759,0
20692,285.33,833,761,0
20702,287.24,833,759,0
20712,289.53,833,761,0
20722,291.25,833,759,0
20732,293.32,833,761,0
20742,294.94,833,759,0
20752,296.80,833,761,0
20762,298.49,833,759,0
20772,301.64,833,761,0
20782,306.29,833,759,0
20792,314.26,833,761,0
20802,325.93,833,759,0
20812,343.56,833,761,0
20823,367.99,833,759,0
20833,400.82,833,761,0
20843,441.21,833,759,0
20862,486.74,804,758,0
20865,533.96,804,760,0
20875,580.52,804,761,0
20885,623.43,804,759,0
20895,660.89,804,762,0
20905,690.75,804,759,0
20915,712.47,804,762,0
20925,727.67,804,759,0
20935,738.27,804,761,0
20945,745.69,804,759,0
20955,749.30,804,761,0
20965,747.06,804,759,0
20975,737.70,804,761,0
20985,720.09,804,759,0
20995,694.31,804,761,0
21005,660.27,804,759,0
21015,618.49,804,761,0
21025,571.33,804,759,0
21036,522.46,804,761,0
21046,474.88,804,759,0
21056,431.11,804,761,0
21066,392.64,804,760,0
21076,360.95,804,761,0
21086,336.88,804,759,0
21096,320.67,804,761,0
21106,312.37,804,760,0
21116,311.19,804,761,0
21126,316.53,804,759,0
21136,327.21,804,761,0
21146,342.11,804,760,0
21156,359.52,804,761,0
21166,378.18,804,759,0
21176,396.68,804,761,0
21186,414.05,804,760,0
21196,429.16,804,761,0
21207,441.37,804,760,0
21217,449.75,804,760,0
21227,454.58,804,760,0
21237,455.43,804,760,0
21248,452.69,804,760,0
21257,446.53,804,761,0
21267,437.62,804,760,0
21277,426.29,804,760,0
21287,413.56,804,760,0
21297,399.42,804,761,0
21307,384.98,804,760,0
21317,370.20,804,760,0
21327,356.00,804,760,0
21337,342.28,804,761,0
21347,329.86,804,760,0
21357,318.46,804,760,0
21367,308.85,804,760,0
21377,300.75,804,761,0
21387,294.74,804,760,0
21397,290.23,804,760,0
21407,287.72,804,760,0
21417,286.48,804,760,0
21427,286.98,804,760,0
21437,288.48,804,760,0
21447,291.25,804,760,0
21457,294.52,804,761,0
21467,298.48,804,760,0
21477,302.32,804,760,0
21487,306.42,804,760,0
21497,309.98,804,761,0
21507,313.50,804,760,0
21517,316.48,804,760,0
21527,320.06,804,760,0
21537,324.76,804,761,0
21548,332.63,804,760,0
21558,344.70,804,760,0
21568,363.82,804,760,0
21578,391.60,804,761,0
21588,429.69,804,761,0
21598,474.01,804,761,0
21608,521.75,804,761,0
21618,569.61,804,761,0
21628,615.33,804,761,0
21647,655.60,785,759,0
21649,687.99,785,761,0
21659,710.67,785,760,0
21669,726.58,785,761,0
21679,737.68,785,760,0
21689,745.49,785,761,0
21699,750.96,785,760,0
21709,754.83,785,761,0
21719,757.49,785,760,0
21729,759.36,785,761,0
21739,760.67,785,760,0
21749,761.62,785,761,0
21760,762.25,785,760,0
21769,762.69,785,761,0
21779,763.00,785,760,0
21789,763.26,785,761,0
21799,758.38,785,760,0
21809,746.39,785,761,0
21819,725.06,785,760,0
21829,694.53,785,761,0
21839,654.77,785,760,0
21849,607.44,785,761,0
21859,553.56,785,760,0
21869,500.17,785,761,0
21879,450.62,785,760,0
21889,408.99,785,761,0
21899,376.21,785,760,0
21909,353.82,785,761,0
21919,340.46,785,760,0
21929,336.08,785,761,0
21939,338.24,785,760,0
21949,346.05,785,761,0
21959,356.92,785,760,0
21969,369.89,785,761,0
21979,382.44,785,760,0
21989,394.18,785,761,0
21999,403.21,785,760,0
22009,410.05,785,761,0
22019,413.42,785,760,0
22029,414.28,785,761,0
22039,411.88,785,760,0
22049,407.42,785,761,0
22060,400.52,785,760,0
22070,392.44,785,761,0
22080,382.75,785,760,0
22090,372.79,785,761,0
22100,362.10,785,760,0
22110,352.04,785,761,0
22120,341.96,785,760,0
22130,332.93,785,761,0
22140,324.46,785,759,0
22150,317.68,785,761,0
22160,311.65,785,760,0
22170,307.34,785,761,0
22180,303.77,785,760,0
22190,301.91,785,761,0
22200,300.61,785,760,0
22210,300.64,785,761,0
22220,300.88,785,760,0
22231,302.11,785,761,0
22241,303.19,785,759,0
22251,304.76,785,761,0
22261,305.91,785,759,0
22272,307.78,785,762,0
22281,309.99,785,760,0
22291,314.19,785,762,0
22301,321.29,785,759,0
22311,334.45,785,762,0
22321,355.27,785,760,0
22331,387.72,785,762,0
22341,429.33,785,760,0
22351,476.97,785,762,0
22361,527.34,785,760,0
22371,577.68,785,762,0
22381,624.32,785,760,0
22401,664.64,753,759,0
22403,694.53,753,760,0
22413,715.46,753,762,0
22423,730.11,753,759,0
22433,740.36,753,762,0
22444,747.54,753,760,0
22454,752.56,753,762,0
22464,756.04,753,760,0
22474,758.43,753,762,0
22484,760.10,753,760,0
22494,761.27,753,762,0
22504,762.09,753,759,0
22514,762.66,753,762,0
22524,763.06,753,760,0
22534,763.34,753,762,0
22544,763.54,753,760,0
22554,763.68,753,762,0
22564,763.78,753,760,0
22574,763.84,753,762,0
22584,761.06,753,760,0
22594,751.96,753,762,0
22604,734.61,753,760,0
22615,708.37,753,761,0
22625,673.97,753,760,0
22635,632.37,753,761,0
22645,585.16,753,760,0
22656,536.51,753,761,0
22665,491.53,753,760,0
22675,453.23,753,761,0
22685,423.33,753,760,0
22695,401.55,753,761,0
22705,387.37,753,760,0
22715,379.11,753,761,0
22725,375.39,753,760,0
22735,374.12,753,761,0
22745,374.17,753,760,0
22755,374.08,753,761,0
22765,373.20,753,760,0
22775,370.78,753,761,0
22785,366.77,753,759,0
22795,361.10,753,761,0
22805,354.26,753,760,0
22815,346.12,753,761,0
22825,337.39,753,760,0
22835,328.18,753,761,0
22845,319.21,753,760,0
22855,310.58,753,761,0
22865,302.82,753,760,0
22875,295.97,753,761,0
22885,290.37,753,760,0
22895,285.84,753,761,0
22905,282.80,753,760,0
22915,280.89,753,761,0
22925,280.24,753,760,0
22935,280.30,753,761,0
22945,281.19,753,760,0
22956,282.68,753,761,0
22966,284.87,753,760,0
22976,287.23,753,761,0
22986,289.86,753,760,0
22996,292.34,753,761,0
23006,294.94,753,760,0
23016,297.19,753,761,0
23026,299.53,753,760,0
23036,302.03,753,761,0
23046,306.31,753,760,0
23056,313.84,753,761,0
23066,327.69,753,760,0
23076,350.67,753,761,0
23086,385.74,753,760,0
23096,429.66,753,761,0
23106,479.35,753,760,0
23116,531.44,753,761,0
23136,583.00,736,760,0
23139,630.31,736,760,0
23148,669.73,736,761,0
23158,698.10,736,760,0
23169,718.00,736,761,0
23179,731.93,736,760,0
23189,741.72,736,761,0
23199,748.53,736,760,0
23209,753.30,736,762,0
23219,756.64,736,760,0
23229,758.98,736,762,0
23239,760.57,736,760,0
23249,761.68,736,762,0
23259,762.42,736,760,0
23269,762.94,736,761,0
23279,763.26,736,760,0
23289,758.21,736,762,0
23299,744.09,736,760,0
23309,718.99,736,761,0
23319,682.01,736,759,0
23329,634.09,736,761,0
23340,576.21,736,759,0
23350,510.66,736,761,0
23360,444.59,736,759,0
23370,384.46,736,762,0
23380,334.09,736,759,0
23390,296.56,736,761,0
23400,272.05,736,759,0
23410,261.15,736,762,0
23420,261.66,736,759,0
23430,272.22,736,761,0
23440,289.38,736,759,0
23450,311.17,736,762,0
23460,334.17,736,759,0
23470,356.75,736,761,0
23480,375.90,736,759,0
23490,390.93,736,761,0
23500,400.21,736,759,0
23511,404.52,736,762,0
23521,403.12,736,759,0
23531,397.34,736,761,0
23541,387.42,736,759,0
23552,375.17,736,762,0
23561,361.19,736,759,0
23571,347.08,736,761,0
23581,332.87,736,759,0
23591,319.96,736,762,0
23601,308.23,736,759,0
23611,298.52,736,761,0
23621,290.35,736,759,0
23631,284.16,736,761,0
23641,279.27,736,759,0
23651,275.89,736,761,0
23661,273.22,736,759,0
23671,271.70,736,761,0
23681,270.42,736,759,0
23691,269.91,736,761,0
23701,269.51,736,759,0
23711,269.83,736,761,0
23721,270.52,736,759,0
23731,272.25,736,761,0
23741,274.53,736,759,0
23751,277.97,736,762,0
23761,282.10,736,759,0
23771,287.30,736,761,0
23781,292.86,736,759,0
23791,299.25,736,762,0
23801,305.73,736,758,0
23811,313.40,736,762,0
23821,322.79,736,759,0
23831,336.18,736,761,0
23841,355.50,736,758,0
23852,384.32,736,762,0
23862,422.71,736,759,0
23872,467.71,736,762,0
23882,516.10,736,759,0
23892,565.48,736,762,0
23911,612.57,775,761,0
23913,654.48,775,761,0
23923,687.38,775,759,0
23933,710.41,775,761,0
23943,726.53,775,759,0
23953,737.86,775,762,0
23963,745.79,775,759,0
23973,751.34,775,761,0
23983,755.18,775,759,0
23993,757.87,775,761,0
24003,759.75,775,759,0
24013,761.07,775,761,0
24023,759.85,775,759,0
24033,751.28,775,761,0
24043,732.17,775,759,0
24053,701.05,775,761,0
24064,657.83,775,759,0
24073,603.58,775,761,0
24083,539.59,775,759,0
24093,469.99,775,761,0
24103,401.98,775,759,0
24113,341.30,775,761,0
24123,291.71,775,759,0
24133,255.37,775,761,0
24143,232.93,775,759,0
24153,224.16,775,761,0
24163,227.63,775,759,0
24173,241.54,775,761,0
24183,263.54,775,759,0
24193,290.80,775,761,0
24203,320.52,775,759,0
24213,350.11,775,761,0
24223,377.59,775,759,0
24233,401.20,775,761,0
24243,419.82,775,759,0
24253,432.48,775,761,0
24263,439.02,775,759,0
24273,439.70,775,761,0
24283,434.99,775,759,0
24293,425.65,775,761,0
24303,412.85,775,759,0
24313,397.34,775,761,0
24323,380.31,775,759,0
24333,362.65,775,761,0
24343,345.31,775,759,0
24353,328.93,775,761,0
24364,314.12,775,759,0
24374,301.10,775,761,0
24384,290.31,775,759,0
24394,281.60,775,761,0
24404,275.34,775,760,0
24414,270.95,775,761,0
24424,268.74,775,760,0
24434,268.09,775,761,0
24444,269.22,775,760,0
24454,271.42,775,760,0
24464,274.73,775,759,0
24474,278.41,775,761,0
24484,282.74,775,760,0
24494,287.06,775,760,0
24504,291.50,775,760,0
24514,295.47,775,761,0
24524,299.35,775,760,0
24535,302.59,775,760,0
24545,305.88,775,760,0
24555,309.43,775,761,0
24565,314.92,775,760,0
24576,324.03,775,760,0
24585,339.36,775,760,0
24595,363.64,775,761,0
24605,400.00,775,760,0
24615,444.27,775,760,0
24625,493.61,775,760,0
24635,544.64,775,761,0
24645,594.50,775,760,0
24655,639.87,775,760,0
24674,677.24,763,760,0
24676,703.44,763,760,0
24686,721.82,763,761,0
24696,734.65,763,759,0
24706,743.67,763,760,0
24716,749.94,763,760,0
24726,754.37,763,761,0
24736,757.43,763,760,0
24747,759.57,763,761,0
24756,761.03,763,760,0
24766,761.54,763,761,0
24776,755.46,763,760,0
24786,739.72,763,761,0
24796,712.46,763,760,0
24806,673.37,763,761,0
24816,622.17,763,760,0
24826,560.66,763,761,0
24836,490.74,763,760,0
24846,420.36,763,760,0
24856,354.55,763,760,0
24866,298.11,763,761,0
24876,253.17,763,760,0
24886,222.30,763,760,0
24896,205.03,763,760,0
24906,201.59,763,761,0
24916,209.98,763,760,0
24926,228.89,763,761,0
24936,254.76,763,760,0
24946,285.69,763,761,0
24956,318.14,763,760,0
24966,350.24,763,760,0
24976,379.06,763,760,0
24986,403.51,763,760,0
24996,421.66,763,760,0
25006,433.85,763,760,0
25016,439.03,763,760,0
25026,438.30,763,761,0
25036,431.56,763,760,0
25047,420.38,763,761,0
25057,405.10,763,760,0
25067,387.88,763,761,0
25077,368.80,763,760,0
25088,350.00,763,761,0
25097,331.53,763,760,0
25107,315.04,763,761,0
25117,300.20,763,760,0
25127,288.40,763,761,0
25137,278.81,763,760,0
25147,272.44,763,761,0
25157,268.19,763,760,0
25167,266.68,763,761,0
25177,266.73,763,760,0
25187,268.95,763,761,0
25197,272.14,763,760,0
25207,276.85,763,761,0
25217,281.70,763,760,0
25227,287.40,763,761,0
25237,292.85,763,760,0
25247,298.64,763,761,0
25257,303.63,763,759,0
25267,308.50,763,761,0
25277,312.25,763,760,0
25287,315.90,763,761,0
25297,318.42,763,760,0
25307,321.08,763,761,0
25317,323.46,763,760,0
25327,327.73,763,761,0
25337,335.14,763,760,0
25347,348.81,763,761,0
25357,371.20,763,760,0
25367,405.81,763,762,0
25377,448.30,763,760,0
25388,496.21,763,761,0
25398,546.16,763,759,0
25408,595.35,763,762,0
25427,640.29,753,760,0
25430,677.53,753,763,0
25439,703.64,753,759,0
25449,721.97,753,762,0
25459,734.75,753,760,0
25469,743.69,753,761,0
25479,749.91,753,759,0
25489,754.27,753,762,0
25499,757.27,753,759,0
25509,759.33,753,761,0
25519,760.73,753,759,0
25529,761.71,753,762,0
25539,757.81,753,759,0
25549,745.57,753,762,0
25559,722.64,753,759,0
25569,688.38,753,762,0
25579,642.58,753,759,0
25589,586.48,753,761,0
25600,521.19,753,759,0
25609,453.72,753,762,0
25619,389.26,753,759,0
25629,332.78,753,761,0
25639,286.82,753,759,0
25649,253.66,753,762,0
25659,233.45,753,759,0
25669,226.58,753,762,0
25679,231.12,753,759,0
25689,245.91,753,762,0
25699,267.80,753,759,0
25709,294.99,753,762,0
25719,324.26,753,759,0
25729,353.88,753,762,0
25739,380.92,753,759,0
25749,404.13,753,762,0
25759,421.66,753,759,0
25769,433.55,753,762,0
25779,438.83,753,759,0
25789,438.49,753,762,0
25799,432.17,753,759,0
25809,421.36,753,762,0
25819,406.68,753,759,0
25829,389.98,753,762,0
25839,371.81,753,759,0
25849,353.53,753,762,0
25859,335.37,753,759,0
25869,318.80,753,762,0
25879,303.82,753,759,0
25889,291.32,753,761,0
25900,280.76,753,759,0
25910,272.86,753,762,0
25920,267.16,753,758,0
25930,264.11,753,762,0
25940,263.09,753,759,0
25950,264.31,753,762,0
25960,266.96,753,759,0
25970,271.51,753,762,0
25980,277.06,753,759,0
25990,283.86,753,762,0
26000,290.97,753,759,0
26010,298.44,753,762,0
26020,305.72,753,759,0
26030,312.83,753,762,0
26040,319.14,753,759,0
26050,324.80,753,762,0
26060,329.40,753,759,0
26071,333.31,753,762,0
26081,336.05,753,759,0
26091,337.92,753,761,0
26101,339.14,753,759,0
26112,340.39,753,761,0
26121,342.93,753,759,0
26131,348.99,753,762,0
26141,361.08,753,759,0
26151,382.83,753,762,0
26161,416.31,753,759,0
26171,457.87,753,762,0
26181,504.67,753,759,0
26201,553.71,773,758,0
26204,601.80,773,761,0
26213,645.57,773,761,0
26223,681.23,773,760,0
26233,706.19,773,761,0
26243,723.66,773,760,0
26253,735.85,773,761,0
26263,744.42,773,760,0
26273,750.38,773,761,0
26284,754.55,773,760,0
26294,757.43,773,761,0
26304,759.49,773,760,0
26314,760.93,773,761,0
26324,761.93,773,760,0
26334,760.24,773,761,0
26344,751.68,773,760,0
26354,733.01,773,761,0
26364,703.26,773,760,0
26374,662.21,773,761,0
26384,610.85,773,760,0
26394,550.08,773,761,0
26404,484.44,773,760,0
26414,419.89,773,761,0
26424,362.24,773,760,0
26434,314.30,773,761,0
26444,278.59,773,760,0
26455,255.40,773,760,0
26465,245.47,773,761,0
26475,247.08,773,760,0
26485,259.32,773,761,0
26496,279.11,773,760,0
26505,304.53,773,761,0
26515,332.14,773,760,0
26525,360.21,773,761,0
26535,385.74,773,760,0
26545,407.67,773,761,0
26555,423.97,773,760,0
26565,434.87,773,761,0
26575,439.41,773,760,0
26585,438.73,773,761,0
26595,432.55,773,760,0
26605,422.61,773,761,0
26615,408.89,773,760,0
26625,393.49,773,761,0
26635,376.54,773,760,0
26645,359.80,773,761,0
26655,343.19,773,760,0
26665,328.30,773,761,0
26675,314.75,773,760,0
26685,303.86,773,761,0
26695,294.69,773,760,0
26705,288.14,773,761,0
26715,283.42,773,760,0
26725,281.24,773,761,0
26735,280.53,773,760,0
26745,281.78,773,761,0
26755,284.03,773,760,0
26765,287.79,773,761,0
26775,291.97,773,760,0
26785,297.12,773,761,0
26796,302.06,773,760,0
26806,307.57,773,761,0
26816,312.50,773,760,0
26826,317.71,773,762,0
26836,322.21,773,760,0
26846,326.86,773,761,0
26856,330.80,773,759,0
26866,334.85,773,762,0
26876,337.94,773,760,0
26886,341.21,773,761,0
26896,343.42,773,759,0
26906,345.44,773,762,0
26916,346.42,773,760,0
26926,347.15,773,761,0
26936,347.15,773,759,0
26946,347.88,773,761,0
26956,349.97,773,760,0
26967,356.84,773,762,0
26977,370.81,773,759,0
26987,395.77,773,762,0
26997,431.07,773,760,0
27017,473.82,816,759,0
27020,520.93,816,759,0
27029,569.77,816,762,0
27039,616.51,816,759,0
27049,657.84,816,762,0
27059,689.73,816,759,0
27069,712.05,816,762,0
27079,727.68,816,759,0
27089,738.66,816,762,0
27099,746.35,816,759,0
27109,751.77,816,762,0
27119,755.53,816,759,0
27129,758.15,816,762,0
27139,759.99,816,759,0
27149,761.32,816,762,0
27159,761.36,816,759,0
27169,755.68,816,762,0
27180,740.77,816,759,0
27190,715.21,816,762,0
27200,678.42,816,759,0
27210,630.98,816,762,0
27220,573.81,816,759,0
27230,509.67,816,762,0
27240,444.75,816,759,0
27250,384.61,816,762,0
27260,332.96,816,759,0
27270,292.30,816,761,0
27280,263.80,816,759,0
27290,248.09,816,762,0
27300,244.37,816,759,0
27310,251.63,816,762,0
27320,267.94,816,759,0
27330,290.97,816,762,0
27340,318.15,816,759,0
27351,347.04,816,761,0
27361,375.14,816,759,0
27371,400.47,816,761,0
27381,421.29,816,759,0
27392,436.33,816,761,0
27401,445.23,816,760,0
27411,447.90,816,761,0
27421,444.80,816,760,0
27431,436.55,816,761,0
27441,424.17,816,760,0
27451,408.73,816,761,0
27461,391.63,816,760,0
27471,373.65,816,761,0
27481,356.06,816,759,0
27491,339.37,816,761,0
27501,324.39,816,760,0
27511,311.33,816,761,0
27521,300.82,816,760,0
27531,292.90,816,761,0
27541,287.79,816,760,0
27551,284.94,816,761,0
27561,284.40,816,760,0
27571,285.65,816,762,0
27581,288.41,816,760,0
27591,292.19,816,761,0
27601,296.85,816,760,0
27611,301.69,816,761,0
27621,306.84,816,760,0
27631,311.82,816,761,0
27641,316.67,816,760,0
27651,321.23,816,761,0
27661,325.53,816,760,0
27671,329.31,816,761,0
27681,332.86,816,760,0
27692,335.86,816,761,0
27702,338.56,816,760,0
27712,340.53,816,761,0
27722,342.30,816,760,0
27732,343.45,816,761,0
27742,344.39,816,760,0
27752,344.74,816,761,0
27762,345.55,816,760,0
27772,347.78,816,761,0
27782,353.72,816,760,0
27792,365.33,816,760,0
27802,386.23,816,760,0
27812,418.65,816,761,0
27822,459.43,816,760,0
27841,505.33,825,759,0
27844,553.61,825,763,0
27853,601.13,825,761,0
27863,644.72,825,760,0
27873,680.50,825,761,0
27883,705.64,825,761,0
27893,723.23,825,761,0
27904,735.55,825,761,0
27913,744.13,825,761,0
27923,750.17,825,761,0
27933,754.41,825,761,0
27943,757.37,825,761,0
27953,759.40,825,761,0
27963,760.82,825,761,0
27973,759.51,825,761,0
27983,751.77,825,761,0
27993,734.82,825,761,0
28003,707.49,825,760,0
28013,668.86,825,761,0
28023,619.74,825,761,0
28033,561.11,825,761,0
28043,497.05,825,760,0
28053,432.87,825,761,0
28063,373.77,825,761,0
28073,322.88,825,760,0
28083,283.32,825,760,0
28093,255.62,825,760,0
28103,240.65,825,761,0
28113,237.20,825,760,0
28123,244.72,825,760,0
28133,260.79,825,761,0
28143,283.57,825,760,0
28153,309.97,825,760,0
28163,338.22,825,760,0
28173,365.41,825,761,0
28183,390.36,825,761,0
28193,410.65,825,760,0
28204,426.06,825,761,0
28214,435.25,825,760,0
28224,439.16,825,761,0
28234,437.31,825,760,0
28244,431.05,825,761,0
28254,420.41,825,760,0
28264,407.17,825,761,0
28274,391.30,825,760,0
28284,374.84,825,761,0
28294,357.70,825,760,0
28304,341.59,825,761,0
28314,326.24,825,760,0
28324,313.10,825,761,0
28334,301.71,825,760,0
28344,293.01,825,761,0
28354,286.07,825,760,0
28364,281.80,825,761,0
28375,279.29,825,760,0
28385,279.33,825,761,0
28395,280.60,825,760,0
28405,283.81,825,761,0
28416,287.81,825,760,0
28425,293.27,825,761,0
28435,298.80,825,760,0
28445,304.90,825,761,0
28455,310.25,825,760,0
28465,315.74,825,761,0
28475,320.15,825,760,0
28485,324.43,825,761,0
28495,327.73,825,760,0
28505,331.07,825,761,0
28515,333.58,825,760,0
28525,336.19,825,761,0
28535,337.89,825,760,0
28545,339.64,825,761,0
28555,340.52,825,760,0
28565,341.31,825,761,0
28575,341.13,825,759,0
28585,341.52,825,762,0
28595,342.56,825,760,0
28605,347.45,825,761,0
28615,358.03,825,760,0
28625,378.46,825,762,0
28635,410.21,825,760,0
28645,450.95,825,761,0
28664,497.08,823,760,0
28666,546.38,823,763,0
28676,594.91,823,760,0
28686,639.64,823,762,0
28696,676.30,823,760,0
28706,702.66,823,762,0
28716,721.10,823,760,0
28726,734.01,823,762,0
28736,743.01,823,760,0
28746,749.31,823,762,0
28756,753.71,823,760,0
28766,756.80,823,762,0
28776,758.96,823,759,0
28786,760.47,823,762,0
28796,757.80,823,760,0
28806,748.26,823,761,0
28816,728.81,823,759,0
28826,698.78,823,762,0
28836,657.58,823,759,0
28846,606.49,823,761,0
28856,546.13,823,759,0
28866,482.10,823,762,0
28876,418.64,823,759,0
28887,361.37,823,761,0
28897,312.66,823,759,0
28907,275.34,823,762,0
28917,249.70,823,759,0
28928,236.67,823,762,0
28937,235.02,823,759,0
28947,244.40,823,762,0
28957,262.32,823,759,0
28967,287.12,823,762,0
28977,315.63,823,759,0
28987,345.96,823,762,0
28997,375.15,823,759,0
29007,401.81,823,762,0
29017,423.51,823,759,0
29027,439.60,823,762,0
29037,448.98,823,759,0
29047,452.24,823,762,0
29057,449.00,823,759,0
29067,440.77,823,762,0
29077,427.81,823,759,0
29087,411.88,823,762,0
29097,393.53,823,759,0
29107,374.69,823,762,0
29117,355.71,823,759,0
29127,338.10,823,762,0
29137,321.95,823,759,0
29147,308.55,823,762,0
29157,297.63,823,759,0
29167,289.90,823,762,0
29177,284.53,823,759,0
29187,282.10,823,762,0
29197,281.55,823,759,0
29207,282.93,823,762,0
29217,285.27,823,758,0
29228,288.83,823,762,0
29238,292.99,823,759,0
29248,298.01,823,762,0
29258,303.15,823,759,0
29268,308.85,823,762,0
29278,314.51,823,759,0
29288,320.61,823,762,0
29298,326.43,823,759,0
29308,332.13,823,761,0
29318,337.19,823,759,0
29328,341.72,823,762,0
29338,345.45,823,759,0
29348,348.74,823,761,0
29358,351.22,823,759,0
29368,353.21,823,762,0
29378,354.26,823,759,0
29388,354.74,823,761,0
29399,354.78,823,759,0
29409,355.19,823,761,0
29419,357.32,823,759,0
29429,363.52,823,761,0
29440,376.78,823,760,0
29449,399.82,823,761,0
29459,433.64,823,759,0
29478,475.02,814,759,0
29481,521.09,814,762,0
29490,568.85,814,761,0
29500,615.01,814,759,0
29510,655.80,814,761,0
29520,688.31,814,760,0
29530,711.06,814,761,0
29540,726.98,814,760,0
29550,738.09,814,761,0
29560,745.86,814,760,0
29570,751.30,814,761,0
29580,755.11,814,760,0
29590,757.78,814,761,0
29600,759.65,814,760,0
29611,760.95,814,761,0
29620,757.71,814,760,0
29630,746.31,814,761,0
29640,724.87,814,760,0
29650,692.38,814,761,0
29660,649.45,814,760,0
29670,596.52,814,761,0
29680,534.91,814,760,0
29690,470.31,814,761,0
29700,408.59,814,760,0
29710,353.60,814,761,0
29720,308.59,814,760,0
29730,274.68,814,761,0
29740,253.05,814,760,0
29750,243.61,814,761,0
29760,245.82,814,760,0
29770,257.92,814,761,0
29780,278.09,814,760,0
29790,303.43,814,761,0
29800,331.85,814,760,0
29810,360.65,814,761,0
29820,387.84,814,760,0
29830,411.29,814,761,0
29840,429.80,814,760,0
29850,442.42,814,761,0
29860,449.19,814,760,0
29870,449.95,814,761,0
29880,445.42,814,760,0
29890,436.00,814,761,0
29900,422.97,814,760,0
29911,407.08,814,760,0
29921,389.87,814,760,0
29931,372.04,814,761,0
29941,354.80,814,760,0
29952,338.74,814,760,0
29961,324.93,814,760,0
29971,313.47,814,761,0
29981,305.10,814,760,0
29991,299.07,814,760,0
30001,295.79,814,760,0
30011,294.44,814,761,0
30021,295.34,814,760,0
30031,297.34,814,760,0
30041,300.45,814,760,0
30051,303.83,814,761,0
30061,307.69,814,760,0
30071,311.26,814,760,0
30081,315.04,814,760,0
30091,318.24,814,761,0
30101,321.60,814,760,0
30111,324.67,814,760,0
30121,327.99,814,760,0
30131,331.08,814,761,0
30141,334.48,814,760,0
30151,337.29,814,760,0
30161,340.08,814,760,0
30171,342.33,814,761,0
30181,344.33,814,760,0
30191,345.43,814,760,0
30201,346.29,814,760,0
30211,346.24,814,761,0
30221,346.51,814,760,0
30231,347.26,814,760,0
30241,350.65,814,760,0
30252,358.51,814,760,0
30262,374.60,814,760,0
30272,401.04,814,760,0
30282,437.75,814,761,0
30302,481.16,823,760,0
30305,528.68,823,761,0
30314,576.95,823,759,0
30324,622.99,823,761,0
30334,662.68,823,759,0
30344,693.08,823,761,0
30354,714.31,823,759,0
30364,729.17,823,761,0
30374,739.58,823,760,0
30384,746.86,823,761,0
30394,751.92,823,759,0
30404,755.46,823,761,0
30414,757.93,823,759,0
30424,759.71,823,761,0
30434,757.27,823,760,0
30444,747.50,823,761,0
30454,727.77,823,759,0
30465,697.54,823,761,0
30475,656.40,823,759,0
30485,605.45,823,761,0
30495,545.53,823,759,0
30505,482.29,823,761,0
30515,420.44,823,759,0
30525,364.98,823,761,0
30535,318.14,823,759,0
30545,282.70,823,762,0
30555,258.49,823,759,0
30565,246.39,823,761,0
30575,245.07,823,759,0
30585,254.35,823,761,0
30595,271.56,823,759,0
30605,295.31,823,761,0
30615,322.17,823,759,0
30625,351.05,823,761,0
30636,379.11,823,759,0
30646,404.96,823,761,0
30656,425.93,823,759,0
30666,441.76,823,762,0
30676,451.09,823,759,0
30686,454.75,823,761,0
30696,452.17,823,759,0
30706,444.23,823,761,0
30716,431.31,823,759,0
30726,415.40,823,761,0
30736,397.28,823,759,0
30746,378.68,823,762,0
30756,360.01,823,759,0
30766,342.86,823,761,0
30776,327.47,823,759,0
30786,314.90,823,761,0
30796,304.73,823,759,0
30807,297.40,823,761,0
30817,292.48,823,759,0
30827,290.19,823,762,0
30837,289.58,823,759,0
30848,290.86,823,761,0
30857,293.22,823,759,0
30867,296.88,823,761,0
30877,301.12,823,759,0
30887,306.01,823,761,0
30897,310.89,823,759,0
30907,315.98,823,761,0
30917,321.04,823,759,0
30927,326.13,823,761,0
30937,330.63,823,759,0
30947,334.86,823,762,0
30957,338.33,823,759,0
30967,341.32,823,761,0
30977,343.58,823,759,0
30987,345.25,823,762,0
30997,346.07,823,759,0
31007,346.27,823,761,0
31017,345.63,823,759,0
31027,344.54,823,762,0
31037,343.01,823,759,0
31047,342.02,823,761,0
31057,342.66,823,759,0
31067,347.35,823,762,0
31077,358.60,823,759,0
31087,379.89,823,761,0
31097,413.18,823,759,0
31116,455.00,815,758,0
31119,502.06,815,760,0
31128,551.45,815,761,0
31138,599.92,815,759,0
31148,644.08,815,762,0
31158,680.02,815,759,0
31168,705.21,815,761,0
31178,722.85,815,759,0
31188,735.19,815,761,0
31198,743.84,815,759,0
31208,749.88,815,761,0
31218,754.12,815,759,0
31228,757.08,815,761,0
31238,759.16,815,759,0
31248,759.20,815,761,0
31258,753.01,815,759,0
31268,738.01,815,761,0
31278,713.02,815,759,0
31288,677.66,815,761,0
31298,632.16,815,759,0
31308,577.25,815,761,0
31319,515.85,815,760,0
31329,453.79,815,761,0
31339,395.91,815,759,0
31349,345.28,815,761,0
31360,304.48,815,760,0
31369,274.72,815,761,0
31379,257.06,815,760,0
31389,251.00,815,761,0
31399,256.10,815,760,0
31409,270.21,815,761,0
31419,291.79,815,760,0
31429,318.21,815,761,0
31439,347.63,815,760,0
31449,377.32,815,761,0
31459,405.29,815,760,0
31469,429.42,815,761,0
31479,448.71,815,760,0
31489,461.91,815,761,0
31499,468.88,815,759,0
31509,469.17,815,761,0
31519,463.64,815,760,0
31529,452.69,815,761,0
31539,437.74,815,759,0
31549,419.82,815,761,0
31559,400.33,815,760,0
31569,380.00,815,761,0
31579,360.33,815,759,0
31589,341.72,815,761,0
31599,325.39,815,760,0
31609,311.34,815,761,0
31619,300.18,815,759,0
31629,291.90,815,761,0
31639,286.83,815,760,0
31649,284.31,815,761,0
31660,284.43,815,759,0
31670,286.36,815,761,0
31680,290.15,815,760,0
31690,294.99,815,761,0
31700,300.82,815,760,0
31710,306.79,815,761,0
31720,313.11,815,760,0
31730,319.08,815,760,0
31740,325.23,815,760,0
31750,330.90,815,761,0
31760,336.46,815,760,0
31770,340.99,815,760,0
31780,345.32,815,760,0
31790,348.74,815,761,0
31800,351.90,815,760,0
31810,354.08,815,761,0
31820,355.90,815,760,0
31831,356.78,815,760,0
31841,357.66,815,760,0
31851,357.76,815,760,0
31861,358.26,815,760,0
31872,359.08,815,760,0
31881,362.27,815,760,0
31891,369.09,815,760,0
31901,383.04,815,760,0
31911,406.12,815,760,0
31921,439.90,815,761,0
31940,480.60,824,759,0
31943,525.81,824,762,0
31952,572.32,824,760,0
31962,617.48,824,761,0
31972,657.50,824,760,0
31982,689.45,824,761,0
31992,711.81,824,760,0
32002,727.47,824,761,0
32012,738.43,824,760,0
32022,746.10,824,761,0
32032,751.47,824,760,0
32043,755.23,824,761,0
32052,757.86,824,760,0
32062,759.70,824,761,0
32072,757.22,824,760,0
32082,747.43,824,761,0
32092,727.97,824,760,0
32102,697.89,824,761,0
32112,656.74,824,760,0
32122,605.52,824,761,0
32132,545.15,824,760,0
32142,481.07,824,761,0
32152,417.88,824,760,0
32162,360.53,824,761,0
32172,311.43,824,760,0
32182,273.46,824,761,0
32192,246.83,824,760,0
32202,232.78,824,761,0
32212,230.23,824,760,0
32222,238.82,824,761,0
32232,256.02,824,759,0
32242,280.96,824,761,0
32252,310.37,824,760,0
32262,343.00,824,761,0
32272,375.66,824,759,0
32282,407.00,824,761,0
32292,434.39,824,760,0
32302,457.24,824,761,0
32312,473.54,824,759,0
32322,483.58,824,761,0
32332,486.45,824,760,0
32343,483.10,824,761,0
32353,473.51,824,759,0
32363,459.60,824,761,0
32373,441.64,824,759,0
32384,421.94,824,761,0
32393,401.05,824,759,0
32403,380.85,824,761,0
32413,361.39,824,759,0
32423,344.43,824,761,0
32433,329.73,824,759,0
32443,318.75,824,761,0
32453,310.47,824,759,0
32463,305.83,824,761,0
32473,303.78,824,759,0
32483,305.18,824,761,0
32493,308.64,824,759,0
32503,314.57,824,761,0
32513,321.34,824,759,0
32523,329.38,824,761,0
32533,337.37,824,759,0
32543,345.62,824,761,0
32553,352.72,824,759,0
32563,359.27,824,761,0
32573,364.29,824,760,0
32583,368.62,824,762,0
32593,371.48,824,759,0
32603,373.78,824,761,0
32613,374.57,824,759,0
32623,374.83,824,761,0
32633,373.64,824,759,0
32643,371.95,824,761,0
32653,368.88,824,759,0
32663,365.48,824,761,0
32673,361.23,824,759,0
32684,358.41,824,761,0
32694,358.12,824,759,0
32704,364.00,824,761,0
32714,378.27,824,759,0
32724,404.59,824,762,0
32734,441.06,824,759,0
32744,484.88,824,762,0
32763,532.45,823,760,0
32766,581.00,823,762,0
32775,626.60,823,759,0
32785,665.89,823,762,0
32795,695.28,823,759,0
32805,715.85,823,762,0
32815,730.25,823,759,0
32825,740.38,823,762,0
32835,747.46,823,759,0
32845,752.43,823,762,0
32855,755.90,823,759,0
32865,758.33,823,762,0
32875,755.70,823,759,0
32885,745.29,823,762,0
32896,725.02,823,759,0
32905,694.93,823,762,0
32915,654.75,823,759,0
32925,605.32,823,761,0
32935,547.46,823,759,0
32945,487.28,823,761,0
32955,428.99,823,759,0
32965,376.88,823,761,0
32975,332.60,823,759,0
32985,298.39,823,762,0
32995,274.66,823,759,0
33005,262.16,823,761,0
33015,259.71,823,759,0
33025,266.87,823,761,0
33035,281.70,823,759,0
33045,302.87,823,761,0
33055,327.68,823,759,0
33065,354.73,823,762,0
33075,381.30,823,759,0
33085,406.15,823,761,0
33095,427.11,823,759,0
33105,443.45,823,762,0
33115,454.03,823,759,0
33125,459.42,823,761,0
33135,459.08,823,759,0
33145,454.08,823,762,0
33155,444.72,823,759,0
33165,432.59,823,761,0
33175,417.97,823,759,0
33185,402.33,823,762,0
33196,386.16,823,759,0
33206,370.64,823,761,0
33216,356.22,823,759,0
33226,343.68,823,761,0
33236,333.11,823,759,0
33246,325.02,823,761,0
33256,318.84,823,759,0
33266,314.60,823,761,0
33276,311.94,823,759,0
33286,310.80,823,762,0
33296,310.82,823,759,0
33306,311.64,823,762,0
33316,313.12,823,759,0
33326,315.27,823,761,0
33336,317.72,823,759,0
33346,320.55,823,761,0
33356,323.34,823,759,0
33367,326.19,823,761,0
33377,329.05,823,759,0
33387,331.95,823,761,0
33397,334.96,823,760,0
33408,338.19,823,761,0
33417,341.52,823,759,0
33427,344.96,823,761,0
33437,348.32,823,760,0
33447,351.35,823,761,0
33457,353.99,823,759,0
33467,356.13,823,761,0
33477,358.19,823,759,0
33487,360.84,823,761,0
33497,365.73,823,759,0
33507,375.28,823,761,0
33517,392.85,823,759,0
33527,421.48,823,761,0
33537,458.80,823,759,0
33556,501.80,793,759,0
33558,547.97,793,761,0
33568,594.44,793,761,0
33579,637.94,793,760,0
33588,674.81,793,761,0
33598,701.61,793,760,0
33608,720.37,793,761,0
33618,733.50,793,760,0
33628,742.65,793,761,0
33638,749.06,793,760,0
33648,753.50,793,761,0
33658,756.60,793,760,0
33668,758.78,793,761,0
33678,760.30,793,760,0
33688,761.33,793,761,0
33698,758.79,793,760,0
33708,749.76,793,761,0
33718,732.31,793,760,0
33728,705.09,793,761,0
33738,667.95,793,759,0
33748,621.21,793,761,0
33758,566.07,793,760,0
33768,506.82,793,761,0
33778,448.08,793,759,0
33788,393.28,793,761,0
33798,345.54,793,760,0
33808,306.59,793,761,0
33818,277.87,793,759,0
33828,259.35,793,761,0
33838,251.10,793,759,0
33848,252.19,793,761,0
33858,261.82,793,759,0
33868,277.94,793,761,0
33879,299.00,793,760,0
33889,322.36,793,761,0
33899,346.68,793,760,0
33909,369.53,793,760,0
33920,389.94,793,760,0
33929,406.20,793,761,0
33939,418.23,793,760,0
33949,425.15,793,760,0
33959,427.54,793,760,0
33969,425.02,793,761,0
33979,418.72,793,760,0
33989,408.52,793,761,0
33999,395.89,793,760,0
34009,381.01,793,761,0
34019,365.19,793,760,0
34029,348.89,793,760,0
34039,333.45,793,760,0
34049,319.13,793,761,0
34059,307.05,793,760,0
34069,296.88,793,761,0
34079,289.63,793,760,0
34089,284.77,793,760,0
34099,282.87,793,760,0
34109,282.99,793,760,0
34119,285.61,793,760,0
34129,289.75,793,760,0
34139,295.57,793,760,0
34149,302.09,793,760,0
34159,309.69,793,760,0
34169,317.37,793,760,0
34179,325.40,793,760,0
34189,332.87,793,761,0
34199,340.49,793,760,0
34209,347.46,793,760,0
34220,354.22,793,760,0
34230,359.98,793,760,0
34240,365.17,793,761,0
34250,369.15,793,760,0
34260,372.53,793,761,0
34270,374.26,793,760,0
34280,375.42,793,761,0
34290,375.47,793,760,0
34300,376.44,793,761,0
34310,379.22,793,760,0
34320,387.17,793,760,0
34330,402.46,793,760,0
34340,428.81,793,761,0
34350,463.97,793,760,0
34360,505.55,793,761,0
34379,550.13,823,760,0
34382,595.47,823,763,0
34391,637.89,823,760,0
34401,674.31,823,761,0
34411,701.17,823,760,0
34421,719.98,823,761,0
34432,733.14,823,759,0
34441,742.40,823,761,0
34451,748.88,823,760,0
34461,753.42,823,761,0
34471,756.59,823,759,0
34481,758.81,823,761,0
34491,760.33,823,760,0
34501,756.93,823,761,0
34511,745.21,823,759,0
34521,724.19,823,761,0
34531,692.85,823,759,0
34541,651.75,823,761,0
34551,600.78,823,759,0
34561,541.70,823,761,0
34571,479.82,823,760,0
34581,420.69,823,761,0
34591,366.61,823,759,0
34601,320.87,823,761,0
34611,284.10,823,760,0
34621,258.35,823,761,0
34631,242.90,823,759,0
34641,238.30,823,761,0
34651,242.71,823,760,0
34661,255.66,823,761,0
34671,274.49,823,759,0
34681,298.38,823,761,0
34691,324.28,823,760,0
34701,350.98,823,761,0
34711,375.72,823,759,0
34721,397.87,823,761,0
34732,415.31,823,759,0
34742,428.20,823,761,0
34752,435.09,823,759,0
34762,437.03,823,761,0
34772,433.46,823,759,0
34782,426.13,823,762,0
34792,414.90,823,759,0
34802,401.73,823,761,0
34812,386.68,823,759,0
34822,371.61,823,761,0
34832,356.60,823,759,0
34842,343.22,823,762,0
34852,331.02,823,759,0
34862,321.16,823,761,0
34872,312.88,823,759,0
34882,307.26,823,762,0
34892,303.33,823,759,0
34903,301.43,823,762,0
34913,300.53,823,759,0
34923,301.18,823,761,0
34933,302.50,823,759,0
34944,304.88,823,761,0
34953,307.10,823,759,0
34963,309.94,823,761,0
34973,312.57,823,759,0
34983,315.66,823,762,0
34993,318.20,823,759,0
35003,320.89,823,762,0
35013,323.28,823,759,0
35023,325.94,823,762,0
35033,328.01,823,759,0
35043,330.15,823,761,0
35053,331.61,823,759,0
35063,333.10,823,762,0
35073,333.80,823,759,0
35083,334.37,823,762,0
35093,334.22,823,759,0
35103,333.98,823,762,0
35113,333.60,823,759,0
35123,334.62,823,761,0
35133,338.46,823,759,0
35143,348.70,823,762,0
35153,367.86,823,759,0
35163,399.32,823,762,0
35173,439.81,823,759,0
35192,486.54,813,758,0
35194,536.43,813,759,0
35204,586.49,813,761,0
35214,632.67,813,759,0
35224,671.34,813,762,0
35234,699.10,813,759,0
35244,718.57,813,761,0
35254,732.20,813,759,0
35264,741.74,813,762,0
35274,748.42,813,759,0
35284,753.09,813,761,0
35294,756.36,813,759,0
35304,758.65,813,762,0
35314,760.26,813,759,0
35324,761.38,813,761,0
35334,762.17,813,759,0
35344,758.47,813,762,0
35354,746.97,813,759,0
35364,726.15,813,761,0
35374,695.38,813,759,0
35384,654.85,813,762,0
35394,604.92,813,759,0
35404,546.88,813,761,0
35415,486.18,813,759,0
35425,428.10,813,762,0
35435,375.70,813,759,0
35445,331.47,813,761,0
35456,296.75,813,759,0
35465,272.61,813,762,0
35475,258.84,813,759,0
35485,255.03,813,761,0
35495,259.99,813,759,0
35505,272.34,813,762,0
35515,290.24,813,759,0
35525,311.85,813,761,0
35535,335.08,813,759,0
35545,358.29,813,762,0
35555,379.54,813,759,0
35565,397.77,813,761,0
35575,411.85,813,759,0
35585,421.28,813,762,0
35595,425.74,813,759,0
35605,425.52,813,761,0
35615,420.86,813,759,0
35625,412.80,813,761,0
35635,401.72,813,759,0
35645,388.69,813,761,0
35655,374.38,813,759,0
35665,359.82,813,761,0
35675,345.86,813,759,0
35685,333.18,813,761,0
35695,322.02,813,759,0
35705,312.76,813,761,0
35715,305.67,813,759,0
35725,300.93,813,762,0
35735,298.25,813,759,0
35745,297.23,813,761,0
35756,297.72,813,759,0
35766,299.69,813,761,0
35776,302.83,813,759,0
35786,306.56,813,761,0
35796,310.68,813,759,0
35806,314.93,813,761,0
35816,319.24,813,759,0
35826,323.37,813,761,0
35836,327.20,813,759,0
35846,330.70,813,761,0
35856,333.96,813,759,0
35866,336.63,813,761,0
35876,338.88,813,760,0
35886,340.59,813,761,0
35896,341.78,813,759,0
35906,342.15,813,761,0
35916,341.80,813,759,0
35927,340.58,813,761,0
35937,339.16,813,759,0
35947,338.08,813,761,0
35957,339.30,813,760,0
35968,344.95,813,761,0
35977,358.08,813,760,0
35987,381.63,813,761,0
35997,416.93,813,760,0
36007,460.19,813,761,0
36026,508.52,834,759,0
36029,558.46,834,760,0
36038,606.75,834,760,0
36048,649.81,834,760,0
36058,684.07,834,760,0
36068,708.05,834,761,0
36078,724.83,834,760,0
36088,736.58,834,761,0
36098,744.81,834,759,0
36108,750.57,834,761,0
36118,754.60,834,760,0
36128,757.42,834,761,0
36139,759.39,834,760,0
36148,758.89,834,761,0
36158,752.24,834,760,0
36168,736.61,834,760,0
36178,710.88,834,759,0
36188,674.70,834,760,0
36198,628.81,834,760,0
36208,573.58,834,760,0
36218,512.55,834,759,0
36228,450.93,834,760,0
36238,393.61,834,760,0
36248,343.20,834,760,0
36258,302.12,834,760,0
36268,270.80,834,760,0
36278,250.67,834,760,0
36288,240.96,834,760,0
36298,241.36,834,760,0
36308,250.04,834,760,0
36318,265.92,834,760,0
36328,286.65,834,760,0
36338,311.10,834,760,0
36348,336.70,834,760,0
36358,362.20,834,760,0
36368,385.28,834,760,0
36378,405.30,834,760,0
36388,420.59,834,760,0
36398,431.39,834,760,0
36408,436.59,834,760,0
36418,436.67,834,760,0
36428,431.37,834,760,0
36439,422.13,834,760,0
36449,409.06,834,760,0
36459,394.00,834,761,0
36469,376.86,834,759,0
36480,359.54,834,761,0
36489,342.32,834,760,0
36499,326.67,834,760,0
36509,312.45,834,759,0
36519,300.92,834,761,0
36529,291.56,834,760,0
36539,285.22,834,760,0
36549,280.91,834,759,0
36559,279.35,834,761,0
36569,279.37,834,760,0
36579,281.45,834,760,0
36589,284.31,834,759,0
36599,288.51,834,761,0
36609,292.90,834,760,0
36619,298.03,834,760,0
36629,302.73,834,759,0
36639,307.70,834,761,0
36649,311.90,834,759,0
36659,316.18,834,760,0
36669,319.42,834,759,0
36679,322.55,834,760,0
36689,324.66,834,759,0
36699,326.48,834,760,0
36709,327.28,834,759,0
36719,327.92,834,761,0
36729,327.56,834,759,0
36739,327.22,834,760,0
36749,326.30,834,759,0
36759,326.59,834,760,0
36769,328.64,834,759,0
36780,335.82,834,761,0
36790,350.36,834,759,0
36800,376.35,834,761,0
36810,413.32,834,759,0
36820,458.22,834,761,0
36839,507.44,813,759,0
36841,558.61,813,762,0
36851,607.58,813,759,0
36861,651.04,813,761,0
36871,684.75,813,759,0
36881,708.40,813,761,0
36891,724.95,813,759,0
36901,736.58,813,761,0
36911,744.68,813,759,0
36921,750.39,813,761,0
36931,754.39,813,759,0
36941,757.23,813,761,0
36951,759.17,813,759,0
36961,760.54,813,761,0
36971,757.85,813,759,0
36981,748.08,813,761,0
36992,728.51,813,758,0
37001,699.00,813,761,0
37011,658.89,813,759,0
37021,609.25,813,761,0
37031,550.59,813,758,0
37041,488.61,813,761,0
37051,427.61,813,759,0
37061,372.70,813,761,0
37071,325.35,813,758,0
37081,288.34,813,761,0
37091,261.58,813,759,0
37101,246.15,813,761,0
37111,240.83,813,758,0
37121,245.38,813,761,0
37131,257.40,813,759,0
37141,275.92,813,761,0
37151,298.19,813,758,0
37161,323.20,813,761,0
37171,348.13,813,759,0
37181,371.79,813,761,0
37191,391.95,813,758,0
37201,408.42,813,761,0
37211,419.95,813,759,0
37221,426.87,813,761,0
37231,428.28,813,758,0
37241,425.50,813,761,0
37251,418.36,813,759,0
37261,408.61,813,761,0
37271,395.96,813,759,0
37281,381.83,813,761,0
37292,366.28,813,758,0
37302,350.81,813,761,0
37312,335.44,813,758,0
37322,321.16,813,761,0
37332,307.79,813,758,0
37342,296.75,813,761,0
37352,287.48,813,758,0
37362,280.87,813,761,0
37372,276.32,813,758,0
37382,274.38,813,761,0
37392,274.22,813,759,0
37402,276.09,813,760,0
37412,278.85,813,758,0
37422,283.01,813,761,0
37432,287.42,813,758,0
37442,292.61,813,761,0
37452,297.57,813,759,0
37463,303.01,813,761,0
37473,308.15,813,758,0
37483,313.42,813,761,0
37493,318.14,813,758,0
37504,322.90,813,761,0
37513,326.91,813,758,0
37523,330.67,813,761,0
37533,333.51,813,758,0
37543,336.06,813,761,0
37553,337.97,813,758,0
37563,340.29,813,761,0
37573,344.06,813,758,0
37583,351.71,813,761,0
37593,365.39,813,758,0
37603,388.76,813,761,0
37613,423.03,813,758,0
37623,465.02,813,762,0
37633,511.56,813,758,0
37652,559.95,813,757,0
37654,606.98,813,760,0
37664,649.54,813,761,0
37675,683.66,813,759,0
37684,707.55,813,761,0
37694,724.27,813,758,0
37704,735.98,813,761,0
37714,744.17,813,759,0
37724,749.86,813,761,0
37734,753.85,813,758,0
37744,756.63,813,761,0
37754,758.59,813,759,0
37764,759.91,813,761,0
37774,760.84,813,758,0
37784,757.11,813,761,0
37794,745.29,813,759,0
37804,723.78,813,761,0
37814,691.53,813,758,0
37824,648.77,813,761,0
37834,596.21,813,758,0
37844,535.16,813,761,0
37854,471.64,813,758,0
37864,411.06,813,761,0
37874,356.83,813,758,0
37884,311.84,813,761,0
37894,277.30,813,758,0
37904,254.24,813,761,0
37914,242.47,813,758,0
37924,241.17,813,761,0
37934,248.70,813,758,0
37944,263.71,813,761,0
37954,284.20,813,758,0
37964,308.35,813,761,0
37975,333.79,813,758,0
37985,358.41,813,761,0
37995,380.74,813,759,0
38005,399.42,813,761,0
38016,413.39,813,759,0
38025,422.10,813,761,0
38035,425.37,813,759,0
38045,423.50,813,761,0
38055,417.40,813,759,0
38065,407.59,813,761,0
38075,395.37,813,759,0
38085,381.42,813,760,0
38095,366.76,813,759,0
38105,352.22,813,761,0
38115,338.40,813,759,0
38125,325.55,813,761,0
38135,314.16,813,759,0
38145,304.29,813,761,0
38155,296.32,813,759,0
38165,289.97,813,761,0
38175,285.48,813,759,0
38185,282.63,813,760,0
38195,281.67,813,759,0
38205,282.24,813,761,0
38215,284.31,813,758,0
38225,287.52,813,760,0
38235,292.08,813,759,0
38245,297.58,813,761,0
38255,304.18,813,758,0
38265,311.37,813,760,0
38275,319.36,813,759,0
38285,327.82,813,761,0
38295,336.70,813,759,0
38305,345.41,813,760,0
38316,353.68,813,759,0
38326,361.11,813,760,0
38336,367.63,813,759,0
38346,373.23,813,760,0
38356,379.20,813,759,0
38366,386.81,813,760,0
38376,399.04,813,759,0
38386,418.87,813,760,0
38396,448.91,813,759,0
38406,486.05,813,761,0
38416,527.86,813,759,0
38435,571.62,783,758,0
38437,615.06,783,761,0
38447,654.73,783,761,0
38457,687.30,783,759,0
38467,710.05,783,760,0
38477,726.02,783,760,0
38487,737.20,783,760,0
38497,745.03,783,759,0
38507,750.46,783,760,0
38517,754.31,783,760,0
38528,757.00,783,760,0
38537,758.89,783,760,0
38547,760.16,783,760,0
38557,761.10,783,760,0
38567,757.00,783,760,0
38577,745.64,783,759,0
38587,724.71,783,760,0
38597,693.77,783,760,0
38607,652.52,783,760,0
38617,602.09,783,759,0
38627,543.05,783,760,0
38637,482.01,783,759,0
38647,422.56,783,760,0
38657,369.29,783,759,0
38667,324.12,783,760,0
38677,289.41,783,760,0
38687,265.07,783,760,0
38697,252.15,783,760,0
38707,249.19,783,760,0
38717,255.69,783,760,0
38727,269.33,783,760,0
38737,288.90,783,760,0
38747,311.47,783,760,0
38757,335.72,783,760,0
38767,358.77,783,760,0
38777,379.84,783,760,0
38787,397.03,783,760,0
38797,409.92,783,759,0
38807,417.36,783,760,0
38817,420.12,783,760,0
38828,417.73,783,759,0
38838,411.64,783,760,0
38848,401.76,783,759,0
38858,389.79,783,760,0
38868,375.75,783,759,0
38878,361.38,783,760,0
38888,346.48,783,759,0
38898,332.71,783,760,0
38908,319.64,783,759,0
38918,308.65,783,760,0
38928,299.02,783,760,0
38938,291.90,783,760,0
38948,286.32,783,759,0
38958,283.39,783,760,0
38968,281.99,783,760,0
38978,282.81,783,760,0
38988,284.62,783,759,0
38999,287.91,783,761,0
39009,291.71,783,759,0
39019,296.47,783,761,0
39029,300.83,783,759,0
39040,305.42,783,761,0
39049,309.32,783,759,0
39059,313.43,783,760,0
39069,316.68,783,759,0
39079,319.95,783,761,0
39089,322.45,783,759,0
39099,325.27,783,760,0
39109,327.63,783,759,0
39119,330.62,783,761,0
39129,333.73,783,759,0
39139,339.17,783,761,0
39149,347.78,783,759,0
39159,363.23,783,760,0
39169,387.16,783,759,0
39179,422.21,783,761,0
39189,464.28,783,759,0
39199,511.04,783,761,0
39219,559.28,783,760,0
39222,606.51,783,762,0
39231,648.70,783,759,0
39241,683.16,783,761,0
39251,707.24,783,759,0
39261,724.14,783,761,0
39271,735.93,783,758,0
39281,744.18,783,761,0
39291,749.91,783,759,0
39301,753.97,783,761,0
39311,756.76,783,759,0
39321,758.76,783,761,0
39331,760.12,783,759,0
39341,760.30,783,761,0
39351,754.51,783,759,0
39361,740.34,783,761,0
39371,715.81,783,759,0
39382,681.07,783,761,0
39391,636.39,783,758,0
39401,583.00,783,761,0
39411,522.57,783,759,0
39421,461.97,783,761,0
39431,405.24,783,758,0
39441,356.57,783,761,0
39451,317.40,783,759,0
39461,289.42,783,761,0
39471,272.37,783,759,0
39481,266.73,783,761,0
39491,270.84,783,759,0
39501,283.66,783,761,0
39511,302.49,783,759,0
39521,325.79,783,761,0
39531,350.28,783,759,0
39541,374.79,783,761,0
39552,396.46,783,759,0
39561,414.71,783,761,0
39571,427.95,783,759,0
39581,436.28,783,761,0
39591,438.90,783,759,0
39601,437.04,783,761,0
39611,430.34,783,759,0
39621,420.47,783,761,0
39631,407.30,783,758,0
39641,392.55,783,761,0
39651,376.62,783,759,0
39661,361.22,783,761,0
39671,346.37,783,758,0
39681,333.44,783,761,0
39691,322.29,783,758,0
39701,314.06,783,761,0
39711,308.09,783,759,0
39721,304.93,783,761,0
39731,303.20,783,759,0
39741,303.52,783,761,0
39751,304.87,783,759,0
39761,307.65,783,761,0
39771,310.54,783,759,0
39781,313.81,783,761,0
39791,316.56,783,759,0
39801,319.52,783,760,0
39811,321.72,783,759,0
39821,323.65,783,761,0
39831,324.48,783,759,0
39841,325.20,783,761,0
39852,325.35,783,758,0
39862,325.50,783,761,0
39872,325.27,783,758,0
39882,325.10,783,761,0
39892,324.90,783,759,0
39902,325.36,783,761,0
39912,326.45,783,758,0
39922,329.74,783,761,0
39932,336.68,783,758,0
39942,349.85,783,761,0
39952,371.79,783,759,0
39962,405.41,783,761,0
39972,447.33,783,759,0
39982,494.59,783,761,0
40001,544.00,783,760,0
40003,592.68,783,761,0
40013,637.31,783,759,0
40023,674.63,783,761,0
40033,701.23,783,759,0
40043,719.84,783,761,0
40053,732.92,783,759,0
40064,742.07,783,761,0
40073,748.48,783,759,0
40083,752.96,783,761,0
40093,756.06,783,759,0
40103,758.23,783,761,0
40113,756.19,783,759,0
40123,746.83,783,761,0
40133,728.03,783,758,0
40143,699.13,783,761,0
40153,660.31,783,759,0
40163,612.21,783,761,0
40173,555.62,783,758,0
40183,495.39,783,761,0
40193,436.30,783,759,0
40203,382.60,783,761,0
40213,336.56,783,758,0
40223,299.96,783,761,0
40233,273.66,783,759,0
40243,258.03,783,761,0
40253,252.75,783,758,0
40263,256.86,783,761,0
40273,268.60,783,759,0
40283,286.16,783,761,0
40293,307.46,783,758,0
40303,330.42,783,761,0
40313,353.09,783,758,0
40323,373.89,783,761,0
40333,391.33,783,758,0
40343,404.64,783,761,0
40353,413.24,783,759,0
40364,416.89,783,761,0
40374,415.68,783,758,0
40384,410.25,783,761,0
40394,401.30,783,759,0
40404,389.81,783,760,0
40414,376.54,783,758,0
40424,362.66,783,761,0
40434,349.05,783,759,0
40444,336.48,783,760,0
40454,325.58,783,758,0
40464,316.49,783,761,0
40474,309.66,783,759,0
40484,305.00,783,760,0
40494,302.47,783,759,0
40504,301.82,783,761,0
40514,302.73,783,759,0
40524,304.78,783,760,0
40535,307.89,783,759,0
40545,311.31,783,760,0
40555,315.12,783,759,0
40565,318.55,783,760,0
40576,321.77,783,759,0
40585,324.41,783,760,0
40595,326.56,783,759,0
40605,327.85,783,760,0
40615,328.75,783,759,0
40625,328.95,783,760,0
40635,329.10,783,759,0
40645,328.77,783,760,0
40655,328.62,783,759,0
40665,328.31,783,760,0
40675,328.47,783,759,0
40685,328.89,783,760,0
40695,330.81,783,759,0
40705,335.19,783,760,0
40715,344.56,783,759,0
40725,361.19,783,760,0
40735,388.44,783,759,0
40745,425.85,783,760,0
40755,470.34,783,760,0
40774,518.58,773,758,0
40776,567.95,773,761,0
40786,614.93,773,760,0
40796,656.31,773,760,0
40806,688.40,773,760,0
40816,710.87,773,760,0
40826,726.59,773,760,0
40836,737.60,773,760,0
40846,745.26,773,760,0
40856,750.63,773,760,0
40866,754.34,773,760,0
40876,756.98,773,760,0
40886,755.27,773,760,0
40896,746.06,773,760,0
40906,726.80,773,760,0
40916,696.99,773,760,0
40926,656.54,773,760,0
40936,606.45,773,760,0
40946,547.26,773,760,0
40956,484.61,773,760,0
40966,423.27,773,760,0
40976,368.20,773,760,0
40986,321.60,773,760,0
40996,285.72,773,760,0
41006,260.77,773,760,0
41016,247.81,773,761,0
41026,245.64,773,760,0
41036,253.85,773,761,0
41047,270.09,773,761,0
41057,293.12,773,761,0
41067,319.87,773,760,0
41077,348.88,773,762,0
41088,377.20,773,760,0
41097,403.28,773,761,0
41107,424.63,773,760,0
41117,440.73,773,761,0
41127,449.89,773,760,0
41137,452.93,773,761,0
41147,448.96,773,760,0
41157,439.59,773,762,0
41167,424.93,773,760,0
41177,407.16,773,761,0
41187,386.67,773,760,0
41197,365.73,773,762,0
41207,344.59,773,761,0
41217,325.39,773,761,0
41227,307.83,773,760,0
41237,293.39,773,762,0
41247,281.40,773,760,0
41257,273.05,773,762,0
41267,267.30,773,760,0
41277,264.94,773,761,0
41287,264.87,773,760,0
41297,267.74,773,762,0
41307,272.44,773,760,0
41317,279.47,773,761,0
41327,287.34,773,760,0
41337,296.71,773,762,0
41347,305.97,773,761,0
41357,315.79,773,762,0
41367,324.85,773,761,0
41377,333.60,773,762,0
41388,340.79,773,760,0
41398,347.28,773,762,0
41408,351.87,773,760,0
41418,355.64,773,762,0
41428,357.29,773,760,0
41438,358.14,773,761,0
41448,357.59,773,760,0
41458,357.67,773,763,0
41468,358.92,773,760,0
41478,364.26,773,762,0
41488,375.41,773,761,0
41498,396.29,773,762,0
41508,428.00,773,761,0
41518,468.12,773,762,0
41528,513.00,773,761,0
41547,560.10,773,760,0
41550,606.10,773,761,0
41559,648.02,773,762,0
41569,682.17,773,760,0
41579,706.46,773,763,0
41589,723.47,773,760,0
41600,735.37,773,762,0
41609,743.70,773,760,0
41619,749.49,773,763,0
41629,752.90,773,760,0
41639,750.66,773,762,0
41649,739.96,773,760,0
41659,719.53,773,762,0
41669,688.21,773,760,0
41679,646.41,773,762,0
41689,594.60,773,760,0
41699,534.85,773,762,0
41709,471.98,773,760,0
41719,411.21,773,762,0
41729,355.44,773,760,0
41739,308.16,773,762,0
41749,270.36,773,760,0
41759,243.81,773,762,0
41769,228.05,773,760,0
41779,223.32,773,762,0
41789,227.94,773,760,0
41799,241.46,773,762,0
41809,261.42,773,760,0
41819,286.84,773,762,0
41829,314.53,773,760,0
41839,343.47,773,762,0
41849,371.23,773,760,0
41859,397.05,773,762,0
41869,418.72,773,760,0
41879,435.90,773,762,0
41889,447.37,773,760,0
41900,453.86,773,762,0
41910,454.80,773,760,0
41920,451.39,773,762,0
41930,443.47,773,760,0
41940,432.70,773,762,0
41950,419.59,773,760,0
41960,405.79,773,762,0
41970,391.62,773,760,0
41980,378.54,773,763,0
41990,366.67,773,760,0
42000,357.26,773,762,0
42010,349.81,773,760,0
42020,345.02,773,763,0
42030,341.85,773,760,0
42040,340.82,773,762,0
42050,340.96,773,760,0
42060,342.60,773,762,0
42071,344.78,773,760,0
42081,347.84,773,762,0
42091,351.06,773,760,0
42101,354.94,773,763,0
42112,358.43,773,760,0
42121,361.86,773,762,0
42131,364.17,773,760,0
42141,365.62,773,763,0
42151,365.61,773,760,0
42161,364.40,773,762,0
42171,361.83,773,760,0
42181,358.93,773,763,0
42191,356.68,773,761,0
42201,357.46,773,762,0
42211,363.36,773,760,0
42221,377.83,773,763,0
42231,402.74,773,760,0
42241,438.43,773,762,0
42251,481.33,773,759,0
42261,528.24,773,762,0
42271,575.91,773,759,0
42291,621.28,743,758,0
42294,660.63,743,761,0
42303,691.38,743,762,0
42313,712.91,743,760,0
42323,727.98,743,761,0
42333,738.53,743,760,0
42343,745.91,743,762,0
42353,751.08,743,760,0
42363,750.33,743,762,0
42373,741.70,743,760,0
42383,723.23,743,762,0
42393,694.28,743,760,0
42403,654.72,743,762,0
42413,605.43,743,760,0
42423,547.19,743,761,0
42433,485.63,743,760,0
42443,424.71,743,762,0
42454,368.70,743,761,0
42463,320.10,743,761,0
42473,281.07,743,760,0
42483,252.51,743,761,0
42493,235.34,743,760,0
42503,229.32,743,762,0
42513,233.98,743,760,0
42523,247.92,743,762,0
42533,269.63,743,760,0
42543,296.78,743,762,0
42553,327.23,743,760,0
42563,358.58,743,761,0
42573,389.00,743,760,0
42583,416.39,743,762,0
42593,439.07,743,760,0
42603,455.89,743,762,0
42613,466.60,743,760,0
42624,471.13,743,761,0
42633,470.02,743,760,0
42643,463.67,743,761,0
42653,453.14,743,760,0
42663,439.34,743,761,0
42673,423.68,743,760,0
42683,407.02,743,761,0
42693,390.21,743,759,0
42703,373.99,743,761,0
42713,359.08,743,760,0
42723,345.90,743,761,0
42733,335.04,743,760,0
42743,326.12,743,761,0
42753,319.48,743,760,0
42763,314.97,743,761,0
42773,312.49,743,760,0
42783,311.70,743,761,0
42793,312.48,743,760,0
42803,314.18,743,762,0
42813,316.78,743,760,0
42823,319.76,743,761,0
42833,322.96,743,760,0
42843,325.76,743,761,0
42853,328.15,743,760,0
42863,329.73,743,761,0
42873,331.35,743,760,0
42883,333.73,743,762,0
42893,338.57,743,760,0
42903,348.30,743,761,0
42913,365.95,743,760,0
42924,394.30,743,762,0
42934,432.69,743,760,0
42944,477.57,743,761,0
42954,526.17,743,761,0
42964,575.36,743,761,0
42974,621.71,743,761,0
42984,661.70,743,761,0
42994,692.09,743,760,0
43014,713.36,723,759,0
43016,728.30,723,762,0
43026,738.75,723,760,0
43036,746.07,723,762,0
43046,751.19,723,760,0
43056,754.78,723,761,0
43066,757.29,723,761,0
43076,758.06,723,761,0
43086,752.81,723,760,0
43096,739.93,723,761,0
43106,717.32,723,760,0
43116,684.99,723,761,0
43126,642.65,723,761,0
43137,591.59,723,762,0
43147,533.64,723,760,0
43157,475.46,723,762,0
43167,420.08,723,760,0
43177,371.97,723,762,0
43187,332.38,723,760,0
43197,303.64,723,762,0
43207,285.36,723,760,0
43217,278.18,723,762,0
43227,279.97,723,760,0
43237,290.39,723,762,0
43247,306.69,723,760,0
43257,327.95,723,762,0
43267,351.20,723,760,0
43277,375.39,723,762,0
43287,397.73,723,760,0
43297,417.91,723,762,0
43308,433.84,723,760,0
43318,445.84,723,762,0
43328,452.62,723,759,0
43338,455.35,723,762,0
43348,453.36,723,759,0
43358,448.41,723,762,0
43368,440.14,723,760,0
43378,430.29,723,762,0
43388,418.71,723,759,0
43398,407.23,723,762,0
43408,395.37,723,760,0
43418,384.59,723,762,0
43428,374.34,723,760,0
43438,365.97,723,762,0
43448,358.78,723,760,0
43458,353.66,723,762,0
43468,349.65,723,759,0
43479,347.48,723,762,0
43489,346.35,723,760,0
43499,346.76,723,762,0
43509,347.47,723,759,0
43520,349.05,723,762,0
43529,350.49,723,760,0
43539,352.40,723,765,0
43549,353.87,723,765,0
43559,355.71,723,766,0
43569,357.64,723,767,0
43579,361.39,723,772,0
43589,368.17,723,774,0
43599,380.59,723,777,0
43609,400.73,723,777,0
43619,431.45,723,779,0
43629,469.80,723,778,0
43639,513.23,723,779,0
43649,558.81,723,778,0
43659,603.78,723,779,0
43669,645.07,723,766,0
43679,679.68,723,763,0
43699,704.72,685,760,0
43701,722.29,685,763,0
43711,734.59,685,758,0
43721,743.20,685,761,0
43731,749.22,685,759,0
43741,753.49,685,761,0
43751,756.43,685,758,0
43761,758.48,685,761,0
43771,757.95,685,759,0
43781,751.92,685,761,0
43791,737.93,685,758,0
43801,714.72,685,761,0
43811,681.68,685,759,0
43821,639.47,685,761,0
43831,588.25,685,758,0
43841,531.00,685,761,0
43851,472.07,685,758,0
43862,415.56,685,761,0
43871,364.35,685,758,0
43881,320.88,685,761,0
43891,286.07,685,758,0
43901,261.36,685,761,0
43911,246.64,685,758,0
43921,241.95,685,761,0
43931,246.42,685,758,0
43941,258.81,685,761,0
43951,277.12,685,758,0
43961,299.71,685,761,0
43971,324.53,685,758,0
43981,349.87,685,761,0
43991,373.78,685,758,0
44001,394.98,685,761,0
44011,412.25,685,758,0
44021,425.33,685,761,0
44032,433.68,685,758,0
44041,437.67,685,761,0
44051,437.56,685,758,0
44061,433.88,685,761,0
44071,427.01,685,758,0
44081,417.97,685,761,0
44091,407.01,685,758,0
44101,394.92,685,761,0
44111,382.00,685,758,0
44121,369.27,685,761,0
44131,357.02,685,758,0
44141,345.91,685,761,0
44151,336.25,685,758,0
44161,328.42,685,761,0
44171,322.42,685,758,0
44181,318.44,685,761,0
44191,316.04,685,758,0
44201,315.21,685,761,0
44211,315.45,685,758,0
44221,316.51,685,761,0
44231,318.07,685,758,0
44241,320.02,685,761,0
44251,321.99,685,758,0
44261,324.13,685,761,0
44271,326.97,685,758,0
44281,331.48,685,761,0
44291,338.79,685,758,0
44301,351.20,685,761,0
44311,371.07,685,758,0
44321,400.70,685,761,0
44332,439.66,685,758,0
44342,484.42,685,761,0
44352,532.08,685,759,0
44362,579.89,685,760,0
44372,624.75,685,759,0
44382,663.52,685,761,0
44401,693.50,703,760,0
44403,714.52,703,760,0
44413,729.28,703,759,0
44423,739.57,703,761,0
44433,746.81,703,759,0
44443,751.84,703,760,0
44453,755.40,703,759,0
44463,756.78,703,761,0
44473,753.08,703,759,0
44483,742.04,703,760,0
44493,722.66,703,759,0
44503,694.60,703,760,0
44513,658.12,703,759,0
44523,613.30,703,760,0
44533,562.30,703,759,0
44544,508.89,703,760,0
44553,456.98,703,759,0
44563,408.64,703,760,0
44573,365.77,703,759,0
44583,329.19,703,760,0
44593,300.21,703,759,0
44603,278.76,703,760,0
44613,265.59,703,759,0
44623,259.84,703,760,0
44633,261.47,703,759,0
44643,269.13,703,760,0
44653,282.12,703,759,0
44663,298.67,703,760,0
44673,317.58,703,759,0
44683,336.91,703,760,0
44693,355.58,703,759,0
44703,372.03,703,760,0
44713,385.65,703,759,0
44723,395.49,703,760,0
44733,401.64,703,759,0
44743,403.68,703,760,0
44753,402.44,703,759,0
44763,398.15,703,760,0
44773,391.85,703,759,0
44783,383.88,703,760,0
44793,375.26,703,759,0
44803,366.31,703,760,0
44813,358.03,703,759,0
44823,350.26,703,760,0
44833,343.76,703,759,0
44844,338.04,703,760,0
44854,333.66,703,759,0
44864,330.12,703,760,0
44874,327.73,703,760,0
44884,326.05,703,760,0
44894,325.44,703,759,0
44904,325.35,703,760,0
44914,326.27,703,760,0
44924,327.39,703,760,0
44934,329.16,703,759,0
44944,330.87,703,760,0
44954,333.09,703,760,0
44964,335.04,703,760,0
44974,337.34,703,759,0
44984,339.94,703,760,0
44994,344.59,703,760,0
45004,352.34,703,760,0
45015,366.12,703,760,0
45025,387.69,703,759,0
45035,420.27,703,761,0
45045,460.60,703,759,0
45056,505.98,703,760,0
45065,553.26,703,760,0
45084,599.89,683,758,0
45086,642.48,683,759,0
45096,678.21,683,761,0
45106,703.82,683,759,0
45116,721.79,683,761,0
45126,734.32,683,759,0
45136,743.14,683,761,0
45146,749.27,683,759,0
45156,753.56,683,761,0
45166,756.52,683,759,0
45176,758.59,683,761,0
45186,755.97,683,759,0
45196,746.59,683,761,0
45206,728.24,683,759,0
45216,700.83,683,760,0
45227,663.77,683,759,0
45236,618.32,683,761,0
45246,564.57,683,759,0
45256,508.04,683,761,0
45266,451.67,683,759,0
45276,399.66,683,761,0
45286,353.43,683,759,0
45296,315.42,683,761,0
45306,285.46,683,758,0
45316,265.14,683,761,0
45326,253.57,683,759,0
45336,251.38,683,761,0
45346,256.84,683,759,0
45356,269.23,683,761,0
45366,286.30,683,759,0
45376,307.21,683,761,0
45386,329.31,683,759,0
45396,351.84,683,761,0
45406,372.55,683,759,0
45416,391.07,683,761,0
45426,405.62,683,759,0
45436,416.53,683,761,0
45446,422.63,683,759,0
45456,424.93,683,761,0
45466,422.81,683,759,0
45476,417.55,683,761,0
45486,408.86,683,759,0
45496,398.40,683,761,0
45506,386.11,683,759,0
45516,373.65,683,761,0
45527,360.77,683,759,0
45537,348.92,683,761,0
45547,337.72,683,758,0
45557,328.25,683,761,0
45568,320.07,683,758,0
45577,313.71,683,761,0
45587,308.44,683,758,0
45597,305.18,683,761,0
45607,303.02,683,758,0
45617,302.67,683,761,0
45627,303.16,683,758,0
45637,305.17,683,761,0
45647,307.95,683,758,0
45657,312.03,683,761,0
45667,316.18,683,758,0
45677,321.01,683,761,0
45687,325.51,683,758,0
45697,330.46,683,761,0
45707,334.69,683,758,0
45717,339.24,683,761,0
45727,343.88,683,758,0
45737,350.90,683,761,0
45747,361.22,683,758,0
45757,378.04,683,761,0
45767,403.23,683,758,0
45777,438.60,683,762,0
45787,480.42,683,758,0
45797,526.24,683,761,0
45807,572.79,683,759,0
45817,617.73,683,761,0
45836,657.50,752,760,0
45838,689.36,752,761,0
45848,711.67,752,759,0
45858,727.28,752,761,0
45868,738.17,752,758,0
45878,745.83,752,761,0
45888,751.20,752,758,0
45898,754.99,752,762,0
45908,757.61,752,758,0
45918,759.44,752,761,0
45928,760.72,752,758,0
45938,758.84,752,762,0
45948,750.66,752,758,0
45958,735.03,752,761,0
45968,710.46,752,758,0
45978,676.98,752,761,0
45988,634.39,752,758,0
45998,583.87,752,761,0
46008,528.71,752,758,0
46018,473.68,752,761,0
46028,421.02,752,758,0
46039,374.21,752,761,0
46049,334.51,752,758,0
46059,303.71,752,761,0
46069,281.77,752,758,0
46080,269.41,752,761,0
46089,265.43,752,758,0
46099,269.50,752,761,0
46109,279.51,752,758,0
46119,294.40,752,761,0
46129,311.85,752,758,0
46139,330.45,752,761,0
46149,348.27,752,758,0
46159,364.39,752,761,0
46169,377.43,752,758,0
46179,387.29,752,761,0
46189,393.20,752,758,0
46199,395.50,752,761,0
46209,394.06,752,758,0
46219,389.72,752,761,0
46229,382.86,752,758,0
46239,374.37,752,761,0
46249,364.45,752,758,0
46259,354.11,752,761,0
46269,343.75,752,758,0
46279,334.18,752,761,0
46289,325.30,752,758,0
46299,317.88,752,762,0
46309,311.57,752,758,0
46319,306.99,752,761,0
46329,303.69,752,758,0
46339,302.03,752,761,0
46349,301.42,752,758,0
46359,302.11,752,761,0
46369,303.62,752,758,0
46380,306.26,752,761,0
46390,309.40,752,758,0
46400,313.09,752,761,0
46410,316.88,752,758,0
46420,320.94,752,761,0
46430,325.20,752,758,0
46440,329.39,752,761,0
46450,333.30,752,758,0
46460,336.89,752,761,0
46470,340.18,752,759,0
46480,343.17,752,761,0
46490,345.61,752,758,0
46500,347.87,752,761,0
46510,350.39,752,758,0
46520,354.60,752,761,0
46530,362.27,752,758,0
46540,375.73,752,761,0
46551,397.58,752,759,0
46561,430.36,752,760,0
46571,470.58,752,759,0
46590,515.49,754,758,0
46593,562.15,754,760,0
46603,607.75,754,760,0
46613,649.14,754,760,0
46623,683.21,754,760,0
46633,707.32,754,760,0
46643,724.15,754,760,0
46653,735.98,754,760,0
46663,744.21,754,760,0
46673,750.02,754,760,0
46683,754.04,754,760,0
46693,756.90,754,759,0
46703,758.86,754,760,0
46713,760.27,754,760,0
46723,757.79,754,760,0
46733,749.15,754,759,0
46743,732.14,754,760,0
46753,706.21,754,760,0
46764,670.70,754,759,0
46774,626.39,754,760,0
46784,573.47,754,759,0
46794,516.89,754,760,0
46804,459.97,754,758,0
46814,406.88,754,760,0
46824,359.26,754,759,0
46834,319.75,754,760,0
46844,288.58,754,759,0
46854,267.24,754,760,0
46864,255.08,754,760,0
46874,252.23,754,760,0
46884,256.96,754,759,0
46894,268.59,754,760,0
46904,284.65,754,759,0
46914,304.43,754,760,0
46924,325.17,754,759,0
46935,345.99,754,760,0
46945,364.68,754,759,0
46955,380.89,754,760,0
46965,393.14,754,759,0
46976,401.88,754,760,0
46985,406.16,754,759,0
46995,407.14,754,761,0
47005,404.18,754,759,0
47015,398.81,754,760,0
47025,390.73,754,759,0
47035,381.59,754,760,0
47045,371.04,754,759,0
47055,360.49,754,760,0
47065,349.63,754,759,0
47075,339.84,754,760,0
47085,330.59,754,759,0
47095,323.08,754,760,0
47105,316.72,754,759,0
47115,312.73,754,760,0
47125,310.15,754,759,0
47135,309.72,754,760,0
47145,310.41,754,758,0
47155,312.98,754,760,0
47165,316.25,754,758,0
47175,320.71,754,760,0
47185,324.96,754,759,0
47195,329.77,754,760,0
47205,334.04,754,759,0
47215,338.53,754,760,0
47225,342.18,754,759,0
47235,345.94,754,760,0
47245,348.96,754,759,0
47255,352.10,754,760,0
47265,354.30,754,758,0
47276,356.44,754,761,0
47286,357.59,754,758,0
47296,358.57,754,760,0
47306,358.49,754,758,0
47316,358.30,754,761,0
47326,357.61,754,758,0
47336,358.28,754,760,0
47346,360.98,754,758,0
47356,368.70,754,761,0
47366,382.93,754,758,0
47376,407.43,754,760,0
47386,441.97,754,758,0
47406,483.68,815,757,0
47409,529.16,815,758,0
47418,575.91,815,761,0
47428,620.42,815,758,0
47438,660.15,815,761,0
47448,691.22,815,758,0
47458,713.01,815,760,0
47468,728.27,815,758,0
47478,738.94,815,761,0
47489,746.37,815,758,0
47499,751.58,815,761,0
47509,755.22,815,758,0
47519,757.81,815,761,0
47529,759.62,815,758,0
47539,760.89,815,760,0
47549,761.78,815,758,0
47559,761.12,815,761,0
47569,755.17,815,758,0
47579,742.00,815,760,0
47589,719.50,815,758,0
47599,686.99,815,761,0
47609,644.57,815,758,0
47619,593.40,815,760,0
47629,535.76,815,758,0
47639,476.78,815,761,0
47649,420.02,815,758,0
47660,369.35,815,760,0
47670,327.20,815,758,0
47680,294.96,815,760,0
47690,272.73,815,758,0
47700,260.47,815,760,0
47710,257.46,815,758,0
47720,262.50,815,760,0
47730,274.01,815,758,0
47740,289.95,815,760,0
47750,308.44,815,758,0
47760,327.63,815,760,0
47770,346.09,815,758,0
47780,362.60,815,760,0
47790,376.05,815,758,0
47800,385.85,815,760,0
47810,391.98,815,758,0
47820,394.47,815,760,0
47831,393.82,815,758,0
47841,390.27,815,760,0
47851,384.70,815,759,0
47861,377.51,815,760,0
47872,369.47,815,759,0
47881,360.80,815,760,0
47891,352.16,815,759,0
47901,343.63,815,760,0
47911,335.94,815,759,0
47921,328.76,815,760,0
47931,322.74,815,758,0
47941,317.51,815,760,0
47951,313.58,815,759,0
47961,310.62,815,760,0
47971,308.89,815,758,0
47981,307.98,815,760,0
47991,307.99,815,758,0
48001,308.51,815,760,0
48011,309.81,815,759,0
48021,311.28,815,760,0
48031,313.34,815,759,0
48041,315.34,815,760,0
48051,317.47,815,758,0
48061,319.38,815,760,0
48071,321.41,815,758,0
48081,323.22,815,760,0
48091,325.29,815,758,0
48101,327.18,815,760,0
48111,329.44,815,758,0
48121,331.45,815,760,0
48131,333.76,815,759,0
48141,335.80,815,760,0
48151,337.83,815,758,0
48161,339.55,815,760,0
48172,341.96,815,759,0
48182,346.00,815,760,0
48192,354.23,815,759,0
48202,368.82,815,759,0
48212,393.17,815,759,0
48222,428.13,815,760,0
48241,470.52,836,758,0
48244,517.21,836,759,0
48253,565.45,836,760,0
48263,611.98,836,759,0
48273,653.60,836,759,0
48283,686.68,836,759,0
48293,709.88,836,760,0
48303,726.11,836,759,0
48313,737.48,836,759,0
48323,745.44,836,759,0
48333,751.00,836,760,0
48343,754.86,836,759,0
48353,757.56,836,759,0
48363,759.45,836,759,0
48373,760.77,836,760,0
48384,760.93,836,759,0
48393,757.05,836,759,0
48403,745.93,836,759,0
48413,726.32,836,760,0
48423,696.96,836,759,0
48433,658.48,836,759,0
48443,610.90,836,759,0
48453,555.98,836,759,0
48463,497.53,836,758,0
48473,440.72,836,759,0
48483,387.87,836,759,0
48493,342.14,836,760,0
48503,303.87,836,758,0
48513,274.89,836,759,0
48523,254.87,836,759,0
48533,244.45,836,759,0
48543,242.17,836,759,0
48553,247.95,836,760,0
48563,259.54,836,759,0
48573,276.26,836,760,0
48583,295.73,836,759,0
48593,317.07,836,760,0
48603,337.96,836,759,0
48613,357.69,836,760,0
48623,374.24,836,759,0
48633,387.75,836,760,0
48643,397.00,836,759,0
48653,402.44,836,759,0
48663,403.29,836,758,0
48673,400.63,836,760,0
48684,394.19,836,758,0
48694,385.73,836,760,0
48704,375.10,836,758,0
48714,364.01,836,760,0
48724,352.31,836,758,0
48734,341.72,836,760,0
48744,331.73,836,759,0
48754,323.67,836,760,0
48764,316.61,836,758,0
48774,311.58,836,760,0
48784,307.59,836,758,0
48794,305.40,836,760,0
48804,303.95,836,758,0
48814,304.05,836,760,0
48824,304.64,836,758,0
48834,306.42,836,760,0
48844,308.31,836,758,0
48855,310.91,836,760,0
48865,313.43,836,758,0
48875,316.43,836,760,0
48885,319.13,836,757,0
48896,322.22,836,761,0
48905,324.77,836,758,0
48915,327.67,836,760,0
48925,329.99,836,758,0
48935,332.44,836,760,0
48945,334.32,836,758,0
48955,336.20,836,760,0
48965,337.25,836,757,0
48975,338.38,836,761,0
48985,338.91,836,758,0
48995,340.13,836,761,0
49005,341.94,836,757,0
49015,346.41,836,761,0
49025,354.17,836,758,0
49035,368.27,836,760,0
49045,390.30,836,757,0
49055,423.12,836,761,0
49075,463.50,833,760,0
49078,508.78,833,762,0
49087,555.47,833,757,0
49097,601.53,833,761,0
49107,643.50,833,757,0
49117,678.75,833,761,0
49127,704.20,833,757,0
49137,722.05,833,761,0
49147,734.55,833,757,0
49157,743.34,833,761,0
49167,749.45,833,757,0
49177,753.73,833,761,0
49187,756.73,833,757,0
49197,758.82,833,761,0
49207,755.32,833,757,0
49217,743.91,833,761,0
49227,722.68,833,757,0
49238,691.32,833,761,0
49247,649.91,833,757,0
49257,599.19,833,760,0
49267,539.82,833,757,0
49277,478.29,833,761,0
49287,418.33,833,757,0
49297,363.85,833,761,0
49307,316.62,833,757,0
49317,278.29,833,761,0
49327,249.23,833,757,0
49337,230.35,833,761,0
49347,220.94,833,757,0
49357,220.53,833,761,0
49367,227.40,833,757,0
49377,240.82,833,761,0
49387,258.88,833,757,0
49397,280.60,833,761,0
49408,303.69,833,757,0
49417,327.10,833,760,0
49427,349.23,833,757,0
49437,369.52,833,761,0
49447,386.37,833,757,0
49457,399.81,833,761,0
49467,408.91,833,757,0
49477,414.16,833,761,0
49487,415.23,833,757,0
49497,413.02,833,760,0
49507,407.48,833,757,0
49517,399.80,833,761,0
49527,389.96,833,757,0
49537,379.00,833,760,0
49547,367.13,833,757,0
49557,355.35,833,760,0
49567,343.84,833,757,0
49577,333.60,833,760,0
49587,324.38,833,757,0
49597,316.94,833,761,0
49607,310.91,833,757,0
49617,306.74,833,760,0
49627,303.82,833,758,0
49637,302.16,833,761,0
49647,301.21,833,757,0
49657,301.23,833,760,0
49667,301.59,833,757,0
49677,302.61,833,761,0
49687,303.84,833,757,0
49697,305.82,833,760,0
49708,308.19,833,757,0
49718,311.13,833,760,0
49728,314.39,833,757,0
49738,318.05,833,760,0
49748,321.97,833,758,0
49758,326.27,833,761,0
49768,330.52,833,757,0
49778,334.99,833,760,0
49788,339.88,833,757,0
49798,346.00,833,760,0
49808,354.44,833,757,0
49818,367.04,833,760,0
49828,386.14,833,758,0
49838,413.78,833,761,0
49848,450.36,833,757,0
49858,492.64,833,760,0
49868,537.83,833,757,0
49888,583.44,814,757,0
49891,626.59,814,759,0
49900,664.26,814,759,0
49910,693.97,814,758,0
49921,714.76,814,760,0
49931,729.36,814,759,0
49941,739.58,814,759,0
49951,746.78,814,759,0
49961,751.77,814,759,0
49971,755.31,814,759,0
49981,757.75,814,759,0
49991,759.49,814,759,0
50001,758.79,814,759,0
50011,752.90,814,759,0
50021,738.96,814,759,0
50031,715.95,814,759,0
50041,682.97,814,759,0
50051,640.85,814,759,0
50061,589.72,814,759,0
50071,532.76,814,759,0
50081,473.86,814,759,0
50092,417.76,814,759,0
50102,366.70,814,759,0
50112,323.64,814,759,0
50122,288.86,814,759,0
50132,264.13,814,760,0
50142,248.75,814,759,0
50152,243.08,814,759,0
50162,245.63,814,759,0
50172,255.90,814,760,0
50182,271.53,814,759,0
50192,291.60,814,759,0
50202,313.45,814,759,0
50212,336.33,814,760,0
50222,357.91,814,759,0
50232,377.61,814,759,0
50242,393.71,814,759,0
50252,406.31,814,760,0
50263,414.28,814,758,0
50273,418.31,814,760,0
50283,417.83,814,758,0
50293,414.07,814,760,0
50304,406.76,814,758,0
50313,397.70,814,760,0
50323,386.74,814,758,0
50333,375.42,814,760,0
50343,363.50,814,758,0
50353,352.42,814,760,0
50363,341.84,814,758,0
50373,332.93,814,760,0
50383,324.89,814,758,0
50393,318.75,814,760,0
50403,313.73,814,758,0
50413,310.64,814,760,0
50423,308.60,814,758,0
50433,308.21,814,760,0
50443,308.40,814,758,0
50453,309.70,814,760,0
50463,311.07,814,758,0
50473,313.28,814,760,0
50483,315.34,814,758,0
50493,317.94,814,760,0
50503,320.10,814,758,0
50513,322.90,814,760,0
50523,325.33,814,758,0
50533,328.19,814,760,0
50543,330.49,814,758,0
50553,333.13,814,760,0
50563,335.15,814,758,0
50573,337.42,814,760,0
50583,339.31,814,758,0
50593,342.60,814,760,0
50604,347.86,814,758,0
50614,358.10,814,760,0
50624,375.13,814,758,0
50634,402.86,814,760,0
50644,440.06,814,758,0
50654,483.80,814,760,0
50664,530.79,814,758,0
50683,578.64,795,756,0
50685,623.83,795,758,0
50695,663.40,795,761,0
50705,693.41,795,758,0
50715,714.41,795,760,0
50725,729.07,795,758,0
50735,739.34,795,761,0
50745,746.52,795,758,0
50755,751.55,795,760,0
50765,755.07,795,758,0
50775,757.58,795,761,0
50785,759.33,795,758,0
50795,760.60,795,760,0
50805,761.49,795,758,0
50816,760.02,795,761,0
50825,752.77,795,758,0
50835,737.58,795,760,0
50845,712.81,795,758,0
50855,678.41,795,761,0
50865,634.61,795,758,0
50875,582.36,795,760,0
50885,524.35,795,758,0
50895,465.62,795,761,0
50905,409.46,795,758,0
50915,359.31,795,760,0
50925,316.27,795,758,0
50935,281.78,795,760,0
50945,255.79,795,758,0
50955,239.31,795,760,0
50965,231.29,795,757,0
50975,231.63,795,761,0
50985,238.38,795,758,0
50995,251.04,795,761,0
51005,267.44,795,757,0
51015,286.72,795,760,0
51025,306.56,795,758,0
51035,326.19,795,760,0
51045,343.75,795,758,0
51055,359.13,795,761,0
51065,371.09,795,758,0
51075,380.06,795,761,0
51085,385.31,795,758,0
51095,387.75,795,761,0
51105,386.97,795,758,0
51116,384.11,795,761,0
51126,379.10,795,758,0
51136,372.86,795,761,0
51146,365.31,795,757,0
51156,357.51,795,761,0
51166,349.04,795,757,0
51176,341.01,795,761,0
51186,332.95,795,757,0
51196,325.68,795,761,0
51206,318.92,795,757,0
51216,313.16,795,761,0
51226,308.01,795,757,0
51236,303.98,795,761,0
51246,300.56,795,757,0
51256,298.25,795,761,0
51266,296.42,795,757,0
51276,295.61,795,761,0
51287,295.34,795,757,0
51297,295.92,795,761,0
51307,297.10,795,758,0
51317,298.87,795,760,0
51328,301.05,795,757,0
51337,303.78,795,760,0
51347,306.50,795,758,0
51357,309.35,795,761,0
51367,312.03,795,757,0
51377,314.72,795,760,0
51387,317.68,795,758,0
51397,321.85,795,761,0
51407,328.71,795,757,0
51417,340.15,795,760,0
51427,358.62,795,758,0
51437,387.11,795,761,0
51447,425.60,795,757,0
51457,470.81,795,761,0
51467,519.42,795,758,0
51486,568.50,803,757,0
51488,615.23,803,759,0
51499,656.35,803,760,0
51508,688.47,803,758,0
51518,710.96,803,760,0
51528,726.66,803,758,0
51538,737.65,803,760,0
51548,745.38,803,758,0
51558,750.75,803,760,0
51568,754.51,803,758,0
51578,757.10,803,760,0
51588,758.96,803,758,0
51598,760.30,803,760,0
51608,760.81,803,758,0
51618,756.15,803,760,0
51628,743.93,803,758,0
51638,722.23,803,760,0
51648,690.36,803,758,0
51658,648.29,803,760,0
51668,596.78,803,758,0
51678,537.36,803,760,0
51688,475.84,803,758,0
51698,416.14,803,760,0
51708,362.01,803,758,0
51718,315.55,803,760,0
51728,278.40,803,758,0
51738,251.07,803,760,0
51748,233.90,803,758,0
51758,226.09,803,760,0
51768,226.88,803,758,0
51778,234.93,803,760,0
51788,249.05,803,758,0
51799,267.42,803,760,0
51809,288.68,803,758,0
51819,310.68,803,760,0
51829,332.54,803,758,0
51840,352.74,803,759,0
51849,370.52,803,758,0
51859,384.89,803,759,0
51869,395.55,803,758,0
51879,402.07,803,760,0
51889,405.05,803,758,0
51899,404.26,803,759,0
51909,400.76,803,758,0
51919,394.40,803,760,0
51929,386.39,803,758,0
51939,376.93,803,759,0
51949,366.97,803,758,0
51959,356.43,803,760,0
51969,346.32,803,758,0
51979,336.49,803,759,0
51989,327.69,803,758,0
51999,319.43,803,759,0
52009,312.53,803,759,0
52019,306.45,803,759,0
52029,301.73,803,758,0
52039,297.96,803,760,0
52049,295.40,803,758,0
52059,293.74,803,759,0
52069,293.13,803,758,0
52079,292.96,803,759,0
52089,293.87,803,758,0
52099,295.37,803,759,0
52109,297.66,803,758,0
52119,300.16,803,759,0
52129,303.28,803,758,0
52140,306.50,803,759,0
52150,310.21,803,758,0
52160,313.62,803,759,0
52170,317.50,803,759,0
52180,321.85,803,758,0
52190,328.24,803,758,0
52200,337.51,803,759,0
52210,352.49,803,759,0
52220,374.97,803,758,0
52230,407.51,803,759,0
52240,448.24,803,759,0
52250,494.20,803,759,0
52260,542.18,803,759,0
52279,589.70,793,758,0
52281,633.42,793,759,0
52291,670.58,793,760,0
52301,698.43,793,758,0
52311,717.97,793,759,0
52321,731.65,793,759,0
52331,741.23,793,760,0
52341,747.89,793,758,0
52352,752.51,793,760,0
52361,755.70,793,759,0
52371,757.97,793,760,0
52381,759.53,793,758,0
52391,759.07,793,760,0
52401,752.66,793,759,0
52411,737.98,793,759,0
52421,713.04,793,758,0
52431,677.84,793,760,0
52441,632.50,793,759,0
52451,578.05,793,759,0
52461,516.84,793,758,0
52471,454.74,793,759,0
52481,395.55,793,759,0
52491,343.48,793,759,0
52501,300.01,793,758,0
52511,267.09,793,760,0
52521,244.74,793,758,0
52531,233.50,793,759,0
52541,231.85,793,758,0
52551,239.31,793,759,0
52561,253.66,793,758,0
52571,273.73,793,759,0
52581,296.53,793,758,0
52591,321.01,793,759,0
52601,344.79,793,758,0
52611,367.48,793,759,0
52621,387.01,793,758,0
52631,403.04,793,759,0
52641,414.21,793,758,0
52652,421.30,793,760,0
52662,423.57,793,758,0
52672,422.07,793,760,0
52682,416.35,793,758,0
52692,408.02,793,760,0
52702,397.04,793,758,0
52712,385.07,793,759,0
52722,372.02,793,758,0
52732,359.33,793,760,0
52742,346.93,793,758,0
52752,336.07,793,760,0
52762,326.19,793,758,0
52772,318.37,793,760,0
52782,311.79,793,758,0
52792,307.40,793,759,0
52802,304.23,793,758,0
52812,303.01,793,760,0
52823,302.62,793,758,0
52833,303.68,793,760,0
52843,305.19,793,757,0
52853,307.79,793,760,0
52864,310.34,793,757,0
52873,313.62,793,760,0
52883,316.44,793,758,0
52893,319.60,793,760,0
52903,322.21,793,757,0
52913,324.93,793,760,0
52923,327.01,793,757,0
52933,329.36,793,760,0
52943,331.87,793,757,0
52953,336.37,793,759,0
52963,343.80,793,757,0
52973,357.40,793,760,0
52983,379.27,793,757,0
52993,412.40,793,760,0
53003,453.55,793,758,0
53013,499.84,793,760,0
53023,548.19,793,758,0
53033,596.00,793,760,0
53052,639.63,773,759,0
53054,676.04,773,761,0
53064,702.17,773,757,0
53074,720.46,773,760,0
53084,733.27,773,757,0
53094,742.27,773,760,0
53104,748.58,773,758,0
53114,752.99,773,760,0
53124,756.04,773,757,0
53134,758.21,773,760,0
53144,759.73,773,758,0
53154,760.80,773,760,0
53164,761.50,773,757,0
53174,761.99,773,761,0
53184,757.15,773,757,0
53194,743.99,773,760,0
53204,720.38,773,757,0
53214,686.54,773,760,0
53224,642.15,773,757,0
53234,588.23,773,760,0
53244,525.85,773,757,0
53254,462.21,773,760,0
53264,401.63,773,757,0
53274,348.38,773,760,0
53284,303.66,773,757,0
53294,269.60,773,760,0
53304,246.15,773,757,0
53314,233.59,773,760,0
53324,230.46,773,757,0
53335,236.19,773,760,0
53345,248.56,773,757,0
53355,266.31,773,760,0
53365,287.13,773,757,0
53376,309.68,773,760,0
53385,331.85,773,757,0
53395,352.59,773,760,0
53405,370.20,773,757,0
53415,384.24,773,760,0
53425,393.94,773,757,0
53435,399.36,773,760,0
53445,400.32,773,757,0
53455,397.61,773,760,0
53465,391.51,773,757,0
53475,383.52,773,760,0
53485,373.72,773,757,0
53495,363.30,773,760,0
53505,352.67,773,757,0
53515,342.83,773,760,0
53525,334.09,773,757,0
53535,326.99,773,760,0
53545,321.12,773,757,0
53555,317.10,773,760,0
53565,314.37,773,757,0
53575,313.19,773,760,0
53585,313.05,773,757,0
53595,313.67,773,760,0
53605,314.63,773,757,0
53615,315.98,773,760,0
53625,317.53,773,757,0
53635,319.51,773,761,0
53645,321.42,773,757,0
53655,323.52,773,760,0
53665,325.46,773,757,0
53676,327.51,773,760,0
53686,329.20,773,757,0
53696,330.73,773,760,0
53706,331.92,773,757,0
53716,333.32,773,760,0
53726,335.28,773,757,0
53736,339.35,773,760,0
53746,347.30,773,757,0
53756,361.91,773,760,0
53766,385.25,773,757,0
53776,419.85,773,760,0
53786,462.02,773,758,0
53796,508.82,773,760,0
53815,557.30,763,759,0
53817,604.44,763,759,0
53827,646.91,763,758,0
53837,681.82,763,760,0
53847,706.26,763,758,0
53857,723.37,763,760,0
53867,735.34,763,758,0
53877,743.73,763,760,0
53888,749.55,763,758,0
53897,753.59,763,760,0
53907,756.45,763,758,0
53917,758.46,763,760,0
53927,759.86,763,758,0
53937,760.85,763,760,0
53947,759.69,763,758,0
53957,752.46,763,760,0
53967,736.72,763,758,0
53977,711.30,763,760,0
53987,675.94,763,758,0
53997,630.62,763,759,0
54007,576.52,763,758,0
54017,516.53,763,760,0
54027,456.42,763,758,0
54037,399.89,763,759,0
54047,349.87,763,758,0
54057,308.25,763,759,0
54067,276.55,763,758,0
54077,254.78,763,760,0
54087,243.02,763,758,0
54097,240.18,763,759,0
54107,245.49,763,758,0
54117,257.34,763,760,0
54127,274.42,763,758,0
54137,294.74,763,759,0
54147,316.67,763,758,0
54157,338.46,763,759,0
54167,358.85,763,758,0
54177,376.59,763,759,0
54188,391.12,763,758,0
54198,401.20,763,759,0
54208,407.31,763,758,0
54218,409.10,763,759,0
54228,407.40,763,758,0
54238,402.35,763,759,0
54248,394.92,763,758,0
54258,385.30,763,759,0
54268,374.92,763,758,0
54278,363.80,763,759,0
54288,353.06,763,758,0
54298,342.50,763,759,0
54308,333.18,763,758,0
54318,324.94,763,759,0
54328,318.57,763,758,0
54338,313.64,763,759,0
54348,310.58,763,758,0
54359,308.91,763,759,0
54369,308.98,763,759,0
54379,309.93,763,758,0
54389,312.13,763,759,0
54400,314.58,763,758,0
54409,317.58,763,759,0
54419,320.28,763,758,0
54429,323.24,763,759,0
54439,325.78,763,758,0
54449,328.42,763,759,0
54459,330.35,763,758,0
54469,332.39,763,759,0
54479,333.73,763,758,0
54489,335.35,763,758,0
54499,336.62,763,758,0
54509,338.83,763,759,0
54519,342.57,763,758,0
54529,349.94,763,759,0
54539,362.56,763,758,0
54549,383.99,763,759,0
54559,416.05,763,759,0
54569,456.49,763,759,0
54579,501.82,763,759,0
54589,549.40,763,759,0
54608,596.29,793,758,0
54611,639.71,793,761,0
54620,675.88,793,758,0
54630,702.06,793,760,0
54640,720.38,793,758,0
54650,733.21,793,760,0
54660,742.19,793,758,0
54670,748.52,793,760,0
54680,752.91,793,758,0
54690,756.02,793,760,0
54700,758.20,793,758,0
54710,759.73,793,760,0
54720,760.79,793,758,0
54730,758.84,793,760,0
54740,749.89,793,758,0
54750,732.39,793,759,0
54760,704.55,793,758,0
54770,666.41,793,760,0
54780,617.99,793,758,0
54790,560.73,793,759,0
54800,498.11,793,758,0
54810,436.37,793,760,0
54820,378.48,793,758,0
54830,328.54,793,759,0
54840,287.75,793,758,0
54850,258.04,793,760,0
54860,238.91,793,758,0
54871,231.14,793,759,0
54881,232.60,793,757,0
54891,243.00,793,760,0
54901,259.67,793,757,0
54912,281.63,793,760,0
54921,306.00,793,758,0
54931,331.76,793,760,0
54941,356.26,793,757,0
54951,379.02,793,760,0
54961,397.79,793,757,0
54971,412.72,793,760,0
54981,422.58,793,757,0
54991,428.23,793,760,0
55001,429.06,793,758,0
55011,426.26,793,760,0
55021,419.67,793,757,0
55031,410.81,793,759,0
55041,399.81,793,758,0
55051,388.34,793,760,0
55061,376.19,793,757,0
55071,364.78,793,760,0
55081,353.66,793,757,0
55091,344.20,793,760,0
55101,335.83,793,757,0
55111,329.32,793,760,0
55121,323.74,793,757,0
55131,319.92,793,760,0
55141,316.90,793,757,0
55151,315.47,793,760,0
55161,314.52,793,757,0
55171,314.75,793,760,0
55181,315.21,793,758,0
55191,316.73,793,760,0
55201,318.40,793,757,0
55212,320.72,793,760,0
55222,322.86,793,757,0
55232,325.47,793,760,0
55242,327.82,793,757,0
55252,330.49,793,760,0
55262,332.61,793,757,0
55272,335.04,793,760,0
55282,337.77,793,757,0
55292,342.90,793,760,0
55302,351.16,793,757,0
55312,365.55,793,760,0
55322,388.32,793,757,0
55332,422.38,793,760,0
55342,463.84,793,757,0
55352,510.04,793,760,0
55362,557.64,793,757,0
55382,604.42,773,756,0
55384,646.85,773,757,0
55394,681.78,773,760,0
55404,706.23,773,757,0
55414,723.39,773,760,0
55425,735.40,773,757,0
55435,743.81,773,760,0
55445,749.65,773,757,0
55455,753.70,773,760,0
55465,756.53,773,758,0
55475,758.52,773,760,0
55485,759.86,773,757,0
55495,760.80,773,760,0
55505,757.30,773,758,0
55515,746.67,773,760,0
55525,726.93,773,757,0
55535,697.08,773,760,0
55545,657.15,773,757,0
55555,607.91,773,760,0
55565,550.16,773,757,0
55575,489.51,773,760,0
55585,430.17,773,757,0
55596,375.87,773,760,0
55606,329.45,773,758,0
55616,292.37,773,759,0
55626,265.47,773,758,0
55636,249.00,773,759,0
55646,242.27,773,757,0
55656,244.46,773,760,0
55666,254.40,773,758,0
55676,270.13,773,759,0
55686,290.02,773,758,0
55696,311.92,773,759,0
55706,334.44,773,758,0
55716,355.95,773,759,0
55726,375.29,773,758,0
55736,391.06,773,760,0
55746,402.92,773,759,0
55756,410.48,773,760,0
55767,413.98,773,759,0
55777,413.22,773,760,0
55787,409.21,773,759,0
55797,401.99,773,760,0
55808,392.91,773,759,0
55817,382.18,773,760,0
55827,370.81,773,759,0
55837,359.17,773,760,0
55847,348.15,773,759,0
55857,337.69,773,760,0
55867,328.70,773,759,0
55877,320.73,773,760,0
55887,314.51,773,759,0
55897,309.51,773,760,0
55907,306.10,773,759,0
55917,303.80,773,760,0
55927,302.92,773,759,0
55937,302.81,773,760,0
55947,303.90,773,759,0
55957,305.39,773,760,0
55967,307.76,773,759,0
55977,310.27,773,759,0
55987,313.40,773,759,0
55997,316.45,773,760,0
56007,319.96,773,759,0
56017,322.97,773,760,0
56027,326.15,773,759,0
56037,328.76,773,760,0
56047,331.36,773,759,0
56057,333.48,773,760,0
56067,336.12,773,761,0
56077,339.73,773,759,0
56087,346.62,773,758,0
56097,358.39,773,759,0
56108,378.59,773,759,0
56118,409.66,773,759,0
56128,449.45,773,758,0
56138,494.61,773,759,0
56148,542.60,773,759,0
56167,590.25,786,758,0
56169,634.75,786,760,0
56179,672.19,786,758,0
56189,699.56,786,760,0
56199,718.72,786,758,0
56209,732.13,786,760,0
56219,741.48,786,758,0
56229,748.06,786,760,0
56239,752.63,786,758,0
56249,755.83,786,759,0
56259,758.02,786,758,0
56269,759.60,786,760,0
56279,760.71,786,758,0
56289,761.48,786,760,0
56299,761.34,786,758,0
56309,756.48,786,760,0
56320,743.48,786,758,0
56329,721.22,786,759,0
56339,688.63,786,758,0
56349,646.18,786,760,0
56359,594.14,786,758,0
56369,534.87,786,759,0
56379,473.28,786,758,0
56389,414.95,786,760,0
56399,362.30,786,758,0
56409,318.49,786,760,0
56419,284.23,786,758,0
56429,261.10,786,760,0
56439,248.04,786,758,0
56449,245.16,786,759,0
56459,250.47,786,758,0
56469,263.19,786,760,0
56479,280.62,786,758,0
56489,301.73,786,760,0
56499,323.67,786,758,0
56509,345.67,786,760,0
56519,365.48,786,758,0
56529,382.69,786,759,0
56539,396.07,786,757,0
56549,405.95,786,759,0
56559,411.28,786,757,0
56569,413.17,786,760,0
56579,410.93,786,757,0
56589,406.15,786,760,0
56599,398.48,786,758,0
56609,389.16,786,760,0
56620,378.06,786,757,0
56630,366.60,786,760,0
56640,354.50,786,757,0
56650,343.47,786,760,0
56660,332.83,786,757,0
56670,323.88,786,760,0
56680,315.99,786,757,0
56690,310.29,786,760,0
56700,305.96,786,757,0
56710,303.79,786,760,0
56720,302.61,786,757,0
56730,303.07,786,760,0
56740,304.20,786,757,0
56750,306.71,786,760,0
56760,309.37,786,757,0
56770,312.99,786,760,0
56780,316.51,786,757,0
56791,320.60,786,760,0
56801,324.28,786,757,0
56811,328.09,786,760,0
56821,331.11,786,756,0
56832,333.99,786,760,0
56841,335.88,786,757,0
56851,337.59,786,760,0
56861,338.35,786,756,0
56871,339.58,786,760,0
56881,341.29,786,757,0
56891,345.75,786,760,0
56901,354.22,786,757,0
56911,370.36,786,760,0
56921,395.62,786,757,0
56931,431.61,786,760,0
56941,474.32,786,757,0
56951,521.28,786,760,0
56970,569.07,803,759,0
56973,615.16,803,761,0
56982,655.53,803,757,0
56992,687.81,803,760,0
57003,710.41,803,757,0
57012,726.23,803,760,0
57022,737.30,803,757,0
57032,745.06,803,760,0
57042,750.44,803,757,0
57052,754.21,803,760,0
57062,756.85,803,757,0
57072,758.69,803,760,0
57082,759.98,803,757,0
57092,760.89,803,760,0
57102,759.51,803,757,0
57112,752.50,803,760,0
57122,737.01,803,757,0
57132,712.28,803,760,0
57142,677.48,803,757,0
57152,633.02,803,760,0
57162,579.49,803,757,0
57172,520.28,803,760,0
57182,460.20,803,757,0
57192,404.12,803,760,0
57202,354.20,803,757,0
57212,313.30,803,760,0
57222,282.35,803,757,0
57232,262.23,803,760,0
57242,252.39,803,757,0
57252,252.19,803,760,0
57262,259.67,803,757,0
57272,274.04,803,760,0
57282,292.72,803,757,0
57292,314.36,803,760,0
57303,336.62,803,757,0
57313,358.04,803,760,0
57323,377.10,803,757,0
57333,393.14,803,760,0
57344,404.84,803,757,0
57353,412.52,803,760,0
57363,415.62,803,757,0
57373,414.79,803,760,0
57383,410.35,803,757,0
57393,403.13,803,760,0
57403,393.71,803,757,0
57413,382.95,803,760,0
57423,371.35,803,757,0
57433,359.72,803,760,0
57443,348.40,803,757,0
57453,338.08,803,760,0
57463,328.84,803,757,0
57473,321.13,803,759,0
57483,314.75,803,757,0
57493,309.73,803,760,0
57503,306.04,803,757,0
57513,303.80,803,759,0
57523,302.66,803,757,0
57533,302.59,803,760,0
57543,303.06,803,757,0
57553,304.28,803,759,0
57563,305.95,803,757,0
57573,308.03,803,760,0
57583,310.12,803,757,0
57593,312.18,803,759,0
57603,314.10,803,757,0
57613,316.13,803,760,0
57623,318.15,803,757,0
57633,320.29,803,759,0
57644,322.39,803,758,0
57654,324.50,803,760,0
57664,326.71,803,758,0
57674,329.15,803,759,0
57684,332.58,803,758,0
57694,337.76,803,760,0
57704,346.23,803,758,0
57714,360.22,803,759,0
57724,382.83,803,758,0
57734,416.14,803,760,0
57744,457.41,803,758,0
57754,503.27,803,759,0
57774,551.19,803,758,0
57776,598.36,803,759,0
57786,641.67,803,759,0
57796,677.47,803,759,0
57806,703.21,803,759,0
57816,721.23,803,759,0
57826,733.89,803,759,0
57836,742.75,803,759,0
57846,748.96,803,759,0
57857,753.25,803,759,0
57867,756.31,803,759,0
57877,758.44,803,758,0
57887,759.98,803,759,0
57897,761.02,803,758,0
57907,760.67,803,759,0
57917,754.47,803,758,0
57927,740.14,803,759,0
57937,715.46,803,758,0
57947,680.82,803,759,0
57957,635.70,803,759,0
57967,581.45,803,759,0
57977,519.77,803,758,0
57987,457.27,803,759,0
57997,397.57,803,758,0
58007,345.07,803,759,0
58017,300.82,803,758,0
58028,267.45,803,759,0
58038,244.68,803,758,0
58048,233.51,803,760,0
58058,232.24,803,758,0
58068,240.53,803,760,0
58078,255.67,803,758,0
58088,276.42,803,760,0
58098,299.83,803,758,0
58108,324.65,803,760,0
58118,348.11,803,758,0
58128,369.34,803,759,0
58138,386.25,803,758,0
58148,399.20,803,760,0
58158,407.03,803,758,0
58168,410.62,803,759,0
58178,409.32,803,758,0
58188,404.68,803,760,0
58199,396.63,803,758,0
58209,386.93,803,760,0
58219,375.42,803,758,0
58229,363.81,803,760,0
58240,351.82,803,757,0
58249,341.03,803,760,0
58259,330.78,803,758,0
58269,322.23,803,760,0
58279,314.75,803,758,0
58289,309.12,803,759,0
58299,304.50,803,758,0
58309,301.69,803,760,0
58319,299.81,803,757,0
58329,299.57,803,759,0
58339,299.96,803,757,0
58349,301.60,803,760,0
58359,303.73,803,758,0
58369,307.03,803,759,0
58379,310.45,803,758,0
58389,314.68,803,760,0
58399,318.81,803,757,0
58409,323.54,803,760,0
58419,327.79,803,758,0
58429,332.31,803,760,0
58439,336.03,803,758,0
58449,339.75,803,760,0
58459,342.40,803,758,0
58469,344.89,803,760,0
58479,346.68,803,757,0
58489,349.22,803,760,0
58499,352.80,803,757,0
58509,360.14,803,760,0
58519,372.79,803,757,0
58529,394.36,803,760,0
58540,426.61,803,757,0
58550,466.80,803,760,0
58560,511.60,803,757,0
58579,558.61,806,756,0
58583,604.54,806,757,0
58591,646.68,806,761,0
58601,681.32,806,757,0
58611,705.91,806,760,0
58621,723.12,806,757,0
58631,735.17,806,760,0
58641,743.61,806,757,0
58651,749.47,806,760,0
58661,753.53,806,757,0
58671,756.37,806,760,0
58681,758.36,806,757,0
58691,759.75,806,760,0
58701,760.73,806,757,0
58711,760.42,806,760,0
58721,754.60,806,757,0
58731,740.79,806,760,0
58741,717.28,806,757,0
58752,683.81,806,760,0
58761,640.71,806,757,0
58771,588.85,806,760,0
58781,530.18,806,757,0
58791,470.56,806,760,0
58801,414.03,806,757,0
58811,364.31,806,760,0
58821,322.90,806,757,0
58831,291.39,806,760,0
58841,269.76,806,757,0
58851,258.47,806,760,0
58861,256.45,806,757,0
58871,262.78,806,760,0
58881,275.19,806,757,0
58891,292.58,806,760,0
58901,312.72,806,757,0
58911,334.40,806,760,0
58921,355.41,806,757,0
58931,374.83,806,760,0
58941,391.04,806,757,0
58951,403.88,806,760,0
58961,412.53,806,757,0
58971,417.09,806,760,0
58981,417.32,806,757,0
58991,414.05,806,760,0
59001,407.48,806,757,0
59011,398.89,806,760,0
59021,388.55,806,757,0
59031,377.54,806,760,0
59041,366.07,806,757,0
59052,355.20,806,760,0
59062,345.03,806,757,0
59072,336.23,806,760,0
59082,328.62,806,757,0
59092,322.69,806,760,0
59102,318.16,806,757,0
59112,315.19,806,760,0
59122,313.38,806,757,0
59132,312.84,806,760,0
59142,313.19,806,757,0
59152,314.46,806,760,0
59162,316.42,806,757,0
59172,318.91,806,760,0
59182,321.81,806,757,0
59192,325.12,806,760,0
59202,328.47,806,757,0
59212,331.80,806,760,0
59223,334.95,806,757,0
59233,337.83,806,760,0
59243,340.54,806,758,0
59253,342.86,806,759,0
59264,345.05,806,757,0
59273,347.56,806,760,0
59283,351.51,806,758,0
59293,358.17,806,759,0
59303,369.65,806,757,0
59313,388.10,806,760,0
59323,416.14,806,758,0
59333,453.13,806,760,0
59343,495.95,806,758,0
59353,541.56,806,760,0
59372,587.34,793,759,0
59374,630.31,793,760,0
59384,667.59,793,758,0
59394,696.25,793,760,0
59404,716.36,793,758,0
59414,730.44,793,760,0
59424,740.29,793,758,0
59435,747.19,793,759,0
59444,751.98,793,758,0
59454,755.33,793,759,0
59464,757.67,793,758,0
59474,759.27,793,759,0
59484,760.43,793,758,0
59494,756.96,793,759,0
59504,746.09,793,758,0
59514,725.79,793,759,0
59524,695.81,793,758,0
59534,655.92,793,759,0
59544,606.75,793,758,0
59554,549.01,793,759,0
59564,488.92,793,758,0
59574,430.66,793,759,0
