Time,PPG,IBI,GSR,GSR_Event
960128,358.53,974,751,0
960137,349.93,974,756,0
960147,338.81,974,753,0
960157,328.88,974,756,0
960167,318.42,974,752,0
960177,310.32,974,756,0
960187,302.04,974,753,0
960197,301.60,974,756,0
960207,303.65,974,752,0
960217,309.32,974,756,0
960227,315.31,974,752,0
960237,323.62,974,756,0
960247,332.30,974,752,0
960257,344.73,974,756,0
960267,359.98,974,752,0
960277,382.74,974,756,0
960287,413.03,974,752,0
960307,452.02,974,752,0
960310,495.43,974,740,0
960319,541.59,974,763,0
960329,586.84,974,750,0
960339,629.70,974,765,0
960349,666.05,974,752,0
960359,694.28,974,763,0
960369,714.08,974,751,0
960379,727.90,974,765,0
960389,737.53,974,752,0
960399,744.27,974,763,0
960409,748.99,974,750,0
960419,752.34,974,765,0
960429,754.68,974,752,0
960439,756.32,974,763,0
960449,757.46,974,750,0
960459,758.27,974,764,0
960470,758.83,974,739,0
960479,757.94,974,763,0
960489,751.79,974,750,0
960499,739.04,974,764,0
960509,718.02,974,738,0
960519,689.39,974,763,0
960529,652.54,974,748,0
960539,608.84,974,765,0
960549,559.81,974,738,0
960559,511.23,974,764,0
960569,464.75,974,746,0
960579,424.06,974,765,0
960589,389.16,974,738,0
960599,362.54,974,764,0
960609,343.01,974,745,0
960619,331.86,974,765,0
960629,327.02,974,737,0
960640,329.20,974,763,0
960649,335.87,974,747,0
960659,347.14,974,764,0
960669,360.21,974,738,0
960679,375.15,974,762,0
960689,389.33,974,748,0
960699,402.99,974,764,0
960709,414.01,974,737,0
960719,422.83,974,762,0
960729,427.85,974,744,0
960739,430.17,974,765,0
960749,428.58,974,737,0
960759,424.50,974,763,0
960769,417.24,974,746,0
960779,408.72,974,764,0
960789,398.48,974,737,0
960799,388.01,974,762,0
960809,376.78,974,737,0
960819,366.90,974,765,0
960829,357.46,974,737,0
960839,349.86,974,762,0
960849,343.05,974,737,0
960859,338.23,974,765,0
960869,334.48,974,737,0
960879,332.58,974,762,0
960889,331.16,974,737,0
960899,331.37,974,764,0
960909,331.99,974,737,0
960919,333.75,974,762,0
960929,335.67,974,737,0
960940,338.38,974,762,0
960950,341.10,974,738,0
960960,344.07,974,761,0
960970,346.83,974,741,0
960980,349.58,974,760,0
960990,351.85,974,738,0
961000,353.82,974,761,0
961010,355.29,974,741,0
961020,356.45,974,761,0
961030,357.26,974,738,0
961040,357.69,974,761,0
961050,358.17,974,741,0
961060,358.29,974,760,0
961070,358.25,974,738,0
961080,358.09,974,761,0
961090,358.02,974,741,0
961100,357.84,974,760,0
961111,357.89,974,747,0
961121,357.32,974,758,0
961131,357.48,974,750,0
961141,357.38,974,758,0
961152,357.95,974,751,0
961161,358.01,974,759,0
961171,358.56,974,750,0
961181,358.27,974,758,0
961191,358.96,974,752,0
961201,358.41,974,759,0
961211,358.33,974,750,0
961221,356.95,974,758,0
961231,356.71,974,752,0
961241,356.49,974,759,0
961251,359.47,974,750,0
961261,365.55,974,758,0
961271,379.27,974,751,0
961281,400.96,974,759,0
961300,434.06,994,757,0
961303,474.07,994,756,0
961312,519.09,994,754,0
961323,565.18,994,756,0
961332,610.21,994,753,0
961342,650.09,994,757,0
961352,683.28,994,754,0
961362,706.55,994,756,0
961372,722.84,994,753,0
961382,734.16,994,757,0
961392,742.17,994,754,0
961402,747.73,994,756,0
961412,751.67,994,753,0
961422,754.34,994,757,0
961432,756.30,994,754,0
961442,757.62,994,757,0
961452,756.58,994,753,0
961462,749.16,994,757,0
961472,735.40,994,754,0
961482,712.99,994,756,0
961492,683.55,994,756,0
961502,645.97,994,757,0
961512,602.35,994,754,0
961522,553.99,994,756,0
961532,507.45,994,755,0
961542,462.53,994,757,0
961552,424.14,994,754,0
961562,390.16,994,756,0
961572,364.10,994,756,0
961582,343.37,994,757,0
961592,331.04,994,754,0
961602,323.92,994,756,0
961612,324.46,994,756,0
961623,328.65,994,755,0
961633,338.82,994,756,0
961643,350.75,994,754,0
961653,366.30,994,757,0
961664,381.08,994,754,0
961673,397.04,994,756,0
961683,409.89,994,754,0
961693,422.05,994,757,0
961703,429.79,994,754,0
961713,436.07,994,757,0
961723,437.68,994,754,0
961733,437.77,994,757,0
961743,433.30,994,753,0
961753,427.98,994,756,0
961763,419.03,994,754,0
961773,410.06,994,757,0
961783,398.43,994,753,0
961793,387.97,994,756,0
961803,376.07,994,754,0
961813,366.23,994,757,0
961823,355.71,994,753,0
961833,348.04,994,757,0
961843,340.31,994,754,0
961853,335.72,994,757,0
961863,331.09,994,753,0
961873,329.48,994,757,0
961883,327.88,994,754,0
961893,329.03,994,757,0
961903,329.75,994,753,0
961913,332.65,994,757,0
961923,334.77,994,754,0
961933,338.78,994,757,0
961943,341.42,994,754,0
961953,345.28,994,757,0
961964,347.42,994,753,0
961974,350.77,994,758,0
961984,352.59,994,752,0
961994,355.29,994,758,0
962004,356.23,994,752,0
962014,358.39,994,758,0
962024,358.92,994,753,0
962034,360.61,994,757,0
962044,360.56,994,752,0
962054,361.55,994,758,0
962064,360.95,994,752,0
962074,361.27,994,758,0
962084,359.99,994,752,0
962094,359.86,994,757,0
962104,358.32,994,752,0
962114,358.14,994,758,0
962124,356.85,994,752,0
962135,356.98,994,758,0
962145,356.17,994,752,0
962155,356.51,994,758,0
962165,355.93,994,752,0
962176,356.38,994,763,0
962185,355.71,994,752,0
962195,355.79,994,758,0
962205,354.61,994,752,0
962215,354.04,994,763,0
962225,352.40,994,752,0
962235,351.68,994,758,0
962245,350.75,994,752,0
962255,352.28,994,763,0
962265,355.97,994,752,0
962275,365.92,994,758,0
962285,382.96,994,752,0
962305,411.09,1004,751,0
962308,448.05,1004,740,0
962317,491.45,1004,761,0
962327,537.43,1004,738,0
962337,584.14,1004,761,0
962348,627.51,1004,740,0
962358,665.25,1004,760,0
962368,693.71,1004,744,0
962378,713.64,1004,759,0
962388,727.59,1004,750,0
962398,737.36,1004,760,0
962408,744.24,1004,744,0
962418,749.05,1004,759,0
962428,752.46,1004,750,0
962438,754.81,1004,760,0
962448,756.50,1004,745,0
962458,754.20,1004,759,0
962468,746.04,1004,749,0
962478,730.34,1004,759,0
962488,706.50,1004,744,0
962498,674.21,1004,759,0
962508,634.63,1004,750,0
962519,587.86,1004,758,0
962529,539.21,1004,751,0
962539,490.72,1004,758,0
962549,446.45,1004,752,0
962560,407.06,1004,757,0
962569,375.32,1004,751,0
962579,350.20,1004,758,0
962589,333.51,1004,752,0
962599,323.11,1004,757,0
962609,320.59,1004,751,0
962619,323.07,1004,758,0
962629,331.97,1004,752,0
962639,343.68,1004,757,0
962649,358.94,1004,751,0
962659,374.35,1004,758,0
962669,391.13,1004,752,0
962679,405.75,1004,757,0
962689,419.49,1004,751,0
962699,429.42,1004,758,0
962709,437.39,1004,752,0
962719,440.92,1004,757,0
962729,442.57,1004,754,0
962739,439.66,1004,758,0
962749,435.17,1004,753,0
962759,427.06,1004,757,0
962769,418.30,1004,754,0
962779,406.94,1004,758,0
962789,396.12,1004,753,0
962799,383.52,1004,756,0
962809,372.65,1004,754,0
962819,361.61,1004,758,0
962829,353.16,1004,752,0
962839,344.84,1004,757,0
962849,339.57,1004,754,0
962860,334.56,1004,756,0
962870,332.76,1004,755,0
962880,330.95,1004,755,0
962890,331.73,1004,756,0
962900,332.07,1004,754,0
962910,334.75,1004,755,0
962920,336.33,1004,755,0
962930,339.74,1004,756,0
962940,341.66,1004,754,0
962950,345.36,1004,755,0
962960,347.35,1004,755,0
962970,350.85,1004,756,0
962980,352.48,1004,754,0
962990,355.59,1004,755,0
963000,356.96,1004,755,0
963010,359.71,1004,756,0
963020,360.53,1004,755,0
963031,362.64,1004,757,0
963041,362.83,1004,753,0
963051,364.26,1004,757,0
963061,363.79,1004,753,0
963072,364.41,1004,757,0
963081,363.26,1004,753,0
963091,363.44,1004,757,0
963101,361.98,1004,753,0
963111,361.81,1004,757,0
963121,360.20,1004,753,0
963131,360.14,1004,757,0
963141,358.81,1004,753,0
963151,358.78,1004,757,0
963161,357.26,1004,753,0
963171,357.18,1004,757,0
963181,355.67,1004,754,0
963191,355.51,1004,757,0
963201,353.64,1004,754,0
963211,353.02,1004,757,0
963221,351.04,1004,753,0
963231,350.52,1004,757,0
963241,349.03,1004,753,0
963251,350.48,1004,757,0
963261,353.16,1004,753,0
963271,361.99,1004,757,0
963281,376.43,1004,753,0
963291,401.38,1004,757,0
963310,435.89,1006,756,0
963313,478.05,1006,760,0
963322,523.29,1006,752,0
963332,570.31,1006,758,0
963342,614.61,1006,753,0
963352,654.59,1006,758,0
963362,686.17,1006,752,0
963372,708.45,1006,757,0
963382,724.00,1006,753,0
963392,734.93,1006,758,0
963402,742.53,1006,752,0
963412,747.86,1006,758,0
963422,751.59,1006,753,0
963432,754.20,1006,758,0
963442,755.98,1006,752,0
963452,755.77,1006,758,0
963462,749.93,1006,753,0
963472,737.73,1006,758,0
963482,716.94,1006,752,0
963492,688.33,1006,758,0
963502,651.50,1006,752,0
963512,608.20,1006,758,0
963522,559.49,1006,752,0
963532,511.22,1006,758,0
963543,464.35,1006,752,0
963553,423.32,1006,759,0
963563,387.61,1006,752,0
963573,359.57,1006,765,0
963584,337.71,1006,741,0
963593,324.34,1006,759,0
963603,317.21,1006,751,0
963613,317.49,1006,765,0
963623,322.66,1006,741,0
963633,333.35,1006,759,0
963643,346.70,1006,751,0
963653,362.95,1006,765,0
963663,379.08,1006,742,0
963673,395.55,1006,759,0
963683,409.62,1006,752,0
963693,422.03,1006,765,0
963703,430.76,1006,742,0
963713,437.05,1006,760,0
963723,439.18,1006,752,0
963733,438.65,1006,765,0
963743,434.21,1006,741,0
963753,427.81,1006,764,0
963763,418.69,1006,752,0
963773,408.67,1006,766,0
963783,396.77,1006,740,0
963793,385.10,1006,765,0
963803,372.81,1006,752,0
963813,361.85,1006,766,0
963823,351.40,1006,740,0
963833,342.71,1006,764,0
963843,334.74,1006,751,0
963853,329.03,1006,766,0
963863,324.22,1006,740,0
963873,321.54,1006,764,0
963884,319.71,1006,737,0
963894,319.54,1006,761,0
963904,319.93,1006,737,0
963914,321.75,1006,761,0
963924,324.06,1006,739,0
963934,327.51,1006,762,0
963944,330.91,1006,737,0
963954,335.05,1006,761,0
963964,339.28,1006,739,0
963974,343.87,1006,761,0
963984,347.98,1006,737,0
963994,351.84,1006,761,0
964004,355.15,1006,739,0
964014,358.36,1006,761,0
964024,360.65,1006,737,0
964034,362.43,1006,761,0
964044,363.54,1006,739,0
964055,364.32,1006,760,0
964065,364.87,1006,743,0
964075,365.04,1006,759,0
964085,365.15,1006,748,0
964096,364.98,1006,758,0
964105,364.77,1006,742,0
964115,364.24,1006,760,0
964125,364.04,1006,749,0
964135,363.13,1006,758,0
964145,362.23,1006,743,0
964155,360.62,1006,760,0
964165,359.49,1006,749,0
964175,357.63,1006,758,0
964185,356.07,1006,743,0
964195,353.82,1006,759,0
964205,352.33,1006,749,0
964215,350.60,1006,758,0
964225,349.87,1006,743,0
964235,350.08,1006,759,0
964245,353.91,1006,749,0
964255,362.04,1006,758,0
964265,377.84,1006,750,0
964275,401.97,1006,759,0
964285,436.87,1006,749,0
964304,478.52,994,750,0
964307,524.27,994,756,0
964316,570.60,994,758,0
964326,615.25,994,752,0
964336,654.39,994,758,0
964346,686.29,994,753,0
964356,708.61,994,758,0
964366,724.33,994,752,0
964376,735.29,994,758,0
964386,743.00,994,753,0
964396,748.32,994,758,0
964406,752.08,994,752,0
964416,754.63,994,758,0
964426,756.45,994,753,0
964436,753.02,994,757,0
964446,743.54,994,752,0
964456,725.29,994,757,0
964466,698.98,994,753,0
964476,663.37,994,757,0
964486,620.66,994,752,0
964496,570.40,994,757,0
964506,519.63,994,753,0
964516,468.95,994,756,0
964526,423.88,994,752,0
964536,383.89,994,757,0
964546,352.94,994,753,0
964556,328.57,994,757,0
964567,313.57,994,755,0
964577,304.83,994,756,0
964587,304.88,994,756,0
964597,309.97,994,755,0
964608,321.77,994,757,0
964617,335.64,994,756,0
964627,353.36,994,756,0
964637,370.65,994,754,0
964647,389.44,994,757,0
964657,405.55,994,756,0
964667,421.03,994,756,0
964677,431.86,994,754,0
964687,441.03,994,757,0
964697,445.14,994,756,0
964707,447.37,994,756,0
964717,444.56,994,755,0
964727,440.15,994,757,0
964737,431.32,994,755,0
964747,422.09,994,756,0
964757,409.81,994,754,0
964767,398.25,994,757,0
964777,384.63,994,754,0
964787,373.09,994,756,0
964797,360.80,994,755,0
964807,351.61,994,757,0
964817,342.25,994,754,0
964827,336.22,994,756,0
964837,330.32,994,754,0
964847,328.00,994,757,0
964857,325.64,994,754,0
964867,326.26,994,756,0
964877,326.23,994,754,0
964887,328.82,994,757,0
964897,330.67,994,754,0
964908,334.58,994,757,0
964918,337.02,994,753,0
964928,340.87,994,757,0
964938,343.31,994,753,0
964948,347.29,994,758,0
964958,349.73,994,753,0
964968,353.33,994,757,0
964978,355.24,994,753,0
964988,358.43,994,758,0
964998,360.10,994,753,0
965008,362.73,994,757,0
965018,363.62,994,753,0
965028,365.54,994,757,0
965038,365.85,994,753,0
965048,367.31,994,757,0
965058,367.21,994,753,0
965068,368.14,994,757,0
965079,367.58,994,752,0
965089,368.09,994,758,0
965099,367.04,994,752,0
965109,366.77,994,758,0
965120,365.08,994,751,0
965129,364.41,994,758,0
965139,362.53,994,752,0
965149,361.69,994,758,0
965159,359.77,994,751,0
965169,359.02,994,758,0
965179,357.60,994,752,0
965189,357.94,994,758,0
965199,358.68,994,752,0
965209,363.19,994,758,0
965219,370.89,994,752,0
965229,386.01,994,758,0
965239,408.51,994,751,0
965258,441.78,954,752,0
965261,481.41,954,739,0
965270,525.47,954,764,0
965280,570.07,954,747,0
965291,613.76,954,765,0
965300,652.45,954,752,0
965310,684.63,954,764,0
965320,707.37,954,749,0
965330,723.29,954,764,0
965340,734.39,954,752,0
965350,742.20,954,764,0
965360,747.63,954,747,0
965370,751.42,954,765,0
965380,754.04,954,752,0
965390,752.74,954,764,0
965400,744.08,954,748,0
965410,727.38,954,764,0
965420,701.51,954,752,0
965430,667.37,954,765,0
965440,624.70,954,746,0
965450,575.08,954,765,0
965460,522.00,954,737,0
965470,471.13,954,765,0
965480,423.82,954,746,0
965490,383.41,954,765,0
965500,349.73,954,738,0
965510,324.83,954,764,0
965520,307.48,954,745,0
965530,298.85,954,765,0
965540,297.09,954,738,0
965550,302.68,954,765,0
965560,312.93,954,746,0
965570,328.00,954,764,0
965580,345.27,954,737,0
965591,364.82,954,762,0
965601,384.07,954,737,0
965611,402.74,954,761,0
965621,418.89,954,738,0
965632,432.76,954,760,0
965641,442.73,954,738,0
965651,449.50,954,761,0
965661,451.96,954,738,0
965671,451.07,954,760,0
965681,446.64,954,737,0
965691,439.72,954,761,0
965701,430.33,954,738,0
965711,419.43,954,760,0
965721,407.13,954,738,0
965731,394.58,954,760,0
965741,382.15,954,739,0
965751,370.49,954,761,0
965761,359.58,954,738,0
965771,350.32,954,761,0
965781,342.98,954,739,0
965791,337.42,954,761,0
965801,333.35,954,741,0
965811,330.63,954,760,0
965821,329.11,954,739,0
965831,329.08,954,761,0
965841,330.08,954,741,0
965851,331.86,954,760,0
965861,334.43,954,738,0
965871,337.77,954,761,0
965881,341.65,954,741,0
965891,345.96,954,760,0
965901,350.09,954,738,0
965911,353.96,954,760,0
965921,357.57,954,742,0
965932,360.66,954,760,0
965942,363.67,954,747,0
965952,365.96,954,758,0
965962,368.41,954,751,0
965972,370.26,954,758,0
965982,372.07,954,747,0
965992,373.12,954,758,0
966002,374.63,954,751,0
966012,375.08,954,758,0
966022,375.87,954,747,0
966032,375.52,954,760,0
966042,375.62,954,751,0
966052,374.62,954,758,0
966062,373.88,954,747,0
966072,372.07,954,759,0
966082,370.76,954,751,0
966092,368.56,954,758,0
966103,367.15,954,751,0
966113,364.88,954,758,0
966123,364.61,954,753,0
966133,365.50,954,756,0
966144,371.27,954,754,0
966153,381.69,954,758,0
966163,401.32,954,753,0
966173,430.15,954,757,0
966193,468.04,934,756,0
966196,510.45,934,755,0
966205,555.88,934,757,0
966215,599.84,934,753,0
966225,641.12,934,757,0
966235,675.28,934,755,0
966245,700.87,934,757,0
966255,718.74,934,754,0
966265,731.29,934,757,0
966275,740.03,934,755,0
966285,746.19,934,757,0
966295,750.46,934,754,0
966305,753.50,934,757,0
966316,755.58,934,754,0
966326,757.07,934,758,0
966336,758.08,934,753,0
966346,757.11,934,758,0
966356,750.18,934,753,0
966366,737.44,934,758,0
966376,716.39,934,753,0
966386,687.99,934,758,0
966396,651.31,934,753,0
966406,608.49,934,757,0
966416,560.55,934,753,0
966426,513.67,934,758,0
966436,467.79,934,752,0
966446,427.95,934,757,0
966456,393.04,934,753,0
966466,366.33,934,758,0
966476,345.53,934,752,0
966487,333.50,934,758,0
966497,327.43,934,752,0
966507,328.89,934,758,0
966517,334.41,934,752,0
966528,345.09,934,760,0
966537,357.45,934,752,0
966547,372.48,934,758,0
966557,386.61,934,752,0
966567,400.87,934,760,0
966577,412.31,934,752,0
966587,422.29,934,758,0
966597,428.50,934,752,0
966607,432.55,934,760,0
966617,432.39,934,752,0
966627,430.13,934,758,0
966637,424.26,934,752,0
966647,416.94,934,760,0
966657,407.06,934,752,0
966667,397.18,934,758,0
966677,385.90,934,752,0
966687,375.56,934,761,0
966697,364.98,934,751,0
966707,356.41,934,758,0
966717,348.45,934,752,0
966727,342.87,934,761,0
966737,338.11,934,751,0
966747,336.10,934,758,0
966757,334.83,934,752,0
966767,335.65,934,761,0
966777,336.87,934,752,0
966787,340.00,934,758,0
966797,342.87,934,752,0
966807,346.76,934,761,0
966817,349.75,934,751,0
966828,353.51,934,765,0
966838,356.27,934,740,0
966848,359.23,934,764,0
966858,360.88,934,736,0
966868,362.59,934,761,0
966878,363.10,934,740,0
966888,363.92,934,764,0
966898,363.82,934,737,0
966908,364.04,934,761,0
966918,363.56,934,740,0
966928,363.61,934,764,0
966938,363.34,934,736,0
966948,363.67,934,761,0
966958,363.55,934,740,0
966968,364.07,934,764,0
966978,364.14,934,736,0
966988,364.65,934,761,0
966999,364.59,934,737,0
967009,364.71,934,761,0
967019,364.28,934,740,0
967029,363.68,934,760,0
967040,362.71,934,744,0
967049,362.02,934,761,0
967059,361.59,934,740,0
967069,362.91,934,760,0
967079,367.22,934,744,0
967089,376.50,934,761,0
967099,393.06,934,740,0
967109,419.10,934,760,0
967129,454.51,936,759,0
967132,496.02,936,759,0
967141,540.71,936,752,0
967151,585.58,936,758,0
967161,628.09,936,753,0
967171,665.18,936,758,0
967181,693.93,936,752,0
967191,714.01,936,758,0
967201,728.15,936,754,0
967212,737.96,936,757,0
967222,744.91,936,755,0
967232,749.70,936,756,0
967242,753.13,936,756,0
967252,755.45,936,755,0
967262,757.16,936,755,0
967272,757.54,936,756,0
967282,754.98,936,756,0
967292,745.81,936,755,0
967302,730.74,936,755,0
967312,707.33,936,756,0
967322,677.28,936,756,0
967332,639.35,936,755,0
967342,596.73,936,755,0
967352,550.44,936,756,0
967362,506.34,936,756,0
967372,463.29,936,755,0
967383,426.26,936,757,0
967393,393.10,936,754,0
967403,367.78,936,757,0
967413,347.49,936,754,0
967424,335.39,936,757,0
967433,328.41,936,754,0
967443,329.10,936,757,0
967453,333.66,936,754,0
967463,344.05,936,757,0
967473,355.86,936,754,0
967483,370.82,936,757,0
967493,384.71,936,754,0
967503,399.54,936,757,0
967513,411.42,936,754,0
967523,422.52,936,757,0
967533,429.61,936,754,0
967543,435.08,936,757,0
967553,436.09,936,754,0
967563,435.63,936,757,0
967573,430.99,936,754,0
967583,425.29,936,757,0
967593,416.16,936,753,0
967603,407.07,936,757,0
967613,395.91,936,754,0
967623,386.03,936,757,0
967633,375.18,936,754,0
967643,366.73,936,757,0
967653,358.19,936,754,0
967663,352.52,936,757,0
967673,347.01,936,754,0
967683,344.48,936,757,0
967693,341.89,936,754,0
967703,341.75,936,757,0
967713,341.01,936,753,0
967724,342.34,936,757,0
967734,343.01,936,753,0
967744,345.23,936,758,0
967754,346.45,936,752,0
967764,348.93,936,758,0
967774,350.32,936,753,0
967784,352.93,936,758,0
967794,354.23,936,752,0
967804,356.43,936,758,0
967814,357.38,936,753,0
967824,359.28,936,758,0
967834,359.88,936,753,0
967844,361.29,936,758,0
967854,361.42,936,753,0
967864,362.36,936,758,0
967874,362.04,936,753,0
967884,362.54,936,758,0
967895,361.65,936,752,0
967905,361.63,936,758,0
967915,360.45,936,752,0
967925,359.97,936,763,0
967936,358.52,936,748,0
967945,358.02,936,758,0
967955,356.39,936,752,0
967965,355.46,936,763,0
967975,353.61,936,747,0
967985,352.70,936,758,0
967995,350.82,936,752,0
968005,349.50,936,763,0
968015,347.51,936,747,0
968025,346.93,936,758,0
968035,346.91,936,752,0
968045,350.19,936,763,0
968055,356.91,936,749,0
968065,370.86,936,758,0
968075,392.80,936,752,0
968094,426.21,966,750,0
968097,466.86,966,742,0
968107,512.41,966,761,0
968116,559.09,966,740,0
968126,604.66,966,762,0
968136,645.65,966,737,0
968146,679.96,966,761,0
968156,704.14,966,739,0
968166,721.03,966,762,0
968176,732.80,966,738,0
968186,741.09,966,761,0
968196,746.89,966,740,0
968206,750.95,966,762,0
968216,753.75,966,738,0
968226,755.71,966,761,0
968236,755.37,966,739,0
968246,750.46,966,762,0
968256,738.54,966,738,0
968266,719.18,966,761,0
968276,691.78,966,738,0
968286,657.35,966,762,0
968296,615.71,966,738,0
968306,569.86,966,761,0
968316,522.67,966,738,0
968326,478.16,966,762,0
968336,437.18,966,738,0
968346,401.85,966,761,0
968356,372.03,966,738,0
968366,348.96,966,763,0
968376,331.83,966,737,0
968386,321.34,966,761,0
968396,316.39,966,738,0
968407,317.48,966,761,0
968417,323.38,966,740,0
968427,333.33,966,760,0
968437,346.31,966,745,0
968448,361.17,966,759,0
968457,376.51,966,740,0
968467,391.40,966,760,0
968477,404.73,966,746,0
968487,415.31,966,759,0
968497,422.81,966,740,0
968507,426.59,966,760,0
968517,427.36,966,746,0
968527,424.72,966,759,0
968537,419.45,966,741,0
968547,411.60,966,760,0
968557,402.59,966,746,0
968567,392.34,966,759,0
968577,381.74,966,741,0
968587,370.93,966,760,0
968597,361.10,966,746,0
968607,351.85,966,759,0
968617,344.35,966,750,0
968627,337.69,966,760,0
968637,332.68,966,746,0
968647,328.75,966,759,0
968657,326.77,966,750,0
968667,325.64,966,760,0
968677,325.96,966,746,0
968687,326.57,966,759,0
968697,328.67,966,750,0
968707,331.26,966,760,0
968717,334.91,966,746,0
968727,338.15,966,759,0
968737,342.18,966,750,0
968748,345.64,966,758,0
968758,349.77,966,752,0
968768,352.71,966,758,0
968778,356.06,966,752,0
968788,358.27,966,758,0
968798,360.72,966,752,0
968808,361.70,966,758,0
968818,363.33,966,752,0
968828,363.23,966,757,0
968838,363.68,966,752,0
968848,362.62,966,758,0
968858,362.60,966,753,0
968868,361.52,966,757,0
968878,361.62,966,752,0
968888,360.66,966,758,0
968898,361.19,966,753,0
968908,360.71,966,757,0
968919,361.48,966,754,0
968929,360.69,966,757,0
968939,361.17,966,755,0
968949,360.13,966,756,0
968960,360.14,966,757,0
968969,358.60,966,757,0
968979,358.29,966,755,0
968989,356.49,966,757,0
968999,356.30,966,756,0
969009,355.18,966,756,0
969019,357.10,966,755,0
969029,360.45,966,755,0
969039,370.35,966,756,0
969049,385.76,966,757,0
969059,412.06,966,756,0
969078,447.27,984,755,0
969081,489.53,984,758,0
969090,534.46,984,755,0
969100,580.69,984,758,0
969110,623.56,984,754,0
969120,662.00,984,758,0
969131,691.57,984,754,0
969140,712.32,984,757,0
969150,726.79,984,754,0
969160,736.93,984,757,0
969170,743.98,984,754,0
969180,748.96,984,758,0
969190,752.40,984,754,0
969200,754.85,984,757,0
969210,754.59,984,754,0
969220,750.56,984,757,0
969230,739.21,984,754,0
969240,720.97,984,757,0
969250,694.02,984,754,0
969260,660.42,984,757,0
969270,619.06,984,754,0
969280,574.00,984,757,0
969290,526.04,984,754,0
969300,481.20,984,758,0
969310,438.80,984,754,0
969320,403.37,984,757,0
969330,372.28,984,754,0
969340,348.96,984,758,0
969350,330.89,984,754,0
969360,320.77,984,757,0
969370,315.52,984,754,0
969380,317.38,984,757,0
969390,322.67,984,754,0
969400,333.39,984,757,0
969410,345.79,984,754,0
969420,361.50,984,758,0
969431,376.60,984,753,0
969441,392.71,984,758,0
969451,406.17,984,753,0
969461,418.46,984,758,0
969472,426.59,984,752,0
969481,432.76,984,758,0
969491,434.25,984,753,0
969501,433.66,984,758,0
969511,428.57,984,752,0
969521,422.19,984,758,0
969531,412.57,984,753,0
969541,402.72,984,758,0
969551,390.72,984,752,0
969561,379.70,984,758,0
969571,367.88,984,753,0
969581,358.01,984,758,0
969591,347.98,984,752,0
969601,340.62,984,758,0
969611,333.70,984,753,0
969621,329.68,984,758,0
969631,326.00,984,752,0
969641,324.80,984,758,0
969651,323.88,984,753,0
969661,325.16,984,758,0
969671,326.22,984,752,0
969681,329.03,984,758,0
969691,331.21,984,753,0
969701,334.83,984,758,0
969711,337.54,984,752,0
969721,341.28,984,758,0
969731,343.76,984,753,0
969741,346.96,984,758,0
969751,348.73,984,752,0
969761,351.17,984,758,0
969772,352.32,984,752,0
969782,354.07,984,760,0
969792,354.65,984,752,0
969802,355.82,984,766,0
969812,356.01,984,741,0
969822,357.12,984,760,0
969832,357.17,984,752,0
969842,357.85,984,766,0
969852,357.76,984,741,0
969862,358.31,984,760,0
969872,358.17,984,752,0
969882,358.85,984,766,0
969892,358.72,984,741,0
969902,359.53,984,760,0
969912,359.46,984,752,0
969922,359.92,984,765,0
969932,359.52,984,741,0
969943,359.49,984,764,0
969953,358.44,984,736,0
969963,357.58,984,762,0
969973,355.78,984,738,0
969984,354.65,984,762,0
969993,353.81,984,737,0
970003,355.62,984,762,0
970013,360.79,984,737,0
970023,372.47,984,762,0
970033,391.70,984,737,0
970052,421.53,974,737,0
970055,459.90,974,752,0
970064,503.77,974,760,0
970074,549.74,974,739,0
970084,595.29,974,761,0
970094,636.95,974,743,0
970104,672.62,974,760,0
970114,699.09,974,739,0
970124,717.53,974,761,0
970134,730.45,974,743,0
970144,739.53,974,760,0
970155,745.88,974,748,0
970164,750.33,974,760,0
970174,753.45,974,743,0
970184,755.67,974,760,0
970194,755.13,974,748,0
970204,749.22,974,761,0
970214,736.08,974,743,0
970224,714.46,974,760,0
970234,684.75,974,749,0
970244,647.02,974,761,0
970254,602.15,974,743,0
970264,552.73,974,760,0
970274,503.10,974,748,0
970284,455.92,974,761,0
970294,413.90,974,743,0
970304,377.68,974,760,0
970314,348.72,974,749,0
970324,326.47,974,758,0
970334,311.89,974,743,0
970344,303.86,974,760,0
970354,302.83,974,749,0
970364,307.34,974,759,0
970374,316.67,974,743,0
970384,329.15,974,760,0
970394,344.62,974,748,0
970404,360.98,974,759,0
970414,377.70,974,743,0
970424,392.87,974,760,0
970434,406.58,974,749,0
970444,417.38,974,759,0
970455,425.67,974,751,0
970465,429.92,974,758,0
970475,431.66,974,752,0
970485,429.32,974,758,0
970496,424.94,974,753,0
970505,417.33,974,758,0
970515,408.83,974,752,0
970525,398.00,974,758,0
970535,387.84,974,754,0
970545,376.36,974,758,0
970555,366.44,974,752,0
970565,355.93,974,758,0
970575,347.73,974,753,0
970585,339.75,974,759,0
970595,334.51,974,752,0
970605,329.56,974,758,0
970615,327.46,974,754,0
970625,325.82,974,758,0
970635,326.82,974,752,0
970645,327.56,974,758,0
970655,330.35,974,754,0
970665,332.43,974,757,0
970675,335.82,974,752,0
970685,337.84,974,758,0
970695,341.10,974,753,0
970705,342.87,974,757,0
970715,345.74,974,752,0
970725,346.97,974,758,0
970735,349.47,974,753,0
970745,350.48,974,757,0
970755,352.70,974,752,0
970765,353.26,974,758,0
970775,354.98,974,753,0
970785,355.20,974,757,0
970796,356.73,974,755,0
970806,356.55,974,756,0
970816,357.84,974,756,0
970826,357.42,974,755,0
970836,358.32,974,757,0
970846,357.71,974,756,0
970856,358.48,974,756,0
970866,357.57,974,755,0
970876,358.04,974,757,0
970886,356.83,974,756,0
970896,357.18,974,756,0
970906,355.84,974,755,0
970916,355.85,974,757,0
970926,353.96,974,756,0
970936,353.46,974,755,0
970946,351.26,974,755,0
970956,350.93,974,757,0
970967,350.01,974,754,0
970977,352.79,974,757,0
970987,358.00,974,754,0
970997,370.81,974,757,0
971008,390.41,974,753,0
971026,421.57,974,752,0
971029,460.23,974,752,0
971038,504.82,974,758,0
971048,550.82,974,753,0
971058,596.77,974,757,0
971068,638.24,974,753,0
971078,673.82,974,758,0
971088,699.85,974,753,0
971098,718.07,974,758,0
971108,730.77,974,753,0
971118,739.71,974,758,0
971128,745.93,974,753,0
971138,750.32,974,758,0
971148,753.35,974,753,0
971158,754.40,974,758,0
971168,749.01,974,753,0
971179,736.28,974,758,0
971188,714.30,974,753,0
971198,684.08,974,758,0
971208,644.54,974,752,0
971218,597.71,974,758,0
971228,544.52,974,753,0
971238,492.04,974,758,0
971248,441.46,974,753,0
971258,397.00,974,758,0
971268,358.09,974,753,0
971278,328.28,974,758,0
971288,305.65,974,753,0
971298,292.34,974,758,0
971308,285.64,974,753,0
971318,287.25,974,758,0
971328,294.03,974,753,0
971338,307.05,974,758,0
971348,322.59,974,752,0
971358,341.44,974,758,0
971368,360.12,974,752,0
971378,379.63,974,758,0
971388,396.28,974,751,0
971398,411.84,974,758,0
971408,423.29,974,752,0
971418,432.55,974,758,0
971428,437.18,974,752,0
971438,439.48,974,758,0
971448,437.37,974,752,0
971458,433.57,974,758,0
971468,426.24,974,751,0
971479,417.94,974,758,0
971489,407.24,974,752,0
971499,396.71,974,762,0
971509,384.84,974,745,0
971520,374.13,974,766,0
971529,363.29,974,752,0
971539,354.38,974,763,0
971549,345.86,974,745,0
971559,339.43,974,766,0
971569,333.65,974,751,0
971579,330.15,974,763,0
971589,327.19,974,745,0
971599,326.15,974,766,0
971609,325.33,974,751,0
971619,326.35,974,763,0
971629,327.53,974,745,0
971639,330.16,974,765,0
971649,332.68,974,751,0
971659,336.55,974,763,0
971669,340.11,974,745,0
971679,344.54,974,765,0
971689,348.23,974,737,0
971699,352.49,974,763,0
971709,355.77,974,744,0
971719,359.40,974,766,0
971729,361.94,974,738,0
971739,364.74,974,763,0
971749,366.40,974,745,0
971759,368.17,974,765,0
971769,368.89,974,737,0
971779,369.99,974,763,0
971789,370.04,974,744,0
971799,370.41,974,766,0
971809,369.73,974,737,0
971820,369.51,974,765,0
971830,368.54,974,736,0
971840,367.78,974,763,0
971850,366.35,974,738,0
971860,365.00,974,763,0
971870,362.99,974,737,0
971880,361.53,974,763,0
971890,360.52,974,738,0
971900,361.86,974,763,0
971910,366.49,974,737,0
971920,377.27,974,763,0
971930,396.52,974,738,0
971940,426.75,974,763,0
971959,465.14,933,761,0
971962,508.73,933,760,0
971971,554.49,933,746,0
971981,599.90,933,760,0
971991,641.46,933,741,0
972001,676.29,933,762,0
972011,701.53,933,745,0
972021,719.25,933,760,0
972032,731.69,933,750,0
972041,740.35,933,761,0
972051,746.46,933,745,0
972061,750.78,933,760,0
972071,753.80,933,750,0
972081,755.88,933,761,0
972091,757.33,933,745,0
972101,755.90,933,760,0
972111,749.29,933,750,0
972121,735.53,933,761,0
972131,713.73,933,745,0
972141,683.21,933,759,0
972151,645.18,933,750,0
972161,599.78,933,761,0
972171,550.82,933,745,0
972181,501.29,933,760,0
972191,455.09,933,750,0
972201,413.66,933,758,0
972211,379.69,933,745,0
972221,352.95,933,760,0
972231,334.75,933,750,0
972241,323.69,933,758,0
972251,320.52,933,745,0
972261,323.15,933,760,0
972271,332.11,933,750,0
972281,344.50,933,759,0
972291,359.82,933,745,0
972301,375.73,933,760,0
972311,392.57,933,750,0
972321,407.79,933,758,0
972332,422.04,933,752,0
972342,432.35,933,758,0
972352,440.60,933,752,0
972362,444.49,933,757,0
972372,446.02,933,754,0
972382,443.06,933,758,0
972392,437.90,933,752,0
972402,428.63,933,757,0
972412,418.71,933,754,0
972422,406.24,933,759,0
972432,394.60,933,753,0
972442,381.47,933,757,0
972452,370.62,933,754,0
972462,359.68,933,758,0
972472,351.89,933,752,0
972482,344.55,933,757,0
972492,340.48,933,754,0
972503,336.83,933,757,0
972513,336.53,933,755,0
972523,336.07,933,755,0
972533,338.41,933,756,0
972544,340.13,933,754,0
972553,344.12,933,755,0
972563,346.70,933,755,0
972573,350.86,933,756,0
972583,353.17,933,755,0
972593,356.76,933,755,0
972603,358.42,933,755,0
972613,361.47,933,756,0
972623,362.53,933,754,0
972633,365.15,933,755,0
972643,365.92,933,755,0
972653,368.13,933,756,0
972663,368.61,933,754,0
972673,370.74,933,755,0
972683,371.16,933,755,0
972693,373.13,933,756,0
972703,373.22,933,755,0
972713,374.74,933,757,0
972723,374.39,933,755,0
972733,375.47,933,756,0
972743,374.47,933,755,0
972753,374.80,933,758,0
972763,373.10,933,755,0
972773,372.73,933,756,0
972783,370.84,933,755,0
972793,371.23,933,757,0
972803,371.63,933,755,0
972813,377.01,933,756,0
972823,386.10,933,755,0
972833,404.84,933,758,0
972844,432.32,933,754,0
972863,469.08,904,753,0
972866,510.37,904,752,0
972875,555.13,904,759,0
972886,598.81,904,751,0
972895,640.14,904,758,0
972905,674.34,904,753,0
972915,700.25,904,759,0
972925,718.35,904,752,0
972935,731.06,904,758,0
972945,739.95,904,753,0
972955,746.23,904,758,0
972965,750.57,904,752,0
972975,753.61,904,758,0
972985,755.74,904,753,0
972995,757.28,904,759,0
973005,758.31,904,751,0
973015,758.09,904,758,0
973025,752.28,904,752,0
973035,740.58,904,759,0
973045,720.56,904,752,0
973056,693.05,904,758,0
973065,657.42,904,752,0
973075,615.38,904,758,0
973085,567.44,904,752,0
973095,519.91,904,759,0
973105,473.39,904,753,0
973115,432.60,904,758,0
973125,396.64,904,752,0
973135,368.37,904,758,0
973145,346.10,904,752,0
973155,332.23,904,758,0
973165,324.36,904,752,0
973175,323.82,904,758,0
973185,327.39,904,753,0
973195,336.45,904,758,0
973205,347.75,904,751,0
973215,362.40,904,758,0
973225,376.77,904,751,0
973235,392.26,904,758,0
973245,405.39,904,752,0
973255,417.44,904,758,0
973265,425.71,904,751,0
973275,431.80,904,758,0
973285,433.10,904,752,0
973295,432.04,904,758,0
973305,426.54,904,751,0
973315,419.74,904,758,0
973325,410.00,904,751,0
973335,400.10,904,758,0
973345,388.59,904,751,0
973356,378.42,904,758,0
973366,367.93,904,752,0
973376,359.38,904,764,0
973386,351.25,904,742,0
973396,345.39,904,767,0
973406,340.04,904,751,0
973416,337.07,904,764,0
973426,334.39,904,742,0
973436,333.63,904,767,0
973446,332.97,904,752,0
973456,333.75,904,764,0
973466,334.60,904,742,0
973476,336.69,904,767,0
973486,338.33,904,752,0
973496,340.84,904,764,0
973506,342.78,904,741,0
973516,345.50,904,767,0
973527,347.36,904,736,0
973537,349.70,904,765,0
973547,351.33,904,737,0
973557,353.07,904,764,0
973568,354.25,904,738,0
973577,355.55,904,765,0
973587,356.20,904,737,0
973597,357.04,904,764,0
973607,357.37,904,738,0
973617,357.86,904,765,0
973627,357.94,904,737,0
973637,357.96,904,764,0
973647,357.63,904,738,0
973657,357.23,904,765,0
973667,356.26,904,737,0
973677,355.20,904,764,0
973687,353.81,904,738,0
973697,352.84,904,765,0
973707,351.99,904,737,0
973717,352.85,904,764,0
973727,356.66,904,738,0
973737,365.85,904,763,0
973747,381.84,904,737,0
973766,407.43,903,737,0
973769,442.87,903,752,0
973778,485.08,903,760,0
973788,530.74,903,741,0
973798,576.98,903,762,0
973808,620.74,903,746,0
973818,659.52,903,760,0
973828,690.01,903,741,0
973838,711.30,903,762,0
973848,726.30,903,745,0
973858,736.75,903,760,0
973868,744.07,903,741,0
973878,749.15,903,762,0
973888,752.75,903,746,0
973898,755.27,903,760,0
973908,757.07,903,751,0
973918,757.39,903,762,0
973928,753.68,903,746,0
973938,743.44,903,760,0
973948,726.21,903,750,0
973958,701.03,903,761,0
973968,668.58,903,746,0
973978,628.46,903,759,0
973988,583.15,903,750,0
973998,535.58,903,761,0
974008,489.68,903,746,0
974018,446.62,903,760,0
974028,409.23,903,750,0
974039,377.15,903,759,0
974049,352.93,903,752,0
974059,334.82,903,758,0
974069,324.85,903,752,0
974080,320.82,903,758,0
974089,323.75,903,752,0
974099,330.89,903,758,0
974109,343.23,903,752,0
974119,356.96,903,758,0
974129,373.21,903,752,0
974139,388.11,903,758,0
974149,403.29,903,752,0
974159,415.12,903,758,0
974169,425.32,903,752,0
974179,431.01,903,758,0
974189,434.57,903,752,0
974199,433.41,903,758,0
974209,430.37,903,752,0
974219,423.28,903,758,0
974229,415.48,903,752,0
974239,404.75,903,758,0
974249,394.54,903,754,0
974259,382.68,903,758,0
974269,372.53,903,752,0
974279,361.91,903,758,0
974289,353.84,903,754,0
974299,345.83,903,759,0
974309,340.70,903,752,0
974319,335.56,903,758,0
974329,333.46,903,754,0
974339,331.44,903,759,0
974349,331.78,903,752,0
974359,331.46,903,757,0
974369,333.51,903,754,0
974380,334.85,903,757,0
974390,338.28,903,755,0
974400,340.47,903,756,0
974410,344.36,903,756,0
974420,346.86,903,754,0
974430,350.89,903,755,0
974440,352.85,903,755,0
974450,356.24,903,756,0
974460,357.62,903,754,0
974470,360.48,903,756,0
974480,361.32,903,755,0
974490,363.58,903,756,0
974500,364.01,903,754,0
974510,365.93,903,755,0
974520,366.04,903,755,0
974530,367.66,903,756,0
974540,367.29,903,755,0
974551,368.36,903,758,0
974561,367.65,903,754,0
974571,368.27,903,758,0
974581,367.03,903,753,0
974592,366.68,903,758,0
974601,364.46,903,754,0
974611,363.42,903,757,0
974621,360.68,903,753,0
974631,359.75,903,757,0
974641,358.71,903,754,0
974651,362.31,903,758,0
974661,369.63,903,753,0
974671,385.69,903,758,0
974681,409.35,903,753,0
974700,444.09,934,752,0
974703,484.99,934,752,0
974712,530.46,934,759,0
974722,575.80,934,753,0
974732,619.61,934,758,0
974742,657.40,934,752,0
974752,688.40,934,759,0
974763,710.09,934,751,0
974772,725.32,934,758,0
974782,735.98,934,752,0
974792,743.49,934,758,0
974802,748.74,934,750,0
974812,752.42,934,758,0
974822,754.99,934,752,0
974832,756.80,934,759,0
974842,754.80,934,750,0
974852,748.52,934,759,0
974862,734.73,934,752,0
974872,713.81,934,758,0
974882,684.34,934,750,0
974892,648.20,934,758,0
974902,604.51,934,752,0
974912,558.46,934,758,0
974922,510.45,934,750,0
974932,465.87,934,759,0
974942,424.51,934,752,0
974952,390.24,934,758,0
974962,361.03,934,750,0
974972,339.89,934,759,0
974982,324.75,934,752,0
974992,317.75,934,758,0
975002,316.24,934,751,0
975012,321.53,934,759,0
975022,330.15,934,752,0
975032,343.48,934,758,0
975042,357.78,934,751,0
975052,374.13,934,759,0
975063,388.88,934,751,0
975073,403.14,934,759,0
975083,413.94,934,750,0
975093,422.70,934,764,0
975104,426.99,934,741,0
975113,428.97,934,759,0
975123,426.49,934,750,0
975133,422.19,934,765,0
975143,414.42,934,741,0
975153,405.98,934,759,0
975163,395.53,934,750,0
975173,385.25,934,765,0
975183,374.08,934,740,0
975193,364.15,934,758,0
975203,354.12,934,749,0
975213,346.29,934,765,0
975223,339.00,934,740,0
975233,334.29,934,759,0
975243,330.39,934,750,0
975253,328.81,934,765,0
975263,327.71,934,740,0
975273,328.31,934,767,0
975283,328.82,934,750,0
975293,330.37,934,764,0
975303,331.29,934,740,0
975313,333.13,934,767,0
975323,334.21,934,749,0
975333,336.37,934,765,0
975343,338.23,934,740,0
975353,341.12,934,767,0
975363,343.53,934,749,0
975373,346.84,934,765,0
975383,349.63,934,740,0
975393,353.04,934,767,0
975404,355.64,934,736,0
975414,358.45,934,766,0
975424,360.16,934,737,0
975434,361.78,934,764,0
975444,362.49,934,738,0
975454,363.16,934,766,0
975464,362.98,934,737,0
975474,362.82,934,764,0
975484,362.23,934,738,0
975494,361.86,934,766,0
975504,361.13,934,737,0
975514,360.28,934,764,0
975524,358.95,934,738,0
975534,357.81,934,765,0
975544,356.28,934,737,0
975554,355.25,934,764,0
975564,355.61,934,738,0
975575,359.28,934,763,0
975585,368.33,934,742,0
975595,384.90,934,761,0
975605,411.20,934,746,0
975625,447.40,924,748,0
975628,489.92,924,756,0
975637,535.76,924,758,0
975647,581.99,924,754,0
975657,625.32,924,756,0
975667,663.20,924,753,0
975677,692.58,924,758,0
975687,713.28,924,754,0
975697,727.72,924,757,0
975707,737.88,924,753,0
975717,744.94,924,758,0
975727,749.97,924,754,0
975737,753.41,924,756,0
975747,755.86,924,753,0
975757,754.23,924,758,0
975767,747.69,924,754,0
975777,733.00,924,756,0
975788,711.05,924,755,0
975798,680.01,924,755,0
975808,641.99,924,756,0
975818,596.05,924,754,0
975828,547.78,924,757,0
975838,497.92,924,756,0
975848,452.47,924,756,0
975858,410.07,924,754,0
975868,375.34,924,758,0
975878,345.71,924,755,0
975888,324.79,924,757,0
975898,309.51,924,754,0
975908,302.50,924,757,0
975918,300.25,924,755,0
975928,305.45,924,756,0
975938,313.84,924,754,0
975948,327.56,924,757,0
975959,342.05,924,754,0
975969,359.35,924,758,0
975979,375.27,924,753,0
975989,391.61,924,757,0
976000,404.37,924,753,0
976009,416.00,924,758,0
976019,422.81,924,753,0
976029,427.84,924,758,0
976039,427.80,924,753,0
976049,426.06,924,758,0
976059,419.87,924,753,0
976069,412.62,924,758,0
976079,402.11,924,753,0
976089,392.00,924,758,0
976099,379.75,924,753,0
976109,369.07,924,757,0
976119,357.43,924,753,0
976129,348.56,924,758,0
976139,339.69,924,753,0
976149,333.78,924,758,0
976159,327.98,924,753,0
976169,325.11,924,758,0
976179,322.29,924,753,0
976189,322.21,924,757,0
976199,321.67,924,752,0
976209,323.48,924,758,0
976219,324.71,924,754,0
976229,327.93,924,757,0
976239,330.26,924,753,0
976249,334.26,924,758,0
976259,337.01,924,753,0
976269,341.16,924,758,0
976279,343.60,924,753,0
976289,346.76,924,758,0
976300,348.33,924,752,0
976310,350.72,924,758,0
976320,351.57,924,751,0
976330,353.33,924,759,0
976340,353.62,924,751,0
976350,355.10,924,758,0
976360,355.37,924,751,0
976370,356.63,924,759,0
976380,356.91,924,751,0
976390,358.31,924,758,0
976400,358.56,924,752,0
976410,359.64,924,759,0
976420,359.40,924,751,0
976430,360.27,924,758,0
976440,359.76,924,751,0
976450,359.75,924,759,0
976460,358.28,924,751,0
976471,357.55,924,758,0
976481,356.02,924,751,0
976491,355.97,924,765,0
976501,356.58,924,741,0
976512,361.25,924,767,0
976521,369.92,924,751,0
976531,386.66,924,765,0
976541,411.53,924,742,0
976561,446.73,936,737,0
976564,488.04,936,746,0
976573,533.03,936,763,0
976583,578.15,936,742,0
976593,621.52,936,762,0
976603,659.25,936,738,0
976613,689.77,936,763,0
976623,711.14,936,742,0
976633,726.10,936,761,0
976643,736.57,936,738,0
976653,743.90,936,763,0
976663,749.03,936,742,0
976673,752.62,936,761,0
976684,755.18,936,746,0
976694,754.52,936,760,0
976704,748.67,936,750,0
976714,735.22,936,759,0
976724,714.11,936,752,0
976734,684.59,936,760,0
976744,647.47,936,750,0
976754,602.50,936,758,0
976764,554.14,936,752,0
976774,504.55,936,760,0
976784,458.27,936,750,0
976794,415.68,936,758,0
976804,379.69,936,752,0
976814,349.44,936,760,0
976824,327.02,936,750,0
976834,310.73,936,758,0
976844,302.50,936,752,0
976855,299.60,936,758,0
976865,303.71,936,753,0
976875,311.42,936,757,0
976885,324.37,936,754,0
976896,338.83,936,757,0
976905,355.68,936,753,0
976915,371.25,936,757,0
976925,387.12,936,754,0
976935,399.30,936,757,0
976945,410.09,936,753,0
976955,416.11,936,758,0
976965,420.32,936,754,0
976975,419.79,936,757,0
976985,417.58,936,753,0
976995,411.37,936,758,0
977005,404.83,936,754,0
977015,395.49,936,757,0
977025,386.82,936,753,0
977035,376.41,936,758,0
977045,367.76,936,754,0
977055,358.19,936,757,0
977065,351.19,936,756,0
977075,343.76,936,758,0
977085,339.16,936,754,0
977095,334.40,936,757,0
977105,332.57,936,755,0
977115,330.42,936,758,0
977125,330.94,936,754,0
977135,330.66,936,757,0
977145,332.77,936,755,0
977155,333.96,936,758,0
977165,337.27,936,754,0
977175,339.25,936,757,0
977185,343.03,936,756,0
977196,345.38,936,755,0
977206,349.21,936,756,0
977216,351.29,936,755,0
977226,354.63,936,757,0
977236,356.03,936,753,0
977246,358.72,936,756,0
977256,359.40,936,755,0
977266,361.47,936,757,0
977276,361.76,936,754,0
977286,363.50,936,756,0
977296,363.52,936,755,0
977306,364.82,936,757,0
977316,364.19,936,754,0
977326,365.03,936,756,0
977336,363.99,936,754,0
977346,364.47,936,757,0
977356,363.13,936,754,0
977367,363.13,936,758,0
977377,361.51,936,753,0
977387,361.18,936,758,0
977397,359.16,936,752,0
977408,358.60,936,758,0
977417,357.17,936,753,0
977427,358.71,936,758,0
977437,361.71,936,753,0
977447,370.75,936,758,0
977457,384.84,936,753,0
977467,408.80,936,758,0
977486,441.43,926,757,0
977489,481.76,926,765,0
977498,525.29,926,752,0
977508,570.46,926,759,0
977518,613.09,926,752,0
977528,652.15,926,758,0
977538,683.61,926,752,0
977548,706.78,926,759,0
977558,723.00,926,752,0
977568,734.36,926,758,0
977579,742.31,926,751,0
977588,747.92,926,759,0
977598,751.84,926,752,0
977608,753.77,926,758,0
977618,749.56,926,751,0
977628,738.68,926,759,0
977638,718.46,926,752,0
977648,689.56,926,758,0
977658,651.38,926,751,0
977668,606.14,926,759,0
977678,554.28,926,752,0
977688,502.47,926,758,0
977698,451.37,926,751,0
977708,406.22,926,758,0
977718,366.59,926,752,0
977728,335.30,926,758,0
977738,310.35,926,751,0
977748,294.43,926,758,0
977758,285.05,926,751,0
977768,284.00,926,758,0
977778,288.42,926,751,0
977788,299.61,926,759,0
977798,314.42,926,752,0
977808,333.41,926,758,0
977818,352.83,926,751,0
977828,373.41,926,759,0
977838,391.84,926,752,0
977848,409.08,926,759,0
977858,421.91,926,751,0
977868,431.88,926,759,0
977879,436.67,926,752,0
977889,438.14,926,763,0
977899,435.01,926,743,0
977909,429.27,926,767,0
977920,419.80,926,737,0
977929,409.32,926,764,0
977939,396.58,926,743,0
977949,384.15,926,767,0
977959,371.12,926,737,0
977969,359.51,926,764,0
977979,348.39,926,742,0
977989,339.48,926,767,0
977999,331.50,926,737,0
978009,326.08,926,763,0
978019,321.68,926,743,0
978029,319.68,926,767,0
978039,318.53,926,736,0
978049,319.44,926,763,0
978059,320.64,926,742,0
978069,323.36,926,767,0
978079,326.25,926,737,0
978089,330.25,926,767,0
978099,333.99,926,742,0
978109,338.45,926,767,0
978119,342.43,926,736,0
978129,347.06,926,767,0
978139,350.77,926,742,0
978149,354.70,926,767,0
978159,357.79,926,736,0
978169,360.85,926,767,0
978179,362.70,926,742,0
978189,364.63,926,767,0
978199,365.73,926,737,0
978209,367.05,926,766,0
978220,367.42,926,736,0
978230,367.77,926,764,0
978240,367.62,926,738,0
978250,367.82,926,763,0
978260,367.49,926,741,0
978270,367.04,926,764,0
978280,366.04,926,738,0
978290,365.22,926,763,0
978300,364.89,926,741,0
978310,365.83,926,764,0
978320,369.09,926,738,0
978330,376.74,926,763,0
978340,391.00,926,741,0
978350,413.76,926,764,0
978369,446.27,883,762,0
978372,485.58,883,759,0
978381,528.99,883,749,0
978391,573.65,883,762,0
978401,616.57,883,744,0
978411,654.84,883,761,0
978421,686.13,883,748,0
978432,708.59,883,759,0
978441,724.40,883,744,0
978451,735.42,883,761,0
978461,743.14,883,749,0
978471,748.54,883,759,0
978481,752.32,883,744,0
978491,754.97,883,761,0
978501,756.52,883,748,0
978511,753.06,883,759,0
978521,743.27,883,744,0
978531,725.36,883,761,0
978541,699.37,883,748,0
978551,664.67,883,759,0
978561,622.73,883,744,0
978571,574.04,883,761,0
978581,524.27,883,749,0
978591,475.12,883,759,0
978601,430.60,883,752,0
978611,390.82,883,761,0
978621,358.17,883,748,0
978631,331.72,883,759,0
978641,313.33,883,752,0
978651,301.28,883,761,0
978661,296.82,883,748,0
978671,297.65,883,759,0
978681,305.08,883,752,0
978691,316.37,883,761,0
978701,331.73,883,748,0
978711,347.97,883,759,0
978721,365.89,883,752,0
978732,382.17,883,758,0
978742,397.59,883,752,0
978752,408.98,883,758,0
978762,418.46,883,753,0
978772,423.04,883,757,0
978782,425.04,883,752,0
978792,422.11,883,758,0
978802,417.45,883,753,0
978812,408.92,883,757,0
978822,399.81,883,752,0
978832,387.95,883,758,0
978842,377.17,883,753,0
978852,364.99,883,757,0
978862,354.71,883,752,0
978872,343.99,883,758,0
978882,336.32,883,753,0
978892,328.86,883,757,0
978903,324.53,883,755,0
978913,320.34,883,756,0
978923,319.42,883,756,0
978933,318.78,883,755,0
978944,320.99,883,757,0
978953,322.71,883,756,0
978963,326.78,883,756,0
978973,329.63,883,755,0
978983,334.41,883,757,0
978993,337.72,883,756,0
979003,342.52,883,756,0
979013,345.62,883,755,0
979023,349.89,883,757,0
979033,352.24,883,756,0
979043,355.94,883,756,0
979053,357.76,883,755,0
979063,360.70,883,757,0
979073,361.73,883,756,0
979083,364.04,883,756,0
979093,364.50,883,755,0
979103,366.24,883,757,0
979113,366.17,883,754,0
979123,367.36,883,756,0
979133,366.78,883,755,0
979143,367.36,883,757,0
979153,366.01,883,754,0
979163,366.09,883,756,0
979173,364.31,883,755,0
979183,363.79,883,757,0
979193,361.58,883,754,0
979203,361.28,883,756,0
979213,360.85,883,755,0
979223,364.92,883,757,0
979233,372.19,883,754,0
979244,388.25,883,758,0
979254,412.39,883,754,0
979264,447.37,883,758,0
979283,488.19,914,756,0
979287,533.47,914,763,0
979295,578.68,914,753,0
979305,622.40,914,759,0
979315,660.04,914,752,0
979325,690.28,914,759,0
979335,711.46,914,753,0
979345,726.32,914,759,0
979355,736.64,914,752,0
979365,743.86,914,759,0
979375,748.92,914,753,0
979385,752.50,914,759,0
979395,754.96,914,752,0
979405,756.69,914,758,0
979415,754.08,914,753,0
979425,746.17,914,759,0
979435,730.39,914,752,0
979445,707.17,914,759,0
979456,675.28,914,751,0
979465,636.62,914,758,0
979475,590.41,914,752,0
979485,542.46,914,759,0
979495,493.76,914,752,0
979505,449.18,914,758,0
979515,408.11,914,752,0
979525,373.96,914,758,0
979535,344.87,914,752,0
979545,323.57,914,758,0
979555,307.76,914,752,0
979565,299.47,914,759,0
979575,295.99,914,752,0
979585,299.08,914,758,0
979595,305.61,914,752,0
979605,316.74,914,758,0
979615,329.33,914,751,0
979625,344.36,914,759,0
979635,358.52,914,752,0
979645,372.98,914,759,0
979655,384.47,914,751,0
979665,394.45,914,759,0
979675,400.44,914,752,0
979685,404.29,914,758,0
979695,403.95,914,751,0
979705,401.48,914,759,0
979715,395.33,914,752,0
979725,388.25,914,758,0
979735,378.87,914,751,0
979745,369.70,914,759,0
979756,359.25,914,752,0
979766,350.00,914,761,0
979776,340.74,914,746,0
979786,333.36,914,767,0
979796,326.48,914,739,0
979806,321.97,914,761,0
979816,317.95,914,746,0
979826,316.25,914,767,0
979836,315.19,914,739,0
979846,316.16,914,761,0
979856,317.36,914,746,0
979866,319.91,914,766,0
979876,322.21,914,739,0
979886,325.62,914,761,0
979896,328.26,914,746,0
979906,331.40,914,767,0
979916,333.68,914,738,0
979927,336.39,914,766,0
979937,338.29,914,736,0
979947,340.43,914,764,0
979957,341.89,914,738,0
979968,343.55,914,763,0
979977,344.58,914,736,0
979987,345.87,914,765,0
979997,346.68,914,737,0
980007,347.72,914,763,0
980017,348.19,914,736,0
980027,348.82,914,765,0
980037,349.39,914,738,0
980047,350.26,914,763,0
980057,350.65,914,736,0
980067,351.23,914,765,0
980077,351.42,914,738,0
980087,351.68,914,763,0
980097,351.30,914,736,0
980107,350.78,914,765,0
980117,349.73,914,738,0
980127,349.04,914,763,0
980137,349.24,914,740,0
980147,351.83,914,765,0
980157,358.35,914,738,0
980167,371.57,914,763,0
980177,393.43,914,740,0
980196,425.74,913,737,0
980199,466.06,913,754,0
980208,510.92,913,761,0
980218,557.57,913,747,0
980228,603.17,913,762,0
980238,644.39,913,743,0
980248,678.39,913,761,0
980258,703.21,913,747,0
980268,720.55,913,763,0
980278,732.73,913,743,0
980288,741.17,913,761,0
980298,747.07,913,747,0
980308,751.17,913,760,0
980318,754.07,913,743,0
980328,752.94,913,762,0
980338,745.80,913,746,0
980348,730.64,913,760,0
980358,707.65,913,743,0
980368,676.60,913,761,0
980378,638.58,913,746,0
980388,593.53,913,760,0
980398,545.97,913,743,0
980408,498.50,913,761,0
980418,454.93,913,746,0
980428,415.40,913,760,0
980439,382.11,913,751,0
980449,353.92,913,759,0
980459,332.86,913,752,0
980469,317.21,913,758,0
980480,308.84,913,753,0
980489,305.24,913,759,0
980499,307.91,913,752,0
980509,313.94,913,758,0
980519,324.93,913,753,0
980529,337.51,913,759,0
980539,352.95,913,752,0
980549,367.54,913,758,0
980559,383.06,913,753,0
980569,396.03,913,759,0
980579,408.15,913,752,0
980589,416.12,913,758,0
980599,422.30,913,753,0
980609,424.01,913,759,0
980619,423.62,913,752,0
980629,418.81,913,758,0
980639,412.74,913,753,0
980649,403.30,913,758,0
980659,393.82,913,751,0
980669,382.22,913,758,0
980679,371.91,913,753,0
980689,360.84,913,757,0
980699,351.97,913,752,0
980709,343.11,913,758,0
980719,337.25,913,753,0
980729,331.47,913,757,0
980739,328.29,913,752,0
980749,325.07,913,759,0
980759,324.75,913,753,0
980769,324.27,913,757,0
980780,326.25,913,754,0
980790,327.41,913,756,0
980800,330.85,913,756,0
980810,333.46,913,756,0
980820,337.78,913,756,0
980830,340.59,913,756,0
980840,344.91,913,756,0
980850,347.38,913,755,0
980860,351.12,913,756,0
980870,352.89,913,757,0
980880,355.96,913,756,0
980890,357.13,913,755,0
980900,359.32,913,756,0
980910,359.57,913,756,0
980920,361.20,913,756,0
980930,361.10,913,755,0
980940,362.40,913,756,0
980951,361.98,913,754,0
980961,363.18,913,758,0
980971,363.04,913,754,0
980981,364.19,913,757,0
980992,363.57,913,753,0
981001,364.43,913,758,0
981011,363.66,913,754,0
981021,364.06,913,758,0
981031,362.33,913,753,0
981041,361.72,913,758,0
981051,359.57,913,754,0
981061,359.27,913,758,0
981071,358.59,913,753,0
981081,361.80,913,758,0
981091,367.99,913,754,0
981101,382.39,913,758,0
981111,404.35,913,754,0
981130,437.93,934,753,0
981133,477.98,934,752,0
981142,522.86,934,759,0
981152,568.28,934,752,0
981163,612.86,934,759,0
981172,652.20,934,753,0
981182,684.80,934,758,0
981192,707.57,934,752,0
981202,723.51,934,759,0
981212,734.67,934,754,0
981222,742.53,934,759,0
981232,747.98,934,752,0
981242,751.80,934,759,0
981252,754.48,934,754,0
981262,754.03,934,759,0
981272,746.65,934,752,0
981282,732.23,934,759,0
981292,709.23,934,753,0
981302,678.95,934,758,0
981312,640.61,934,753,0
981322,595.94,934,759,0
981332,547.06,934,752,0
981342,500.28,934,758,0
981352,455.50,934,752,0
981362,416.52,934,759,0
981372,382.04,934,752,0
981382,355.11,934,758,0
981392,333.73,934,752,0
981402,320.14,934,759,0
981412,311.70,934,752,0
981422,310.59,934,758,0
981432,313.76,934,752,0
981442,322.79,934,759,0
981452,334.21,934,752,0
981463,349.15,934,759,0
981473,364.32,934,750,0
981483,380.72,934,759,0
981493,395.03,934,751,0
981504,408.52,934,765,0
981513,418.35,934,751,0
981523,426.00,934,759,0
981533,429.35,934,752,0
981543,430.18,934,764,0
981553,426.79,934,751,0
981563,421.45,934,759,0
981573,412.96,934,752,0
981583,403.50,934,765,0
981593,392.21,934,751,0
981603,381.52,934,759,0
981613,370.22,934,751,0
981623,360.42,934,764,0
981633,350.83,934,751,0
981643,343.51,934,759,0
981653,336.93,934,751,0
981663,332.66,934,764,0
981673,329.04,934,742,0
981683,327.74,934,759,0
981693,326.87,934,751,0
981703,327.81,934,764,0
981713,328.77,934,741,0
981723,331.28,934,759,0
981733,333.55,934,752,0
981743,337.12,934,764,0
981753,339.95,934,741,0
981763,343.74,934,759,0
981773,346.73,934,751,0
981783,350.24,934,765,0
981793,352.65,934,741,0
981804,355.41,934,767,0
981814,356.96,934,737,0
981824,358.82,934,766,0
981834,359.81,934,737,0
981844,361.16,934,764,0
981854,361.71,934,737,0
981864,362.61,934,766,0
981874,362.81,934,737,0
981884,363.17,934,764,0
981894,362.86,934,737,0
981904,362.77,934,766,0
981914,362.11,934,737,0
981924,361.61,934,765,0
981934,360.61,934,737,0
981944,359.91,934,766,0
981954,358.87,934,738,0
981964,358.05,934,764,0
981975,356.84,934,738,0
981985,355.81,934,763,0
981995,355.23,934,742,0
982005,356.06,934,762,0
982016,359.73,934,745,0
982025,367.78,934,763,0
982035,382.42,934,742,0
982045,405.86,934,762,0
982065,439.89,934,760,0
982068,480.77,934,757,0
982077,525.71,934,753,0
982087,571.27,934,758,0
982097,615.37,934,754,0
982107,654.73,934,759,0
982117,686.74,934,753,0
982127,709.15,934,758,0
982137,724.92,934,754,0
982147,735.91,934,759,0
982157,743.70,934,753,0
982167,749.02,934,758,0
982177,752.83,934,754,0
982188,752.66,934,757,0
982198,747.49,934,756,0
982208,734.06,934,756,0
982218,713.21,934,756,0
982228,683.36,934,755,0
982238,646.87,934,756,0
982248,602.59,934,756,0
982258,555.83,934,756,0
982268,507.32,934,755,0
982278,463.26,934,755,0
982288,422.46,934,756,0
982298,389.37,934,756,0
982308,361.10,934,755,0
982318,341.40,934,755,0
982328,327.05,934,756,0
982338,321.08,934,757,0
982348,319.68,934,755,0
982359,325.35,934,757,0
982369,333.99,934,754,0
982379,347.92,934,758,0
982389,362.73,934,754,0
982400,380.17,934,758,0
982409,395.97,934,754,0
982419,412.31,934,758,0
982429,425.16,934,754,0
982439,436.73,934,758,0
982449,443.58,934,754,0
982459,448.38,934,758,0
982469,448.35,934,754,0
982479,446.49,934,758,0
982489,440.26,934,754,0
982499,433.11,934,758,0
982509,422.70,934,754,0
982519,412.25,934,758,0
982529,399.66,934,754,0
982539,388.62,934,758,0
982549,376.69,934,754,0
982559,366.97,934,758,0
982569,356.99,934,753,0
982579,350.05,934,758,0
982589,343.44,934,754,0
982599,339.83,934,758,0
982609,336.24,934,753,0
982619,335.61,934,758,0
982629,334.87,934,754,0
982639,336.41,934,758,0
982649,337.14,934,753,0
982659,339.93,934,758,0
982669,341.75,934,754,0
982679,345.25,934,758,0
982689,347.62,934,753,0
982700,351.42,934,758,0
982710,354.29,934,752,0
982720,358.58,934,759,0
982730,361.49,934,751,0
982740,365.59,934,759,0
982750,368.28,934,752,0
982760,371.88,934,759,0
982770,373.85,934,751,0
982780,376.46,934,759,0
982790,377.44,934,752,0
982800,379.24,934,759,0
982810,379.29,934,752,0
982820,379.81,934,759,0
982830,378.71,934,752,0
982840,378.49,934,759,0
982850,376.76,934,752,0
982860,375.72,934,759,0
982871,373.02,934,751,0
982881,371.21,934,759,0
982891,368.71,934,752,0
982901,368.07,934,762,0
982912,368.65,934,745,0
982921,374.02,934,759,0
982931,384.52,934,752,0
982941,404.46,934,762,0
982951,433.77,934,745,0
982970,471.72,906,750,0
982973,514.28,906,739,0
982982,559.28,906,767,0
982992,603.12,906,737,0
983002,643.72,906,767,0
983012,677.23,906,739,0
983022,702.27,906,767,0
983032,719.76,906,737,0
983042,732.05,906,767,0
983052,740.65,906,739,0
983062,746.71,906,767,0
983072,750.91,906,736,0
983083,753.85,906,765,0
983092,753.94,906,739,0
983102,748.86,906,766,0
983112,736.17,906,736,0
983122,715.51,906,764,0
983132,686.47,906,739,0
983142,649.94,906,767,0
983152,606.03,906,736,0
983162,557.81,906,764,0
983172,508.62,906,739,0
983182,462.49,906,766,0
983192,420.43,906,736,0
983202,384.64,906,765,0
983212,355.05,906,739,0
983222,333.14,906,766,0
983232,318.18,906,736,0
983242,310.71,906,764,0
983252,309.60,906,738,0
983262,315.03,906,766,0
983272,324.92,906,736,0
983282,339.05,906,764,0
983292,355.28,906,738,0
983302,373.19,906,766,0
983312,390.36,906,736,0
983322,406.50,906,764,0
983332,419.98,906,738,0
983342,431.13,906,767,0
983352,438.29,906,736,0
983362,442.02,906,765,0
983372,441.71,906,738,0
983383,438.50,906,763,0
983393,432.13,906,740,0
983403,423.27,906,762,0
983413,412.43,906,743,0
983424,400.43,906,761,0
983433,387.91,906,740,0
983443,375.68,906,762,0
983453,364.55,906,743,0
983463,354.53,906,761,0
983473,346.31,906,740,0
983483,339.53,906,762,0
983493,335.04,906,743,0
983503,331.90,906,761,0
983513,330.39,906,740,0
983523,329.84,906,762,0
983533,330.83,906,743,0
983543,332.38,906,761,0
983553,334.75,906,740,0
983563,337.23,906,762,0
983573,340.46,906,743,0
983583,343.49,906,761,0
983593,346.90,906,747,0
983603,349.50,906,762,0
983613,352.18,906,743,0
983623,354.14,906,761,0
983633,356.41,906,747,0
983643,357.96,906,762,0
983653,359.60,906,743,0
983663,360.32,906,761,0
983673,361.51,906,747,0
983683,362.26,906,762,0
983693,363.38,906,743,0
983703,363.69,906,761,0
983713,364.47,906,747,0
983724,364.72,906,760,0
983734,365.79,906,752,0
983744,365.94,906,759,0
983754,366.94,906,752,0
983764,367.04,906,759,0
983774,367.72,906,752,0
983784,367.20,906,759,0
983794,367.44,906,752,0
983804,366.32,906,758,0
983814,366.61,906,752,0
983824,367.03,906,759,0
983834,371.48,906,752,0
983844,379.65,906,759,0
983854,395.65,906,752,0
983864,419.80,906,759,0
983883,454.32,913,758,0
983886,494.64,913,755,0
983895,538.97,913,753,0
983905,583.25,913,758,0
983915,625.78,913,754,0
983925,662.83,913,757,0
983936,692.45,913,756,0
983945,713.15,913,758,0
983955,727.72,913,754,0
983965,737.83,913,757,0
983975,744.95,913,756,0
983985,749.90,913,758,0
983995,753.40,913,754,0
984005,755.81,913,757,0
984015,757.54,913,756,0
984025,757.59,913,758,0
984035,754.20,913,754,0
984045,743.60,913,757,0
984055,726.06,913,756,0
984065,699.73,913,758,0
984075,666.34,913,754,0
984085,624.84,913,757,0
984095,578.69,913,756,0
984105,529.15,913,756,0
984115,482.73,913,754,0
984125,438.80,913,757,0
984135,402.05,913,756,0
984145,370.27,913,756,0
984155,347.31,913,754,0
984165,330.16,913,757,0
984175,321.84,913,756,0
984185,318.67,913,756,0
984195,323.14,913,754,0
984205,330.99,913,757,0
984215,344.36,913,756,0
984225,358.65,913,756,0
984236,375.90,913,757,0
984246,391.57,913,755,0
984256,407.73,913,758,0
984266,420.20,913,754,0
984276,431.19,913,758,0
984286,437.26,913,755,0
984296,441.17,913,758,0
984306,439.88,913,754,0
984316,436.61,913,758,0
984326,429.02,913,755,0
984336,420.83,913,758,0
984346,409.73,913,754,0
984356,399.23,913,758,0
984366,387.25,913,755,0
984376,377.23,913,758,0
984386,366.75,913,754,0
984396,358.85,913,758,0
984407,350.84,913,754,0
984417,345.92,913,758,0
984427,341.18,913,753,0
984437,339.16,913,758,0
984448,337.01,913,752,0
984457,337.74,913,758,0
984467,338.16,913,753,0
984477,340.72,913,759,0
984487,342.26,913,752,0
984497,345.36,913,758,0
984507,347.26,913,753,0
984517,350.44,913,759,0
984527,352.07,913,752,0
984537,354.83,913,758,0
984547,355.95,913,753,0
984557,358.11,913,758,0
984567,358.81,913,752,0
984577,360.88,913,758,0
984587,361.47,913,753,0
984597,363.30,913,758,0
984607,363.55,913,751,0
984617,364.85,913,759,0
984627,364.89,913,753,0
984637,366.08,913,758,0
984647,365.76,913,752,0
984657,366.56,913,759,0
984667,365.88,913,753,0
984677,366.43,913,758,0
984687,365.70,913,751,0
984697,365.92,913,759,0
984707,364.61,913,753,0
984717,364.26,913,759,0
984727,362.77,913,752,0
984737,363.22,913,759,0
984748,364.66,913,752,0
984758,371.27,913,759,0
984768,383.19,913,751,0
984778,405.03,913,759,0
984798,436.57,914,761,0
984801,476.30,914,764,0
984810,520.01,914,737,0
984820,565.91,914,765,0
984830,610.03,914,738,0
984840,650.35,914,767,0
984850,682.95,914,737,0
984860,706.36,914,765,0
984870,722.75,914,738,0
984880,734.23,914,766,0
984890,742.22,914,737,0
984900,747.81,914,765,0
984910,751.72,914,738,0
984920,754.46,914,766,0
984930,756.34,914,737,0
984940,754.52,914,764,0
984950,746.48,914,738,0
984961,731.29,914,763,0
984971,708.28,914,741,0
984981,677.34,914,762,0
984991,639.31,914,745,0
985001,594.39,914,761,0
985011,547.00,914,741,0
985021,500.41,914,762,0
985031,457.18,914,745,0
985041,418.55,914,761,0
985051,386.24,914,741,0
985061,360.11,914,762,0
985071,341.52,914,745,0
985081,329.41,914,761,0
985091,324.19,914,741,0
985101,324.77,914,762,0
985111,331.14,914,744,0
985121,341.30,914,761,0
985132,355.09,914,749,0
985142,370.02,914,759,0
985152,386.30,914,752,0
985162,401.30,914,759,0
985172,415.22,914,752,0
985182,425.78,914,759,0
985192,433.91,914,752,0
985202,437.71,914,759,0
985212,439.04,914,752,0
985222,435.90,914,759,0
985232,430.87,914,752,0
985242,422.30,914,759,0
985252,413.25,914,752,0
985262,402.25,914,759,0
985272,391.93,914,752,0
985282,380.64,914,759,0
985292,371.49,914,753,0
985303,362.30,914,758,0
985313,355.91,914,754,0
985323,349.64,914,758,0
985333,346.27,914,755,0
985344,343.15,914,756,0
985353,342.72,914,754,0
985363,341.90,914,758,0
985373,343.65,914,755,0
985383,344.52,914,756,0
985393,347.58,914,754,0
985403,349.25,914,758,0
985413,352.52,914,755,0
985423,354.21,914,756,0
985433,357.27,914,754,0
985443,358.56,914,758,0
985453,361.44,914,755,0
985463,362.59,914,756,0
985473,365.33,914,754,0
985483,366.60,914,757,0
985493,369.42,914,755,0
985503,370.62,914,756,0
985513,373.31,914,756,0
985523,374.07,914,757,0
985533,376.11,914,755,0
985543,376.20,914,756,0
985553,377.43,914,756,0
985563,376.79,914,758,0
985573,377.54,914,755,0
985583,376.39,914,756,0
985593,376.44,914,756,0
985603,374.68,914,757,0
985613,374.43,914,755,0
985623,372.46,914,756,0
985633,371.94,914,756,0
985644,369.81,914,755,0
985654,369.96,914,757,0
985664,370.44,914,754,0
985674,375.79,914,758,0
985684,385.07,914,754,0
985694,403.35,914,757,0
985704,429.69,914,754,0
985723,465.78,926,753,0
985726,506.73,926,752,0
985735,551.26,926,758,0
985745,594.94,926,753,0
985755,636.23,926,758,0
985765,671.00,926,753,0
985775,698.17,926,758,0
985785,717.15,926,754,0
985795,730.48,926,758,0
985805,739.76,926,753,0
985815,746.30,926,758,0
985825,750.84,926,753,0
985835,754.06,926,758,0
985845,756.27,926,754,0
985856,755.63,926,759,0
985865,749.01,926,753,0
985875,736.32,926,758,0
985885,715.61,926,753,0
985895,687.96,926,759,0
985905,652.66,926,753,0
985915,611.66,926,758,0
985925,566.33,926,753,0
985935,522.09,926,759,0
985945,478.82,926,754,0
985955,440.86,926,758,0
985965,407.00,926,753,0
985975,380.17,926,759,0
985985,358.22,926,754,0
985995,344.23,926,758,0
986005,335.42,926,753,0
986015,334.05,926,759,0
986025,336.86,926,752,0
986035,345.52,926,758,0
986045,356.42,926,753,0
986055,370.87,926,759,0
986065,384.96,926,752,0
986075,400.23,926,758,0
986085,412.80,926,753,0
986095,424.35,926,759,0
986105,431.57,926,752,0
986115,436.80,926,758,0
986125,437.33,926,753,0
986135,436.08,926,759,0
986145,430.61,926,752,0
986156,424.04,926,759,0
986166,414.56,926,752,0
986176,405.13,926,759,0
986186,394.08,926,752,0
986196,384.28,926,760,0
986206,373.78,926,752,0
986216,365.41,926,759,0
986226,357.14,926,751,0
986236,351.10,926,760,0
986246,345.54,926,752,0
986256,342.38,926,759,0
986266,339.78,926,751,0
986276,339.37,926,759,0
986286,338.96,926,752,0
986296,340.47,926,759,0
986306,342.09,926,751,0
986316,345.49,926,759,0
986327,348.47,926,750,0
986337,352.40,926,766,0
986347,355.62,926,740,0
986357,359.55,926,767,0
986368,362.64,926,737,0
986377,366.22,926,766,0
986387,368.47,926,740,0
986397,371.03,926,767,0
986407,372.48,926,737,0
986417,374.31,926,766,0
986427,374.99,926,740,0
986437,375.59,926,767,0
986447,375.16,926,737,0
986457,375.24,926,766,0
986467,374.48,926,741,0
986477,374.16,926,767,0
986487,372.92,926,737,0
986497,372.43,926,766,0
986507,371.53,926,740,0
986517,371.15,926,767,0
986527,369.91,926,736,0
986537,369.04,926,765,0
986547,367.74,926,740,0
986557,367.09,926,767,0
986567,366.63,926,737,0
986577,368.84,926,765,0
986587,374.12,926,741,0
986597,385.78,926,767,0
986607,404.75,926,737,0
986617,433.58,926,765,0
986636,470.56,913,766,0
986639,512.99,913,762,0
986648,557.31,913,739,0
986658,601.32,913,763,0
986668,641.47,913,738,0
986678,675.74,913,763,0
986688,701.36,913,739,0
986698,719.30,913,763,0
986708,731.89,913,742,0
986718,740.67,913,764,0
986728,746.81,913,739,0
986738,751.11,913,763,0
986748,754.16,913,742,0
986758,754.54,913,764,0
986768,749.67,913,739,0
986778,738.15,913,763,0
986788,719.21,913,742,0
986798,692.87,913,763,0
986808,659.01,913,739,0
986818,618.34,913,763,0
986828,573.36,913,742,0
986839,527.53,913,762,0
986849,483.74,913,746,0
986859,443.45,913,760,0
986869,408.38,913,751,0
986880,379.04,913,759,0
986889,356.27,913,746,0
986899,339.90,913,760,0
986909,330.55,913,751,0
986919,326.78,913,759,0
986929,329.03,913,745,0
986939,335.28,913,760,0
986949,346.08,913,751,0
986959,358.74,913,759,0
986969,373.01,913,745,0
986979,386.68,913,760,0
986989,399.93,913,751,0
986999,410.84,913,759,0
987009,419.71,913,745,0
987019,424.73,913,760,0
987029,427.34,913,751,0
987039,426.25,913,759,0
987049,423.35,913,752,0
987059,417.50,913,760,0
987069,410.54,913,751,0
987079,401.80,913,759,0
987089,393.33,913,752,0
987099,384.11,913,760,0
987109,376.02,913,750,0
987119,367.57,913,759,0
987129,361.01,913,752,0
987139,354.71,913,760,0
987149,350.34,913,750,0
987159,346.21,913,759,0
987169,344.17,913,751,0
987180,342.32,913,759,0
987190,342.65,913,753,0
987200,342.59,913,758,0
987210,344.60,913,753,0
987220,346.00,913,757,0
987230,348.92,913,753,0
987240,350.74,913,758,0
987250,354.08,913,753,0
987260,355.94,913,757,0
987270,359.09,913,753,0
987280,360.47,913,758,0
987290,363.25,913,754,0
987300,364.46,913,757,0
987310,366.89,913,753,0
987320,367.61,913,758,0
987330,369.70,913,754,0
987340,370.13,913,757,0
987351,371.89,913,756,0
987361,371.88,913,756,0
987371,373.29,913,756,0
987381,373.03,913,755,0
987392,373.92,913,758,0
987401,372.83,913,756,0
987411,372.84,913,756,0
987421,370.83,913,755,0
987431,370.07,913,758,0
987441,367.30,913,756,0
987451,366.23,913,756,0
987461,364.57,913,755,0
987471,366.84,913,757,0
987481,371.39,913,756,0
987491,383.27,913,756,0
987501,401.45,913,755,0
987521,430.76,884,754,0
987524,467.69,884,752,0
987533,510.55,884,758,0
987543,554.74,884,753,0
987553,599.22,884,759,0
987564,639.57,884,752,0
987574,674.58,884,759,0
987584,700.55,884,751,0
987594,718.77,884,759,0
987604,731.53,884,752,0
987614,740.45,884,759,0
987624,746.66,884,752,0
987634,751.05,884,759,0
987644,752.88,884,752,0
987654,750.90,884,759,0
987664,742.14,884,752,0
987674,726.54,884,759,0
987684,702.42,884,752,0
987694,671.18,884,759,0
987704,631.91,884,751,0
987714,587.54,884,759,0
987724,539.51,884,752,0
987735,492.85,884,762,0
987745,448.07,884,746,0
987755,408.79,884,767,0
987765,374.10,884,739,0
987776,346.60,884,766,0
987785,325.07,884,747,0
987795,311.42,884,767,0
987805,303.84,884,739,0
987815,303.33,884,766,0
987825,307.60,884,747,0
987835,317.15,884,767,0
987845,329.58,884,739,0
987855,344.88,884,766,0
987865,360.34,884,747,0
987875,376.27,884,767,0
987885,390.24,884,738,0
987895,402.77,884,767,0
987905,411.93,884,746,0
987915,418.59,884,767,0
987925,421.24,884,739,0
987935,421.26,884,767,0
987945,417.45,884,736,0
987955,411.70,884,767,0
987965,403.26,884,739,0
987975,393.88,884,767,0
987985,383.03,884,736,0
987995,372.74,884,767,0
988005,362.10,884,739,0
988015,352.90,884,767,0
988025,344.19,884,736,0
988035,337.53,884,767,0
988045,331.71,884,739,0
988055,327.81,884,767,0
988065,324.66,884,736,0
988076,323.34,884,765,0
988086,322.68,884,738,0
988096,323.34,884,764,0
988106,324.44,884,739,0
988116,326.40,884,763,0
988126,328.43,884,738,0
988136,331.00,884,764,0
988146,333.53,884,739,0
988156,336.24,884,762,0
988166,338.74,884,738,0
988176,341.26,884,764,0
988186,343.93,884,739,0
988196,346.73,884,762,0
988206,349.26,884,738,0
988216,351.71,884,764,0
988226,354.02,884,739,0
988236,356.29,884,763,0
988247,358.43,884,743,0
988257,359.93,884,761,0
988267,361.41,884,748,0
988277,362.31,884,760,0
988288,363.29,884,752,0
988297,363.59,884,761,0
988307,363.71,884,748,0
988317,362.77,884,760,0
988327,362.11,884,752,0
988337,360.23,884,761,0
988347,358.58,884,747,0
988357,355.88,884,759,0
988367,354.37,884,752,0
988377,353.66,884,761,0
988387,356.25,884,747,0
988397,362.39,884,760,0
988407,375.69,884,752,0
988417,396.61,884,761,0
988436,427.88,916,759,0
988439,466.88,916,758,0
988448,510.97,916,754,0
988459,556.54,916,758,0
988468,601.29,916,752,0
988478,641.70,916,759,0
988488,676.16,916,753,0
988498,701.87,916,758,0
988508,719.87,916,752,0
988518,732.38,916,759,0
988528,741.22,916,754,0
988538,747.37,916,758,0
988548,751.72,916,752,0
988558,754.67,916,759,0
988568,756.83,916,754,0
988578,754.35,916,758,0
988588,746.45,916,752,0
988598,730.80,916,759,0
988608,708.10,916,753,0
988618,676.87,916,758,0
988628,639.07,916,754,0
988638,593.96,916,759,0
988648,547.82,916,753,0
988658,501.03,916,758,0
988668,458.46,916,755,0
988678,419.07,916,759,0
988688,386.73,916,753,0
988698,359.04,916,758,0
988708,339.06,916,754,0
988718,323.87,916,759,0
988728,316.41,916,753,0
988738,313.20,916,758,0
988748,316.83,916,755,0
988759,323.39,916,757,0
988769,334.97,916,756,0
988779,347.41,916,756,0
988789,362.42,916,757,0
988800,375.75,916,755,0
988809,389.54,916,756,0
988819,399.83,916,756,0
988829,409.01,916,757,0
988839,413.55,916,755,0
988849,416.51,916,756,0
988859,414.99,916,756,0
988869,412.08,916,757,0
988879,405.07,916,755,0
988889,397.68,916,756,0
988899,387.53,916,756,0
988909,378.41,916,757,0
988919,367.53,916,755,0
988929,358.80,916,756,0
988939,349.60,916,756,0
988949,343.38,916,757,0
988959,336.88,916,755,0
988969,333.36,916,758,0
988979,329.61,916,756,0
988989,328.78,916,757,0
988999,327.43,916,755,0
989009,328.63,916,758,0
989019,329.04,916,756,0
989029,331.69,916,757,0
989039,333.15,916,755,0
989049,336.41,916,758,0
989059,338.34,916,756,0
989069,341.75,916,757,0
989079,343.33,916,755,0
989089,346.14,916,758,0
989100,347.17,916,754,0
989110,349.43,916,758,0
989120,349.82,916,753,0
989130,351.24,916,758,0
989140,351.17,916,753,0
989150,352.79,916,758,0
989160,352.73,916,753,0
989170,353.96,916,758,0
989180,353.72,916,753,0
989190,354.92,916,758,0
989200,354.60,916,753,0
989210,355.32,916,758,0
989220,354.24,916,753,0
989230,354.64,916,758,0
989240,353.50,916,753,0
989250,353.65,916,758,0
989260,352.39,916,753,0
989271,352.27,916,759,0
989281,350.77,916,752,0
989291,350.46,916,759,0
989301,348.86,916,752,0
989312,349.20,916,759,0
989321,350.09,916,752,0
989331,355.63,916,759,0
989341,365.51,916,752,0
989351,384.26,916,759,0
989370,411.10,934,757,0
989373,448.14,934,769,0
989382,490.78,934,752,0
989392,537.01,934,763,0
989402,582.60,934,751,0
989412,625.84,934,759,0
989422,662.66,934,752,0
989432,692.16,934,763,0
989442,712.77,934,751,0
989452,727.20,934,759,0
989462,737.29,934,752,0
989472,744.36,934,763,0
989483,749.27,934,745,0
989492,752.70,934,759,0
989502,754.38,934,752,0
989512,752.21,934,763,0
989522,743.32,934,745,0
989532,728.01,934,759,0
989542,704.52,934,752,0
989552,673.76,934,762,0
989562,635.39,934,745,0
989572,591.73,934,759,0
989582,544.97,934,752,0
989592,499.81,934,763,0
989602,456.11,934,746,0
989612,417.68,934,759,0
989622,383.53,934,752,0
989632,355.81,934,762,0
989642,333.20,934,746,0
989652,317.50,934,767,0
989662,307.10,934,752,0
989672,303.30,934,762,0
989682,303.68,934,746,0
989692,309.43,934,767,0
989702,318.09,934,752,0
989712,330.23,934,762,0
989722,343.19,934,746,0
989732,357.11,934,766,0
989742,369.46,934,752,0
989752,381.11,934,762,0
989762,389.60,934,746,0
989772,395.98,934,766,0
989783,398.51,934,739,0
989793,398.70,934,767,0
989803,395.54,934,736,0
989813,390.70,934,764,0
989824,383.51,934,738,0
989833,376.07,934,767,0
989843,367.61,934,736,0
989853,359.71,934,765,0
989863,351.83,934,738,0
989873,345.28,934,767,0
989883,339.28,934,736,0
989893,334.65,934,765,0
989903,330.60,934,738,0
989913,328.06,934,767,0
989923,325.99,934,736,0
989933,325.09,934,765,0
989943,324.59,934,738,0
989953,325.06,934,767,0
989963,325.55,934,736,0
989973,326.72,934,764,0
989983,327.96,934,738,0
989993,329.90,934,764,0
990003,331.60,934,736,0
990013,333.91,934,764,0
990023,336.12,934,738,0
990033,339.00,934,764,0
990043,341.53,934,737,0
990053,343.98,934,765,0
990063,345.87,934,738,0
990073,347.67,934,764,0
990083,348.58,934,736,0
990093,349.44,934,765,0
990103,349.61,934,738,0
990113,349.90,934,764,0
990124,350.14,934,739,0
990134,350.36,934,762,0
990144,350.89,934,743,0
990154,351.48,934,761,0
990164,352.19,934,748,0
990174,352.69,934,762,0
990184,353.09,934,743,0
990194,352.93,934,761,0
990204,352.91,934,748,0
990214,352.29,934,763,0
990224,351.69,934,743,0
990234,350.33,934,761,0
990244,349.54,934,748,0
990254,348.65,934,762,0
990264,349.31,934,743,0
990274,351.92,934,762,0
990284,358.93,934,748,0
990295,371.72,934,760,0
990305,393.45,934,752,0
990324,424.56,954,751,0
990327,464.20,954,758,0
990337,508.46,954,757,0
990347,554.82,954,756,0
990357,599.87,954,756,0
990367,641.31,954,757,0
990377,675.68,954,755,0
990387,701.44,954,756,0
990397,719.40,954,756,0
990407,732.05,954,757,0
990417,740.82,954,755,0
990427,747.00,954,756,0
990437,751.29,954,756,0
990447,754.33,954,757,0
990457,752.09,954,755,0
990467,744.73,954,756,0
990477,729.17,954,756,0
990487,706.45,954,757,0
990497,675.20,954,755,0
990508,637.60,954,758,0
990518,592.80,954,754,0
990528,547.39,954,758,0
990538,500.77,954,754,0
990548,458.54,954,758,0
990558,419.55,954,754,0
990568,387.33,954,758,0
990578,359.33,954,754,0
990588,338.70,954,758,0
990598,322.81,954,755,0
990608,314.42,954,758,0
990618,310.31,954,754,0
990628,312.53,954,758,0
990638,317.73,954,754,0
990648,327.88,954,758,0
990658,339.02,954,754,0
990668,352.64,954,758,0
990679,365.09,954,753,0
990689,377.96,954,759,0
990699,387.87,954,752,0
990709,396.78,954,759,0
990720,401.48,954,752,0
990729,404.72,954,759,0
990739,403.86,954,752,0
990749,401.42,954,758,0
990759,395.55,954,752,0
990769,388.91,954,759,0
990779,379.55,954,752,0
990789,370.56,954,758,0
990799,360.06,954,752,0
990809,351.17,954,759,0
990819,341.99,954,752,0
990829,335.05,954,758,0
990839,328.52,954,752,0
990849,325.07,954,759,0
990859,322.13,954,752,0
990869,321.79,954,758,0
990879,321.60,954,752,0
990889,323.56,954,759,0
990899,325.24,954,752,0
990909,328.68,954,759,0
990919,331.18,954,752,0
990929,335.07,954,759,0
990939,337.79,954,752,0
990949,341.41,954,758,0
990959,343.77,954,752,0
990969,346.75,954,759,0
990979,348.11,954,752,0
990989,350.18,954,759,0
990999,350.81,954,752,0
991009,352.28,954,759,0
991020,352.37,954,751,0
991030,353.20,954,759,0
991040,353.10,954,752,0
991050,353.71,954,764,0
991060,353.33,954,743,0
991070,353.61,954,759,0
991080,352.79,954,752,0
991090,352.77,954,764,0
991100,351.81,954,743,0
991110,351.61,954,759,0
991120,350.53,954,752,0
991130,349.98,954,764,0
991140,348.36,954,743,0
991150,347.48,954,759,0
991160,345.71,954,752,0
991170,344.51,954,764,0
991180,342.30,954,743,0
991191,340.88,954,767,0
991201,338.86,954,737,0
991211,338.04,954,767,0
991221,337.09,954,737,0
991232,338.18,954,765,0
991241,341.38,954,738,0
991251,349.71,954,767,0
991261,363.94,954,737,0
991271,387.49,954,765,0
991290,420.43,966,766,0
991293,461.57,966,762,0
991302,507.08,966,741,0
991312,554.42,966,763,0
991322,600.15,966,738,0
991332,641.85,966,764,0
991342,676.09,966,740,0
991352,701.48,966,763,0
991362,719.25,966,738,0
991372,731.69,966,764,0
991382,740.44,966,741,0
991392,746.56,966,763,0
991403,750.90,966,744,0
991412,751.91,966,764,0
991422,746.97,966,740,0
991432,734.46,966,763,0
991442,713.75,966,744,0
991452,684.94,966,764,0
991462,648.49,966,740,0
991472,604.88,966,763,0
991482,557.35,966,744,0
991492,509.71,966,764,0
991502,464.71,966,740,0
991512,423.91,966,762,0
991522,388.58,966,743,0
991532,359.01,966,764,0
991542,335.56,966,740,0
991552,317.95,966,763,0
991562,306.57,966,743,0
991572,300.82,966,761,0
991582,300.45,966,740,0
991592,304.60,966,763,0
991602,312.99,966,743,0
991612,324.44,966,761,0
991622,337.98,966,740,0
991632,352.13,966,763,0
991642,366.40,966,743,0
991652,379.44,966,761,0
991662,390.66,966,740,0
991672,399.12,966,763,0
991682,404.91,966,743,0
991692,407.47,966,761,0
991703,407.37,966,748,0
991713,403.87,966,760,0
991723,398.77,966,751,0
991733,391.04,966,759,0
991744,382.58,966,753,0
991753,372.72,966,760,0
991763,363.33,966,751,0
991773,353.46,966,759,0
991783,345.35,966,752,0
991793,337.32,966,760,0
991803,331.52,966,752,0
991813,325.97,966,759,0
991823,322.85,966,753,0
991833,320.15,966,760,0
991843,319.59,966,752,0
991853,318.81,966,759,0
991863,320.03,966,753,0
991873,321.00,966,760,0
991883,323.49,966,752,0
991893,325.27,966,759,0
991903,328.36,966,753,0
991913,330.57,966,759,0
991923,333.83,966,752,0
991933,335.72,966,759,0
991943,338.55,966,753,0
991953,339.97,966,759,0
991963,342.12,966,752,0
991973,342.73,966,759,0
991983,344.22,966,753,0
991993,344.54,966,759,0
992003,345.71,966,752,0
992013,345.88,966,759,0
992023,347.29,966,752,0
992033,347.59,966,759,0
992044,349.30,966,753,0
992054,349.68,966,758,0
992064,351.40,966,754,0
992074,351.93,966,757,0
992084,353.58,966,756,0
992094,353.88,966,758,0
992104,355.37,966,755,0
992114,355.09,966,757,0
992124,355.79,966,756,0
992134,354.48,966,758,0
992144,354.29,966,755,0
992154,352.11,966,757,0
992164,351.22,966,756,0
992174,348.97,966,758,0
992184,349.23,966,755,0
992194,350.53,966,757,0
992204,357.57,966,756,0
992215,369.36,966,756,0
992225,391.28,966,757,0
992244,421.97,954,757,0
992247,461.79,954,760,0
992257,505.87,954,753,0
992267,552.71,954,759,0
992277,597.84,954,753,0
992287,639.80,954,759,0
992297,674.19,954,752,0
992307,700.19,954,759,0
992317,718.39,954,753,0
992327,731.17,954,759,0
992337,740.08,954,752,0
992347,746.31,954,759,0
992357,750.08,954,753,0
992367,749.50,954,759,0
992377,741.25,954,752,0
992387,725.53,954,759,0
992397,700.60,954,753,0
992407,667.89,954,759,0
992417,626.87,954,752,0
992428,580.06,954,759,0
992438,529.82,954,752,0
992448,481.91,954,759,0
992458,436.38,954,751,0
992468,397.14,954,764,0
992478,363.15,954,752,0
992488,336.92,954,759,0
992498,316.55,954,751,0
992508,303.74,954,764,0
992518,296.15,954,752,0
992528,295.42,954,759,0
992538,299.02,954,751,0
992548,307.71,954,763,0
992558,318.81,954,752,0
992568,333.10,954,759,0
992578,347.94,954,751,0
992588,363.99,954,764,0
992599,378.43,954,744,0
992609,391.93,954,767,0
992619,402.28,954,737,0
992629,410.30,954,767,0
992640,414.32,954,737,0
992649,415.68,954,767,0
992659,413.03,954,738,0
992669,408.01,954,767,0
992679,400.12,954,737,0
992689,391.13,954,767,0
992699,380.46,954,738,0
992709,369.78,954,767,0
992719,358.45,954,737,0
992729,348.41,954,767,0
992739,338.82,954,738,0
992749,330.81,954,767,0
992759,323.67,954,737,0
992769,318.54,954,767,0
992779,314.39,954,738,0
992789,312.26,954,767,0
992799,310.98,954,737,0
992809,311.42,954,765,0
992819,312.45,954,738,0
992829,314.84,954,767,0
992839,317.25,954,737,0
992849,320.30,954,764,0
992859,322.87,954,738,0
992869,325.74,954,767,0
992879,328.13,954,737,0
992889,330.79,954,765,0
992899,332.87,954,738,0
992909,335.65,954,767,0
992919,337.94,954,737,0
992929,340.74,954,765,0
992940,343.22,954,738,0
992950,345.94,954,764,0
992960,348.36,954,740,0
992970,350.48,954,763,0
992980,352.14,954,744,0
992990,353.68,954,764,0
993000,354.68,954,740,0
993010,355.07,954,763,0
993020,355.01,954,744,0
993030,354.53,954,764,0
993040,353.99,954,740,0
993050,352.75,954,763,0
993060,351.80,954,744,0
993070,350.74,954,764,0
993080,349.88,954,740,0
993090,348.71,954,763,0
993100,347.69,954,744,0
993111,346.45,954,761,0
993121,346.02,954,749,0
993131,345.54,954,760,0
993141,347.13,954,752,0
993152,351.34,954,759,0
993161,360.66,954,749,0
993171,376.37,954,760,0
993181,401.84,954,752,0
993201,437.12,956,751,0
993204,479.51,956,758,0
993213,525.00,956,757,0
993223,571.67,956,757,0
993233,616.00,956,756,0
993243,655.77,956,755,0
993253,687.25,956,757,0
993263,709.38,956,756,0
993273,724.82,956,756,0
993283,735.72,956,755,0
993293,743.26,956,757,0
993303,748.62,956,757,0
993313,752.29,956,756,0
993324,754.95,956,757,0
993334,754.36,956,755,0
993344,749.33,956,759,0
993354,736.33,956,754,0
993364,716.22,956,758,0
993374,687.39,956,755,0
993384,651.96,956,758,0
993394,608.77,956,755,0
993404,562.60,956,758,0
993414,514.76,956,755,0
993424,471.16,956,758,0
993434,430.61,956,754,0
993444,397.21,956,758,0
993454,368.52,956,755,0
993464,347.97,956,758,0
993474,332.50,956,754,0
993484,324.42,956,758,0
993495,320.78,956,754,0
993505,323.76,956,758,0
993515,329.66,956,753,0
993525,340.18,956,759,0
993536,351.70,956,753,0
993545,365.97,956,758,0
993555,379.35,956,753,0
993565,393.30,956,759,0
993575,404.40,956,753,0
993585,414.61,956,758,0
993595,421.03,956,753,0
993605,425.65,956,759,0
993615,425.92,956,753,0
993625,424.49,956,758,0
993635,419.03,956,753,0
993645,412.38,956,759,0
993655,402.54,956,752,0
993665,392.77,956,758,0
993675,381.36,956,753,0
993685,371.22,956,759,0
993695,360.48,956,752,0
993705,351.94,956,759,0
993715,343.64,956,753,0
993725,338.22,956,759,0
993735,333.10,956,752,0
993745,330.63,956,759,0
993755,328.42,956,753,0
993765,328.60,956,759,0
993775,328.63,956,753,0
993785,330.67,956,759,0
993795,332.23,956,753,0
993805,335.54,956,759,0
993815,338.04,956,752,0
993825,341.76,956,759,0
993836,344.14,956,752,0
993846,347.40,956,759,0
993856,349.34,956,752,0
993866,351.85,956,759,0
993876,352.97,956,752,0
993886,354.82,956,759,0
993896,355.35,956,752,0
993906,356.66,956,759,0
993916,356.93,956,752,0
993926,358.11,956,759,0
993936,358.33,956,752,0
993946,359.26,956,759,0
993956,359.18,956,752,0
993966,359.90,956,759,0
993976,359.67,956,752,0
993986,360.20,956,759,0
993996,359.67,956,752,0
994007,359.81,956,764,0
994017,358.88,956,742,0
994027,358.49,956,767,0
994037,357.10,956,737,0
994048,356.17,956,767,0
994057,354.28,956,743,0
994067,352.99,956,768,0
994077,351.41,956,737,0
994087,351.50,956,767,0
994097,352.94,956,743,0
994107,358.61,956,767,0
994117,369.49,956,737,0
994127,389.14,956,767,0
994146,417.77,946,765,0
994149,455.51,946,764,0
994158,498.51,946,739,0
994168,544.47,946,764,0
994178,589.85,946,737,0
994188,632.28,946,765,0
994198,668.02,946,739,0
994208,695.74,946,764,0
994219,715.19,946,741,0
994228,728.85,946,765,0
994238,738.37,946,739,0
994248,745.07,946,763,0
994258,749.76,946,740,0
994268,753.09,946,765,0
994278,752.89,946,738,0
994288,746.97,946,763,0
994298,733.65,946,740,0
994308,712.67,946,765,0
994318,683.50,946,738,0
994328,646.83,946,763,0
994338,603.60,946,740,0
994348,557.22,946,765,0
994358,510.91,946,738,0
994368,467.48,946,764,0
994378,428.46,946,740,0
994388,395.11,946,763,0
994398,367.65,946,738,0
994408,346.28,946,764,0
994418,330.90,946,740,0
994428,321.46,946,763,0
994438,317.42,946,738,0
994448,318.45,946,764,0
994458,324.19,946,740,0
994468,333.69,946,763,0
994478,345.65,946,738,0
994488,359.39,946,763,0
994498,373.93,946,740,0
994508,388.48,946,763,0
994519,402.05,946,744,0
994529,413.39,946,761,0
994539,422.66,946,749,0
994549,428.72,946,760,0
994560,432.15,946,752,0
994569,432.06,946,761,0
994579,429.30,946,749,0
994589,423.25,946,760,0
994599,415.72,946,752,0
994609,405.86,946,761,0
994619,395.92,946,749,0
994629,384.71,946,760,0
994639,374.64,946,752,0
994649,364.55,946,761,0
994659,356.24,946,748,0
994669,348.41,946,760,0
994679,342.97,946,752,0
994689,338.31,946,761,0
994699,335.77,946,748,0
994709,333.61,946,760,0
994719,333.52,946,752,0
994729,333.70,946,760,0
994739,335.34,946,748,0
994749,336.61,946,760,0
994759,339.30,946,752,0
994769,341.61,946,759,0
994779,344.94,946,748,0
994789,347.57,946,760,0
994799,351.13,946,752,0
994809,353.92,946,759,0
994819,357.33,946,748,0
994829,359.63,946,760,0
994839,362.57,946,752,0
994849,364.07,946,759,0
994860,366.06,946,752,0
994870,366.47,946,759,0
994880,367.87,946,753,0
994890,368.00,946,758,0
994900,368.98,946,754,0
994910,368.73,946,759,0
994920,369.84,946,754,0
994930,369.76,946,758,0
994940,371.16,946,755,0
994950,370.90,946,759,0
994960,371.96,946,753,0
994970,371.28,946,758,0
994980,371.80,946,754,0
994990,370.53,946,759,0
995000,370.24,946,753,0
995010,368.11,946,758,0
995020,367.31,946,754,0
995031,365.16,946,757,0
995041,365.75,946,756,0
995051,367.20,946,756,0
995061,374.64,946,757,0
995072,387.35,946,755,0
995081,410.26,946,756,0
995100,442.11,954,756,0
995103,482.10,954,759,0
995112,525.53,954,754,0
995122,571.14,954,758,0
995132,614.26,954,755,0
995142,653.52,954,758,0
995152,684.91,954,754,0
995162,707.69,954,758,0
995172,723.60,954,755,0
995182,734.73,954,758,0
995192,742.53,954,754,0
995202,748.03,954,758,0
995212,751.88,954,755,0
995222,754.57,954,758,0
995232,751.06,954,754,0
995243,740.93,954,758,0
995252,722.26,954,755,0
995262,696.21,954,757,0
995272,661.61,954,754,0
995282,620.50,954,758,0
995292,572.65,954,755,0
995302,525.70,954,758,0
995312,480.06,954,754,0
995322,440.01,954,758,0
995332,404.22,954,754,0
995342,376.38,954,758,0
995352,353.94,954,754,0
995362,339.22,954,758,0
995372,329.34,954,755,0
995382,326.58,954,758,0
995392,327.78,954,754,0
995402,334.87,954,758,0
995412,344.25,954,754,0
995422,357.68,954,758,0
995432,371.40,954,754,0
995442,387.18,954,758,0
995452,401.06,954,754,0
995462,415.22,954,758,0
995472,425.83,954,754,0
995482,434.97,954,758,0
995492,439.69,954,754,0
995502,442.87,954,758,0
995512,441.58,954,754,0
995522,438.83,954,758,0
995532,431.90,954,754,0
995543,424.26,954,759,0
995553,413.72,954,753,0
995563,403.48,954,759,0
995573,391.51,954,752,0
995584,380.85,954,759,0
995593,369.88,954,753,0
995603,361.43,954,759,0
995613,353.12,954,752,0
995623,347.47,954,759,0
995633,342.36,954,753,0
995643,339.98,954,759,0
995653,337.97,954,752,0
995663,338.24,954,759,0
995673,338.42,954,753,0
995683,340.78,954,759,0
995693,342.90,954,752,0
995703,346.53,954,759,0
995713,349.16,954,752,0
995723,353.05,954,759,0
995733,355.78,954,752,0
995743,359.36,954,759,0
995753,361.57,954,751,0
995763,364.61,954,759,0
995773,366.23,954,752,0
995783,368.56,954,759,0
995793,369.55,954,751,0
995803,371.40,954,759,0
995813,371.84,954,752,0
995823,373.09,954,759,0
995833,372.93,954,751,0
995843,373.85,954,759,0
995853,373.64,954,753,0
995863,374.26,954,759,0
995873,373.54,954,751,0
995884,373.59,954,759,0
995894,372.39,954,752,0
995904,371.88,954,761,0
995914,369.95,954,747,0
995924,368.55,954,767,0
995934,365.77,954,752,0
995944,363.70,954,761,0
995954,361.09,954,748,0
995964,360.25,954,766,0
995974,360.82,954,752,0
995984,366.06,954,760,0
995994,376.45,954,748,0
996004,395.86,954,767,0
996014,423.97,954,752,0
996033,461.31,933,751,0
996036,503.82,933,740,0
996045,549.17,933,765,0
996055,593.69,933,741,0
996065,635.23,933,767,0
996075,670.13,933,737,0
996085,697.35,933,765,0
996096,716.36,933,738,0
996105,729.67,933,767,0
996115,738.94,933,737,0
996125,745.43,933,765,0
996135,749.93,933,738,0
996145,750.42,933,767,0
996155,743.87,933,737,0
996165,729.55,933,765,0
996175,706.33,933,738,0
996185,675.16,933,767,0
996195,636.11,933,737,0
996205,590.43,933,765,0
996215,541.28,933,738,0
996225,493.45,933,767,0
996235,448.74,933,737,0
996245,409.99,933,766,0
996255,376.87,933,738,0
996265,350.63,933,764,0
996275,330.86,933,737,0
996285,318.30,933,766,0
996295,311.87,933,738,0
996305,311.74,933,764,0
996315,316.23,933,737,0
996325,325.89,933,766,0
996335,338.91,933,738,0
996345,354.79,933,764,0
996355,371.53,933,737,0
996365,388.81,933,766,0
996375,404.81,933,737,0
996385,419.44,933,764,0
996396,430.88,933,739,0
996406,439.32,933,763,0
996416,444.15,933,742,0
996426,445.52,933,762,0
996436,443.69,933,746,0
996446,438.98,933,763,0
996456,431.75,933,741,0
996466,422.35,933,762,0
996476,411.87,933,746,0
996486,400.47,933,764,0
996496,389.19,933,741,0
996506,377.73,933,762,0
996516,367.44,933,745,0
996526,358.22,933,763,0
996536,350.66,933,741,0
996546,344.07,933,762,0
996556,339.59,933,745,0
996567,336.42,933,760,0
996577,335.48,933,750,0
996587,335.42,933,759,0
996597,337.22,933,752,0
996608,339.81,933,759,0
996617,343.85,933,750,0
996627,347.76,933,760,0
996637,352.89,933,752,0
996647,357.03,933,759,0
996657,361.78,933,751,0
996667,365.10,933,760,0
996677,368.93,933,752,0
996687,371.22,933,759,0
996697,373.77,933,750,0
996707,374.82,933,760,0
996717,376.63,933,752,0
996727,376.96,933,759,0
996737,377.79,933,750,0
996747,377.46,933,760,0
996757,378.31,933,752,0
996767,378.00,933,759,0
996777,378.52,933,752,0
996787,377.63,933,759,0
996797,377.57,933,752,0
996807,376.24,933,759,0
996817,375.61,933,753,0
996827,373.54,933,760,0
996837,372.44,933,752,0
996847,370.46,933,759,0
996857,371.27,933,753,0
996867,373.89,933,760,0
996877,382.36,933,752,0
996887,396.53,933,759,0
996897,420.71,933,753,0
996908,454.10,933,759,0
996927,494.65,894,757,0
996930,537.87,894,754,0
996939,582.44,894,758,0
996950,624.44,894,755,0
996959,662.11,894,757,0
996969,691.65,894,756,0
996979,712.49,894,758,0
996989,727.00,894,755,0
996999,737.25,894,757,0
997009,744.37,894,756,0
997019,749.40,894,757,0
997029,750.48,894,755,0
997039,747.12,894,757,0
997049,735.86,894,756,0
997059,717.60,894,757,0
997069,690.51,894,755,0
997079,656.93,894,756,0
997089,615.80,894,756,0
997099,571.98,894,757,0
997109,525.83,894,755,0
997120,483.45,894,758,0
997129,443.63,894,756,0
997139,410.66,894,757,0
997149,381.74,894,755,0
997159,360.44,894,758,0
997169,343.68,894,756,0
997179,334.34,894,757,0
997189,329.27,894,755,0
997199,330.90,894,758,0
997209,335.82,894,756,0
997219,346.16,894,757,0
997229,357.81,894,755,0
997239,372.78,894,758,0
997249,386.86,894,756,0
997259,402.16,894,757,0
997269,414.71,894,755,0
997279,426.76,894,758,0
997289,434.80,894,754,0
997299,441.59,894,757,0
997309,443.98,894,755,0
997319,445.06,894,758,0
997329,441.87,894,754,0
997339,438.14,894,757,0
997349,430.81,894,755,0
997359,423.45,894,758,0
997369,413.55,894,755,0
997379,404.64,894,757,0
997389,394.38,894,755,0
997399,385.95,894,758,0
997409,376.62,894,755,0
997420,369.83,894,758,0
997430,362.90,894,754,0
997440,358.73,894,758,0
997450,354.40,894,754,0
997460,352.69,894,758,0
997470,350.90,894,754,0
997480,351.53,894,758,0
997490,351.71,894,754,0
997500,353.73,894,758,0
997510,354.92,894,754,0
997520,357.69,894,758,0
997530,359.24,894,753,0
997540,362.08,894,758,0
997550,363.51,894,754,0
997560,366.02,894,758,0
997570,367.08,894,753,0
997580,369.03,894,758,0
997591,369.71,894,752,0
997601,371.47,894,759,0
997611,371.88,894,752,0
997621,373.25,894,759,0
997632,373.56,894,751,0
997641,375.11,894,759,0
997651,375.63,894,752,0
997661,377.11,894,759,0
997671,377.42,894,751,0
997681,378.58,894,759,0
997691,378.45,894,752,0
997701,378.61,894,759,0
997711,377.19,894,751,0
997721,376.45,894,759,0
997731,374.43,894,752,0
997741,373.91,894,759,0
997751,373.90,894,751,0
997761,378.04,894,759,0
997771,386.51,894,752,0
997781,403.63,894,759,0
997800,429.24,873,758,0
997804,464.53,873,765,0
997812,505.08,873,752,0
997822,549.07,873,763,0
997832,592.68,873,745,0
997842,634.09,873,767,0
997852,669.29,873,752,0
997862,696.76,873,763,0
997872,715.95,873,746,0
997882,729.38,873,767,0
997892,738.78,873,752,0
997902,745.40,873,763,0
997912,750.04,873,746,0
997922,753.28,873,767,0
997932,752.68,873,752,0
997942,746.91,873,762,0
997952,733.65,873,746,0
997962,713.23,873,767,0
997972,685.00,873,739,0
997982,650.37,873,762,0
997992,609.16,873,746,0
998002,565.70,873,767,0
998012,521.73,873,739,0
998022,481.31,873,761,0
998032,444.06,873,747,0
998042,412.24,873,767,0
998052,384.74,873,740,0
998062,363.22,873,761,0
998072,346.27,873,747,0
998082,335.26,873,767,0
998092,328.71,873,739,0
998103,327.81,873,767,0
998113,331.00,873,736,0
998123,338.67,873,765,0
998133,348.97,873,738,0
998144,361.96,873,764,0
998153,375.52,873,736,0
998163,389.55,873,765,0
998173,402.11,873,738,0
998183,413.09,873,764,0
998193,421.12,873,736,0
998203,426.61,873,766,0
998213,428.74,873,738,0
998223,428.14,873,764,0
998233,424.28,873,736,0
998243,418.45,873,766,0
998253,410.60,873,738,0
998263,401.64,873,764,0
998273,391.55,873,736,0
998283,381.74,873,766,0
998293,372.30,873,738,0
998303,364.15,873,765,0
998313,357.12,873,739,0
998323,351.56,873,766,0
998333,347.15,873,738,0
998343,344.53,873,765,0
998353,343.09,873,739,0
998363,342.97,873,766,0
998373,343.54,873,738,0
998383,344.83,873,765,0
998393,346.73,873,739,0
998403,349.59,873,767,0
998413,352.37,873,738,0
998423,355.30,873,765,0
998433,358.04,873,739,0
998444,360.64,873,763,0
998454,363.19,873,743,0
998464,365.24,873,762,0
998474,367.14,873,747,0
998484,368.55,873,760,0
998494,369.72,873,742,0
998504,370.40,873,762,0
998514,371.35,873,747,0
998524,371.63,873,760,0
998534,372.09,873,742,0
998544,371.80,873,762,0
998554,371.99,873,746,0
998564,371.61,873,760,0
998574,371.51,873,742,0
998584,370.76,873,762,0
998594,370.36,873,746,0
998604,369.39,873,760,0
998615,368.89,873,751,0
998625,367.59,873,759,0
998635,367.24,873,752,0
998645,366.79,873,759,0
998656,368.91,873,753,0
998665,373.48,873,759,0
998675,384.05,873,752,0
998685,401.09,873,759,0
998695,428.58,873,753,0
998714,464.23,914,751,0
998717,506.12,914,757,0
998726,549.97,914,758,0
998736,594.38,914,756,0
998746,635.37,914,759,0
998756,671.17,914,754,0
998766,698.12,914,758,0
998776,717.07,914,756,0
998786,730.29,914,759,0
998796,739.63,914,754,0
998806,746.09,914,758,0
998816,750.65,914,756,0
998827,751.05,914,757,0
998836,746.84,914,754,0
998846,734.89,914,758,0
998856,716.11,914,755,0
998866,689.16,914,756,0
998876,656.33,914,754,0
998886,616.67,914,758,0
998896,575.28,914,755,0
998906,532.34,914,757,0
998916,493.32,914,754,0
998926,456.80,914,757,0
998936,426.39,914,755,0
998946,399.10,914,757,0
998956,378.11,914,754,0
998966,360.25,914,757,0
998976,348.60,914,755,0
998986,339.94,914,757,0
998996,337.04,914,757,0
999006,336.64,914,757,0
999016,341.51,914,755,0
999026,348.17,914,757,0
999036,359.00,914,757,0
999046,370.15,914,757,0
999056,383.82,914,755,0
999066,396.04,914,757,0
999076,408.93,914,757,0
999086,418.68,914,757,0
999096,427.52,914,755,0
999106,431.95,914,757,0
999116,434.79,914,757,0
999127,432.97,914,755,0
999137,429.94,914,758,0
999147,422.97,914,755,0
999157,415.56,914,758,0
999168,405.24,914,754,0
999177,395.87,914,757,0
999187,384.81,914,755,0
999197,375.82,914,758,0
999207,366.15,914,754,0
999217,359.20,914,757,0
999227,352.20,914,755,0
999237,348.24,914,758,0
999247,344.14,914,754,0
999257,343.03,914,757,0
999267,341.60,914,755,0
999277,342.71,914,758,0
999287,343.22,914,754,0
999297,345.81,914,757,0
999307,347.37,914,755,0
999317,350.52,914,758,0
999327,351.95,914,754,0
999337,354.66,914,758,0
999347,355.79,914,755,0
999357,358.21,914,758,0
999367,358.92,914,754,0
999377,360.96,914,758,0
999387,361.70,914,755,0
999397,364.06,914,758,0
999407,365.11,914,754,0
999417,367.48,914,758,0
999427,368.36,914,755,0
999437,370.74,914,758,0
999447,371.50,914,755,0
999457,373.37,914,758,0
999468,373.56,914,754,0
999478,374.46,914,758,0
999488,373.64,914,754,0
999498,373.57,914,759,0
999508,371.86,914,753,0
999518,371.17,914,758,0
999528,368.81,914,754,0
999538,367.49,914,759,0
999548,365.07,914,753,0
999558,364.41,914,758,0
999568,363.81,914,754,0
999578,366.83,914,759,0
999588,372.88,914,753,0
999598,386.46,914,758,0
999608,407.06,914,754,0
999627,438.89,913,752,0
999630,477.54,913,744,0
999639,521.26,913,759,0
999649,565.88,913,752,0
999659,609.72,913,759,0
999669,648.85,913,752,0
999680,681.93,913,759,0
999689,705.53,913,753,0
999699,722.08,913,759,0
999709,733.67,913,752,0
999719,741.83,913,760,0
999729,747.54,913,753,0
999739,751.53,913,759,0
999749,750.22,913,752,0
999759,742.78,913,760,0
999769,727.37,913,753,0
999779,704.55,913,759,0
999789,673.57,913,752,0
999799,635.90,913,759,0
999809,591.61,913,753,0
999819,546.73,913,759,0
999829,501.98,913,752,0
999839,461.19,913,759,0
999849,423.89,913,752,0
999859,392.89,913,759,0
999869,366.61,913,752,0
999879,346.76,913,759,0
999889,331.40,913,752,0
999899,322.67,913,759,0
999909,318.48,913,752,0
999919,320.27,913,760,0
999929,325.37,913,752,0
999939,335.16,913,759,0
999949,346.85,913,752,0
999959,361.38,913,759,0
999969,375.84,913,752,0
999980,390.85,913,762,0
999990,403.83,913,746,0
1000000,415.58,913,767,0
1000010,423.81,913,739,0
1000020,429.57,913,767,0
1000030,431.02,913,746,0
1000040,429.95,913,767,0
1000050,425.21,913,739,0
1000060,418.59,913,767,0
1000070,409.45,913,747,0
1000080,399.72,913,767,0
1000090,388.83,913,739,0
1000100,378.42,913,767,0
1000110,367.80,913,747,0
1000120,358.69,913,767,0
1000130,350.25,913,739,0
1000140,343.66,913,767,0
1000151,337.89,913,736,0
1000161,334.20,913,766,0
1000171,331.78,913,738,0
1000181,331.07,913,764,0
1000192,331.31,913,740,0
1000201,332.80,913,766,0
1000211,334.70,913,738,0
1000221,337.54,913,765,0
1000231,340.33,913,739,0
1000241,343.49,913,766,0
1000251,346.34,913,738,0
1000261,349.11,913,765,0
1000271,351.65,913,739,0
1000281,354.28,913,766,0
1000291,356.43,913,738,0
1000301,358.53,913,765,0
1000311,360.25,913,739,0
1000321,362.11,913,766,0
1000331,363.40,913,738,0
1000341,364.53,913,765,0
1000351,365.22,913,739,0
1000361,365.80,913,763,0
1000371,365.95,913,738,0
1000381,365.88,913,764,0
1000391,365.44,913,739,0
1000401,364.88,913,763,0
1000411,363.89,913,738,0
1000421,362.76,913,765,0
1000431,361.21,913,739,0
1000441,359.34,913,763,0
1000451,356.84,913,738,0
1000461,354.23,913,765,0
1000471,351.63,913,739,0
1000481,349.34,913,764,0
1000492,348.21,913,742,0
1000502,349.65,913,762,0
1000512,355.80,913,747,0
1000522,368.67,913,760,0
1000532,390.76,913,752,0
1000542,422.76,913,762,0
1000561,463.03,934,760,0
1000564,508.11,934,759,0
1000573,555.22,934,753,0
1000583,600.92,934,760,0
1000593,642.60,934,752,0
1000603,676.71,934,760,0
1000613,702.12,934,753,0
1000623,719.92,934,760,0
1000633,732.41,934,752,0
1000643,741.07,934,759,0
1000653,747.18,934,753,0
1000663,751.41,934,760,0
1000673,751.76,934,752,0
1000683,745.06,934,759,0
1000693,731.37,934,753,0
1000704,708.89,934,759,0
1000713,679.26,934,752,0
1000723,641.90,934,759,0
1000733,598.77,934,753,0
1000743,552.00,934,759,0
1000753,507.21,934,752,0
1000763,464.42,934,759,0
1000773,427.82,934,753,0
1000783,395.39,934,759,0
1000793,369.86,934,752,0
1000803,348.99,934,759,0
1000813,335.41,934,753,0
1000823,326.28,934,759,0
1000833,323.58,934,752,0
1000843,324.61,934,759,0
1000853,331.37,934,753,0
1000863,340.52,934,759,0
1000873,353.78,934,754,0
1000883,367.43,934,759,0
1000893,383.03,934,753,0
1000903,397.21,934,759,0
1000913,411.33,934,754,0
1000923,422.20,934,759,0
1000933,431.70,934,753,0
1000943,436.63,934,759,0
1000953,439.79,934,754,0
1000963,438.56,934,759,0
1000973,435.78,934,753,0
1000983,428.99,934,759,0
1000993,421.49,934,754,0
1001004,411.14,934,758,0
1001014,401.33,934,755,0
1001024,389.66,934,757,0
1001034,379.69,934,757,0
1001044,368.98,934,756,0
1001054,360.80,934,755,0
1001064,352.20,934,757,0
1001074,346.49,934,756,0
1001084,340.81,934,756,0
1001094,338.25,934,755,0
1001104,335.61,934,757,0
1001114,335.72,934,756,0
1001124,335.51,934,756,0
1001134,338.10,934,755,0
1001144,340.08,934,757,0
1001154,344.30,934,757,0
1001164,347.25,934,756,0
1001175,351.85,934,757,0
1001185,354.94,934,755,0
1001195,359.28,934,758,0
1001205,361.73,934,754,0
1001216,365.20,934,758,0
1001225,366.81,934,755,0
1001235,369.61,934,758,0
1001245,370.50,934,754,0
1001255,372.41,934,758,0
1001265,372.46,934,755,0
1001275,373.60,934,758,0
1001285,373.08,934,754,0
1001295,373.66,934,758,0
1001305,372.60,934,755,0
1001315,372.85,934,758,0
1001325,371.57,934,754,0
1001335,371.57,934,758,0
1001345,369.90,934,755,0
1001355,369.41,934,758,0
1001365,366.89,934,754,0
1001375,365.08,934,758,0
1001385,361.58,934,754,0
1001395,359.74,934,758,0
1001405,357.37,934,754,0
1001415,358.63,934,758,0
1001425,362.69,934,754,0
1001435,374.61,934,758,0
1001445,393.75,934,754,0
1001455,424.43,934,758,0
1001475,462.74,913,757,0
1001478,507.05,913,760,0
1001487,552.85,913,752,0
1001497,598.37,913,759,0
1001507,639.44,913,752,0
1001517,674.71,913,759,0
1001527,700.47,913,752,0
1001537,718.54,913,759,0
1001547,731.19,913,752,0
1001558,740.09,913,759,0
1001567,746.28,913,753,0
1001577,748.47,913,759,0
1001587,743.40,913,752,0
1001597,730.55,913,759,0
1001607,708.53,913,752,0
1001617,678.37,913,759,0
1001627,639.69,913,752,0
1001637,594.14,913,759,0
1001647,544.08,913,752,0
1001657,495.20,913,759,0
1001667,448.47,913,752,0
1001677,407.57,913,759,0
1001687,371.83,913,752,0
1001697,343.89,913,759,0
1001707,322.11,913,752,0
1001717,307.98,913,759,0
1001728,299.63,913,752,0
1001737,298.58,913,759,0
1001747,302.26,913,752,0
1001757,311.70,913,759,0
1001767,323.92,913,752,0
1001777,339.89,913,759,0
1001787,356.76,913,752,0
1001797,374.88,913,759,0
1001807,391.50,913,752,0
1001817,407.55,913,759,0
1001827,420.20,913,752,0
1001837,430.81,913,760,0
1001847,437.04,913,752,0
1001857,440.71,913,759,0
1001867,440.07,913,752,0
1001877,437.09,913,760,0
1001887,430.21,913,752,0
1001897,421.87,913,762,0
1001907,410.85,913,752,0
1001917,399.71,913,759,0
1001927,387.11,913,752,0
1001937,375.55,913,762,0
1001947,363.77,913,752,0
1001957,354.15,913,759,0
1001967,345.19,913,752,0
1001977,338.75,913,762,0
1001987,333.30,913,752,0
1001997,330.55,913,759,0
1002007,328.67,913,752,0
1002017,329.07,913,761,0
1002028,329.78,913,747,0
1002038,332.20,913,767,0
1002048,334.46,913,739,0
1002058,337.62,913,767,0
1002068,340.22,913,737,0
1002078,343.50,913,767,0
1002088,345.83,913,739,0
1002098,348.45,913,767,0
1002108,350.16,913,736,0
1002118,352.38,913,767,0
1002128,353.94,913,739,0
1002138,355.72,913,767,0
1002148,356.70,913,737,0
1002158,358.25,913,766,0
1002168,359.29,913,740,0
1002178,360.83,913,767,0
1002188,361.65,913,736,0
1002199,362.61,913,766,0
1002209,362.90,913,738,0
1002219,363.32,913,764,0
1002229,363.18,913,739,0
1002240,363.00,913,763,0
1002249,362.14,913,738,0
1002259,361.28,913,764,0
1002269,360.17,913,739,0
1002279,358.96,913,763,0
1002289,357.39,913,738,0
1002299,355.60,913,764,0
1002309,354.22,913,739,0
1002319,354.41,913,764,0
1002329,357.16,913,738,0
1002339,364.74,913,764,0
1002349,379.48,913,739,0
1002359,404.02,913,764,0
1002378,438.94,904,764,0
1002381,480.74,904,760,0
1002390,526.29,904,747,0
1002400,572.96,904,760,0
1002411,617.42,904,752,0
1002420,656.72,904,762,0
1002430,687.83,904,746,0
1002440,709.65,904,761,0
1002450,724.97,904,752,0
1002460,735.65,904,762,0
1002470,743.13,904,746,0
1002480,748.32,904,761,0
1002490,751.99,904,752,0
1002500,754.52,904,762,0
1002510,756.25,904,746,0
1002520,753.73,904,761,0
1002530,745.46,904,751,0
1002540,729.98,904,762,0
1002550,707.10,904,746,0
1002560,676.47,904,760,0
1002570,639.34,904,751,0
1002580,595.61,904,760,0
1002590,550.30,904,746,0
1002600,505.47,904,760,0
1002610,464.23,904,751,0
1002620,427.00,904,760,0
1002630,395.67,904,745,0
1002640,369.54,904,760,0
1002650,350.39,904,751,0
1002660,336.82,904,760,0
1002670,329.72,904,745,0
1002680,327.49,904,761,0
1002690,331.07,904,751,0
1002700,338.46,904,760,0
1002711,350.07,904,752,0
1002721,362.99,904,759,0
1002731,378.08,904,753,0
1002741,392.33,904,759,0
1002752,406.67,904,754,0
1002761,418.17,904,759,0
1002771,427.93,904,753,0
1002781,433.40,904,759,0
1002791,436.83,904,754,0
1002801,435.77,904,760,0
1002811,432.97,904,753,0
1002821,426.08,904,759,0
1002831,418.43,904,753,0
1002841,408.23,904,760,0
1002851,398.52,904,753,0
1002861,387.18,904,759,0
1002871,377.57,904,753,0
1002881,367.54,904,759,0
1002891,359.96,904,753,0
1002901,352.56,904,759,0
1002911,348.02,904,753,0
1002921,343.64,904,758,0
1002931,342.08,904,753,0
1002941,340.43,904,759,0
1002951,341.33,904,753,0
1002961,341.96,904,758,0
1002971,344.50,904,753,0
1002981,346.23,904,759,0
1002991,349.76,904,753,0
1003001,352.11,904,758,0
1003011,355.80,904,753,0
1003021,358.13,904,759,0
1003031,361.78,904,753,0
1003041,363.86,904,758,0
1003052,367.07,904,755,0
1003062,368.55,904,757,0
1003072,371.30,904,756,0
1003082,372.28,904,756,0
1003092,374.30,904,757,0
1003102,374.59,904,757,0
1003112,376.22,904,756,0
1003122,376.07,904,756,0
1003132,377.25,904,757,0
1003142,376.70,904,757,0
1003152,377.56,904,756,0
1003162,376.71,904,756,0
1003172,376.92,904,757,0
1003182,375.23,904,757,0
1003192,374.65,904,756,0
1003202,372.35,904,756,0
1003212,371.60,904,757,0
1003223,370.18,904,755,0
1003233,372.44,904,758,0
1003243,377.79,904,754,0
1003253,391.40,904,758,0
1003264,412.75,904,754,0
1003282,445.35,904,753,0
1003285,484.38,904,753,0
1003294,528.49,904,759,0
1003304,573.34,904,753,0
1003314,617.17,904,759,0
1003324,655.52,904,754,0
1003334,686.99,904,759,0
1003344,709.02,904,753,0
1003354,724.49,904,758,0
1003364,735.27,904,754,0
1003374,742.86,904,759,0
1003384,748.13,904,753,0
1003394,751.86,904,759,0
1003404,753.62,904,754,0
1003414,751.55,904,759,0
1003424,742.51,904,754,0
1003435,726.76,904,759,0
1003444,702.96,904,754,0
1003454,672.46,904,759,0
1003464,634.56,904,754,0
1003474,592.01,904,759,0
1003484,546.75,904,754,0
1003494,503.97,904,759,0
1003504,463.05,904,753,0
1003514,427.33,904,759,0
1003524,395.35,904,754,0
1003534,370.04,904,759,0
1003544,349.16,904,754,0
1003554,335.05,904,759,0
1003564,325.22,904,754,0
1003574,322.20,904,759,0
1003584,323.25,904,754,0
1003594,329.95,904,759,0
1003604,339.09,904,752,0
1003614,352.09,904,758,0
1003624,365.44,904,753,0
1003634,380.48,904,759,0
1003644,393.79,904,752,0
1003654,406.80,904,759,0
1003664,416.54,904,753,0
1003674,424.65,904,759,0
1003684,428.57,904,752,0
1003694,430.76,904,759,0
1003704,428.77,904,753,0
1003714,425.11,904,759,0
1003724,417.96,904,752,0
1003735,410.13,904,759,0
1003745,399.98,904,752,0
1003755,390.26,904,759,0
1003765,379.29,904,751,0
1003776,369.86,904,763,0
1003785,360.39,904,752,0
1003795,353.24,904,759,0
1003805,346.66,904,751,0
1003815,342.60,904,762,0
1003825,339.12,904,752,0
1003835,337.93,904,760,0
1003845,337.26,904,752,0
1003855,338.38,904,762,0
1003865,339.38,904,752,0
1003875,341.93,904,760,0
1003885,344.09,904,752,0
1003895,347.36,904,762,0
1003905,349.87,904,752,0
1003915,353.21,904,759,0
1003925,355.72,904,752,0
1003935,358.93,904,762,0
1003945,360.92,904,746,0
1003955,363.43,904,760,0
1003965,364.72,904,752,0
1003975,366.47,904,761,0
1003985,367.06,904,747,0
1003995,368.24,904,759,0
1004005,368.17,904,752,0
1004015,368.63,904,761,0
1004025,368.10,904,748,0
1004035,368.46,904,759,0
1004045,367.93,904,752,0
1004055,368.04,904,760,0
1004065,367.13,904,748,0
1004076,366.83,904,767,0
1004086,365.60,904,739,0
1004096,364.69,904,767,0
1004106,363.07,904,736,0
1004116,362.75,904,766,0
1004126,363.68,904,739,0
1004136,368.92,904,767,0
1004146,379.31,904,736,0
1004156,398.42,904,766,0
1004175,426.49,893,766,0
1004178,463.59,893,761,0
1004187,505.97,893,740,0
1004197,551.11,893,763,0
1004207,595.48,893,738,0
1004217,636.78,893,765,0
1004227,671.47,893,739,0
1004237,698.29,893,763,0
1004247,717.02,893,738,0
1004257,730.13,893,765,0
1004267,739.26,893,739,0
1004277,745.70,893,763,0
1004288,750.20,893,742,0
1004297,751.60,893,764,0
1004307,747.65,893,739,0
1004317,736.65,893,763,0
1004327,717.99,893,742,0
1004337,691.80,893,764,0
1004347,658.26,893,739,0
1004357,618.16,893,763,0
1004367,574.09,893,742,0
1004377,529.41,893,764,0
1004387,486.60,893,739,0
1004397,447.46,893,763,0
1004407,412.82,893,742,0
1004417,383.48,893,763,0
1004427,359.42,893,739,0
1004437,340.91,893,763,0
1004447,328.21,893,742,0
1004457,321.24,893,762,0
1004467,319.54,893,739,0
1004477,322.94,893,763,0
1004487,330.76,893,742,0
1004497,341.97,893,762,0
1004507,355.44,893,739,0
1004517,370.01,893,763,0
1004527,384.79,893,742,0
1004537,398.57,893,761,0
1004547,410.27,893,739,0
1004557,419.23,893,763,0
1004567,425.25,893,741,0
1004577,428.00,893,761,0
1004588,427.87,893,746,0
1004598,424.65,893,760,0
1004608,419.61,893,751,0
1004618,412.36,893,759,0
1004628,404.24,893,752,0
1004638,395.12,893,761,0
1004648,386.13,893,750,0
1004658,376.70,893,759,0
1004668,368.82,893,752,0
1004678,361.29,893,761,0
1004688,355.76,893,751,0
1004698,350.65,893,759,0
1004708,347.84,893,752,0
1004718,345.74,893,761,0
1004728,345.61,893,750,0
1004738,345.30,893,759,0
1004748,346.58,893,752,0
1004759,347.56,893,759,0
1004769,350.14,893,753,0
1004779,351.68,893,758,0
1004789,354.52,893,754,0
1004800,356.29,893,758,0
1004809,359.33,893,753,0
1004819,361.12,893,759,0
1004829,364.04,893,754,0
1004839,365.49,893,758,0
1004849,368.08,893,753,0
1004859,369.09,893,758,0
1004869,371.46,893,753,0
1004879,372.27,893,758,0
1004889,374.20,893,753,0
1004899,374.61,893,759,0
1004909,376.31,893,754,0
1004919,376.52,893,758,0
1004929,377.82,893,752,0
1004939,377.36,893,759,0
1004949,377.85,893,753,0
1004959,376.53,893,758,0
1004969,376.20,893,755,0
1004979,373.95,893,759,0
1004989,372.81,893,753,0
1004999,370.59,893,758,0
1005009,371.06,893,755,0
1005019,372.93,893,759,0
1005029,381.13,893,753,0
1005039,395.19,893,758,0
1005059,419.91,883,756,0
1005062,453.71,883,754,0
1005071,494.68,883,758,0
1005081,538.45,883,755,0
1005091,583.70,883,758,0
1005101,625.92,883,755,0
1005111,663.49,883,758,0
1005121,692.57,883,755,0
1005131,712.97,883,758,0
1005142,727.21,883,754,0
1005151,737.22,883,758,0
1005161,744.18,883,755,0
1005171,749.10,883,758,0
1005181,749.67,883,754,0
1005191,745.61,883,758,0
1005201,734.03,883,755,0
1005211,715.63,883,758,0
1005221,688.91,883,754,0
1005231,656.11,883,758,0
1005241,616.26,883,755,0
1005251,574.40,883,758,0
1005261,530.69,883,754,0
1005271,490.46,883,758,0
1005281,452.43,883,755,0
1005291,420.42,883,758,0
1005301,391.54,883,754,0
1005312,368.87,883,758,0
1005321,349.88,883,754,0
1005331,337.40,883,758,0
1005341,328.58,883,754,0
1005351,326.05,883,758,0
1005361,326.72,883,754,0
1005371,333.06,883,758,0
1005381,341.53,883,754,0
1005391,353.93,883,758,0
1005401,366.46,883,754,0
1005411,380.90,883,758,0
1005421,393.61,883,754,0
1005431,406.16,883,758,0
1005441,415.15,883,754,0
1005451,422.95,883,758,0
1005461,426.44,883,754,0
1005471,428.19,883,758,0
1005481,425.78,883,753,0
1005491,422.20,883,758,0
1005501,415.37,883,754,0
1005511,408.32,883,758,0
1005521,399.05,883,753,0
1005531,390.85,883,758,0
1005541,381.51,883,754,0
1005551,373.94,883,758,0
1005561,365.94,883,753,0
1005571,360.60,883,758,0
1005581,355.32,883,754,0
1005591,352.61,883,758,0
1005601,349.73,883,753,0
1005612,349.34,883,759,0
1005622,348.68,883,752,0
1005632,349.93,883,759,0
1005642,350.51,883,752,0
1005652,352.71,883,759,0
1005662,354.00,883,753,0
1005672,356.70,883,759,0
1005682,358.25,883,752,0
1005692,360.92,883,759,0
1005702,362.44,883,753,0
1005712,364.97,883,759,0
1005722,366.22,883,752,0
1005732,368.30,883,759,0
1005742,369.11,883,753,0
1005752,370.79,883,759,0
1005762,371.15,883,752,0
1005772,372.26,883,759,0
1005783,371.84,883,752,0
1005793,372.10,883,759,0
1005803,371.26,883,751,0
1005813,371.14,883,763,0
1005824,369.94,883,744,0
1005833,369.70,883,760,0
1005843,368.33,883,751,0
1005853,367.72,883,763,0
1005863,365.96,883,744,0
1005873,364.90,883,759,0
1005883,363.00,883,751,0
1005893,362.36,883,763,0
1005903,362.29,883,745,0
1005913,366.11,883,759,0
1005923,374.09,883,751,0
1005933,390.18,883,762,0
1005953,414.51,894,764,0
1005956,449.20,894,764,0
1005965,489.98,894,738,0
1005975,534.64,894,764,0
1005985,579.54,894,740,0
1005996,622.53,894,763,0
1006006,659.96,894,744,0
1006016,690.14,894,762,0
1006026,711.31,894,749,0
1006036,726.13,894,760,0
1006046,736.51,894,743,0
1006056,743.77,894,762,0
1006066,748.90,894,749,0
1006076,748.88,894,760,0
1006086,742.62,894,743,0
1006096,728.76,894,761,0
1006106,707.40,894,749,0
1006116,678.18,894,760,0
1006126,642.26,894,743,0
1006136,599.92,894,761,0
1006146,556.02,894,749,0
1006156,512.17,894,760,0
1006167,471.62,894,751,0
1006177,434.49,894,759,0
1006187,403.14,894,753,0
1006197,376.06,894,759,0
1006208,355.25,894,753,0
1006217,339.02,894,759,0
1006227,329.24,894,753,0
1006237,323.73,894,759,0
1006247,324.41,894,753,0
1006257,328.23,894,759,0
1006267,337.07,894,753,0
1006277,347.42,894,759,0
1006287,360.97,894,753,0
1006297,374.22,894,759,0
1006307,388.64,894,753,0
1006317,400.66,894,759,0
1006327,412.42,894,753,0
1006337,420.65,894,759,0
1006347,427.31,894,753,0
1006357,429.75,894,759,0
1006367,430.47,894,753,0
1006377,427.11,894,758,0
1006387,422.49,894,752,0
1006397,414.50,894,759,0
1006407,406.38,894,753,0
1006417,396.07,894,758,0
1006427,386.62,894,753,0
1006437,376.10,894,759,0
1006447,367.63,894,753,0
1006457,359.08,894,758,0
1006467,353.06,894,753,0
1006477,347.21,894,759,0
1006487,344.45,894,753,0
1006497,341.74,894,758,0
1006508,341.78,894,754,0
1006518,341.50,894,758,0
1006528,343.58,894,756,0
1006538,344.95,894,756,0
1006548,348.14,894,757,0
1006558,350.07,894,757,0
1006568,353.65,894,756,0
1006578,355.68,894,756,0
1006588,359.03,894,757,0
1006598,360.70,894,758,0
1006608,363.79,894,756,0
1006618,364.92,894,756,0
1006628,367.22,894,757,0
1006638,367.79,894,758,0
1006648,369.66,894,756,0
1006658,369.85,894,757,0
1006668,371.26,894,757,0
1006679,370.93,894,756,0
1006689,372.11,894,758,0
1006699,371.77,894,755,0
1006709,372.70,894,758,0
1006720,371.89,894,755,0
1006729,372.35,894,758,0
1006739,370.96,894,754,0
1006749,370.67,894,758,0
1006759,368.76,894,755,0
1006769,368.49,894,758,0
1006779,367.87,894,755,0
1006789,371.12,894,758,0
1006799,377.47,894,754,0
1006809,391.69,894,758,0
1006819,412.82,894,754,0
1006838,444.93,886,754,0
1006841,483.57,886,752,0
1006850,527.15,886,759,0
1006860,571.38,886,754,0
1006870,614.55,886,759,0
1006880,652.70,886,754,0
1006891,684.76,886,759,0
1006900,707.55,886,754,0
1006910,723.50,886,759,0
1006920,734.66,886,754,0
1006930,742.52,886,759,0
1006940,745.06,886,754,0
1006950,741.57,886,759,0
1006960,729.49,886,754,0
1006970,709.46,886,759,0
1006980,680.52,886,754,0
1006990,644.62,886,759,0
1007000,601.28,886,754,0
1007010,555.47,886,759,0
1007020,508.53,886,754,0
1007030,465.38,886,758,0
1007040,425.54,886,754,0
1007050,392.21,886,759,0
1007060,363.47,886,752,0
1007070,341.82,886,758,0
1007080,324.86,886,753,0
1007090,314.74,886,759,0
1007100,309.12,886,752,0
1007110,310.03,886,758,0
1007120,314.39,886,753,0
1007130,323.70,886,759,0
1007140,335.11,886,753,0
1007150,350.12,886,758,0
1007160,365.30,886,754,0
1007170,381.92,886,759,0
1007180,396.43,886,753,0
1007191,410.57,886,759,0
1007201,421.33,886,752,0
1007211,430.10,886,759,0
1007221,434.40,886,752,0
1007232,436.08,886,760,0
1007241,433.36,886,752,0
1007251,428.75,886,760,0
1007261,420.34,886,752,0
1007271,410.68,886,760,0
1007281,398.73,886,752,0
1007291,387.16,886,759,0
1007301,374.89,886,752,0
1007311,364.08,886,760,0
1007321,353.39,886,752,0
1007331,345.13,886,759,0
1007341,337.76,886,752,0
1007351,333.16,886,760,0
1007361,329.38,886,752,0
1007371,328.24,886,759,0
1007381,327.70,886,752,0
1007391,329.25,886,759,0
1007401,330.97,886,750,0
1007411,334.49,886,760,0
1007421,337.52,886,752,0
1007431,341.52,886,759,0
1007441,344.49,886,750,0
1007451,348.16,886,759,0
1007461,350.73,886,752,0
1007471,353.72,886,759,0
1007481,355.43,886,750,0
1007491,357.66,886,759,0
1007501,358.62,886,752,0
1007511,359.98,886,759,0
1007521,360.24,886,751,0
1007532,361.11,886,765,0
1007542,361.16,886,742,0
1007552,361.76,886,767,0
1007562,361.62,886,737,0
1007572,362.29,886,766,0
1007582,362.24,886,742,0
1007592,362.77,886,767,0
1007602,362.37,886,737,0
1007612,362.17,886,766,0
1007622,361.26,886,742,0
1007632,361.18,886,767,0
1007642,361.90,886,737,0
1007652,366.09,886,767,0
1007662,374.25,886,742,0
1007672,389.90,886,767,0
1007682,414.19,886,737,0
1007702,448.76,863,736,0
1007705,489.63,863,752,0
1007714,534.19,863,762,0
1007724,579.04,863,746,0
1007734,622.10,863,761,0
1007745,659.83,863,751,0
1007755,690.09,863,760,0
1007765,711.32,863,753,0
1007775,726.14,863,760,0
1007785,736.60,863,753,0
1007795,743.88,863,759,0
1007805,749.01,863,753,0
1007815,752.57,863,760,0
1007825,753.00,863,753,0
1007835,747.13,863,759,0
1007845,734.70,863,753,0
1007855,714.09,863,759,0
1007865,686.59,863,752,0
1007875,651.79,863,759,0
1007885,611.31,863,752,0
1007895,566.86,863,759,0
1007905,523.83,863,753,0
1007916,482.18,863,758,0
1007926,445.83,863,754,0
1007936,413.01,863,758,0
1007946,386.30,863,755,0
1007956,363.63,863,756,0
1007966,347.58,863,754,0
1007976,335.58,863,758,0
1007986,330.35,863,755,0
1007996,328.66,863,757,0
1008006,332.96,863,754,0
1008016,339.70,863,758,0
1008026,350.85,863,755,0
1008036,362.51,863,756,0
1008046,376.50,863,753,0
1008056,389.03,863,758,0
1008066,402.10,863,755,0
1008076,411.92,863,757,0
1008087,420.90,863,757,0
1008097,425.69,863,756,0
1008107,429.08,863,758,0
1008117,428.03,863,755,0
1008128,425.49,863,758,0
1008137,419.17,863,756,0
1008147,412.39,863,758,0
1008157,402.80,863,755,0
1008167,393.91,863,759,0
1008177,383.52,863,756,0
1008187,375.13,863,758,0
1008197,366.22,863,755,0
1008207,359.77,863,758,0
1008217,353.33,863,756,0
1008227,349.80,863,757,0
1008237,346.34,863,755,0
1008247,345.56,863,758,0
1008257,344.45,863,756,0
1008267,345.73,863,758,0
1008277,346.24,863,755,0
1008287,348.57,863,758,0
1008297,349.68,863,755,0
1008307,352.43,863,757,0
1008317,353.76,863,755,0
1008327,356.40,863,758,0
1008337,357.48,863,755,0
1008347,360.00,863,758,0
1008357,361.07,863,755,0
1008367,363.45,863,758,0
1008377,364.30,863,755,0
1008387,366.61,863,757,0
1008397,367.41,863,755,0
1008407,369.52,863,758,0
1008417,370.00,863,755,0
1008428,371.72,863,758,0
1008438,371.89,863,754,0
1008448,373.04,863,758,0
1008458,372.17,863,754,0
1008468,372.07,863,759,0
1008478,370.34,863,754,0
1008488,369.85,863,758,0
1008498,368.27,863,753,0
1008508,369.22,863,759,0
1008518,371.51,863,754,0
1008528,379.76,863,758,0
1008538,393.80,863,753,0
1008558,417.95,856,752,0
1008561,451.26,856,741,0
1008570,491.77,856,759,0
1008580,535.21,856,750,0
1008590,580.19,856,766,0
1008600,622.56,856,752,0
1008610,660.62,856,759,0
1008620,690.56,856,751,0
1008630,711.57,856,765,0
1008641,726.22,856,742,0
1008651,736.53,856,767,0
1008661,743.70,856,737,0
1008671,748.76,856,766,0
1008681,751.32,856,738,0
1008691,749.89,856,767,0
1008701,742.04,856,737,0
1008711,727.16,856,766,0
1008721,704.31,856,738,0
1008731,674.60,856,767,0
1008741,637.95,856,737,0
1008751,596.48,856,766,0
1008761,552.49,856,738,0
1008771,510.00,856,767,0
1008781,469.97,856,738,0
1008791,434.71,856,766,0
1008801,403.47,856,738,0
1008812,377.53,856,764,0
1008822,356.28,856,739,0
1008832,340.34,856,763,0
1008842,329.35,856,742,0
1008852,323.72,856,762,0
1008862,322.56,856,739,0
1008872,326.21,856,763,0
1008882,333.52,856,741,0
1008892,343.82,856,762,0
1008902,356.13,856,739,0
1008912,369.25,856,763,0
1008922,382.46,856,742,0
1008932,394.71,856,762,0
1008942,405.08,856,739,0
1008952,413.20,856,763,0
1008962,418.88,856,742,0
1008972,421.66,856,762,0
1008983,421.81,856,745,0
1008993,418.86,856,761,0
1009003,413.93,856,751,0
1009013,406.58,856,759,0
1009024,398.52,856,753,0
1009033,389.28,856,761,0
1009043,380.37,856,751,0
1009053,371.30,856,759,0
1009063,363.80,856,752,0
1009073,356.61,856,761,0
1009083,351.59,856,751,0
1009093,346.91,856,759,0
1009103,344.58,856,753,0
1009113,342.86,856,761,0
1009123,342.95,856,750,0
1009133,343.01,856,760,0
1009143,344.89,856,752,0
1009153,346.59,856,761,0
1009163,349.33,856,750,0
1009173,351.20,856,759,0
1009183,353.88,856,753,0
1009193,355.68,856,759,0
1009203,358.13,856,751,0
1009213,359.33,856,759,0
1009223,361.29,856,753,0
1009233,362.15,856,759,0
1009243,363.69,856,750,0
1009253,364.21,856,759,0
1009263,365.65,856,753,0
1009273,366.27,856,759,0
1009283,367.73,856,750,0
1009293,368.28,856,760,0
1009303,369.95,856,752,0
1009313,370.57,856,759,0
1009324,372.11,856,753,0
1009334,372.12,856,759,0
1009344,372.98,856,753,0
1009354,372.39,856,758,0
1009364,372.49,856,755,0
1009374,371.18,856,759,0
1009384,371.64,856,753,0
1009394,372.31,856,758,0
1009404,377.92,856,755,0
1009414,387.15,856,759,0
1009433,405.28,876,757,0
1009436,431.94,876,755,0
1009445,468.04,876,758,0
1009455,508.92,876,757,0
1009465,553.21,876,757,0
1009475,596.39,876,756,0
1009485,637.46,876,758,0
1009495,672.04,876,758,0
1009505,698.73,876,756,0
1009515,717.41,876,756,0
1009525,730.53,876,758,0
1009536,739.63,876,756,0
1009545,746.04,876,756,0
1009555,750.48,876,756,0
1009565,752.78,876,757,0
1009575,749.20,876,756,0
1009585,740.14,876,756,0
1009595,723.13,876,756,0
1009605,699.48,876,757,0
1009615,668.05,876,755,0
1009625,631.35,876,756,0
1009635,589.11,876,757,0
1009645,547.34,876,757,0
1009655,505.28,876,756,0
1009665,467.74,876,756,0
1009675,432.97,876,756,0
1009685,404.22,876,757,0
1009695,378.53,876,756,0
1009705,359.17,876,758,0
1009715,343.52,876,756,0
1009725,334.49,876,757,0
1009735,329.20,876,755,0
1009745,330.26,876,758,0
1009755,334.38,876,756,0
1009765,343.69,876,757,0
1009775,354.50,876,755,0
1009785,368.66,876,758,0
1009795,382.18,876,756,0
1009805,396.83,876,757,0
1009815,408.49,876,755,0
1009825,419.27,876,758,0
1009836,425.75,876,755,0
