Time,PPG,IBI,GSR,GSR_Event
220055,322.85,743,781,0
220065,312.56,743,777,0
220076,303.01,743,780,0
220086,294.18,743,776,0
220096,286.97,743,780,0
220106,281.15,743,777,0
220116,277.20,743,780,0
220126,275.26,743,777,0
220136,278.87,743,780,0
220146,285.21,743,777,0
220156,293.76,743,780,0
220166,303.30,743,777,0
220176,313.37,743,780,0
220186,323.07,743,777,0
220196,332.52,743,780,0
220206,341.45,743,777,0
220216,351.22,743,780,0
220226,362.89,743,776,0
220236,379.21,743,780,0
220247,402.46,743,776,0
220257,435.45,743,781,0
220267,475.17,743,776,0
220277,519.18,743,780,0
220288,564.73,743,776,0
220297,609.46,743,781,0
220307,650.13,743,776,0
220317,683.90,743,780,0
220337,707.93,733,780,0
220339,724.84,733,781,0
220349,736.71,733,779,0
220359,745.07,733,781,0
220369,750.96,733,779,0
220379,755.13,733,782,0
220389,758.09,733,779,0
220399,760.21,733,781,0
220409,761.65,733,779,0
220419,762.65,733,782,0
220429,759.46,733,779,0
220439,749.29,733,781,0
220449,730.52,733,779,0
220460,702.38,733,782,0
220470,665.02,733,780,0
220480,619.03,733,781,0
220490,565.49,733,780,0
220500,509.84,733,781,0
220510,456.58,733,779,0
220520,409.05,733,781,0
220530,369.60,733,780,0
220540,339.42,733,781,0
220550,319.20,733,779,0
220560,308.94,733,781,0
220570,307.93,733,780,0
220580,314.85,733,782,0
220590,327.79,733,779,0
220600,345.00,733,781,0
220610,364.58,733,780,0
220620,384.68,733,781,0
220631,403.46,733,780,0
220641,419.18,733,781,0
220651,430.91,733,781,0
220661,438.10,733,781,0
220672,440.60,733,781,0
220681,438.79,733,781,0
220691,433.07,733,781,0
220701,423.96,733,781,0
220711,412.62,733,781,0
220721,399.75,733,781,0
220731,386.58,733,781,0
220741,373.55,733,781,0
220751,361.34,733,781,0
220761,350.40,733,781,0
220771,341.36,733,781,0
220781,334.05,733,781,0
220791,328.68,733,781,0
220801,325.09,733,781,0
220811,323.26,733,781,0
220821,322.76,733,781,0
220831,323.56,733,781,0
220841,325.23,733,781,0
220851,327.78,733,780,0
220861,330.63,733,781,0
220871,333.66,733,781,0
220881,336.80,733,781,0
220891,340.08,733,780,0
220901,343.14,733,780,0
220911,345.88,733,781,0
220921,348.36,733,781,0
220931,350.91,733,781,0
220941,353.04,733,781,0
220951,354.95,733,781,0
220961,356.77,733,781,0
220972,359.54,733,781,0
220982,364.60,733,780,0
220992,373.85,733,781,0
221002,389.32,733,780,0
221012,414.00,733,781,0
221022,448.46,733,780,0
221032,489.59,733,781,0
221042,534.37,733,780,0
221062,580.07,725,779,0
221065,623.72,725,778,0
221074,662.46,725,781,0
221084,693.18,725,778,0
221094,714.73,725,781,0
221104,729.77,725,778,0
221114,740.29,725,782,0
221124,747.66,725,778,0
221134,752.82,725,781,0
221144,756.39,725,778,0
221154,758.89,725,781,0
221164,760.63,725,778,0
221174,759.89,725,781,0
221185,753.49,725,778,0
221195,739.63,725,781,0
221205,717.03,725,777,0
221215,685.52,725,781,0
221225,645.21,725,777,0
221235,597.40,725,782,0
221245,544.87,725,777,0
221255,492.32,725,781,0
221265,442.90,725,777,0
221275,399.56,725,781,0
221285,363.77,725,778,0
221295,336.97,725,781,0
221305,318.77,725,777,0
221315,309.49,725,781,0
221325,307.93,725,778,0
221335,313.48,725,781,0
221345,324.52,725,777,0
221356,339.92,725,781,0
221366,357.56,725,777,0
221376,375.95,725,781,0
221386,393.15,725,777,0
221396,408.36,725,781,0
221406,420.17,725,777,0
221416,428.22,725,781,0
221426,431.62,725,777,0
221436,430.84,725,781,0
221446,426.04,725,777,0
221456,418.19,725,781,0
221466,407.76,725,777,0
221476,395.87,725,782,0
221486,383.01,725,777,0
221496,370.41,725,781,0
221506,358.29,725,777,0
221516,347.49,725,782,0
221527,338.00,725,777,0
221537,330.37,725,781,0
221547,324.39,725,777,0
221557,320.20,725,782,0
221568,317.53,725,778,0
221577,316.38,725,781,0
221587,316.40,725,777,0
221597,317.61,725,781,0
221607,319.44,725,778,0
221617,322.01,725,781,0
221627,324.92,725,778,0
221637,327.99,725,781,0
221647,331.12,725,778,0
221657,334.13,725,781,0
221667,336.92,725,778,0
221677,339.60,725,781,0
221687,341.69,725,778,0
221697,343.45,725,781,0
221707,344.65,725,778,0
221717,345.40,725,781,0
221727,345.58,725,778,0
221737,345.40,725,781,0
221747,345.15,725,778,0
221757,345.79,725,781,0
221767,348.47,725,778,0
221777,355.27,725,781,0
221787,367.79,725,777,0
221797,388.64,725,781,0
221807,419.52,725,778,0
221817,459.01,725,781,0
221836,503.79,775,780,0
221839,550.74,775,782,0
221848,596.76,775,779,0
221858,639.22,775,781,0
221868,675.11,775,779,0
221878,702.08,775,781,0
221888,720.95,775,779,0
221898,734.17,775,781,0
221908,743.42,775,780,0
221918,749.89,775,781,0
221928,754.42,775,779,0
221938,757.60,775,781,0
221948,757.20,775,779,0
221958,751.14,775,781,0
221968,737.64,775,779,0
221978,715.68,775,781,0
221988,684.83,775,779,0
221998,645.63,775,781,0
222008,598.51,775,779,0
222018,547.01,775,781,0
222028,494.51,775,779,0
222039,444.17,775,781,0
222049,398.78,775,780,0
222059,360.23,775,781,0
222069,329.60,775,780,0
222080,307.52,775,781,0
222089,294.08,775,780,0
222099,289.21,775,781,0
222109,292.28,775,780,0
222119,301.79,775,781,0
222129,316.34,775,780,0
222139,333.98,775,781,0
222149,353.23,775,781,0
222159,372.45,775,781,0
222169,390.10,775,780,0
222179,404.94,775,781,0
222189,416.10,775,781,0
222199,422.97,775,781,0
222209,425.59,775,780,0
222219,424.17,775,781,0
222229,419.15,775,781,0
222239,410.96,775,781,0
222249,400.52,775,781,0
222259,388.53,775,781,0
222269,375.94,775,780,0
222279,363.23,775,781,0
222289,350.99,775,781,0
222299,339.77,775,781,0
222309,330.06,775,780,0
222319,321.86,775,781,0
222329,315.43,775,781,0
222339,310.50,775,781,0
222349,307.27,775,780,0
222359,305.30,775,781,0
222369,304.31,775,781,0
222380,303.96,775,781,0
222390,304.40,775,781,0
222400,305.39,775,781,0
222410,307.16,775,781,0
222420,309.26,775,780,0
222430,311.88,775,781,0
222440,314.74,775,781,0
222450,317.86,775,781,0
222460,320.52,775,780,0
222470,322.81,775,781,0
222480,324.45,775,781,0
222490,325.77,775,781,0
222500,326.65,775,780,0
222510,327.74,775,781,0
222520,329.36,775,781,0
222530,332.98,775,781,0
222540,339.76,775,780,0
222551,351.66,775,781,0
222561,370.11,775,780,0
222571,396.95,775,781,0
222581,432.88,775,779,0
222592,475.73,775,782,0
222601,522.09,775,780,0
222620,569.08,784,778,0
222623,613.63,784,778,0
222632,653.34,784,782,0
222642,685.81,784,779,0
222652,709.57,784,781,0
222662,726.20,784,778,0
222672,737.84,784,781,0
222682,745.99,784,778,0
222692,750.96,784,781,0
222702,750.16,784,778,0
222712,742.31,784,781,0
222722,726.36,784,779,0
222732,702.04,784,781,0
222742,668.94,784,778,0
222752,627.77,784,781,0
222763,579.67,784,778,0
222772,529.24,784,781,0
222782,479.07,784,778,0
222792,431.95,784,781,0
222802,389.28,784,777,0
222812,353.24,784,781,0
222822,324.11,784,778,0
222832,302.99,784,781,0
222842,289.45,784,777,0
222852,283.62,784,781,0
222862,284.42,784,778,0
222872,291.49,784,781,0
222882,303.17,784,777,0
222892,318.59,784,781,0
222902,335.60,784,778,0
222912,353.29,784,781,0
222922,370.00,784,778,0
222932,385.26,784,781,0
222942,397.61,784,778,0
222952,406.86,784,781,0
222962,412.26,784,778,0
222972,414.32,784,781,0
222982,412.73,784,778,0
222992,408.27,784,781,0
223002,400.90,784,777,0
223012,391.84,784,781,0
223022,381.22,784,778,0
223032,370.31,784,781,0
223042,358.99,784,777,0
223052,348.19,784,781,0
223063,337.93,784,776,0
223073,329.00,784,781,0
223083,321.28,784,776,0
223093,315.41,784,781,0
223104,310.70,784,775,0
223113,307.79,784,781,0
223123,306.05,784,775,0
223133,305.95,784,781,0
223143,306.70,784,775,0
223153,308.46,784,781,0
223163,310.46,784,774,0
223173,313.07,784,781,0
223183,315.62,784,775,0
223193,318.43,784,782,0
223203,320.62,784,777,0
223213,322.62,784,781,0
223223,323.80,784,777,0
223233,324.68,784,781,0
223243,324.90,784,778,0
223253,325.23,784,781,0
223263,325.89,784,777,0
223273,328.32,784,781,0
223283,333.37,784,778,0
223293,343.07,784,781,0
223303,358.65,784,777,0
223313,382.41,784,781,0
223323,414.52,784,778,0
223333,455.16,784,781,0
223343,500.50,784,777,0
223353,547.62,784,782,0
223372,593.42,752,780,0
223375,635.64,752,781,0
223384,671.32,752,777,0
223394,699.47,752,782,0
223404,719.17,752,777,0
223414,733.00,752,781,0
223424,742.65,752,777,0
223434,749.01,752,781,0
223444,749.82,752,777,0
223454,744.13,752,781,0
223464,730.55,752,777,0
223474,708.78,752,781,0
223484,678.76,752,777,0
223494,641.33,752,781,0
223504,596.96,752,777,0
223514,549.75,752,781,0
223524,501.99,752,777,0
223534,456.91,752,781,0
223544,415.88,752,777,0
223554,380.43,752,782,0
223564,350.94,752,777,0
223575,328.59,752,781,0
223585,313.03,752,777,0
223595,304.58,752,781,0
223605,302.30,752,778,0
223616,306.16,752,781,0
223625,314.72,752,777,0
223635,327.23,752,781,0
223645,342.08,752,778,0
223655,358.43,752,781,0
223665,374.76,752,777,0
223675,390.13,752,781,0
223685,403.08,752,778,0
223695,413.25,752,781,0
223705,419.78,752,777,0
223715,422.76,752,782,0
223725,421.89,752,778,0
223735,417.55,752,781,0
223745,410.23,752,777,0
223755,400.73,752,781,0
223765,389.54,752,778,0
223775,377.42,752,781,0
223785,364.82,752,778,0
223795,352.83,752,781,0
223805,341.83,752,778,0
223815,332.28,752,781,0
223825,324.22,752,778,0
223835,318.11,752,781,0
223845,313.79,752,778,0
223855,311.24,752,781,0
223865,309.97,752,778,0
223875,309.89,752,781,0
223885,310.48,752,778,0
223895,311.84,752,781,0
223905,313.47,752,778,0
223916,315.64,752,781,0
223926,318.11,752,779,0
223936,320.69,752,781,0
223946,323.40,752,779,0
223956,326.19,752,781,0
223966,329.01,752,779,0
223976,332.26,752,781,0
223986,336.13,752,779,0
223996,341.79,752,781,0
224006,350.38,752,779,0
224016,363.59,752,781,0
224026,383.26,752,779,0
224036,411.00,752,781,0
224046,447.25,752,779,0
224056,489.56,752,781,0
224066,534.69,752,779,0
224076,580.09,752,781,0
224096,622.92,724,780,0
224099,660.79,724,781,0
224108,691.36,724,781,0
224118,713.50,724,780,0
224129,728.99,724,781,0
224139,739.84,724,781,0
224149,747.43,724,781,0
224159,752.74,724,780,0
224169,756.42,724,781,0
224179,757.28,724,780,0
224189,753.12,724,781,0
224199,742.20,724,780,0
224209,723.80,724,781,0
224219,697.54,724,780,0
224229,663.70,724,781,0
224239,622.47,724,779,0
224249,576.60,724,781,0
224259,529.32,724,780,0
224269,483.84,724,781,0
224279,442.14,724,780,0
224289,405.89,724,781,0
224300,375.88,724,780,0
224310,353.16,724,781,0
224320,337.34,724,779,0
224330,328.75,724,781,0
224340,326.38,724,779,0
224350,329.57,724,781,0
224360,336.98,724,779,0
224370,347.62,724,781,0
224380,359.77,724,778,0
224390,372.57,724,781,0
224400,384.36,724,779,0
224410,394.71,724,781,0
224420,402.38,724,779,0
224430,407.49,724,781,0
224440,409.36,724,779,0
224450,408.44,724,781,0
224460,404.45,724,779,0
224471,398.10,724,781,0
224481,389.37,724,778,0
224491,379.40,724,781,0
224501,368.10,724,778,0
224512,356.71,724,781,0
224521,345.31,724,778,0
224531,335.10,724,781,0
224541,325.90,724,778,0
224551,318.47,724,781,0
224561,312.20,724,778,0
224571,307.56,724,782,0
224581,304.18,724,778,0
224591,302.19,724,781,0
224601,300.98,724,778,0
224611,300.94,724,781,0
224621,301.26,724,778,0
224631,302.51,724,781,0
224641,304.07,724,778,0
224651,305.89,724,782,0
224661,307.43,724,778,0
224671,308.93,724,781,0
224681,309.89,724,778,0
224691,311.00,724,781,0
224701,311.68,724,778,0
224711,313.15,724,781,0
224721,316.02,724,778,0
224731,322.18,724,782,0
224741,332.67,724,778,0
224751,349.78,724,781,0
224761,375.05,724,778,0
224771,410.01,724,782,0
224781,452.90,724,778,0
224791,500.33,724,781,0
224801,548.92,724,778,0
224821,596.09,725,776,0
224824,638.87,725,778,0
224833,674.70,725,781,0
224843,701.83,725,777,0
224854,720.82,725,781,0
224863,734.12,725,777,0
224873,743.43,725,782,0
224883,749.94,725,778,0
224893,754.46,725,782,0
224903,757.62,725,777,0
224913,759.49,725,781,0
224923,757.12,725,777,0
224933,749.07,725,781,0
224943,734.13,725,777,0
224953,711.76,725,781,0
224963,681.62,725,777,0
224973,644.02,725,781,0
224983,599.79,725,777,0
224993,552.79,725,781,0
225003,505.33,725,777,0
225013,459.97,725,781,0
225024,418.41,725,778,0
225033,382.33,725,781,0
225043,352.40,725,777,0
225053,329.27,725,781,0
225063,313.12,725,778,0
225073,304.00,725,781,0
225083,301.04,725,777,0
225093,303.64,725,781,0
225103,310.31,725,778,0
225113,320.11,725,781,0
225123,331.27,725,777,0
225133,342.84,725,781,0
225143,353.48,725,778,0
225153,362.59,725,781,0
225163,369.06,725,777,0
225173,372.81,725,781,0
225183,373.68,725,778,0
225193,372.23,725,781,0
225203,368.31,725,777,0
225213,362.64,725,781,0
225223,355.34,725,778,0
225233,347.31,725,781,0
225243,338.90,725,778,0
225253,330.49,725,781,0
225263,322.24,725,778,0
225273,314.63,725,781,0
225283,307.62,725,777,0
225293,301.95,725,781,0
225303,297.25,725,778,0
225313,293.83,725,781,0
225324,291.40,725,778,0
225334,290.29,725,781,0
225344,290.16,725,779,0
225354,291.10,725,781,0
225364,292.36,725,779,0
225374,294.05,725,781,0
225384,295.62,725,778,0
225394,297.41,725,781,0
225404,299.13,725,779,0
225414,301.10,725,781,0
225424,302.91,725,779,0
225434,304.78,725,781,0
225444,306.65,725,779,0
225454,308.64,725,781,0
225464,310.42,725,778,0
225474,311.88,725,781,0
225484,312.90,725,779,0
225495,313.87,725,781,0
225505,315.07,725,779,0
225515,317.28,725,781,0
225525,321.82,725,780,0
225536,330.23,725,781,0
225545,343.92,725,779,0
225555,364.64,725,781,0
225565,393.89,725,780,0
225575,432.58,725,781,0
225594,477.54,773,780,0
225597,525.25,773,781,0
225606,572.70,773,781,0
225616,617.41,773,781,0
225626,656.80,773,780,0
225636,688.74,773,781,0
225646,711.62,773,781,0
225656,727.63,773,781,0
225666,738.84,773,780,0
225676,746.69,773,781,0
225686,752.18,773,781,0
225696,755.43,773,781,0
225707,754.40,773,781,0
225716,747.81,773,781,0
225726,734.67,773,781,0
225736,714.24,773,781,0
225746,686.57,773,781,0
225756,651.90,773,781,0
225766,611.13,773,781,0
225776,567.33,773,781,0
225786,522.88,773,781,0
225796,479.80,773,781,0
225806,439.79,773,781,0
225816,403.81,773,781,0
225826,372.67,773,781,0
225836,346.92,773,781,0
225846,327.02,773,781,0
225856,312.74,773,781,0
225866,303.86,773,781,0
225876,300.00,773,781,0
225886,300.69,773,780,0
225896,305.07,773,781,0
225906,312.29,773,781,0
225916,321.12,773,781,0
225926,331.07,773,781,0
225936,341.03,773,781,0
225946,350.32,773,781,0
225956,358.07,773,781,0
225966,363.96,773,781,0
225976,367.83,773,781,0
225986,369.64,773,781,0
225996,369.19,773,781,0
226007,366.82,773,781,0
226017,362.76,773,781,0
226027,357.60,773,781,0
226037,351.38,773,780,0
226048,344.49,773,781,0
226057,337.23,773,781,0
226067,329.92,773,781,0
226077,322.57,773,780,0
226087,315.54,773,781,0
226097,308.74,773,781,0
226107,302.73,773,781,0
226117,297.24,773,780,0
226127,292.75,773,781,0
226137,289.01,773,781,0
226147,286.52,773,781,0
226157,285.00,773,781,0
226167,284.83,773,781,0
226177,285.56,773,781,0
226187,287.45,773,781,0
226197,290.02,773,781,0
226207,293.57,773,781,0
226217,297.60,773,780,0
226227,302.22,773,781,0
226237,306.74,773,780,0
226247,311.32,773,781,0
226257,315.46,773,780,0
226267,319.44,773,781,0
226277,322.61,773,781,0
226287,325.21,773,781,0
226297,326.78,773,780,0
226307,327.70,773,781,0
226317,327.75,773,780,0
226327,327.78,773,781,0
226337,327.72,773,780,0
226348,329.13,773,781,0
226358,332.73,773,780,0
226368,340.61,773,781,0
226378,354.14,773,779,0
226388,375.14,773,781,0
226398,403.73,773,779,0
226417,440.54,823,778,0
226420,483.45,823,778,0
226429,529.47,823,781,0
226439,575.23,823,778,0
226449,618.15,823,781,0
226459,655.73,823,778,0
226469,686.80,823,781,0
226479,710.13,823,778,0
226489,725.61,823,781,0
226499,733.09,823,777,0
226509,732.77,823,781,0
226519,724.48,823,778,0
226529,708.74,823,781,0
226539,685.50,823,778,0
226549,655.61,823,781,0
226560,620.45,823,777,0
226569,583.33,823,781,0
226579,545.95,823,778,0
226589,510.26,823,781,0
226599,476.84,823,777,0
226609,447.27,823,781,0
226619,421.35,823,778,0
226629,399.56,823,781,0
226639,381.22,823,778,0
226649,366.84,823,781,0
226659,355.96,823,778,0
226669,348.90,823,781,0
226679,344.90,823,778,0
226689,344.16,823,781,0
226699,345.83,823,779,0
226709,349.99,823,782,0
226719,355.48,823,778,0
226729,362.19,823,781,0
226739,368.74,823,778,0
226749,374.81,823,781,0
226759,379.41,823,778,0
226769,382.63,823,781,0
226779,383.56,823,779,0
226789,382.62,823,781,0
226799,379.18,823,778,0
226809,374.32,823,782,0
226819,367.84,823,779,0
226829,360.65,823,781,0
226839,352.61,823,779,0
226849,344.54,823,781,0
226860,336.45,823,779,0
226870,329.07,823,781,0
226880,322.11,823,778,0
226890,316.20,823,782,0
226900,310.96,823,778,0
226910,306.77,823,781,0
226920,303.32,823,779,0
226930,301.04,823,782,0
226940,299.40,823,778,0
226950,298.77,823,781,0
226960,298.54,823,778,0
226970,299.02,823,781,0
226980,299.66,823,779,0
226990,300.79,823,781,0
227000,301.71,823,779,0
227010,302.78,823,782,0
227020,303.45,823,779,0
227031,304.34,823,781,0
227041,304.97,823,778,0
227051,305.92,823,782,0
227061,306.63,823,778,0
227072,307.60,823,781,0
227081,308.53,823,778,0
227091,309.87,823,782,0
227101,310.94,823,778,0
227111,312.29,823,781,0
227121,313.31,823,778,0
227131,314.51,823,782,0
227141,315.38,823,778,0
227151,316.13,823,781,0
227161,316.30,823,778,0
227171,316.43,823,781,0
227181,316.43,823,778,0
227191,317.46,823,781,0
227201,319.98,823,778,0
227211,325.98,823,781,0
227221,336.62,823,778,0
227240,353.96,823,777,0
227244,379.30,823,780,0
227252,413.28,823,782,0
227262,455.03,823,779,0
227272,501.48,823,782,0
227282,548.95,823,779,0
227292,594.95,823,781,0
227302,636.66,823,779,0
227312,671.91,823,782,0
227322,699.41,823,779,0
227332,718.83,823,781,0
227342,731.82,823,779,0
227352,737.96,823,781,0
227362,736.60,823,779,0
227372,727.81,823,781,0
227382,710.94,823,778,0
227392,686.44,823,781,0
227402,654.68,823,779,0
227412,617.23,823,781,0
227422,576.92,823,778,0
227432,536.53,823,781,0
227442,497.33,823,779,0
227452,461.49,823,781,0
227462,429.67,823,778,0
227472,402.90,823,781,0
227482,380.99,823,778,0
227492,364.40,823,781,0
227502,352.71,823,779,0
227512,346.33,823,781,0
227522,344.51,823,778,0
227532,347.02,823,781,0
227543,352.88,823,779,0
227553,361.66,823,781,0
227563,372.26,823,779,0
227573,384.10,823,781,0
227584,395.85,823,780,0
227593,407.08,823,781,0
227603,416.66,823,779,0
227613,424.22,823,781,0
227623,428.87,823,780,0
227633,430.54,823,781,0
227643,428.79,823,779,0
227653,424.05,823,781,0
227663,416.54,823,780,0
227673,407.12,823,781,0
227683,395.94,823,779,0
227693,383.96,823,781,0
227703,371.41,823,780,0
227713,359.38,823,781,0
227723,348.12,823,779,0
227733,338.14,823,781,0
227743,329.53,823,780,0
227753,322.68,823,781,0
227763,317.59,823,779,0
227773,314.46,823,781,0
227783,312.91,823,779,0
227793,312.89,823,781,0
227803,313.78,823,779,0
227813,315.60,823,781,0
227823,317.74,823,780,0
227833,320.13,823,781,0
227843,322.41,823,779,0
227853,324.60,823,781,0
227863,326.26,823,779,0
227873,327.73,823,781,0
227884,328.58,823,780,0
227894,329.35,823,781,0
227904,329.63,823,780,0
227914,329.66,823,781,0
227924,329.24,823,781,0
227934,328.57,823,781,0
227944,327.50,823,780,0
227954,326.24,823,781,0
227964,324.62,823,781,0
227974,322.89,823,781,0
227984,320.87,823,780,0
227994,318.72,823,781,0
228004,316.96,823,781,0
228014,316.29,823,781,0
228024,317.27,823,780,0
228034,321.09,823,781,0
228044,329.12,823,781,0
228055,343.01,823,781,0
228065,364.39,823,780,0
228084,394.49,844,780,0
228087,433.94,844,782,0
228097,479.30,844,780,0
228107,527.17,844,781,0
228117,574.65,844,780,0
228127,619.20,844,782,0
228137,658.31,844,780,0
228147,689.84,844,781,0
228157,712.13,844,780,0
228167,727.78,844,781,0
228177,738.73,844,780,0
228187,746.40,844,781,0
228197,751.76,844,780,0
228207,755.52,844,782,0
228217,754.94,844,780,0
228227,748.48,844,781,0
228237,734.45,844,780,0
228247,712.33,844,781,0
228257,681.76,844,780,0
228268,643.26,844,781,0
228278,597.37,844,779,0
228288,548.49,844,782,0
228298,499.27,844,779,0
228308,453.03,844,781,0
228318,411.58,844,779,0
228328,376.95,844,782,0
228338,349.45,844,779,0
228348,329.99,844,781,0
228358,317.95,844,779,0
228368,313.38,844,781,0
228378,315.24,844,779,0
228388,322.88,844,781,0
228398,334.62,844,780,0
228408,349.82,844,781,0
228418,366.54,844,779,0
228428,384.12,844,782,0
228439,400.93,844,779,0
228449,416.16,844,782,0
228459,428.54,844,779,0
228469,437.59,844,781,0
228480,442.56,844,779,0
228489,444.02,844,782,0
228499,441.49,844,778,0
228509,435.81,844,781,0
228519,426.91,844,779,0
228529,416.05,844,781,0
228539,403.52,844,779,0
228549,390.42,844,781,0
228559,376.67,844,779,0
228569,363.44,844,782,0
228579,350.66,844,779,0
228589,339.28,844,781,0
228599,329.04,844,779,0
228609,320.76,844,781,0
228619,313.97,844,779,0
228629,309.27,844,781,0
228639,305.97,844,778,0
228649,304.44,844,781,0
228659,304.18,844,779,0
228669,305.15,844,781,0
228679,306.65,844,778,0
228689,308.90,844,782,0
228699,311.11,844,779,0
228709,313.69,844,781,0
228719,316.01,844,778,0
228729,318.50,844,781,0
228739,320.75,844,779,0
228749,323.35,844,781,0
228759,325.65,844,778,0
228769,328.37,844,781,0
228780,331.00,844,778,0
228790,333.96,844,781,0
228800,336.50,844,778,0
228810,339.65,844,782,0
228820,343.44,844,778,0
228830,349.39,844,781,0
228840,358.23,844,778,0
228850,372.22,844,782,0
228860,393.11,844,778,0
228870,422.73,844,782,0
228880,460.66,844,778,0
228890,503.79,844,782,0
228910,549.07,825,780,0
228913,594.00,825,782,0
228922,635.62,825,779,0
228932,671.39,825,782,0
228942,699.43,825,780,0
228952,719.10,825,781,0
228962,732.83,825,779,0
228972,742.44,825,782,0
228982,749.16,825,780,0
228993,753.87,825,782,0
229003,757.12,825,780,0
229013,759.40,825,781,0
229023,761.00,825,780,0
229033,760.35,825,781,0
229043,754.63,825,779,0
229053,741.59,825,781,0
229063,719.85,825,780,0
229073,689.04,825,781,0
229083,649.51,825,779,0
229093,602.30,825,781,0
229103,550.18,825,780,0
229113,497.59,825,781,0
229123,448.17,825,779,0
229133,405.09,825,781,0
229143,370.35,825,780,0
229153,344.83,825,782,0
229164,328.68,825,780,0
229174,321.70,825,781,0
229184,322.91,825,781,0
229194,331.12,825,781,0
229204,344.50,825,781,0
229214,361.19,825,781,0
229224,379.31,825,781,0
229234,396.96,825,781,0
229244,412.70,825,781,0
229254,425.26,825,781,0
229264,433.80,825,781,0
229274,437.84,825,781,0
229284,437.12,825,781,0
229294,432.15,825,781,0
229304,423.37,825,781,0
229314,411.47,825,781,0
229324,397.36,825,781,0
229335,381.91,825,781,0
229345,365.99,825,781,0
229355,350.52,825,781,0
229365,335.71,825,781,0
229376,322.08,825,781,0
229385,310.06,825,781,0
229395,299.88,825,781,0
229405,291.78,825,781,0
229415,285.50,825,781,0
229425,281.11,825,781,0
229435,278.50,825,781,0
229445,277.80,825,781,0
229455,278.50,825,781,0
229465,280.71,825,781,0
229475,284.09,825,781,0
229485,288.78,825,781,0
229495,294.50,825,781,0
229505,301.25,825,781,0
229515,308.63,825,781,0
229525,316.54,825,782,0
229535,324.18,825,781,0
229545,331.33,825,781,0
229555,337.53,825,781,0
229565,342.60,825,781,0
229575,346.36,825,781,0
229585,348.87,825,781,0
229595,350.24,825,781,0
229605,351.32,825,782,0
229615,353.03,825,781,0
229625,356.96,825,781,0
229635,364.34,825,781,0
229645,377.53,825,781,0
229655,398.75,825,781,0
229665,429.94,825,781,0
229676,469.09,825,780,0
229686,512.99,825,781,0
229705,558.51,796,781,0
229708,603.36,796,782,0
229718,644.43,796,779,0
229727,678.98,796,781,0
229737,704.61,796,779,0
229747,722.60,796,782,0
229757,735.15,796,779,0
229767,743.98,796,781,0
229777,750.11,796,779,0
229787,754.45,796,782,0
229797,757.44,796,779,0
229807,756.15,796,781,0
229817,747.79,796,779,0
229827,731.23,796,782,0
229837,705.49,796,779,0
229847,671.23,796,782,0
229857,628.43,796,779,0
229867,578.16,796,782,0
229877,524.54,796,779,0
229888,471.88,796,781,0
229897,422.50,796,779,0
229907,378.94,796,781,0
229917,341.71,796,779,0
229927,312.40,796,782,0
229937,290.68,796,779,0
229947,277.02,796,782,0
229957,270.76,796,779,0
229967,271.60,796,782,0
229977,278.23,796,779,0
229987,289.86,796,782,0
229997,304.56,796,779,0
230007,321.54,796,781,0
230017,338.95,796,779,0
230027,355.89,796,782,0
230037,370.84,796,779,0
230047,383.27,796,781,0
230057,392.11,796,779,0
230067,397.47,796,782,0
230077,398.87,796,779,0
230087,396.85,796,781,0
230097,391.24,796,779,0
230107,383.28,796,782,0
230117,373.04,796,779,0
230127,361.67,796,781,0
230137,349.30,796,779,0
230147,337.08,796,782,0
230157,325.10,796,779,0
230167,314.14,796,782,0
230177,303.98,796,779,0
230188,295.46,796,781,0
230198,288.34,796,779,0
230208,283.44,796,781,0
230218,280.05,796,778,0
230228,278.66,796,782,0
230238,278.98,796,779,0
230248,281.08,796,781,0
230258,284.14,796,779,0
230268,288.26,796,782,0
230278,292.47,796,779,0
230288,297.13,796,781,0
230298,301.46,796,779,0
230308,305.56,796,782,0
230318,308.78,796,779,0
230328,311.72,796,781,0
230338,313.77,796,779,0
230348,315.47,796,782,0
230359,316.32,796,779,0
230369,316.82,796,781,0
230379,316.96,796,778,0
230389,317.83,796,782,0
230400,319.94,796,778,0
230409,325.01,796,781,0
230419,333.92,796,778,0
230429,348.86,796,782,0
230439,371.06,796,778,0
230449,401.34,796,781,0
230459,439.72,796,778,0
230469,483.99,796,782,0
230489,530.62,783,781,0
230492,576.94,783,782,0
230501,619.98,783,779,0
230511,657.62,783,782,0
230521,688.38,783,780,0
230531,711.15,783,782,0
230541,727.09,783,779,0
230551,736.19,783,782,0
230561,737.72,783,780,0
230572,731.12,783,781,0
230582,715.91,783,780,0
230592,692.19,783,781,0
230602,660.17,783,780,0
230612,620.43,783,781,0
230622,575.86,783,780,0
230632,529.40,783,781,0
230642,483.38,783,780,0
230652,439.98,783,781,0
230662,400.60,783,779,0
230672,366.56,783,781,0
230682,338.28,783,780,0
230692,316.12,783,782,0
230702,300.06,783,780,0
230712,290.23,783,781,0
230722,286.13,783,780,0
230732,287.29,783,781,0
230743,292.73,783,780,0
230753,301.68,783,781,0
230763,313.18,783,781,0
230773,326.33,783,781,0
230784,340.03,783,781,0
230793,353.43,783,781,0
230803,365.69,783,781,0
230813,376.24,783,781,0
230823,384.74,783,781,0
230833,390.60,783,781,0
230843,393.64,783,781,0
230853,393.83,783,781,0
230863,391.48,783,781,0
230873,386.97,783,781,0
230883,380.55,783,780,0
230893,372.80,783,781,0
230903,364.20,783,781,0
230913,355.44,783,781,0
230923,346.87,783,781,0
230933,338.63,783,781,0
230943,331.12,783,781,0
230953,324.57,783,781,0
230963,319.04,783,781,0
230973,314.74,783,781,0
230983,311.65,783,781,0
230993,309.74,783,781,0
231003,308.92,783,781,0
231013,308.90,783,781,0
231023,309.49,783,781,0
231033,310.37,783,781,0
231043,311.42,783,781,0
231053,312.41,783,781,0
231063,313.14,783,781,0
231073,313.61,783,781,0
231084,313.64,783,781,0
231094,313.32,783,781,0
231104,312.63,783,781,0
231114,311.58,783,781,0
231124,310.42,783,781,0
231134,309.74,783,781,0
231144,310.12,783,781,0
231154,312.40,783,781,0
231164,317.81,783,782,0
231174,327.29,783,781,0
231184,342.08,783,781,0
231194,362.97,783,781,0
231204,390.41,783,782,0
231214,423.80,783,781,0
231224,462.39,783,781,0
231243,504.14,755,780,0
231246,546.87,755,782,0
231255,587.97,755,781,0
231265,624.71,755,781,0
231275,654.32,755,780,0
231285,675.18,755,782,0
231296,685.76,755,780,0
231305,686.04,755,782,0
231315,676.30,755,780,0
231325,657.57,755,782,0
231335,631.13,755,780,0
231345,599.33,755,781,0
231355,563.96,755,780,0
231365,527.07,755,781,0
231375,489.94,755,780,0
231385,454.38,755,781,0
231395,421.27,755,781,0
231405,391.92,755,781,0
231415,366.36,755,780,0
231425,345.38,755,782,0
231435,328.98,755,781,0
231445,317.41,755,781,0
231455,310.30,755,780,0
231465,307.68,755,781,0
231475,308.76,755,780,0
231485,313.38,755,781,0
231495,320.72,755,780,0
231505,330.53,755,781,0
231515,341.82,755,780,0
231525,354.04,755,781,0
231535,366.07,755,780,0
231545,377.71,755,782,0
231555,388.04,755,780,0
231565,396.64,755,781,0
231575,402.83,755,780,0
231585,406.83,755,781,0
231596,408.21,755,780,0
231606,407.63,755,781,0
231616,404.70,755,780,0
231626,400.20,755,782,0
231636,394.06,755,779,0
231646,387.05,755,781,0
231656,379.07,755,779,0
231666,370.90,755,782,0
231676,362.40,755,779,0
231686,354.48,755,781,0
231696,346.84,755,780,0
231706,340.20,755,782,0
231716,334.23,755,779,0
231726,329.49,755,781,0
231736,325.57,755,780,0
231746,322.78,755,781,0
231756,320.71,755,779,0
231767,319.51,755,781,0
231777,318.76,755,779,0
231787,318.61,755,782,0
231797,318.52,755,779,0
231808,318.96,755,781,0
231817,319.57,755,779,0
231827,320.64,755,781,0
231837,321.95,755,779,0
231847,324.28,755,781,0
231857,327.84,755,779,0
231867,334.10,755,781,0
231877,343.54,755,779,0
231887,357.82,755,781,0
231897,377.20,755,779,0
231907,402.90,755,782,0
231917,434.34,755,779,0
231927,471.18,755,781,0
231937,511.20,755,779,0
231947,552.80,755,782,0
231966,592.89,723,780,0
231969,629.01,723,781,0
231979,658.75,723,779,0
231988,680.89,723,782,0
231998,693.74,723,778,0
232008,697.25,723,781,0
232018,691.04,723,779,0
232028,676.72,723,781,0
232038,655.63,723,778,0
232048,629.47,723,782,0
232058,599.33,723,779,0
232068,567.64,723,782,0
232078,535.57,723,779,0
232088,505.01,723,781,0
232098,476.12,723,778,0
232108,450.28,723,781,0
232118,427.36,723,779,0
232128,408.14,723,782,0
232138,392.19,723,778,0
232148,380.05,723,781,0
232158,371.12,723,778,0
232168,365.68,723,781,0
232178,363.12,723,778,0
232188,363.69,723,781,0
232198,366.74,723,779,0
232208,372.22,723,781,0
232218,379.14,723,778,0
232228,387.45,723,782,0
232238,396.27,723,779,0
232248,405.32,723,782,0
232258,413.41,723,778,0
232268,420.53,723,782,0
232279,425.81,723,779,0
232289,429.60,723,782,0
232299,431.18,723,778,0
232309,430.95,723,781,0
232320,428.61,723,779,0
232329,425.04,723,781,0
232339,419.71,723,778,0
232349,413.46,723,781,0
232359,406.12,723,778,0
232369,398.46,723,782,0
232379,390.48,723,778,0
232389,382.83,723,782,0
232399,375.38,723,778,0
232409,368.84,723,781,0
232419,362.89,723,778,0
232429,357.91,723,781,0
232439,353.78,723,778,0
232449,350.84,723,781,0
232459,348.75,723,778,0
232469,347.62,723,781,0
232479,346.92,723,778,0
232489,347.03,723,781,0
232499,347.58,723,777,0
232509,348.78,723,781,0
232519,350.26,723,778,0
232529,352.67,723,781,0
232539,356.24,723,778,0
232549,362.08,723,782,0
232559,370.63,723,778,0
232569,383.13,723,782,0
232579,400.06,723,778,0
232589,422.58,723,782,0
232599,450.48,723,778,0
232609,483.46,723,782,0
232620,519.97,723,778,0
232630,558.42,723,782,0
232640,596.39,723,779,0
232659,631.59,693,778,0
232663,660.98,693,781,0
232671,683.40,693,782,0
232681,697.21,693,780,0
232691,701.90,693,781,0
232701,697.39,693,780,0
232711,684.59,693,782,0
232721,664.61,693,779,0
232731,639.36,693,781,0
232741,609.72,693,780,0
232751,577.70,693,782,0
232761,544.79,693,779,0
232771,512.46,693,781,0
232781,481.55,693,780,0
232791,453.23,693,782,0
232801,427.92,693,779,0
232811,406.08,693,782,0
232821,387.84,693,780,0
232832,373.49,693,781,0
232841,363.06,693,779,0
232851,356.57,693,781,0
232861,353.74,693,780,0
232871,354.25,693,781,0
232881,357.73,693,779,0
232891,363.77,693,781,0
232901,371.77,693,780,0
232911,381.14,693,781,0
232921,391.04,693,779,0
232931,400.84,693,781,0
232941,410.27,693,779,0
232951,418.89,693,781,0
232961,426.12,693,779,0
232971,431.74,693,781,0
232981,435.46,693,779,0
232991,437.38,693,781,0
233001,437.48,693,780,0
233011,435.75,693,781,0
233021,432.31,693,779,0
233031,427.42,693,781,0
233041,421.46,693,780,0
233051,414.68,693,781,0
233061,407.45,693,779,0
233071,399.94,693,781,0
233081,392.55,693,780,0
233091,385.65,693,781,0
233101,379.29,693,779,0
233111,373.54,693,781,0
233121,368.49,693,780,0
233132,364.06,693,781,0
233142,360.31,693,780,0
233152,356.96,693,781,0
233162,353.89,693,781,0
233172,351.52,693,781,0
233182,349.82,693,780,0
233192,349.15,693,781,0
233202,350.09,693,781,0
233212,353.32,693,781,0
233222,359.87,693,780,0
233232,370.53,693,781,0
233242,386.23,693,781,0
233252,407.42,693,781,0
233262,434.12,693,780,0
233272,465.54,693,781,0
233282,500.61,693,781,0
233292,537.54,693,781,0
233312,574.19,653,780,0
233315,607.31,653,780,0
233324,635.80,653,782,0
233334,657.50,653,780,0
233345,671.62,653,781,0
233355,677.14,653,780,0
233365,674.31,653,782,0
233375,663.55,653,779,0
233385,646.75,653,781,0
233395,624.24,653,780,0
233405,598.20,653,782,0
233415,569.47,653,779,0
233425,539.93,653,781,0
233435,510.42,653,780,0
233445,482.44,653,782,0
233455,456.33,653,779,0
233465,432.96,653,782,0
233475,412.45,653,780,0
233485,395.68,653,782,0
233495,382.54,653,779,0
233505,373.50,653,782,0
233516,368.21,653,779,0
233526,367.03,653,782,0
233536,369.17,653,778,0
233546,374.39,653,781,0
233556,381.64,653,778,0
233566,390.49,653,782,0
233576,399.69,653,778,0
233586,408.91,653,781,0
233596,417.08,653,778,0
233606,424.21,653,782,0
233616,429.29,653,778,0
233626,432.46,653,782,0
233636,433.09,653,778,0
233646,431.74,653,782,0
233656,428.04,653,778,0
233666,422.46,653,782,0
233676,414.69,653,778,0
233687,405.74,653,782,0
233697,395.53,653,778,0
233707,385.05,653,782,0
233717,374.15,653,777,0
233728,363.56,653,782,0
233737,353.32,653,778,0
233747,344.27,653,782,0
233757,336.22,653,777,0
233767,329.55,653,782,0
233777,324.07,653,778,0
233787,320.24,653,782,0
233797,317.51,653,778,0
233807,316.24,653,782,0
233817,315.57,653,778,0
233827,315.66,653,781,0
233837,315.89,653,778,0
233847,316.48,653,781,0
233857,316.93,653,778,0
233867,317.94,653,781,0
233877,319.46,653,778,0
233887,322.88,653,782,0
233897,328.66,653,778,0
233907,338.45,653,782,0
233917,352.88,653,778,0
233927,373.53,653,781,0
233937,400.59,653,778,0
233947,434.14,653,782,0
233957,472.84,653,778,0
233967,515.45,653,781,0
233977,558.81,653,778,0
233987,600.61,653,782,0
233997,638.44,653,778,0
234016,670.62,704,776,0
234019,694.05,704,778,0
234028,708.52,704,782,0
234038,712.95,704,778,0
234048,708.42,704,781,0
234058,695.61,704,778,0
234068,675.46,704,781,0
234078,648.92,704,777,0
234088,619.11,704,781,0
234098,586.77,704,778,0
234108,554.09,704,782,0
234118,522.22,704,777,0
234128,492.46,704,781,0
234138,465.10,704,778,0
234148,440.73,704,781,0
234158,419.38,704,777,0
234168,401.44,704,781,0
234178,386.69,704,778,0
234188,375.51,704,781,0
234199,367.65,704,777,0
234209,363.34,704,782,0
234219,362.29,704,778,0
234229,364.22,704,781,0
234240,368.61,704,778,0
234249,375.11,704,781,0
234259,382.84,704,778,0
234269,391.33,704,781,0
234279,399.67,704,778,0
234289,407.44,704,781,0
234299,413.95,704,778,0
234309,419.11,704,781,0
234319,422.33,704,778,0
234329,423.82,704,781,0
234339,423.27,704,778,0
234349,420.96,704,781,0
234359,416.82,704,778,0
234369,411.39,704,781,0
234379,404.71,704,778,0
234389,397.34,704,782,0
234399,389.27,704,778,0
234409,380.96,704,781,0
234419,372.61,704,778,0
234429,364.59,704,781,0
234439,356.91,704,778,0
234449,349.82,704,781,0
234459,343.45,704,777,0
234469,338.08,704,781,0
234479,333.65,704,778,0
234489,330.24,704,782,0
234499,327.64,704,777,0
234509,325.95,704,782,0
234519,324.63,704,778,0
234529,323.67,704,781,0
234540,323.00,704,778,0
234550,322.83,704,782,0
234560,323.31,704,779,0
234570,324.97,704,781,0
234580,328.41,704,779,0
234590,334.93,704,781,0
234600,345.75,704,779,0
234610,361.94,704,781,0
234620,384.37,704,779,0
234630,413.15,704,782,0
234640,447.95,704,779,0
234650,487.82,704,781,0
234660,530.69,704,779,0
234670,573.51,704,782,0
234680,613.77,704,779,0
234699,649.54,683,778,0
234702,678.22,683,781,0
234711,698.90,683,781,0
234721,710.24,683,780,0
234731,712.10,683,781,0
234741,705.30,683,780,0
234752,690.51,683,781,0
234761,668.41,683,780,0
234771,641.20,683,781,0
234781,610.07,683,780,0
234791,576.88,683,781,0
234801,543.31,683,780,0
234811,510.56,683,781,0
234821,479.75,683,780,0
234831,451.67,683,781,0
234841,426.83,683,780,0
234851,405.36,683,781,0
234861,387.51,683,780,0
234871,373.13,683,781,0
234881,362.46,683,780,0
234891,355.34,683,781,0
234901,351.47,683,780,0
234911,350.64,683,781,0
234921,352.55,683,781,0
234931,356.58,683,781,0
234941,362.24,683,780,0
234951,368.89,683,781,0
234961,376.21,683,780,0
234971,383.61,683,781,0
234981,390.54,683,780,0
234991,396.46,683,782,0
235001,401.30,683,781,0
235011,404.94,683,781,0
235021,407.23,683,780,0
235031,407.84,683,782,0
235041,406.91,683,781,0
235052,404.36,683,781,0
235062,400.61,683,781,0
235072,395.50,683,781,0
235082,389.43,683,781,0
235092,382.58,683,781,0
235102,375.46,683,781,0
235112,368.47,683,781,0
235122,362.20,683,781,0
235132,356.57,683,781,0
235142,351.98,683,781,0
235152,348.17,683,782,0
235162,345.38,683,781,0
235172,343.29,683,781,0
235182,341.62,683,781,0
235192,339.81,683,781,0
235202,338.19,683,781,0
235212,336.68,683,781,0
235223,335.62,683,781,0
235233,334.66,683,781,0
235243,334.03,683,781,0
235253,333.55,683,780,0
235264,333.77,683,781,0
235273,334.18,683,781,0
235283,335.24,683,782,0
235293,336.80,683,780,0
235303,339.86,683,781,0
235313,344.62,683,781,0
235323,352.75,683,781,0
235333,364.91,683,780,0
235343,382.64,683,781,0
235353,405.89,683,781,0
235363,435.19,683,782,0
235373,469.63,683,781,0
235383,508.40,683,782,0
235402,548.91,703,780,0
235405,588.58,703,782,0
235414,625.01,703,780,0
235424,656.25,703,782,0
235435,680.00,703,779,0
235444,695.34,703,782,0
235454,701.41,703,780,0
235464,698.76,703,782,0
235474,688.16,703,779,0
235484,670.93,703,782,0
235494,648.15,703,780,0
235504,621.83,703,781,0
235514,593.04,703,779,0
235524,563.80,703,781,0
235534,534.76,703,780,0
235544,507.19,703,782,0
235554,481.16,703,779,0
235564,457.84,703,781,0
235574,437.15,703,780,0
235584,419.49,703,782,0
235594,404.21,703,779,0
235604,391.89,703,781,0
235614,382.28,703,780,0
235624,375.55,703,781,0
235634,370.93,703,779,0
235644,368.55,703,782,0
235654,367.91,703,780,0
235664,369.18,703,781,0
235674,371.53,703,779,0
235684,374.93,703,782,0
235694,378.55,703,780,0
235704,382.46,703,781,0
235714,385.88,703,779,0
235724,388.87,703,782,0
235735,390.75,703,779,0
235745,391.86,703,781,0
235755,391.60,703,778,0
235765,390.39,703,781,0
235776,387.96,703,778,0
235785,384.97,703,781,0
235795,381.08,703,778,0
235805,377.03,703,782,0
235815,372.52,703,778,0
235825,368.21,703,781,0
235835,363.90,703,778,0
235845,360.07,703,782,0
235855,356.19,703,778,0
235865,352.88,703,781,0
235875,349.49,703,778,0
235885,346.60,703,782,0
235895,343.76,703,778,0
235905,341.39,703,781,0
235915,339.09,703,778,0
235925,337.35,703,782,0
235935,335.57,703,778,0
235945,334.50,703,781,0
235955,333.49,703,778,0
235965,332.87,703,782,0
235975,332.23,703,778,0
235985,331.90,703,781,0
235995,331.42,703,778,0
236005,331.38,703,781,0
236015,331.14,703,778,0
236025,331.18,703,781,0
236035,331.17,703,778,0
236045,331.63,703,782,0
236055,332.43,703,778,0
236065,334.49,703,781,0
236076,337.90,703,777,0
236086,344.27,703,781,0
236096,354.39,703,777,0
236106,369.92,703,781,0
236116,391.37,703,777,0
236126,419.46,703,781,0
236136,453.56,703,777,0
236155,493.55,753,776,0
236158,536.24,753,779,0
236167,578.90,753,781,0
236177,618.87,753,777,0
236187,654.44,753,782,0
236197,684.26,753,777,0
236207,707.89,753,781,0
236217,724.29,753,777,0
236227,733.80,753,781,0
236237,736.65,753,777,0
236247,733.24,753,781,0
236257,723.48,753,777,0
236267,707.69,753,781,0
236277,685.97,753,777,0
236288,659.24,753,781,0
236297,629.29,753,776,0
236307,598.18,753,781,0
236317,566.80,753,777,0
236327,536.73,753,781,0
236337,508.48,753,777,0
236347,483.22,753,781,0
236357,461.00,753,777,0
236367,442.23,753,781,0
236377,426.65,753,777,0
236387,414.71,753,781,0
236397,405.97,753,777,0
236407,400.62,753,781,0
236417,397.86,753,777,0
236427,397.95,753,781,0
236437,400.02,753,777,0
236447,403.91,753,781,0
236457,408.74,753,777,0
236467,414.26,753,781,0
236477,419.67,753,777,0
236487,424.61,753,781,0
236497,428.28,753,777,0
236507,430.77,753,781,0
236517,431.53,753,777,0
236527,430.64,753,781,0
236537,427.75,753,777,0
236547,423.41,753,781,0
236557,417.63,753,777,0
236567,410.93,753,781,0
236577,403.15,753,777,0
236588,394.96,753,781,0
236598,386.53,753,777,0
236608,378.36,753,781,0
236618,370.28,753,778,0
236628,362.78,753,782,0
236638,355.77,753,777,0
236648,349.63,753,781,0
236658,344.17,753,777,0
236668,339.57,753,781,0
236678,335.85,753,777,0
236688,333.19,753,781,0
236698,331.46,753,777,0
236708,330.72,753,781,0
236718,330.89,753,777,0
236728,332.04,753,782,0
236738,333.83,753,777,0
236748,336.19,753,781,0
236759,338.71,753,778,0
236769,341.49,753,781,0
236779,344.39,753,778,0
236789,347.32,753,781,0
236800,350.26,753,779,0
236809,353.66,753,781,0
236819,357.87,753,778,0
236829,363.95,753,781,0
236839,372.80,753,779,0
236849,385.80,753,781,0
236859,404.42,753,779,0
236869,430.09,753,782,0
236879,463.71,753,779,0
236889,503.05,753,781,0
236899,545.17,753,778,0
236918,587.50,763,778,0
236921,627.68,763,781,0
236930,663.52,763,781,0
236940,692.89,763,779,0
236950,714.31,763,781,0
236960,729.30,763,780,0
236971,739.80,763,781,0
236980,747.14,763,779,0
236990,752.24,763,781,0
237000,755.77,763,780,0
237010,758.24,763,781,0
237020,759.97,763,779,0
237030,761.18,763,781,0
237040,760.57,763,780,0
237050,755.64,763,781,0
237060,744.95,763,779,0
237070,727.31,763,781,0
237080,702.19,763,780,0
237090,669.60,763,781,0
237100,630.21,763,779,0
237110,586.13,763,781,0
237120,541.01,763,780,0
237130,497.59,763,781,0
237140,458.46,763,780,0
237150,425.23,763,781,0
237160,399.06,763,780,0
237170,380.06,763,781,0
237180,368.30,763,780,0
237190,363.37,763,781,0
237200,364.37,763,780,0
237210,370.09,763,781,0
237220,379.19,763,780,0
237230,390.19,763,781,0
237240,402.00,763,780,0
237250,413.49,763,781,0
237260,423.76,763,780,0
237271,431.93,763,781,0
237281,437.52,763,781,0
237291,440.24,763,781,0
237301,440.29,763,781,0
237312,437.68,763,781,0
237321,432.89,763,781,0
237331,425.94,763,781,0
237341,417.47,763,781,0
237351,407.64,763,782,0
237361,397.38,763,781,0
237371,386.77,763,781,0
237381,376.42,763,781,0
237391,366.31,763,782,0
237401,357.04,763,781,0
237411,348.59,763,781,0
237421,341.43,763,781,0
237431,335.38,763,782,0
237441,330.73,763,781,0
237451,327.17,763,781,0
237461,324.89,763,781,0
237471,323.64,763,781,0
237481,323.49,763,781,0
237491,324.20,763,781,0
237501,325.64,763,781,0
237511,327.55,763,781,0
237521,330.17,763,781,0
237531,333.03,763,781,0
237541,336.15,763,781,0
237551,339.11,763,781,0
237561,341.99,763,781,0
237571,344.61,763,781,0
237581,347.12,763,781,0
237591,349.53,763,781,0
237601,352.76,763,781,0
237612,357.80,763,781,0
237622,366.48,763,781,0
237632,380.56,763,781,0
237642,402.81,763,782,0
237652,435.18,763,781,0
237662,474.98,763,782,0
237672,519.09,763,781,0
237682,564.79,763,782,0
237702,609.38,783,781,0
237705,650.15,783,782,0
237714,683.88,783,779,0
237724,708.13,783,782,0
237734,725.10,783,779,0
237744,737.03,783,782,0
237754,745.34,783,779,0
237764,751.15,783,782,0
237774,755.22,783,779,0
237784,758.07,783,782,0
237794,760.02,783,779,0
237804,761.38,783,782,0
237814,762.34,783,779,0
237825,763.05,783,782,0
237835,763.51,783,778,0
237845,763.83,783,782,0
237855,760.66,783,778,0
237865,751.21,783,781,0
237875,733.66,783,778,0
237885,707.40,783,782,0
237895,672.31,783,778,0
237905,629.32,783,782,0
237915,579.29,783,778,0
237925,527.22,783,782,0
237935,477.23,783,778,0
237945,432.97,783,781,0
237955,396.21,783,778,0
237965,368.55,783,781,0
237975,349.91,783,778,0
237985,340.29,783,781,0
237996,338.41,783,778,0
238006,343.26,783,781,0
238016,352.61,783,778,0
238026,365.15,783,781,0
238036,378.78,783,777,0
238046,392.39,783,781,0
238056,404.27,783,778,0
238066,413.96,783,781,0
238076,420.40,783,777,0
238086,423.84,783,782,0
238096,423.97,783,778,0
238106,421.24,783,781,0
238116,415.64,783,777,0
238126,408.29,783,782,0
238136,399.20,783,777,0
238146,389.58,783,781,0
238156,379.42,783,777,0
238167,369.57,783,782,0
238177,360.27,783,778,0
238187,352.22,783,782,0
238197,345.04,783,778,0
238208,339.20,783,782,0
238217,334.25,783,777,0
238227,330.58,783,781,0
238237,327.79,783,777,0
238247,326.01,783,782,0
238257,324.68,783,778,0
238267,324.13,783,782,0
238277,324.05,783,778,0
238287,324.55,783,782,0
238297,325.33,783,778,0
238307,326.51,783,781,0
238317,327.73,783,778,0
238327,329.44,783,782,0
238337,331.07,783,778,0
238347,333.02,783,781,0
238357,334.90,783,778,0
238367,336.81,783,782,0
238377,338.50,783,778,0
238387,340.41,783,781,0
238397,342.26,783,778,0
238407,344.96,783,782,0
238417,349.09,783,778,0
238427,356.26,783,781,0
238437,368.18,783,777,0
238447,387.46,783,782,0
238457,415.95,783,778,0
238467,453.51,783,781,0
238477,496.68,783,778,0
238496,542.55,795,776,0
238499,588.41,795,781,0
238508,631.53,795,782,0
238518,668.79,795,778,0
238528,697.61,795,782,0
238538,717.78,795,779,0
238548,731.90,795,781,0
238558,741.83,795,778,0
238568,748.78,795,781,0
238578,753.65,795,779,0
238588,757.05,795,782,0
238598,759.44,795,778,0
238608,761.06,795,781,0
238618,762.20,795,779,0
238628,763.00,795,782,0
238638,763.56,795,778,0
238648,761.55,795,781,0
238658,753.67,795,779,0
238668,738.04,795,781,0
238679,713.56,795,779,0
238689,679.96,795,781,0
238699,637.72,795,780,0
238709,587.61,795,781,0
238720,533.39,795,780,0
238729,479.91,795,781,0
238739,430.61,795,779,0
238749,388.09,795,781,0
238759,354.03,795,780,0
238769,329.16,795,781,0
238779,313.86,795,779,0
238789,307.47,795,781,0
238799,308.92,795,780,0
238809,316.74,795,781,0
238819,329.42,795,779,0
238829,345.11,795,781,0
238839,362.05,795,780,0
238849,378.45,795,781,0
238859,393.01,795,779,0
238869,404.71,795,781,0
238879,413.02,795,780,0
238889,417.52,795,781,0
238899,418.35,795,779,0
238909,415.84,795,781,0
238919,410.40,795,780,0
238929,402.65,795,781,0
238939,393.20,795,779,0
238949,382.51,795,781,0
238959,371.30,795,780,0
238969,360.07,795,781,0
238979,349.38,795,779,0
238989,339.62,795,781,0
238999,331.08,795,780,0
239009,323.85,795,781,0
239020,318.03,795,780,0
239030,313.48,795,781,0
239040,309.99,795,781,0
239050,307.46,795,781,0
239060,305.87,795,781,0
239070,304.88,795,781,0
239080,304.62,795,780,0
239090,304.86,795,781,0
239100,305.72,795,781,0
239110,307.00,795,781,0
239120,308.59,795,780,0
239130,310.21,795,781,0
239140,311.90,795,781,0
239150,313.43,795,781,0
239160,314.89,795,780,0
239170,316.04,795,781,0
239180,317.10,795,781,0
239191,317.84,795,781,0
239201,318.49,795,781,0
239211,319.03,795,781,0
239221,319.66,795,782,0
239232,320.88,795,781,0
239241,323.49,795,781,0
239251,328.53,795,781,0
239261,337.93,795,781,0
239271,353.29,795,781,0
239281,376.56,795,781,0
239291,409.18,795,781,0
239301,450.31,795,781,0
239321,496.46,824,780,0
239324,544.54,824,782,0
239333,591.39,824,779,0
239343,634.39,824,781,0
239353,670.96,824,779,0
239363,699.04,824,782,0
239373,718.70,824,779,0
239383,732.46,824,782,0
239393,742.05,824,779,0
239404,748.81,824,782,0
239414,753.58,824,778,0
239424,756.96,824,782,0
239434,759.29,824,778,0
239444,760.92,824,782,0
239454,759.18,824,778,0
239464,751.93,824,781,0
239474,736.99,824,778,0
239484,713.55,824,781,0
239494,681.37,824,778,0
239504,640.89,824,781,0
239514,592.54,824,778,0
239524,540.26,824,781,0
239534,487.34,824,778,0
239544,437.31,824,781,0
239554,392.09,824,778,0
239564,353.53,824,781,0
239575,322.26,824,778,0
239585,299.08,824,781,0
239595,283.76,824,778,0
239605,276.16,824,781,0
239616,275.25,824,777,0
239625,280.49,824,781,0
239635,290.07,824,778,0
239645,303.29,824,782,0
239655,318.16,824,777,0
239665,333.71,824,781,0
239675,348.46,824,778,0
239685,361.86,824,781,0
239695,372.79,824,777,0
239705,381.21,824,781,0
239715,386.25,824,778,0
239725,388.49,824,781,0
239735,387.53,824,777,0
239745,384.15,824,781,0
239755,378.28,824,778,0
239765,370.91,824,781,0
239775,362.37,824,777,0
239785,353.47,824,781,0
239795,344.37,824,778,0
239805,335.82,824,781,0
239815,327.64,824,777,0
239825,320.42,824,781,0
239835,313.78,824,778,0
239845,308.19,824,781,0
239855,303.38,824,778,0
239865,299.66,824,781,0
239875,296.72,824,778,0
239885,294.96,824,782,0
239895,293.94,824,777,0
239905,293.96,824,781,0
239916,294.27,824,777,0
239926,295.35,824,781,0
239936,296.57,824,777,0
239946,298.37,824,781,0
239956,300.19,824,777,0
239966,302.23,824,782,0
239976,304.13,824,777,0
239986,306.32,824,781,0
239996,308.28,824,777,0
240006,310.26,824,781,0
240016,311.76,824,777,0
240026,313.38,824,781,0
240036,315.28,824,778,0
240046,318.32,824,781,0
240056,322.98,824,777,0
240066,330.92,824,782,0
240076,343.63,824,778,0
240087,363.37,824,782,0
240097,391.37,824,778,0
240107,428.89,824,782,0
240117,472.85,824,779,0
240137,520.25,816,778,0
240140,567.96,816,781,0
240149,613.27,816,781,0
240159,653.39,816,781,0
240169,686.19,816,781,0
240179,709.83,816,780,0
240189,726.34,816,781,0
240199,737.89,816,781,0
240209,745.94,816,782,0
240219,751.62,816,780,0
240229,755.59,816,781,0
240239,757.55,816,781,0
240249,754.90,816,781,0
240259,746.27,816,780,0
240269,730.34,816,781,0
240279,706.41,816,780,0
240289,674.18,816,781,0
240300,634.06,816,781,0
240310,587.37,816,781,0
240320,537.93,816,781,0
240330,488.41,816,781,0
240340,441.57,816,781,0
240350,399.14,816,781,0
240360,362.67,816,781,0
240370,332.56,816,781,0
240380,309.63,816,781,0
240390,293.67,816,781,0
240400,284.56,816,781,0
240410,281.43,816,781,0
240420,283.70,816,781,0
240430,290.31,816,781,0
240440,300.50,816,781,0
240450,312.65,816,781,0
240460,325.95,816,781,0
240471,339.04,816,781,0
240481,351.16,816,781,0
240491,361.40,816,781,0
240501,369.33,816,782,0
240512,374.42,816,780,0
240521,376.78,816,781,0
240531,376.25,816,781,0
240541,373.39,816,781,0
240551,368.08,816,780,0
240561,361.33,816,781,0
240571,353.17,816,781,0
240581,344.59,816,782,0
240591,335.59,816,780,0
240601,327.01,816,781,0
240611,318.82,816,781,0
240621,311.68,816,781,0
240631,305.26,816,780,0
240641,300.08,816,781,0
240651,295.81,816,781,0
240661,292.87,816,781,0
240671,290.64,816,780,0
240681,289.42,816,781,0
240691,289.04,816,781,0
240701,289.54,816,781,0
240711,290.53,816,780,0
240721,292.09,816,781,0
240731,293.90,816,781,0
240741,296.25,816,782,0
240751,298.57,816,780,0
240761,301.06,816,781,0
240771,303.31,816,781,0
240781,305.75,816,781,0
240791,307.92,816,780,0
240801,310.05,816,781,0
240812,311.79,816,780,0
240822,313.52,816,781,0
240832,314.78,816,779,0
240842,316.13,816,781,0
240852,317.21,816,779,0
240862,319.16,816,782,0
240872,322.33,816,779,0
240882,328.36,816,781,0
240892,338.49,816,779,0
240902,354.54,816,781,0
240912,378.00,816,780,0
240922,410.57,816,782,0
240942,451.37,805,781,0
240945,497.16,805,782,0
240954,544.55,805,778,0
240964,590.80,805,782,0
240974,633.38,805,778,0
240984,669.82,805,782,0
240994,698.07,805,778,0
241004,717.85,805,781,0
241014,731.70,805,778,0
241025,741.39,805,782,0
241035,748.17,805,777,0
241045,752.92,805,781,0
241055,756.24,805,777,0
241065,757.71,805,781,0
241075,755.10,805,777,0
241085,746.76,805,781,0
241095,731.27,805,777,0
241105,708.09,805,781,0
241115,677.25,805,777,0
241125,639.25,805,781,0
241135,595.16,805,777,0
241145,548.52,805,781,0
241155,501.74,805,777,0
241165,457.55,805,781,0
241175,417.61,805,777,0
241185,383.14,805,781,0
241196,354.60,805,777,0
241206,332.82,805,781,0
241216,317.49,805,777,0
241226,308.98,805,781,0
241236,306.46,805,778,0
241246,309.11,805,781,0
241256,315.72,805,777,0
241266,325.36,805,781,0
241276,336.61,805,778,0
241286,348.47,805,781,0
241296,359.60,805,777,0
241306,369.32,805,782,0
241316,376.98,805,778,0
241326,382.30,805,781,0
241336,384.70,805,777,0
241346,384.74,805,781,0
241356,382.29,805,778,0
241367,377.88,805,781,0
241377,371.74,805,778,0
241387,364.32,805,781,0
241397,355.91,805,779,0
241408,347.28,805,781,0
241417,338.41,805,778,0
241427,330.19,805,782,0
241437,322.55,805,779,0
241447,315.87,805,781,0
241457,310.38,805,778,0
241467,306.32,805,781,0
241477,303.65,805,779,0
241487,302.26,805,781,0
241497,301.71,805,778,0
241507,302.05,805,782,0
241517,303.02,805,779,0
241527,304.56,805,781,0
241537,306.23,805,778,0
241547,307.96,805,781,0
241557,309.65,805,778,0
241567,311.34,805,781,0
241577,312.95,805,779,0
241587,314.55,805,781,0
241597,315.89,805,778,0
241607,317.29,805,781,0
241617,318.62,805,779,0
241627,320.02,805,782,0
241637,321.21,805,779,0
241647,322.22,805,781,0
241657,323.05,805,779,0
241667,323.98,805,782,0
241677,325.44,805,779,0
241687,328.40,805,781,0
241697,333.93,805,779,0
241708,343.64,805,781,0
241718,359.13,805,779,0
241728,382.24,805,782,0
241738,414.09,805,780,0
241758,454.35,816,780,0
241761,499.46,816,781,0
241770,546.25,816,781,0
241780,592.03,816,781,0
241790,634.24,816,781,0
241800,670.34,816,782,0
241810,698.52,816,781,0
241820,718.25,816,782,0
241830,732.02,816,781,0
241840,741.70,816,781,0
241850,748.47,816,781,0
241860,753.26,816,781,0
241870,756.57,816,781,0
241880,757.68,816,781,0
241890,754.22,816,781,0
241900,744.68,816,781,0
241910,727.85,816,781,0
241921,703.29,816,781,0
241931,670.89,816,780,0
241941,631.24,816,781,0
241951,585.82,816,780,0
241961,538.31,816,781,0
241971,491.24,816,780,0
241981,447.07,816,781,0
241991,407.19,816,780,0
242001,372.98,816,781,0
242011,344.74,816,780,0
242021,323.22,816,781,0
242031,308.11,816,780,0
242041,299.46,816,782,0
242051,296.24,816,780,0
242061,298.22,816,781,0
242071,304.07,816,780,0
242081,313.09,816,782,0
242092,323.95,816,779,0
242102,335.84,816,781,0
242112,347.33,816,779,0
242122,358.16,816,782,0
242132,367.03,816,778,0
242142,373.92,816,781,0
242152,378.14,816,779,0
242162,380.11,816,782,0
242172,379.48,816,778,0
242182,376.94,816,781,0
242192,372.37,816,779,0
242202,366.56,816,781,0
242212,359.53,816,778,0
242222,352.22,816,782,0
242232,344.35,816,779,0
242242,336.83,816,781,0
242252,329.30,816,779,0
242263,322.65,816,781,0
242273,316.54,816,778,0
242283,311.58,816,782,0
242293,307.33,816,780,0
242304,304.23,816,781,0
242313,301.85,816,781,0
242323,300.57,816,781,0
242333,299.75,816,781,0
242343,299.96,816,781,0
242353,300.44,816,781,0
242363,301.47,816,781,0
242373,302.74,816,780,0
242383,304.45,816,781,0
242393,306.33,816,780,0
242403,308.50,816,782,0
242413,310.49,816,780,0
242423,312.70,816,782,0
242433,314.63,816,780,0
242443,316.59,816,782,0
242453,318.04,816,780,0
242463,319.48,816,782,0
242473,320.80,816,779,0
242483,322.74,816,782,0
242493,325.78,816,779,0
242503,331.33,816,781,0
242513,340.27,816,778,0
242523,354.42,816,782,0
242533,374.74,816,779,0
242543,402.89,816,781,0
242553,438.88,816,778,0
242572,481.21,815,778,0
242575,526.49,815,778,0
242584,571.90,815,782,0
242594,614.87,815,777,0
242604,653.23,815,782,0
242614,684.79,815,778,0
242624,708.64,815,782,0
242634,725.33,815,778,0
242644,736.97,815,782,0
242654,745.13,815,778,0
242664,750.83,815,782,0
242674,754.82,815,777,0
242684,755.05,815,782,0
242694,749.93,815,778,0
242704,738.60,815,782,0
242714,720.29,815,777,0
242724,694.79,815,781,0
242734,662.11,815,777,0
242744,622.90,815,781,0
242754,580.12,815,777,0
242764,536.50,815,782,0
242775,493.75,815,777,0
242785,453.92,815,781,0
242795,418.20,815,777,0
242805,387.63,815,782,0
242816,362.37,815,778,0
242825,342.97,815,781,0
242835,329.14,815,777,0
242845,321.21,815,782,0
242855,318.28,815,778,0
242865,319.91,815,782,0
242875,325.08,815,777,0
242885,333.11,815,782,0
242895,342.94,815,778,0
242905,353.84,815,782,0
242915,364.47,815,777,0
242925,374.40,815,782,0
242935,382.60,815,778,0
242945,389.02,815,781,0
242955,392.96,815,777,0
242965,394.60,815,781,0
242975,393.86,815,778,0
242985,391.07,815,781,0
242995,386.42,815,777,0
243005,380.51,815,781,0
243015,373.41,815,777,0
243025,366.05,815,782,0
243035,358.28,815,777,0
243045,350.74,815,781,0
243055,343.57,815,778,0
243065,337.14,815,782,0
243075,331.49,815,777,0
243085,326.84,815,781,0
243095,322.95,815,778,0
243105,320.00,815,781,0
243116,317.65,815,778,0
243126,316.17,815,781,0
243136,315.22,815,778,0
243146,315.11,815,781,0
243156,315.63,815,779,0
243166,316.86,815,781,0
243176,318.74,815,778,0
243186,321.18,815,781,0
243196,323.87,815,779,0
243206,326.82,815,781,0
243216,329.62,815,778,0
243226,332.30,815,781,0
243236,334.66,815,779,0
243246,336.82,815,781,0
243256,338.89,815,778,0
243266,341.19,815,781,0
243276,344.52,815,779,0
243287,349.85,815,781,0
243297,358.12,815,779,0
243307,370.69,815,781,0
243317,388.78,815,780,0
243328,413.62,815,781,0
243337,445.40,815,779,0
243347,483.73,815,781,0
243366,525.68,794,781,0
243369,568.55,794,781,0
243378,609.87,794,781,0
243388,647.32,794,782,0
243398,679.11,794,781,0
243408,704.32,794,781,0
243418,722.31,794,780,0
243428,734.90,794,781,0
243438,742.22,794,781,0
243448,743.52,794,781,0
243458,738.61,794,780,0
243468,726.98,794,781,0
243478,708.69,794,780,0
243488,683.67,794,781,0
243499,652.31,794,781,0
243508,616.69,794,781,0
243518,579.07,794,781,0
243528,540.99,794,781,0
243538,504.14,794,781,0
243548,469.30,794,781,0
243558,437.62,794,780,0
243568,409.62,794,781,0
243578,385.69,794,781,0
243588,366.07,794,781,0
243598,350.96,794,780,0
243608,340.30,794,781,0
243618,334.08,794,781,0
243628,331.79,794,781,0
243638,332.97,794,780,0
243648,336.75,794,781,0
243658,342.61,794,781,0
243668,349.67,794,781,0
243678,357.53,794,780,0
243688,365.38,794,781,0
243698,372.77,794,781,0
243708,379.05,794,781,0
243718,384.05,794,780,0
243728,387.34,794,781,0
243738,388.91,794,781,0
243748,388.16,794,781,0
243758,385.54,794,780,0
243768,381.18,794,781,0
243778,375.55,794,781,0
243788,368.92,794,781,0
243799,361.70,794,781,0
243809,354.07,794,781,0
243819,346.81,794,781,0
243829,339.97,794,781,0
243840,333.81,794,781,0
243849,328.25,794,781,0
243859,323.67,794,781,0
243869,319.96,794,781,0
243879,317.53,794,782,0
243889,315.87,794,781,0
243899,315.01,794,781,0
243909,314.58,794,781,0
243919,314.75,794,781,0
243929,314.87,794,781,0
243939,315.25,794,781,0
243949,315.43,794,781,0
243959,315.90,794,782,0
243969,316.40,794,781,0
243979,317.22,794,781,0
243989,317.97,794,781,0
243999,318.84,794,781,0
244009,319.57,794,780,0
244019,320.56,794,781,0
244029,321.76,794,781,0
244039,323.85,794,781,0
244049,327.06,794,781,0
244059,332.70,794,781,0
244069,341.66,794,781,0
244079,355.39,794,781,0
244089,374.56,794,781,0
244099,399.64,794,781,0
244109,430.56,794,781,0
244119,467.12,794,782,0
244139,507.58,772,780,0
244142,549.84,772,781,0
244151,590.94,772,779,0
244161,628.89,772,782,0
244171,662.18,772,779,0
244182,688.78,772,781,0
244191,707.06,772,779,0
244201,716.60,772,782,0
244211,717.45,772,779,0
244221,710.76,772,782,0
244231,697.03,772,779,0
244241,677.05,772,781,0
244251,652.18,772,779,0
244261,624.31,772,781,0
244271,594.77,772,780,0
244281,565.27,772,782,0
244291,536.35,772,779,0
244301,509.03,772,782,0
244311,483.65,772,780,0
244321,460.87,772,782,0
244331,440.34,772,779,0
244341,422.45,772,781,0
244352,406.80,772,778,0
244361,394.00,772,782,0
244371,383.85,772,779,0
244381,376.56,772,781,0
244391,371.77,772,778,0
244401,369.78,772,782,0
244411,369.85,772,779,0
244421,372.08,772,782,0
244431,375.35,772,778,0
244441,379.62,772,782,0
244451,383.85,772,779,0
244461,388.05,772,782,0
244471,391.42,772,778,0
244481,394.08,772,781,0
244491,395.26,772,779,0
244501,395.35,772,781,0
244511,393.87,772,778,0
244521,391.38,772,782,0
244531,387.54,772,779,0
244541,382.92,772,781,0
244551,377.24,772,778,0
244561,371.47,772,781,0
244571,365.29,772,779,0
244581,359.29,772,781,0
244591,353.16,772,778,0
244601,347.41,772,782,0
244611,341.97,772,779,0
244621,337.40,772,782,0
244631,333.08,772,778,0
244641,329.71,772,781,0
244652,326.84,772,778,0
244662,325.09,772,781,0
244672,323.99,772,777,0
244682,323.74,772,781,0
244692,323.94,772,778,0
244702,324.99,772,782,0
244712,326.28,772,778,0
244722,328.21,772,782,0
244732,330.07,772,778,0
244742,332.28,772,781,0
244752,334.04,772,778,0
244762,335.96,772,781,0
244772,337.73,772,778,0
244782,339.87,772,781,0
244792,342.18,772,778,0
244802,345.60,772,781,0
244812,350.60,772,778,0
244823,358.78,772,782,0
244833,370.33,772,777,0
244843,386.82,772,782,0
244853,408.47,772,778,0
244864,435.97,772,781,0
244873,468.38,772,778,0
244892,504.78,754,777,0
244895,543.38,754,779,0
244904,582.43,754,781,0
244914,619.03,754,777,0
244924,651.51,754,782,0
244934,677.63,754,778,0
244944,696.72,754,782,0
244954,707.74,754,777,0
244964,710.86,754,782,0
244974,706.14,754,777,0
244984,694.87,754,781,0
244994,678.11,754,777,0
245004,657.46,754,782,0
245014,633.75,754,777,0
245024,608.67,754,782,0
245035,582.63,754,778,0
245044,557.28,754,782,0
245054,532.85,754,777,0
245064,509.58,754,781,0
245074,487.64,754,777,0
245084,467.65,754,782,0
245094,449.49,754,777,0
245104,433.83,754,782,0
245114,420.30,754,778,0
245124,409.19,754,782,0
245134,400.61,754,777,0
245144,394.68,754,781,0
245154,390.92,754,777,0
245164,389.36,754,781,0
245174,389.47,754,777,0
245184,391.13,754,781,0
245194,393.83,754,777,0
245204,397.35,754,782,0
245214,400.98,754,777,0
245224,404.71,754,782,0
245234,407.71,754,777,0
245244,409.94,754,782,0
245254,410.86,754,777,0
245264,410.52,754,782,0
245274,408.60,754,778,0
245284,405.38,754,782,0
245294,400.77,754,778,0
245304,395.48,754,782,0
245314,389.38,754,778,0
245324,383.01,754,781,0
245335,376.53,754,778,0
245345,370.16,754,781,0
245355,364.07,754,778,0
245365,358.39,754,781,0
245376,353.09,754,779,0
245385,348.39,754,782,0
245395,344.16,754,778,0
245405,340.51,754,781,0
245415,337.27,754,779,0
245425,334.58,754,781,0
245435,332.43,754,778,0
245445,330.80,754,781,0
245455,329.79,754,779,0
245465,329.34,754,781,0
245475,329.24,754,778,0
245485,329.68,754,781,0
245495,330.33,754,779,0
245505,331.30,754,781,0
245515,332.33,754,778,0
245525,333.30,754,781,0
245535,334.20,754,779,0
245545,335.51,754,781,0
245555,337.80,754,778,0
245565,341.89,754,781,0
245575,348.52,754,779,0
245585,358.87,754,781,0
245595,373.56,754,778,0
245605,393.71,754,781,0
245615,419.25,754,779,0
245625,449.78,754,781,0
245635,483.87,754,778,0
245645,520.21,754,782,0
245664,556.70,772,781,0
245667,591.21,772,781,0
245676,621.83,772,779,0
245686,646.78,772,782,0
245696,664.72,772,780,0
245706,675.35,772,781,0
245716,678.24,772,780,0
245726,674.01,772,781,0
245736,663.68,772,780,0
245746,647.96,772,781,0
245756,628.30,772,780,0
245766,606.14,772,781,0
245776,582.65,772,780,0
245786,558.84,772,782,0
245796,535.32,772,780,0
245806,512.81,772,781,0
245816,491.44,772,780,0
245826,471.55,772,781,0
245836,453.08,772,780,0
245847,436.22,772,781,0
245857,421.19,772,781,0
245867,408.06,772,781,0
245877,396.95,772,781,0
245888,388.13,772,781,0
245897,381.58,772,781,0
245907,377.51,772,781,0
245917,375.64,772,781,0
245927,375.66,772,781,0
245937,377.35,772,781,0
245947,380.07,772,782,0
245957,383.65,772,781,0
245967,387.31,772,782,0
245977,390.69,772,780,0
245987,393.31,772,782,0
245997,394.93,772,781,0
246007,395.38,772,781,0
246017,394.71,772,780,0
246027,392.70,772,781,0
246037,389.74,772,781,0
246047,385.62,772,781,0
246057,380.85,772,781,0
246067,375.45,772,781,0
246077,369.74,772,780,0
246087,363.82,772,781,0
246097,358.00,772,781,0
246107,352.47,772,781,0
246117,347.40,772,781,0
246127,342.70,772,781,0
246137,338.72,772,781,0
246147,335.24,772,781,0
246157,332.56,772,781,0
246167,330.16,772,781,0
246177,328.14,772,781,0
246188,326.43,772,782,0
246198,325.10,772,781,0
246208,323.87,772,781,0
246218,323.01,772,781,0
246228,322.11,772,781,0
246238,321.65,772,781,0
246248,321.02,772,781,0
246258,320.63,772,781,0
246268,320.18,772,781,0
246278,320.17,772,781,0
246288,320.46,772,781,0
246298,321.70,772,781,0
246308,324.10,772,781,0
246318,328.61,772,781,0
246328,335.63,772,781,0
246338,346.33,772,781,0
246348,360.71,772,781,0
246359,379.61,772,782,0
246369,402.44,772,780,0
246379,428.88,772,781,0
246389,457.76,772,780,0
246400,487.75,772,782,0
246418,516.88,754,780,0
246421,543.53,754,782,0
246430,566.04,754,779,0
246440,583.60,754,782,0
246450,594.95,754,779,0
246460,600.36,754,781,0
246470,599.66,754,779,0
246480,593.67,754,781,0
246490,583.23,754,779,0
246500,569.27,754,781,0
246510,552.61,754,779,0
246520,534.60,754,781,0
246530,515.60,754,779,0
246540,496.82,754,781,0
246550,478.15,754,779,0
246560,460.49,754,782,0
246571,443.63,754,778,0
246580,428.23,754,781,0
246590,414.06,754,779,0
246600,401.70,754,782,0
246610,390.86,754,778,0
246620,382.20,754,781,0
246630,375.24,754,779,0
246640,370.41,754,781,0
246650,367.20,754,778,0
246660,366.16,754,781,0
246670,366.41,754,779,0
246680,368.09,754,781,0
246690,370.46,754,779,0
246700,373.62,754,782,0
246710,376.95,754,779,0
246720,380.44,754,782,0
246730,383.05,754,779,0
246740,385.18,754,782,0
246750,386.20,754,779,0
246760,386.52,754,781,0
246770,385.59,754,778,0
246780,383.79,754,781,0
246790,381.11,754,779,0
246800,378.08,754,782,0
246810,374.32,754,778,0
246820,370.46,754,782,0
246830,366.08,754,779,0
246840,361.77,754,782,0
246850,357.12,754,779,0
246860,352.76,754,782,0
246871,348.37,754,778,0
246881,344.45,754,782,0
246891,340.71,754,778,0
246901,337.58,754,781,0
246912,334.75,754,777,0
246921,332.90,754,782,0
246931,331.17,754,778,0
246941,330.13,754,782,0
246951,329.28,754,777,0
246961,329.11,754,781,0
246971,329.29,754,778,0
246981,330.23,754,781,0
246991,331.28,754,777,0
247001,332.87,754,781,0
247011,334.41,754,778,0
247021,336.51,754,781,0
247031,338.54,754,778,0
247041,341.08,754,782,0
247051,344.14,754,778,0
247061,348.99,754,781,0
247071,355.80,754,778,0
247081,365.68,754,781,0
247091,378.55,754,778,0
247101,395.27,754,781,0
247111,415.42,754,778,0
247121,438.78,754,782,0
247131,463.79,754,778,0
247150,489.78,732,777,0
247153,514.79,732,777,0
247162,538.29,732,782,0
247172,558.22,732,778,0
247182,573.93,732,781,0
247192,584.49,732,777,0
247202,590.13,732,782,0
247212,590.48,732,778,0
247222,586.48,732,781,0
247232,577.93,732,778,0
247242,566.51,732,782,0
247252,552.60,732,777,0
247262,537.42,732,781,0
247272,521.22,732,777,0
247282,504.96,732,782,0
247292,488.73,732,777,0
247302,473.29,732,782,0
247312,458.21,732,777,0
247322,444.13,732,782,0
247332,430.68,732,778,0
247342,418.47,732,782,0
247352,407.27,732,778,0
247362,397.59,732,782,0
247372,389.27,732,777,0
247383,382.93,732,782,0
247393,378.24,732,777,0
247403,375.55,732,782,0
247413,374.32,732,778,0
247424,374.65,732,782,0
247433,375.95,732,777,0
247443,378.20,732,782,0
247453,380.62,732,778,0
247463,383.22,732,782,0
247473,385.43,732,778,0
247483,387.27,732,782,0
247493,388.35,732,778,0
247503,388.93,732,781,0
247513,388.44,732,777,0
247523,387.32,732,782,0
247533,385.34,732,778,0
247543,382.92,732,781,0
247553,379.90,732,777,0
247563,376.50,732,782,0
247573,372.62,732,778,0
247583,368.79,732,782,0
247593,364.83,732,778,0
247603,361.06,732,781,0
247613,357.27,732,778,0
247623,353.93,732,781,0
247633,350.95,732,778,0
247643,348.44,732,781,0
247653,346.12,732,777,0
247663,344.37,732,782,0
247673,343.02,732,778,0
247683,342.15,732,781,0
247693,341.51,732,778,0
247703,341.31,732,782,0
247713,341.18,732,778,0
247724,341.51,732,781,0
247734,341.83,732,778,0
247744,342.22,732,781,0
247754,342.50,732,779,0
247764,342.61,732,781,0
247774,342.51,732,778,0
247784,342.49,732,781,0
247794,342.30,732,779,0
247804,342.72,732,781,0
247814,344.05,732,778,0
247824,347.16,732,781,0
247834,352.77,732,778,0
247844,361.58,732,781,0
247854,374.09,732,778,0
247864,390.91,732,782,0
247874,411.81,732,778,0
247884,436.38,732,781,0
247904,463.44,754,781,0
247907,491.72,754,782,0
247916,519.83,754,781,0
247926,546.24,754,781,0
247937,569.53,754,781,0
247947,588.27,754,781,0
247957,601.94,754,781,0
247967,610.02,754,781,0
247977,612.84,754,782,0
247987,610.45,754,781,0
247997,603.80,754,781,0
248007,593.49,754,781,0
248017,580.96,754,782,0
248027,566.74,754,781,0
248037,551.82,754,781,0
248047,536.14,754,781,0
248057,520.72,754,782,0
248067,505.63,754,781,0
248077,491.30,754,781,0
248087,477.32,754,781,0
248097,463.98,754,782,0
248108,451.43,754,781,0
248118,440.33,754,782,0
248128,430.29,754,780,0
248138,421.67,754,782,0
248148,414.40,754,780,0
248158,409.14,754,782,0
248168,405.50,754,780,0
248178,403.68,754,782,0
248188,403.13,754,780,0
248198,403.99,754,781,0
248208,405.62,754,780,0
248218,407.96,754,782,0
248228,410.03,754,780,0
248238,412.17,754,781,0
248248,413.66,754,780,0
248258,414.70,754,782,0
248268,414.75,754,780,0
248279,414.14,754,781,0
248289,412.60,754,779,0
248299,410.62,754,782,0
248309,407.82,754,779,0
248320,404.62,754,781,0
248329,400.70,754,779,0
248339,396.76,754,782,0
248349,392.55,754,779,0
248359,388.53,754,781,0
248369,384.25,754,779,0
248379,380.19,754,781,0
248389,376.11,754,779,0
248399,372.52,754,781,0
248409,369.06,754,779,0
248419,366.00,754,782,0
248429,362.96,754,779,0
248439,360.53,754,782,0
248449,358.05,754,779,0
248459,356.15,754,781,0
248469,354.31,754,779,0
248479,352.76,754,782,0
248489,351.29,754,778,0
248499,350.17,754,781,0
248509,349.05,754,779,0
248519,348.39,754,782,0
248529,347.42,754,778,0
248539,346.69,754,781,0
248549,345.80,754,779,0
248559,345.39,754,781,0
248569,345.14,754,779,0
248579,345.61,754,781,0
248589,346.97,754,779,0
248599,350.41,754,782,0
248609,356.16,754,779,0
248620,365.45,754,781,0
248630,378.22,754,778,0
248640,395.81,754,782,0
248650,417.81,754,778,0
248660,444.31,754,781,0
248670,473.83,754,778,0
248689,505.55,785,777,0
248692,537.62,785,778,0
248701,569.10,785,781,0
248711,597.40,785,778,0
248721,621.75,785,782,0
248731,640.55,785,778,0
248741,653.89,785,781,0
248751,661.16,785,778,0
248761,662.96,785,782,0
248771,659.41,785,778,0
248781,651.83,785,781,0
248791,640.78,785,778,0
248801,627.56,785,782,0
248811,612.48,785,777,0
248821,596.65,785,781,0
248832,580.04,785,778,0
248841,563.44,785,782,0
248851,546.64,785,777,0
248861,530.20,785,781,0
248871,514.07,785,778,0
248881,498.79,785,781,0
248891,484.24,785,777,0
248901,471.27,785,781,0
248911,459.45,785,778,0
248921,449.71,785,782,0
248931,441.57,785,778,0
248941,435.48,785,782,0
248951,431.18,785,778,0
248961,428.77,785,781,0
248971,427.60,785,778,0
248981,427.80,785,781,0
248991,428.51,785,778,0
249001,429.90,785,782,0
249011,431.04,785,778,0
249021,431.93,785,781,0
249031,431.99,785,778,0
249041,431.57,785,782,0
249051,430.07,785,778,0
249061,427.82,785,782,0
249071,424.40,785,778,0
249081,420.38,785,782,0
249091,415.64,785,778,0
249101,410.65,785,782,0
249111,405.05,785,777,0
249121,399.64,785,782,0
249132,394.13,785,778,0
249142,389.12,785,782,0
249152,384.37,785,777,0
249162,380.14,785,781,0
249172,376.29,785,778,0
249182,373.03,785,782,0
249192,369.85,785,777,0
249202,367.24,785,781,0
249212,364.72,785,777,0
249222,362.66,785,781,0
249232,360.75,785,777,0
249242,359.11,785,781,0
249252,357.58,785,777,0
249262,356.46,785,782,0
249272,355.55,785,777,0
249282,355.13,785,782,0
249292,354.79,785,777,0
249303,354.81,785,782,0
249313,354.87,785,777,0
249323,355.16,785,782,0
249333,355.29,785,778,0
249344,355.33,785,781,0
249353,355.10,785,778,0
249363,355.03,785,781,0
249373,355.36,785,778,0
249383,356.75,785,781,0
249393,359.48,785,778,0
249403,364.83,785,782,0
249413,373.32,785,778,0
249423,386.12,785,781,0
249433,403.53,785,778,0
249443,425.83,785,782,0
249453,452.75,785,778,0
249473,483.98,783,777,0
249476,517.85,783,780,0
249485,552.91,783,782,0
249495,587.05,783,780,0
249505,618.62,783,782,0
249516,645.86,783,781,0
249526,667.46,783,781,0
249536,682.41,783,781,0
249546,690.30,783,781,0
249556,691.58,783,781,0
249566,686.78,783,782,0
249576,676.86,783,781,0
249586,662.72,783,781,0
249596,645.49,783,781,0
249606,626.27,783,782,0
249616,606.22,783,781,0
249626,585.45,783,781,0
249636,564.70,783,781,0
249646,544.39,783,781,0
249656,524.99,783,781,0
249666,506.52,783,781,0
249676,489.18,783,781,0
249687,472.97,783,781,0
249697,458.62,783,781,0
249707,446.13,783,780,0
249717,435.68,783,781,0
249728,426.99,783,780,0
249737,420.61,783,782,0
249747,415.93,783,780,0
249757,413.29,783,781,0
249767,411.92,783,780,0
249777,411.86,783,781,0
249787,412.46,783,781,0
249797,413.69,783,781,0
249807,414.73,783,780,0
249817,415.88,783,781,0
249827,416.34,783,781,0
249837,416.54,783,781,0
249847,415.74,783,780,0
249857,414.36,783,782,0
249867,412.19,783,781,0
249877,409.56,783,781,0
249887,406.14,783,780,0
249897,402.37,783,781,0
249907,398.01,783,781,0
249917,393.64,783,781,0
249927,388.82,783,780,0
249937,384.03,783,781,0
249947,379.09,783,781,0
249957,374.56,783,781,0
249967,370.07,783,780,0
249977,365.98,783,782,0
249987,362.21,783,781,0
249997,359.11,783,781,0
250007,356.29,783,780,0
250017,354.14,783,781,0
250028,352.13,783,780,0
250038,350.89,783,781,0
250048,349.81,783,779,0
250058,349.01,783,781,0
250068,348.19,783,779,0
250078,347.71,783,781,0
250088,347.19,783,779,0
250098,347.01,783,781,0
250108,346.53,783,779,0
250118,346.42,783,781,0
250128,346.29,783,779,0
250138,346.80,783,782,0
250148,347.63,783,779,0
250158,349.50,783,781,0
250168,352.52,783,779,0
250178,357.85,783,781,0
250188,365.95,783,779,0
250199,378.10,783,781,0
250209,394.27,783,778,0
250219,415.23,783,781,0
250229,440.19,783,778,0
250240,469.10,783,782,0
250258,500.02,786,780,0
250261,531.38,786,782,0
250270,561.48,786,778,0
250280,588.81,786,781,0
250290,611.49,786,777,0
250300,628.87,786,782,0
250310,639.63,786,778,0
250320,644.24,786,781,0
250330,642.62,786,778,0
250340,635.58,786,782,0
250350,623.71,786,778,0
250360,608.32,786,781,0
250370,590.14,786,778,0
250380,570.47,786,781,0
250390,549.89,786,778,0
250400,529.52,786,781,0
250411,509.35,786,777,0
250420,490.30,786,782,0
250430,472.13,786,778,0
250440,455.42,786,781,0
250450,440.08,786,777,0
250460,426.68,786,782,0
250470,414.86,786,778,0
250480,405.09,786,782,0
250490,397.05,786,777,0
250500,391.33,786,782,0
250510,387.55,786,778,0
250520,385.97,786,781,0
250530,385.85,786,778,0
250540,387.44,786,782,0
250550,389.88,786,778,0
250560,393.13,786,781,0
250570,396.35,786,777,0
250580,399.54,786,782,0
250590,401.91,786,778,0
250600,403.52,786,781,0
250610,403.88,786,777,0
250620,403.44,786,782,0
250630,401.73,786,778,0
250640,399.28,786,782,0
250650,395.77,786,778,0
250660,391.72,786,782,0
250670,387.18,786,778,0
250680,382.62,786,782,0
250690,377.77,786,778,0
250700,373.25,786,782,0
250711,368.68,786,778,0
250721,364.57,786,781,0
250731,360.67,786,778,0
250741,357.17,786,782,0
250752,353.86,786,778,0
250761,351.03,786,781,0
250771,348.37,786,777,0
250781,346.28,786,782,0
250791,344.31,786,778,0
250801,342.85,786,781,0
250811,341.52,786,777,0
250821,340.55,786,782,0
250831,339.66,786,777,0
250841,339.25,786,782,0
250851,338.91,786,777,0
250861,338.90,786,782,0
250871,338.97,786,778,0
250881,339.37,786,782,0
250891,339.81,786,777,0
250901,340.47,786,781,0
250911,340.89,786,777,0
250921,341.56,786,781,0
250931,342.55,786,777,0
250941,344.49,786,782,0
250951,347.85,786,777,0
250961,353.60,786,781,0
250971,362.42,786,777,0
250981,375.36,786,781,0
250991,392.87,786,778,0
251001,415.62,786,782,0
251011,442.74,786,777,0
251030,473.89,772,776,0
251033,507.48,772,779,0
251042,542.35,772,781,0
251052,576.10,772,778,0
251062,606.89,772,781,0
251072,632.85,772,778,0
251082,653.21,772,781,0
251092,666.77,772,778,0
251102,673.70,772,781,0
251112,673.62,772,778,0
251122,667.73,772,781,0
251132,656.71,772,778,0
251142,641.80,772,781,0
251152,623.90,772,778,0
251162,604.30,772,781,0
251172,583.77,772,778,0
251182,563.10,772,781,0
251192,542.62,772,778,0
251202,523.07,772,782,0
251212,504.45,772,778,0
251223,487.17,772,781,0
251233,471.13,772,779,0
251243,456.48,772,781,0
251253,443.48,772,779,0
251264,432.28,772,781,0
251273,422.89,772,779,0
251283,415.55,772,781,0
251293,410.12,772,779,0
251303,406.61,772,781,0
251313,404.80,772,779,0
251323,404.47,772,781,0
251333,405.19,772,779,0
251343,406.72,772,781,0
251353,408.60,772,779,0
251363,410.65,772,781,0
251373,412.43,772,779,0
251383,413.71,772,781,0
251393,414.23,772,779,0
251403,414.25,772,782,0
251413,413.44,772,779,0
251423,411.81,772,781,0
251433,409.25,772,780,0
251443,405.96,772,781,0
251453,402.03,772,779,0
251463,397.69,772,781,0
251473,392.81,772,780,0
251483,387.77,772,781,0
251493,382.61,772,779,0
251503,377.63,772,781,0
251513,372.77,772,780,0
251523,368.17,772,781,0
251533,363.96,772,779,0
251543,360.20,772,781,0
251553,356.88,772,779,0
251564,353.96,772,781,0
251574,351.44,772,780,0
251584,349.38,772,781,0
251594,347.77,772,780,0
251604,346.38,772,781,0
251614,345.32,772,780,0
251624,344.45,772,781,0
251634,343.98,772,780,0
251644,343.60,772,781,0
251654,343.50,772,780,0
251664,343.48,772,781,0
251674,343.59,772,780,0
251684,343.72,772,781,0
251694,343.97,772,780,0
251704,344.45,772,781,0
251714,345.69,772,780,0
251724,347.92,772,781,0
251735,352.15,772,781,0
251745,359.09,772,781,0
251755,369.90,772,781,0
251765,385.40,772,781,0
251776,406.41,772,781,0
251785,432.73,772,781,0
251795,464.27,772,781,0
251814,499.80,784,780,0
251817,538.18,784,782,0
251826,577.08,784,781,0
251836,614.30,784,781,0
251846,647.68,784,780,0
251856,675.93,784,782,0
251866,697.51,784,781,0
251876,711.89,784,781,0
251886,718.43,784,781,0
251896,717.75,784,781,0
251906,710.71,784,781,0
251916,698.32,784,781,0
251926,681.38,784,780,0
251936,661.43,784,781,0
251947,639.14,784,780,0
251956,615.96,784,781,0
251966,592.44,784,781,0
251976,569.34,784,781,0
251986,546.91,784,780,0
251996,525.85,784,781,0
252006,505.92,784,781,0
252016,487.82,784,782,0
252026,471.20,784,780,0
252036,456.74,784,781,0
252046,444.22,784,781,0
252056,434.08,784,782,0
252066,425.91,784,780,0
252076,420.15,784,781,0
252086,416.29,784,781,0
252096,414.58,784,781,0
252106,414.28,784,780,0
252116,415.52,784,781,0
252126,417.51,784,781,0
252136,420.27,784,781,0
252146,423.02,784,780,0
252156,425.80,784,781,0
252166,428.00,784,781,0
252176,429.63,784,781,0
252186,430.08,784,780,0
252196,429.54,784,781,0
252206,427.67,784,781,0
252216,424.90,784,782,0
252226,420.90,784,780,0
252236,416.47,784,781,0
252247,411.19,784,780,0
252257,405.73,784,781,0
252267,400.03,784,779,0
252277,394.62,784,781,0
252288,389.12,784,779,0
252297,384.15,784,781,0
252307,379.05,784,779,0
252317,374.41,784,781,0
252327,369.87,784,778,0
252337,365.97,784,781,0
252347,362.25,784,779,0
252357,359.26,784,781,0
252367,356.57,784,779,0
252377,354.64,784,781,0
252387,353.25,784,779,0
252397,352.66,784,781,0
252407,352.16,784,779,0
252417,352.20,784,781,0
252427,352.22,784,779,0
252437,352.46,784,781,0
252447,352.36,784,779,0
252457,352.34,784,782,0
252467,351.90,784,779,0
252477,351.58,784,781,0
252487,351.11,784,779,0
252497,351.25,784,782,0
252507,351.99,784,779,0
252517,354.43,784,781,0
252527,358.98,784,778,0
252537,367.25,784,781,0
252547,379.56,784,779,0
252557,397.44,784,782,0
252567,420.83,784,779,0
252577,450.33,784,782,0
252588,484.77,784,779,0
252607,523.28,793,777,0
252610,563.06,793,778,0
252619,602.08,793,782,0
252630,637.89,793,777,0
252639,669.29,793,782,0
252649,694.53,793,777,0
252659,712.84,793,782,0
252669,723.01,793,778,0
252679,725.83,793,782,0
252689,721.81,793,777,0
252699,711.71,793,782,0
252709,695.68,793,777,0
252719,675.12,793,782,0
252729,650.78,793,777,0
252739,624.49,793,781,0
252749,596.83,793,778,0
252759,569.41,793,781,0
252769,542.37,793,777,0
252779,516.85,793,782,0
252789,492.81,793,777,0
252800,471.05,793,781,0
252809,451.45,793,778,0
252819,434.69,793,782,0
252829,420.29,793,777,0
252839,409.06,793,781,0
252849,400.47,793,777,0
252859,394.72,793,781,0
252869,391.37,793,777,0
252879,390.58,793,781,0
252889,391.56,793,777,0
252899,394.43,793,782,0
252909,398.20,793,777,0
252919,402.81,793,781,0
252929,407.33,793,778,0
252939,411.73,793,782,0
252949,415.20,793,778,0
252959,417.79,793,782,0
252969,418.80,793,777,0
252979,418.52,793,782,0
252989,416.48,793,777,0
252999,413.25,793,781,0
253009,408.54,793,777,0
253019,403.02,793,782,0
253029,396.46,793,777,0
253039,389.55,793,781,0
253049,382.23,793,777,0
253059,375.26,793,781,0
253069,368.54,793,778,0
253079,362.46,793,781,0
253089,356.67,793,777,0
253100,351.75,793,781,0
253110,347.37,793,777,0
253120,344.09,793,781,0
253130,341.45,793,777,0
253140,339.73,793,782,0
253150,338.52,793,778,0
253160,338.19,793,781,0
253170,338.22,793,777,0
253180,338.80,793,781,0
253190,339.29,793,777,0
253200,340.02,793,781,0
253210,340.48,793,777,0
253220,340.98,793,781,0
253230,341.24,793,778,0
253240,341.73,793,781,0
253250,342.37,793,777,0
253260,343.80,793,781,0
253271,346.30,793,778,0
253281,350.88,793,781,0
253291,358.25,793,778,0
253301,369.49,793,781,0
253312,385.24,793,779,0
253321,406.25,793,781,0
253331,432.45,793,778,0
253341,463.64,793,781,0
253351,498.68,793,779,0
253370,536.02,763,777,0
253373,573.38,763,781,0
253382,609.10,763,781,0
253392,640.78,763,779,0
253402,666.78,763,781,0
253412,685.44,763,779,0
253422,696.15,763,781,0
253432,698.81,763,779,0
253442,694.24,763,781,0
253452,682.89,763,779,0
253462,666.08,763,781,0
253472,645.06,763,779,0
253483,621.21,763,781,0
253492,595.86,763,779,0
253502,570.15,763,781,0
253512,544.60,763,779,0
253522,519.91,763,781,0
253532,496.66,763,779,0
253542,475.16,763,781,0
253552,455.66,763,779,0
253562,438.19,763,781,0
253572,422.79,763,779,0
253582,409.78,763,781,0
253592,399.22,763,779,0
253602,391.31,763,781,0
253612,385.86,763,779,0
253622,382.86,763,781,0
253632,382.04,763,779,0
253642,383.19,763,781,0
253652,385.83,763,780,0
253662,389.40,763,781,0
253672,393.22,763,779,0
253682,396.97,763,781,0
253692,400.24,763,780,0
253702,402.78,763,781,0
253712,404.17,763,779,0
253722,404.25,763,781,0
253732,403.10,763,780,0
253742,400.76,763,781,0
253752,397.36,763,779,0
253762,392.88,763,781,0
253772,387.56,763,779,0
253783,381.78,763,781,0
253793,375.76,763,780,0
253803,369.62,763,781,0
253813,363.60,763,780,0
253824,357.81,763,781,0
253833,352.55,763,780,0
253843,347.84,763,781,0
253853,343.82,763,780,0
253863,340.27,763,781,0
253873,337.32,763,780,0
253883,334.87,763,781,0
253893,332.85,763,780,0
253903,331.14,763,781,0
253913,329.81,763,780,0
253923,328.71,763,781,0
253933,328.28,763,780,0
253943,328.28,763,781,0
253953,328.67,763,779,0
253963,329.54,763,781,0
253973,330.75,763,780,0
253983,332.02,763,781,0
253993,333.35,763,781,0
254003,334.40,763,781,0
254013,335.44,763,780,0
254023,336.51,763,781,0
254033,337.98,763,781,0
254043,340.34,763,781,0
254053,344.61,763,780,0
254063,351.46,763,781,0
254073,361.99,763,780,0
254083,376.61,763,781,0
254093,396.18,763,780,0
254103,420.64,763,781,0
254113,449.64,763,781,0
254124,481.89,763,781,0
254143,516.16,773,780,0
254146,549.97,773,780,0
254155,582.17,773,781,0
254166,610.27,773,780,0
254175,633.08,773,781,0
254185,649.25,773,780,0
254195,658.43,773,781,0
254205,660.23,773,780,0
254215,655.96,773,781,0
254225,645.77,773,780,0
254235,631.27,773,781,0
254245,613.15,773,780,0
254255,593.09,773,781,0
254265,571.72,773,780,0
254275,550.46,773,781,0
254285,529.37,773,780,0
254295,509.33,773,781,0
254305,490.20,773,780,0
254315,472.53,773,781,0
254325,455.91,773,780,0
254336,440.94,773,782,0
254345,427.11,773,780,0
254355,415.04,773,781,0
254365,404.53,773,780,0
254375,396.14,773,781,0
254385,389.58,773,781,0
254395,385.17,773,781,0
254405,382.42,773,781,0
254415,381.65,773,781,0
254425,382.31,773,781,0
254435,384.23,773,781,0
254445,386.65,773,780,0
254455,389.63,773,781,0
254465,392.65,773,781,0
254475,395.71,773,781,0
254485,398.07,773,780,0
254495,399.72,773,781,0
254505,400.28,773,780,0
254515,400.11,773,781,0
254525,398.75,773,780,0
254535,396.59,773,781,0
254545,393.37,773,780,0
254555,389.88,773,781,0
254565,385.84,773,780,0
254575,381.73,773,781,0
254585,377.31,773,780,0
254595,373.23,773,781,0
254605,369.31,773,780,0
254615,366.00,773,781,0
254625,362.74,773,780,0
254636,360.08,773,781,0
254646,357.70,773,779,0
254656,356.03,773,782,0
254666,354.48,773,779,0
254676,353.31,773,781,0
254686,352.14,773,779,0
254696,351.29,773,782,0
254706,350.21,773,779,0
254716,349.34,773,781,0
254726,348.12,773,779,0
254736,347.10,773,781,0
254746,345.70,773,779,0
254756,344.33,773,781,0
254766,342.73,773,779,0
254776,341.36,773,781,0
254786,339.83,773,778,0
254796,338.90,773,781,0
254807,338.46,773,778,0
254817,339.52,773,781,0
254827,342.19,773,778,0
254837,347.58,773,781,0
254848,356.02,773,777,0
254857,368.36,773,782,0
254867,384.66,773,778,0
254877,405.34,773,782,0
254887,429.58,773,778,0
254897,457.05,773,782,0
254916,486.18,773,780,0
254919,515.78,773,782,0
254928,544.26,773,777,0
254938,569.94,773,781,0
254948,590.96,773,778,0
254958,606.96,773,781,0
254968,616.83,773,777,0
254978,620.95,773,781,0
254988,619.25,773,778,0
254998,612.49,773,781,0
255008,601.37,773,777,0
255019,587.33,773,781,0
255028,570.73,773,777,0
255038,552.94,773,781,0
255048,534.32,773,777,0
255058,515.79,773,781,0
255068,497.51,773,777,0
255078,480.17,773,781,0
255088,463.75,773,777,0
255098,448.70,773,782,0
255108,434.86,773,778,0
255118,422.60,773,781,0
255128,411.71,773,777,0
255138,402.67,773,782,0
255148,395.22,773,778,0
255158,389.76,773,781,0
255168,385.76,773,777,0
255178,383.47,773,781,0
255188,382.39,773,777,0
255198,382.74,773,781,0
255208,383.89,773,777,0
255218,386.07,773,782,0
255228,388.58,773,777,0
255238,391.66,773,782,0
255248,394.59,773,777,0
255258,397.41,773,782,0
255268,399.48,773,777,0
255278,400.75,773,781,0
255288,400.69,773,777,0
255298,399.63,773,782,0
255308,397.30,773,777,0
255319,394.38,773,781,0
255329,390.67,773,777,0
255339,386.57,773,781,0
255349,382.07,773,777,0
255360,377.63,773,781,0
255369,373.20,773,777,0
255379,369.15,773,781,0
255389,365.21,773,777,0
255399,361.76,773,781,0
255409,358.62,773,777,0
255419,356.25,773,781,0
255429,354.20,773,777,0
255439,352.68,773,782,0
255449,351.41,773,777,0
255459,350.47,773,781,0
255469,349.69,773,777,0
255479,349.31,773,781,0
255489,348.87,773,777,0
255499,348.78,773,781,0
255509,348.68,773,777,0
255519,348.65,773,781,0
255529,348.45,773,778,0
255539,348.32,773,781,0
255549,348.09,773,777,0
255559,348.19,773,781,0
255569,348.61,773,777,0
255579,350.01,773,781,0
255589,352.88,773,778,0
255599,358.23,773,781,0
255609,366.43,773,777,0
255619,378.22,773,781,0
255629,393.75,773,777,0
255639,413.50,773,781,0
255649,436.88,773,777,0
255660,463.27,773,781,0
255679,491.26,763,780,0
255682,519.47,763,781,0
255691,546.63,763,779,0
255702,571.17,763,781,0
255711,591.47,763,779,0
255721,606.68,763,781,0
255731,616.12,763,779,0
255741,619.64,763,781,0
255751,617.82,763,779,0
255761,610.80,763,781,0
255771,599.55,763,779,0
255781,585.03,763,781,0
255791,568.22,763,779,0
255801,549.98,763,781,0
255811,531.17,763,779,0
255821,512.18,763,781,0
255831,493.65,763,779,0
255841,476.10,763,781,0
255851,459.66,763,779,0
255861,444.54,763,781,0
255872,431.01,763,780,0
255881,419.14,763,781,0
255891,409.11,763,779,0
255901,401.15,763,781,0
255911,395.15,763,780,0
255921,391.07,763,781,0
255931,388.91,763,779,0
255941,388.59,763,781,0
255951,389.92,763,780,0
255961,392.55,763,781,0
255971,395.90,763,779,0
255981,399.57,763,781,0
255991,403.35,763,780,0
256001,406.76,763,781,0
256011,409.27,763,779,0
256021,410.73,763,781,0
256031,411.03,763,780,0
256041,410.25,763,781,0
256051,408.46,763,779,0
256061,405.79,763,781,0
256071,402.34,763,779,0
256081,398.42,763,781,0
256091,394.35,763,779,0
256101,390.22,763,781,0
256111,386.17,763,779,0
256121,382.30,763,781,0
256131,378.70,763,779,0
256141,375.57,763,781,0
256151,372.92,763,779,0
256161,370.46,763,781,0
256172,368.43,763,780,0
256182,366.76,763,781,0
256192,365.46,763,780,0
256202,364.47,763,781,0
256212,363.77,763,781,0
256222,363.24,763,781,0
256232,363.00,763,780,0
256242,362.74,763,781,0
256252,362.56,763,781,0
256262,362.39,763,781,0
256272,362.27,763,780,0
256282,362.02,763,781,0
256292,361.89,763,781,0
256302,361.75,763,781,0
256312,361.91,763,780,0
256322,362.67,763,781,0
256332,364.87,763,780,0
256343,369.15,763,781,0
256353,376.43,763,781,0
256363,387.40,763,781,0
256373,403.27,763,781,0
256384,424.19,763,781,0
256393,450.19,763,781,0
256403,480.35,763,781,0
256422,513.71,743,780,0
256425,548.60,743,780,0
256434,583.78,743,781,0
256444,616.72,743,780,0
256454,646.16,743,782,0
256464,670.32,743,780,0
256474,688.61,743,781,0
256484,700.21,743,780,0
256494,705.34,743,781,0
256504,703.61,743,780,0
256514,696.31,743,781,0
256524,684.09,743,781,0
256534,668.29,743,781,0
256544,649.47,743,780,0
256555,628.98,743,781,0
256564,607.43,743,781,0
256574,585.91,743,781,0
256584,564.42,743,780,0
256594,543.68,743,781,0
256604,523.89,743,781,0
256614,505.50,743,781,0
256624,488.42,743,780,0
256634,473.29,743,781,0
256644,459.92,743,781,0
256654,449.02,743,781,0
256664,440.18,743,780,0
256674,433.74,743,781,0
256684,429.49,743,781,0
256694,427.54,743,781,0
256704,427.12,743,780,0
256714,428.46,743,781,0
256724,430.42,743,780,0
256734,433.08,743,781,0
256744,435.67,743,780,0
256754,438.17,743,781,0
256764,440.00,743,780,0
256774,441.42,743,781,0
256784,441.51,743,780,0
256794,440.84,743,781,0
256804,438.83,743,780,0
256814,435.97,743,781,0
256824,431.91,743,780,0
256834,427.09,743,781,0
256844,421.15,743,780,0
256855,414.89,743,781,0
256865,408.24,743,779,0
256875,401.91,743,781,0
256885,395.55,743,778,0
256896,389.73,743,781,0
256905,384.20,743,779,0
256915,379.68,743,781,0
256925,375.70,743,778,0
256935,372.45,743,781,0
256945,369.62,743,779,0
256955,367.42,743,781,0
256965,365.36,743,778,0
256975,363.84,743,781,0
256985,362.09,743,779,0
256995,360.65,743,781,0
257005,359.12,743,778,0
257015,357.84,743,781,0
257025,356.52,743,779,0
257035,355.55,743,781,0
257045,354.31,743,778,0
257055,353.53,743,781,0
257065,352.94,743,778,0
257075,353.35,743,781,0
257085,354.49,743,778,0
257095,357.47,743,781,0
257105,362.73,743,778,0
257115,371.68,743,781,0
257125,384.85,743,778,0
257135,403.49,743,781,0
257145,427.82,743,778,0
257155,458.30,743,781,0
257165,494.00,743,779,0
257175,533.43,743,782,0
257195,573.67,772,780,0
257198,612.55,772,782,0
257207,647.83,772,777,0
257217,678.18,772,782,0
257227,702.64,772,778,0
257238,720.96,772,782,0
257247,733.75,772,778,0
257257,742.74,772,781,0
257267,747.66,772,777,0
257277,748.53,772,781,0
257287,745.03,772,778,0
257297,737.18,772,782,0
257307,724.70,772,777,0
257317,707.77,772,781,0
257327,686.24,772,777,0
257337,661.74,772,782,0
257347,635.08,772,777,0
257357,607.50,772,781,0
257367,579.58,772,777,0
257377,552.45,772,781,0
257387,526.51,772,777,0
257397,502.70,772,781,0
257408,481.11,772,777,0
257417,462.43,772,781,0
257427,446.62,772,777,0
257437,434.26,772,781,0
257447,425.10,772,777,0
257457,419.24,772,781,0
257467,415.78,772,777,0
257477,414.86,772,781,0
257487,415.67,772,777,0
257497,418.13,772,781,0
257507,421.05,772,777,0
257517,424.03,772,781,0
257527,426.42,772,777,0
257537,428.52,772,781,0
257547,429.57,772,778,0
257557,429.74,772,781,0
257567,428.49,772,777,0
257577,426.20,772,782,0
257587,422.84,772,777,0
257597,418.73,772,781,0
257607,413.41,772,777,0
257617,407.42,772,781,0
257627,400.69,772,777,0
257637,394.01,772,781,0
257647,387.32,772,777,0
257657,381.01,772,781,0
257667,374.79,772,778,0
257677,369.41,772,781,0
257687,364.70,772,777,0
257697,360.94,772,781,0
257708,357.48,772,777,0
257718,354.64,772,781,0
257728,352.05,772,777,0
257738,350.15,772,781,0
257748,348.47,772,778,0
257758,347.26,772,781,0
257768,346.11,772,777,0
257778,345.18,772,781,0
257788,344.27,772,777,0
257798,343.72,772,781,0
257808,343.12,772,777,0
257818,342.69,772,781,0
257828,342.14,772,778,0
257838,341.93,772,781,0
257848,342.08,772,777,0
257858,343.21,772,781,0
257868,345.63,772,777,0
257879,350.54,772,781,0
257889,358.82,772,778,0
257899,371.82,772,781,0
257909,390.39,772,778,0
257920,415.56,772,781,0
257929,446.93,772,778,0
257939,484.37,772,781,0
257949,525.53,772,779,0
257969,567.58,774,778,0
257972,607.99,774,781,0
257981,644.72,774,781,0
257991,676.14,774,781,0
258001,701.55,774,781,0
258011,720.29,774,780,0
258021,733.36,774,781,0
258031,740.88,774,780,0
258041,742.80,774,781,0
258051,739.22,774,780,0
258061,729.98,774,781,0
258071,715.20,774,781,0
258081,694.91,774,781,0
258092,669.35,774,781,0
258102,640.19,774,781,0
258112,609.28,774,781,0
258122,577.65,774,781,0
258132,546.68,774,781,0
258142,516.95,774,781,0
258152,489.45,774,781,0
258162,464.54,774,781,0
258172,442.95,774,781,0
258182,424.58,774,781,0
258192,409.84,774,781,0
258202,398.48,774,781,0
258212,390.80,774,781,0
258222,386.27,774,781,0
258232,384.78,774,781,0
258242,385.66,774,781,0
258252,388.59,774,781,0
258263,392.74,774,781,0
258273,397.75,774,782,0
258283,402.71,774,780,0
258293,407.30,774,781,0
258304,410.89,774,780,0
258313,413.41,774,781,0
258323,414.27,774,780,0
258333,413.68,774,781,0
258343,411.20,774,780,0
258353,407.41,774,781,0
258363,402.15,774,780,0
258373,395.97,774,781,0
258383,388.61,774,780,0
258393,380.97,774,782,0
258403,372.88,774,780,0
258413,365.12,774,781,0
258423,357.37,774,780,0
258433,350.19,774,781,0
258443,343.44,774,780,0
258453,337.78,774,781,0
258463,332.70,774,780,0
258473,328.72,774,782,0
258483,325.33,774,781,0
258493,323.01,774,781,0
258503,321.33,774,780,0
258513,320.59,774,781,0
258523,320.37,774,781,0
258533,320.90,774,781,0
258543,321.66,774,780,0
258553,323.05,774,781,0
258563,324.53,774,781,0
258573,326.52,774,781,0
258583,328.42,774,780,0
258593,330.78,774,781,0
258604,333.50,774,780,0
258614,337.42,774,781,0
258624,342.82,774,779,0
258634,351.02,774,782,0
258644,362.59,774,778,0
258654,378.95,774,781,0
258664,400.57,774,779,0
258674,428.30,774,781,0
258684,461.46,774,779,0
258694,499.43,774,781,0
258704,540.05,774,779,0
258723,580.80,755,777,0
258726,619.34,755,778,0
258735,653.95,755,781,0
258745,682.90,755,778,0
258755,704.78,755,781,0
258765,718.05,755,778,0
258775,722.96,755,781,0
258785,719.97,755,778,0
258795,709.82,755,781,0
258805,692.86,755,778,0
258816,669.98,755,781,0
258825,642.60,755,778,0
258835,612.76,755,781,0
258845,581.38,755,778,0
258855,550.36,755,781,0
258865,520.21,755,778,0
258875,491.99,755,781,0
258885,465.76,755,778,0
258895,442.18,755,781,0
258905,421.17,755,778,0
258915,403.20,755,781,0
258925,387.84,755,778,0
258935,375.63,755,781,0
258945,366.23,755,778,0
258955,360.20,755,781,0
258965,356.84,755,778,0
258975,356.42,755,781,0
258985,358.01,755,778,0
258995,361.69,755,781,0
259005,366.54,755,778,0
259015,372.38,755,781,0
259025,377.96,755,778,0
259035,383.46,755,781,0
259045,387.82,755,778,0
259055,391.30,755,781,0
259065,393.06,755,778,0
259075,393.55,755,781,0
259085,392.36,755,778,0
259095,390.07,755,781,0
259105,386.23,755,777,0
259116,381.49,755,781,0
259126,375.69,755,778,0
259136,369.69,755,781,0
259146,363.19,755,777,0
259156,356.92,755,781,0
259166,350.68,755,777,0
259176,345.21,755,781,0
259186,340.17,755,777,0
259196,336.14,755,781,0
259206,332.62,755,778,0
259216,329.99,755,781,0
259226,327.81,755,777,0
259236,326.50,755,781,0
259246,325.36,755,777,0
259256,324.91,755,781,0
259266,324.55,755,777,0
259276,324.81,755,781,0
259287,325.26,755,777,0
259297,326.08,755,781,0
259307,326.83,755,777,0
259317,327.86,755,781,0
259328,328.81,755,777,0
259337,330.06,755,782,0
259347,331.24,755,777,0
259357,332.97,755,781,0
259367,335.38,755,777,0
259377,339.34,755,781,0
259387,345.49,755,777,0
259397,355.03,755,781,0
259407,368.74,755,777,0
259417,387.50,755,781,0
259427,411.52,755,777,0
259437,441.32,755,782,0
259447,475.85,755,777,0
259466,514.00,743,776,0
259469,553.34,743,780,0
259478,592.11,743,781,0
259488,627.91,743,778,0
259499,658.83,743,781,0
259508,682.71,743,777,0
259518,698.70,743,781,0
259528,706.03,743,778,0
259538,705.55,743,781,0
259548,697.71,743,777,0
259558,683.83,743,781,0
259568,664.89,743,778,0
259578,642.38,743,781,0
259588,617.67,743,777,0
259598,592.10,743,781,0
259608,566.40,743,778,0
259618,541.08,743,781,0
259628,516.54,743,777,0
259638,493.49,743,781,0
259648,472.04,743,777,0
259658,452.40,743,781,0
259668,434.62,743,778,0
259678,418.71,743,781,0
259688,404.82,743,777,0
259698,393.31,743,781,0
259708,384.04,743,778,0
259718,377.30,743,781,0
259728,372.75,743,777,0
259738,370.43,743,781,0
259748,370.17,743,778,0
259758,371.53,743,781,0
259768,374.03,743,777,0
259778,377.24,743,782,0
259788,380.59,743,778,0
259799,383.84,743,781,0
259809,386.46,743,779,0
259819,388.12,743,782,0
259829,388.82,743,779,0
259840,388.36,743,781,0
259849,386.75,743,779,0
259859,384.08,743,782,0
259869,380.33,743,779,0
259879,375.77,743,781,0
259889,370.70,743,779,0
259899,365.43,743,782,0
259909,359.99,743,779,0
259919,354.63,743,781,0
259929,349.39,743,779,0
259939,344.60,743,782,0
259949,340.31,743,779,0
259959,336.44,743,781,0
259969,333.01,743,778,0
259979,330.01,743,781,0
259989,327.43,743,779,0
259999,325.42,743,781,0
260009,323.88,743,779,0
260019,322.76,743,781,0
260029,322.06,743,779,0
260039,321.70,743,781,0
260049,321.70,743,780,0
260059,321.96,743,781,0
260069,322.27,743,779,0
260079,322.66,743,781,0
260089,323.11,743,779,0
260099,323.63,743,781,0
260109,324.17,743,779,0
260119,325.06,743,781,0
260129,326.80,743,779,0
260140,330.20,743,781,0
260150,336.23,743,780,0
260160,345.80,743,781,0
260170,359.96,743,780,0
260180,379.30,743,781,0
260190,404.15,743,780,0
260200,434.11,743,781,0
260210,468.28,743,780,0
260230,504.92,763,779,0
260233,542.32,763,782,0
260242,578.52,763,781,0
260252,611.19,763,781,0
260262,638.26,763,780,0
260272,658.97,763,782,0
260282,672.31,763,780,0
260292,678.43,763,781,0
260302,677.19,763,779,0
260312,669.37,763,781,0
260322,656.19,763,781,0
260332,639.03,763,781,0
260342,618.41,763,780,0
260353,596.00,763,781,0
260363,572.26,763,780,0
260373,548.74,763,781,0
260383,525.20,763,779,0
260393,502.81,763,782,0
260403,481.91,763,780,0
260413,463.08,763,781,0
260423,445.91,763,779,0
260433,430.98,763,781,0
260443,417.92,763,780,0
260453,407.53,763,781,0
260463,399.10,763,779,0
260473,392.98,763,781,0
260483,388.70,763,780,0
260493,386.56,763,781,0
260503,385.92,763,779,0
260513,386.85,763,781,0
260524,388.61,763,779,0
260534,391.34,763,781,0
260544,394.07,763,778,0
260554,397.00,763,782,0
260564,399.23,763,778,0
260574,401.09,763,781,0
260584,401.79,763,778,0
260594,401.64,763,781,0
260604,400.33,763,778,0
260614,398.35,763,781,0
260624,395.29,763,778,0
260634,391.86,763,781,0
260644,387.57,763,778,0
260654,383.29,763,781,0
260664,378.66,763,778,0
260674,374.30,763,781,0
260684,369.93,763,778,0
260695,366.05,763,781,0
260705,362.31,763,778,0
260715,359.26,763,782,0
260725,356.44,763,778,0
260736,354.25,763,781,0
260745,352.16,763,778,0
260755,350.57,763,781,0
260765,348.81,763,777,0
260775,347.41,763,781,0
260785,345.87,763,778,0
260795,344.58,763,781,0
260805,343.12,763,777,0
260815,341.93,763,781,0
260825,340.75,763,778,0
260835,340.27,763,782,0
260845,340.02,763,778,0
260855,340.65,763,781,0
260865,341.87,763,778,0
260875,344.70,763,782,0
260885,349.24,763,778,0
260895,356.59,763,781,0
260905,367.12,763,777,0
260915,381.79,763,782,0
260925,400.88,763,778,0
260935,425.17,763,781,0
260945,453.71,763,777,0
260955,485.94,763,781,0
260974,519.90,745,780,0
260977,554.34,745,782,0
260986,587.58,745,777,0
260996,617.58,745,781,0
261006,642.22,745,778,0
261016,660.63,745,781,0
261026,671.84,745,777,0
261036,676.30,745,781,0
261046,673.77,745,777,0
261056,665.05,745,781,0
261066,651.02,745,777,0
261076,633.19,745,781,0
261086,612.60,745,777,0
261096,590.61,745,781,0
261106,567.75,745,777,0
261116,545.20,745,781,0
261126,523.20,745,777,0
261136,502.48,745,781,0
261146,482.88,745,777,0
261156,465.00,745,781,0
261166,448.76,745,777,0
261176,434.73,745,781,0
261186,422.77,745,777,0
261196,413.20,745,781,0
261207,405.98,745,777,0
261217,401.57,745,781,0
261227,399.34,745,777,0
261237,399.45,745,781,0
261248,401.20,745,778,0
261257,404.57,745,781,0
261267,408.73,745,777,0
261277,413.31,745,781,0
261287,417.67,745,778,0
261297,421.76,745,781,0
261307,424.96,745,777,0
261317,427.07,745,781,0
261327,427.69,745,778,0
261337,427.06,745,781,0
261347,425.03,745,777,0
261357,422.06,745,781,0
261367,418.06,745,778,0
261377,413.33,745,781,0
261387,408.08,745,777,0
261397,402.62,745,781,0
261407,397.12,745,778,0
261417,391.90,745,781,0
261427,386.70,745,777,0
261437,381.95,745,781,0
261447,377.55,745,778,0
261457,373.87,745,781,0
261467,370.61,745,777,0
261477,367.81,745,781,0
261487,365.34,745,778,0
261497,363.31,745,781,0
261507,361.50,745,777,0
261517,360.11,745,781,0
261527,358.79,745,778,0
261537,357.74,745,781,0
261548,356.70,745,778,0
261558,356.06,745,781,0
261568,355.66,745,779,0
261578,355.63,745,781,0
261588,356.39,745,779,0
261598,358.41,745,781,0
261608,362.53,745,779,0
261618,369.87,745,781,0
261628,381.10,745,779,0
261638,397.18,745,781,0
261648,418.68,745,779,0
261658,445.74,745,782,0
261668,477.79,745,779,0
261678,513.55,745,781,0
261697,551.31,723,780,0
261700,588.81,723,782,0
261709,624.26,723,780,0
261719,655.68,723,781,0
261729,680.98,723,779,0
261739,699.07,723,781,0
261749,709.29,723,780,0
261760,711.48,723,781,0
261769,706.49,723,779,0
261779,694.90,723,781,0
261789,678.00,723,780,0
261799,656.87,723,781,0
261809,633.04,723,779,0
261819,607.83,723,781,0
261829,582.25,723,780,0
261839,557.23,723,781,0
261849,533.25,723,779,0
261859,510.55,723,781,0
261869,489.72,723,780,0
261879,470.56,723,781,0
261889,453.34,723,779,0
261899,438.19,723,781,0
261909,425.11,723,780,0
261919,414.23,723,781,0
261929,405.59,723,780,0
261939,399.11,723,781,0
261949,395.01,723,780,0
261959,393.03,723,781,0
261969,392.98,723,780,0
261979,394.32,723,781,0
261989,396.58,723,780,0
261999,399.40,723,781,0
262009,402.63,723,780,0
262019,405.87,723,781,0
262029,408.65,723,780,0
262039,410.77,723,781,0
262049,412.08,723,780,0
262060,412.57,723,781,0
262070,412.31,723,781,0
262080,410.98,723,781,0
262090,408.71,723,781,0
262100,405.58,723,781,0
262110,401.51,723,780,0
262120,396.68,723,781,0
262130,391.34,723,781,0
262140,385.54,723,781,0
262150,379.89,723,781,0
262160,374.14,723,781,0
262170,368.87,723,781,0
262180,364.06,723,781,0
262190,359.93,723,781,0
262200,356.27,723,781,0
262210,353.31,723,781,0
262220,350.56,723,781,0
262231,348.17,723,781,0
262241,345.76,723,781,0
262251,343.95,723,781,0
262261,342.20,723,780,0
262272,340.94,723,781,0
262281,339.76,723,781,0
262291,339.10,723,782,0
262301,338.86,723,781,0
262311,339.29,723,781,0
262321,340.10,723,781,0
262331,342.21,723,782,0
262341,345.79,723,781,0
262351,352.11,723,781,0
262361,361.51,723,781,0
262371,375.37,723,781,0
262381,393.99,723,781,0
262391,418.16,723,781,0
262401,447.13,723,781,0
262411,480.39,723,782,0
262421,516.10,723,781,0
262440,552.93,743,779,0
262444,587.79,743,779,0
262452,619.74,743,782,0
262462,646.22,743,780,0
262472,666.60,743,781,0
262482,679.66,743,779,0
262492,685.68,743,781,0
262502,684.49,743,780,0
262512,677.61,743,781,0
262522,665.04,743,779,0
262532,648.62,743,781,0
262542,628.89,743,779,0
262552,607.45,743,782,0
262562,584.47,743,779,0
262572,561.44,743,781,0
262582,538.51,743,779,0
262592,516.46,743,781,0
262602,494.93,743,779,0
262612,474.73,743,781,0
262622,455.52,743,779,0
262632,438.31,743,782,0
262642,422.49,743,779,0
262652,408.88,743,781,0
262662,397.18,743,780,0
262672,388.17,743,781,0
262682,381.43,743,779,0
262692,377.36,743,781,0
262702,375.19,743,780,0
262712,375.22,743,781,0
262722,376.65,743,779,0
262732,379.50,743,781,0
262743,382.82,743,779,0
262753,386.48,743,781,0
262763,389.72,743,778,0
262773,392.59,743,781,0
262784,394.51,743,778,0
262793,395.60,743,782,0
262803,395.34,743,778,0
262813,394.08,743,781,0
262823,391.65,743,778,0
262833,388.63,743,781,0
262843,384.63,743,778,0
262853,380.28,743,781,0
262863,375.14,743,778,0
262873,370.13,743,782,0
262883,364.86,743,778,0
262893,359.76,743,781,0
262903,354.47,743,778,0
262913,349.62,743,782,0
262923,344.98,743,779,0
262933,341.13,743,781,0
262943,337.45,743,778,0
262953,334.48,743,781,0
262963,331.94,743,779,0
262973,330.24,743,781,0
262983,328.97,743,778,0
262993,328.16,743,781,0
263003,327.39,743,778,0
263013,327.10,743,781,0
263023,327.03,743,778,0
263033,327.49,743,782,0
263043,327.86,743,779,0
263053,328.76,743,781,0
263063,329.64,743,778,0
263073,331.34,743,782,0
263084,333.55,743,778,0
263094,337.11,743,781,0
263104,342.35,743,778,0
263114,350.43,743,781,0
263124,361.62,743,777,0
263134,377.25,743,781,0
263144,397.27,743,778,0
263154,422.39,743,782,0
263164,451.42,743,778,0
263174,483.61,743,782,0
263193,517.20,753,780,0
263196,550.27,753,782,0
263205,581.21,753,777,0
263215,608.41,753,781,0
263225,629.89,753,777,0
263235,645.22,753,782,0
263245,653.38,753,777,0
263255,655.15,753,781,0
263265,650.86,753,777,0
263275,641.22,753,781,0
263285,627.10,753,777,0
263296,609.88,753,781,0
263305,590.46,753,777,0
263315,570.22,753,781,0
263325,549.20,753,777,0
263335,528.70,753,781,0
263345,508.43,753,777,0
263355,489.14,753,781,0
263365,470.63,753,777,0
263375,453.30,753,781,0
263385,437.09,753,777,0
263395,422.49,753,781,0
263405,409.36,753,777,0
263415,398.41,753,781,0
263425,389.24,753,777,0
263435,382.48,753,781,0
263445,377.54,753,777,0
263455,374.81,753,781,0
263465,373.75,753,777,0
263475,374.25,753,781,0
263485,375.59,753,777,0
263495,377.77,753,781,0
263505,380.07,753,777,0
263515,382.49,753,781,0
263525,384.19,753,777,0
263535,385.37,753,782,0
263545,385.48,753,777,0
263555,384.95,753,781,0
263565,383.38,753,778,0
263575,381.04,753,781,0
263585,377.72,753,777,0
263596,373.91,753,781,0
263606,369.44,753,778,0
263616,364.80,753,781,0
263626,359.81,753,778,0
263636,354.81,753,781,0
263646,349.64,753,777,0
263656,344.95,753,781,0
263666,340.55,753,778,0
263676,336.65,753,781,0
263686,333.20,753,777,0
263696,330.44,753,781,0
263706,328.42,753,778,0
263716,327.35,753,781,0
263726,326.65,753,777,0
263736,326.54,753,781,0
263746,326.68,753,778,0
263756,327.25,753,781,0
263767,327.94,753,778,0
263777,328.65,753,781,0
263787,329.27,753,779,0
263797,330.00,753,781,0
263808,330.86,753,779,0
263817,332.40,753,781,0
263827,334.51,753,778,0
263837,337.91,753,781,0
263847,343.25,753,779,0
263857,351.15,753,781,0
263867,362.33,753,778,0
263877,377.40,753,781,0
263887,396.70,753,779,0
263897,420.06,753,782,0
263907,446.57,753,778,0
263917,475.20,753,781,0
263937,504.37,743,781,0
263940,532.33,743,781,0
263949,557.77,743,781,0
263959,578.67,743,781,0
263969,594.28,743,781,0
263980,603.71,743,781,0
263990,606.84,743,781,0
264000,604.10,743,781,0
264010,596.53,743,781,0
264020,584.33,743,780,0
264030,569.14,743,781,0
264040,551.61,743,781,0
264050,533.22,743,782,0
264060,514.34,743,781,0
264070,495.81,743,781,0
264080,477.57,743,781,0
264090,460.25,743,782,0
264100,443.63,743,780,0
264110,428.32,743,781,0
264120,414.08,743,781,0
264130,401.58,743,782,0
264140,390.61,743,781,0
264151,381.81,743,781,0
264161,374.93,743,780,0
264171,370.36,743,781,0
264181,367.68,743,780,0
264192,366.92,743,781,0
264201,367.59,743,780,0
264211,369.77,743,781,0
264221,372.62,743,780,0
264231,376.25,743,781,0
264241,379.73,743,780,0
264251,383.16,743,781,0
264261,385.98,743,780,0
264271,388.30,743,781,0
264281,389.71,743,780,0
264291,390.35,743,781,0
264301,389.86,743,780,0
264311,388.62,743,781,0
264321,386.33,743,780,0
264331,383.58,743,781,0
264341,380.02,743,780,0
264351,376.20,743,781,0
264361,371.85,743,779,0
264371,367.61,743,781,0
264381,363.40,743,780,0
264391,359.68,743,781,0
264401,356.09,743,779,0
264411,353.11,743,781,0
264421,350.16,743,780,0
264431,348.14,743,781,0
264441,346.34,743,779,0
264451,345.21,743,781,0
264461,344.33,743,780,0
264471,344.19,743,781,0
264481,344.18,743,779,0
264492,344.77,743,781,0
264502,345.31,743,779,0
264512,346.16,743,781,0
264522,346.88,743,778,0
264532,347.77,743,781,0
264542,348.36,743,779,0
264552,349.28,743,781,0
264562,350.22,743,778,0
264572,352.13,743,781,0
264582,354.96,743,779,0
264592,359.90,743,781,0
264602,367.26,743,778,0
264612,378.07,743,781,0
264622,392.36,743,779,0
264632,410.72,743,781,0
264642,432.24,743,778,0
264652,457.15,743,782,0
264672,483.72,736,781,0
264675,511.19,736,781,0
264684,537.88,736,777,0
264694,562.43,736,781,0
264705,583.30,736,778,0
264715,599.97,736,782,0
264725,611.08,736,777,0
264735,616.97,736,782,0
264745,617.19,736,778,0
264755,612.72,736,782,0
264765,604.19,736,777,0
264775,592.69,736,782,0
264785,578.85,736,778,0
264795,563.90,736,782,0
264805,548.11,736,777,0
264815,532.31,736,782,0
264825,516.32,736,778,0
264835,500.88,736,781,0
264845,485.79,736,777,0
264855,471.41,736,781,0
264865,457.61,736,778,0
264876,444.79,736,781,0
264886,433.11,736,778,0
264896,422.88,736,781,0
264906,414.04,736,778,0
264916,407.00,736,781,0
264926,401.51,736,778,0
264936,397.97,736,781,0
264946,396.05,736,779,0
264956,395.74,736,781,0
264966,396.67,736,778,0
264976,398.57,736,781,0
264986,401.06,736,778,0
264996,403.95,736,781,0
265006,406.67,736,778,0
265016,409.00,736,781,0
265026,410.50,736,778,0
265036,411.29,736,782,0
265047,411.12,736,779,0
265057,410.01,736,781,0
265067,408.12,736,779,0
265077,405.51,736,781,0
265088,402.49,736,780,0
265097,399.08,736,781,0
265107,395.33,736,779,0
265117,391.42,736,782,0
265127,387.31,736,780,0
265137,383.06,736,782,0
265147,378.71,736,779,0
265157,374.30,736,781,0
265167,370.01,736,780,0
265177,365.81,736,781,0
265187,361.88,736,779,0
265197,358.32,736,782,0
265207,355.09,736,780,0
265217,352.49,736,782,0
265227,350.20,736,779,0
265237,348.34,736,781,0
265247,347.04,736,780,0
265257,346.26,736,781,0
265267,346.05,736,779,0
265277,346.25,736,781,0
265287,346.86,736,780,0
265297,347.85,736,781,0
265307,349.13,736,779,0
265317,350.64,736,781,0
265327,352.42,736,780,0
265337,354.95,736,781,0
265347,358.69,736,779,0
265357,364.19,736,781,0
265367,372.14,736,779,0
265377,383.29,736,781,0
265388,398.41,736,780,0
265398,417.75,736,782,0
265408,440.84,736,781,0
265418,467.03,736,781,0
265428,495.05,736,781,0
265447,523.66,775,779,0
265450,550.98,775,782,0
265459,575.54,775,781,0
265469,596.04,775,781,0
265479,611.50,775,781,0
265489,621.46,775,781,0
265499,625.74,775,781,0
265509,624.75,775,781,0
265519,619.25,775,781,0
265529,609.83,775,781,0
265539,596.98,775,781,0
265549,581.86,775,781,0
265559,565.14,775,781,0
265569,547.92,775,781,0
265579,530.46,775,781,0
265589,513.22,775,782,0
265600,496.18,775,781,0
265609,480.06,775,781,0
265619,464.74,775,781,0
265629,450.55,775,782,0
265639,437.18,775,781,0
265649,425.04,775,781,0
265659,414.23,775,781,0
265669,405.33,775,781,0
265679,398.16,775,781,0
265689,392.93,775,781,0
265699,389.35,775,781,0
265709,387.70,775,781,0
265719,387.53,775,781,0
265729,388.75,775,781,0
265739,390.71,775,781,0
265749,393.37,775,781,0
265759,395.96,775,781,0
265769,398.63,775,782,0
265779,400.75,775,781,0
265789,402.46,775,781,0
265799,403.35,775,781,0
265809,403.54,775,782,0
265819,402.74,775,781,0
265829,401.32,775,781,0
265839,399.04,775,781,0
265849,396.32,775,782,0
265859,393.06,775,781,0
265869,389.70,775,781,0
265879,385.93,775,781,0
265889,382.22,775,781,0
265900,378.38,775,781,0
265910,374.58,775,781,0
265920,370.68,775,780,0
265930,367.13,775,782,0
265940,363.54,775,780,0
265950,360.50,775,781,0
265960,357.61,775,780,0
265970,355.46,775,782,0
265980,353.82,775,780,0
265990,353.02,775,781,0
266000,352.45,775,780,0
266010,352.36,775,782,0
266020,352.34,775,780,0
266030,352.71,775,782,0
266040,352.92,775,780,0
266050,353.20,775,782,0
266060,353.01,775,780,0
266071,353.01,775,782,0
266081,353.05,775,779,0
266091,353.51,775,781,0
266101,354.55,775,779,0
266112,357.00,775,781,0
266121,361.37,775,779,0
266131,368.72,775,782,0
266141,379.00,775,779,0
266151,393.32,775,782,0
266161,411.26,775,779,0
266171,433.17,775,782,0
266181,457.93,775,779,0
266201,484.74,753,778,0
266204,511.82,753,778,0
266213,538.40,753,782,0
266223,562.24,753,778,0
266233,582.74,753,782,0
266243,598.16,753,778,0
266253,608.57,753,782,0
266263,613.24,753,778,0
266273,612.83,753,782,0
266284,607.18,753,777,0
266294,597.48,753,782,0
266304,584.31,753,777,0
266314,568.96,753,782,0
266324,551.70,753,777,0
266334,533.96,753,782,0
266344,515.72,753,777,0
266354,497.84,753,781,0
266364,480.45,753,777,0
266374,463.98,753,782,0
266384,448.35,753,777,0
266394,434.06,753,782,0
266404,420.88,753,777,0
266414,409.52,753,782,0
266424,399.55,753,777,0
266434,391.54,753,781,0
266444,385.42,753,777,0
266455,381.65,753,782,0
266465,379.79,753,778,0
266475,379.85,753,781,0
266485,381.44,753,778,0
266496,384.48,753,781,0
266505,388.28,753,777,0
266515,392.61,753,781,0
266525,396.71,753,778,0
266535,400.61,753,782,0
266545,403.64,753,778,0
266555,405.85,753,781,0
266565,407.27,753,778,0
266575,407.87,753,782,0
266585,407.35,753,778,0
266595,405.96,753,781,0
266605,403.62,753,778,0
266615,400.69,753,782,0
266625,397.01,753,778,0
266635,392.94,753,782,0
266645,388.46,753,778,0
266655,383.99,753,782,0
266665,379.49,753,779,0
266675,375.15,753,781,0
266685,371.07,753,778,0
266695,367.41,753,782,0
266705,363.94,753,778,0
266715,361.09,753,781,0
266725,358.62,753,778,0
266735,356.85,753,782,0
266745,355.52,753,778,0
266755,354.72,753,782,0
266765,354.38,753,778,0
266775,354.39,753,781,0
266785,354.53,753,778,0
266796,354.63,753,781,0
266806,354.48,753,779,0
266816,354.60,753,782,0
266826,354.85,753,779,0
266836,355.75,753,781,0
266846,357.80,753,779,0
266856,361.54,753,781,0
266866,368.02,753,779,0
266876,378.13,753,781,0
266886,392.32,753,779,0
266896,411.12,753,781,0
266906,434.57,753,779,0
266916,462.39,753,781,0
266926,493.34,753,779,0
266945,526.33,745,778,0
266948,559.36,745,782,0
266957,590.88,745,781,0
266967,619.37,745,780,0
266977,643.09,745,781,0
266987,661.02,745,780,0
266997,672.84,745,781,0
267008,678.08,745,781,0
267017,677.28,745,781,0
267027,670.85,745,780,0
267037,659.24,745,781,0
267047,643.87,745,781,0
267057,625.44,745,781,0
267067,605.08,745,780,0
267077,583.75,745,781,0
267087,562.14,745,780,0
267097,540.80,745,781,0
267107,520.42,745,780,0
267117,501.18,745,782,0
267127,483.47,745,780,0
267137,467.38,745,781,0
267147,453.13,745,780,0
267157,440.62,745,781,0
267167,430.15,745,780,0
267177,421.75,745,781,0
267187,415.26,745,780,0
267197,410.69,745,781,0
267207,408.04,745,780,0
267217,407.17,745,781,0
267227,408.06,745,780,0
267237,410.10,745,781,0
267247,413.07,745,780,0
267257,416.39,745,781,0
267267,419.92,745,780,0
267277,423.03,745,782,0
267287,425.38,745,780,0
267297,426.51,745,781,0
267308,426.48,745,781,0
267318,425.01,745,781,0
267328,422.56,745,781,0
267338,418.88,745,781,0
267348,414.50,745,781,0
267358,409.34,745,781,0
267368,404.05,745,780,0
267378,398.42,745,780,0
267388,393.07,745,780,0
267398,387.77,745,780,0
267408,383.04,745,779,0
267418,378.40,745,779,0
267428,374.51,745,780,0
267438,370.80,745,780,0
267448,367.86,745,780,0
267458,364.90,745,781,0
267468,362.53,745,781,0
267479,360.23,745,781,0
267489,358.57,745,781,0
267499,356.99,745,780,0
267509,355.96,745,782,0
267520,355.07,745,780,0
267529,354.92,745,782,0
267539,354.82,745,780,0
267549,355.26,745,782,0
267559,355.52,745,780,0
267569,356.22,745,782,0
267579,356.93,745,780,0
267589,358.24,745,782,0
267599,360.31,745,780,0
267609,364.03,745,781,0
267619,369.89,745,780,0
267629,379.31,745,782,0
267639,392.76,745,780,0
267649,411.39,745,782,0
267659,435.27,745,781,0
267669,464.72,745,781,0
267679,498.66,745,780,0
267699,536.13,753,778,0
267702,574.58,753,778,0
267711,611.78,753,781,0
267721,645.83,753,778,0
267731,675.54,753,782,0
267741,699.16,753,778,0
267751,716.08,753,781,0
267761,725.19,753,778,0
267771,727.62,753,781,0
267781,723.92,753,779,0
267791,714.69,753,781,0
267801,700.25,753,778,0
267811,682.00,753,782,0
267821,660.92,753,779,0
267831,638.48,753,781,0
267841,614.94,753,778,0
267851,591.43,753,781,0
267862,568.07,753,777,0
267871,545.72,753,781,0
267881,524.16,753,778,0
267891,504.01,753,781,0
267901,485.24,753,777,0
267911,468.58,753,781,0
267921,453.88,753,778,0
267931,442.09,753,781,0
267941,432.63,753,778,0
267951,426.10,753,781,0
267961,421.83,753,778,0
267971,420.21,753,782,0
267981,420.45,753,778,0
267991,422.41,753,781,0
268001,424.95,753,778,0
268011,428.13,753,781,0
268021,431.09,753,778,0
268032,433.98,753,781,0
268041,435.79,753,778,0
268051,436.79,753,782,0
268061,436.34,753,778,0
268071,434.91,753,781,0
268081,432.15,753,778,0
268091,428.29,753,782,0
268101,423.02,753,778,0
268111,417.06,753,781,0
268121,410.18,753,778,0
268131,403.18,753,782,0
268141,395.76,753,778,0
268151,388.72,753,781,0
268161,381.73,753,778,0
268171,375.43,753,781,0
268181,369.38,753,778,0
268191,364.21,753,781,0
268201,359.52,753,778,0
268211,355.81,753,781,0
268221,352.48,753,778,0
268231,350.24,753,781,0
268241,348.49,753,777,0
268251,347.70,753,782,0
268261,347.02,753,778,0
268271,346.84,753,782,0
268281,346.68,753,778,0
268291,346.73,753,782,0
268301,346.51,753,778,0
268311,346.40,753,781,0
268321,345.89,753,777,0
268332,345.84,753,782,0
268342,345.89,753,777,0
268352,347.21,753,782,0
268362,349.89,753,777,0
268372,355.32,753,781,0
268382,364.31,753,778,0
268392,378.53,753,782,0
268402,398.43,753,777,0
268412,425.09,753,782,0
268422,457.46,753,778,0
268432,495.64,753,782,0
268442,536.85,753,777,0
268462,578.42,763,776,0
268465,617.72,763,779,0
268474,652.99,763,781,0
268484,682.65,763,777,0
268494,706.41,763,782,0
268504,723.69,763,777,0
268514,735.10,763,782,0
268524,740.64,763,777,0
268534,740.49,763,782,0
268545,734.73,763,778,0
268555,723.41,763,781,0
268565,706.57,763,778,0
268575,684.33,763,781,0
268585,657.79,763,779,0
268595,628.84,763,782,0
268605,598.59,763,778,0
268615,568.20,763,782,0
268625,538.61,763,779,0
268635,510.61,763,781,0
268645,484.76,763,779,0
268655,461.30,763,781,0
268665,440.64,763,779,0
268675,423.18,763,781,0
268685,408.94,763,779,0
268695,398.03,763,782,0
268705,390.39,763,779,0
268716,385.95,763,781,0
268726,384.42,763,780,0
268736,385.36,763,781,0
268746,388.34,763,780,0
268756,392.74,763,781,0
268766,397.87,763,779,0
268776,403.05,763,781,0
268786,407.97,763,780,0
268796,412.13,763,781,0
268806,415.27,763,779,0
268816,417.07,763,782,0
268826,417.56,763,780,0
268836,416.71,763,781,0
268846,414.87,763,779,0
268856,411.74,763,781,0
268866,407.49,763,780,0
268876,402.20,763,781,0
268887,396.10,763,780,0
268897,389.25,763,781,0
268907,382.02,763,781,0
268917,374.39,763,781,0
268928,366.90,763,781,0
268937,359.73,763,781,0
268947,353.21,763,781,0
268957,347.32,763,781,0
268967,342.38,763,781,0
268977,338.15,763,781,0
268987,334.85,763,781,0
268997,332.41,763,781,0
269007,330.83,763,781,0
269017,329.89,763,781,0
269027,329.67,763,781,0
269037,329.77,763,781,0
269047,330.65,763,781,0
269057,331.87,763,781,0
269067,333.80,763,781,0
269077,336.64,763,781,0
269087,341.16,763,781,0
269097,347.93,763,781,0
269107,358.02,763,781,0
269117,372.07,763,781,0
269127,391.42,763,781,0
269137,416.28,763,781,0
269147,446.67,763,781,0
269157,481.57,763,781,0
269167,520.05,763,781,0
269177,560.11,763,781,0
269196,599.25,735,780,0
269199,635.17,735,780,0
269208,666.19,735,782,0
269218,690.44,735,780,0
269228,707.02,735,782,0
269238,714.86,735,781,0
269248,714.38,735,782,0
269258,706.08,735,780,0
269268,691.10,735,781,0
269278,670.07,735,781,0
269288,644.68,735,781,0
269298,615.93,735,780,0
269308,585.78,735,781,0
269318,555.03,735,781,0
269328,525.15,735,781,0
269338,496.31,735,780,0
269348,469.47,735,782,0
269358,444.77,735,781,0
269368,422.86,735,781,0
269378,403.61,735,780,0
269388,387.57,735,782,0
269399,374.63,735,780,0
269409,365.10,735,781,0
269419,358.51,735,779,0
269429,355.27,735,782,0
269440,354.76,735,779,0
269449,357.02,735,782,0
269459,360.96,735,779,0
269469,366.54,735,782,0
269479,372.76,735,779,0
269489,379.52,735,782,0
269499,385.71,735,779,0
269509,391.28,735,782,0
269519,395.27,735,779,0
269529,398.19,735,781,0
269539,399.07,735,779,0
269549,398.62,735,781,0
269559,396.38,735,779,0
269569,393.05,735,781,0
269579,388.41,735,779,0
269589,383.27,735,782,0
269599,377.40,735,779,0
269609,371.63,735,781,0
269619,365.78,735,780,0
269629,360.45,735,782,0
269639,355.13,735,779,0
269649,350.55,735,782,0
269659,346.10,735,779,0
269669,342.30,735,782,0
269679,338.78,735,779,0
269689,335.80,735,781,0
269699,333.12,735,780,0
269709,331.11,735,782,0
269719,329.24,735,779,0
269729,328.09,735,781,0
269740,326.91,735,778,0
269750,326.25,735,782,0
269760,325.66,735,778,0
269770,325.63,735,781,0
269780,326.22,735,778,0
269790,328.29,735,782,0
269800,332.11,735,778,0
269810,339.15,735,781,0
269820,349.86,735,777,0
269830,365.76,735,782,0
269840,387.35,735,778,0
269850,415.61,735,782,0
269860,449.59,735,778,0
269870,488.54,735,782,0
269880,530.33,735,778,0
269899,572.53,703,777,0
269902,612.57,703,778,0
269911,648.62,703,782,0
269921,678.47,703,778,0
269931,701.35,703,782,0
269941,715.73,703,777,0
269952,721.81,703,782,0
269961,720.20,703,778,0
269971,711.74,703,781,0
269981,696.94,703,777,0
269991,676.78,703,782,0
270001,652.16,703,778,0
270011,624.85,703,781,0
270021,595.75,703,777,0
270031,566.39,703,782,0
270041,537.21,703,778,0
270051,509.16,703,781,0
270061,482.54,703,777,0
270071,457.95,703,781,0
270081,435.64,703,778,0
270091,416.16,703,782,0
270101,399.18,703,777,0
270111,385.37,703,781,0
270121,374.37,703,777,0
270131,366.55,703,782,0
270141,361.41,703,777,0
270151,359.23,703,781,0
270161,359.12,703,777,0
270171,361.18,703,781,0
270181,364.51,703,777,0
270191,368.99,703,781,0
270201,373.66,703,777,0
270211,378.61,703,781,0
270221,382.71,703,777,0
270231,386.27,703,781,0
270241,388.59,703,777,0
270252,389.78,703,782,0
270262,389.42,703,777,0
270272,387.88,703,781,0
